Data from hue_350_FLMS001491_58.txt Node
Date: Mon Feb 06 15:38:14 GMT 2017
User: dcchb
Spectrometer: FLMS00149
Trigger mode: 0
Integration Time (sec): 2.000000E-2
Scans to average: 10
Electric dark correction enabled: true
Nonlinearity correction enabled: false
Boxcar width: 0
XAxis mode: Wavelengths
Number of Pixels in Spectrum: 2048
>>>>>Begin Spectral Data<<<<<
341.393	0.14
341.776	0.14
342.16	0.14
342.543	-70.82
342.927	-76.01
343.31	-40.08
343.693	-71.27
344.077	-69.01
344.46	-61.1
344.843	-31.27
345.226	-47.32
345.61	-32.85
345.993	-10.93
346.376	-17.26
346.759	3.76
347.142	13.47
347.525	35.39
347.908	73.36
348.291	66.13
348.674	89.4
349.057	99.57
349.44	127.37
349.823	145.67
350.206	176.18
350.588	199.46
350.971	200.36
351.354	215.5
351.737	246.46
352.119	232.9
352.502	260.25
352.884	272.45
353.267	280.13
353.65	294.82
354.032	297.76
354.414	307.93
354.797	331.21
355.179	342.28
355.562	312.9
355.944	322.62
356.326	336.4
356.709	335.27
357.091	329.85
357.473	336.4
357.855	339.34
358.238	347.93
358.62	338.44
359.002	333.92
359.384	340.02
359.766	324.65
360.148	333.69
360.53	335.05
360.912	326.46
361.294	348.38
361.676	347.93
362.057	339.79
362.439	332.79
362.821	330.3
363.203	317.65
363.584	328.95
363.966	310.19
364.348	329.17
364.729	313.35
365.111	316.74
365.493	308.83
365.874	316.52
366.256	311.09
366.637	297.08
367.019	301.83
367.4	330.98
367.781	316.74
368.163	301.38
368.544	310.42
368.925	319.68
369.306	347.25
369.688	307.25
370.069	310.42
370.45	327.14
370.831	328.04
371.212	311.55
371.593	312
371.974	309.51
372.355	303.64
372.736	316.74
373.117	298.21
373.498	307.25
373.879	311.09
374.26	322.84
374.641	316.29
375.021	316.52
375.402	309.06
375.783	317.87
376.163	290.08
376.544	305.67
376.925	320.81
377.305	307.7
377.686	292.79
378.066	326.46
378.447	317.2
378.827	342.05
379.208	316.52
379.588	349.74
379.968	310.42
380.349	322.39
380.729	334.37
381.109	331.21
381.489	337.76
381.87	336.86
382.25	326.23
382.63	315.84
383.01	330.08
383.39	339.57
383.77	324.88
384.15	333.92
384.53	330.3
384.91	339.34
385.29	322.17
385.67	332.34
386.049	325.33
386.429	351.54
386.809	325.1
387.189	333.24
387.568	336.86
387.948	331.43
388.328	327.82
388.707	339.12
389.087	354.93
389.466	315.61
389.846	339.12
390.225	344.76
390.605	334.6
390.984	357.42
391.363	373.01
391.743	351.54
392.122	354.48
392.501	370.53
392.881	362.84
393.26	357.65
393.639	365.78
394.018	380.47
394.397	367.14
394.776	354.03
395.155	377.53
395.534	369.62
395.913	337.08
396.292	367.14
396.671	352.67
397.05	365.78
397.429	366.23
397.808	379.34
398.186	379.34
398.565	360.58
398.944	372.11
399.323	373.24
399.701	366.91
400.08	372.79
400.458	392.22
400.837	378.21
401.215	368.95
401.594	387.02
401.972	379.11
402.351	396.51
402.729	390.19
403.107	404.65
403.486	397.19
403.864	405.78
404.242	393.13
404.62	409.17
404.999	396.29
405.377	396.29
405.755	389.74
406.133	418.21
406.511	409.17
406.889	427.93
407.267	428.6
407.645	417.98
408.023	425.44
408.401	406.68
408.779	418.66
409.156	393.35
409.534	460.02
409.912	438.32
410.29	425.44
410.667	447.59
411.045	425.44
411.422	425.67
411.8	450.98
412.178	438.77
412.555	463.63
412.933	426.57
413.31	450.75
413.687	438.55
414.065	455.27
414.442	493.91
414.819	474.48
415.197	446.46
415.574	481.03
415.951	479.9
416.328	473.12
416.705	494.37
417.082	501.6
417.46	490.52
417.837	501.82
418.214	508.38
418.591	483.74
418.967	472.22
419.344	499.34
419.721	502.95
420.098	514.7
420.475	503.4
420.852	513.57
421.228	512.67
421.605	522.84
421.982	494.37
422.358	516.06
422.735	544.08
423.111	546.34
423.488	507.92
423.864	557.64
424.241	535.27
424.617	559.67
424.994	532.33
425.37	559.67
425.746	567.13
426.123	543.18
426.499	547.02
426.875	570.52
427.251	576.17
427.627	591.31
428.003	580.69
428.379	601.71
428.756	572.78
429.132	614.14
429.507	585.21
429.883	617.07
430.259	627.7
430.635	597.87
431.011	578.66
431.387	630.63
431.763	625.21
432.138	620.69
432.514	642.61
432.89	648.49
433.265	630.18
433.641	656.4
434.016	652.1
434.392	655.94
434.767	635.15
435.143	663.4
435.518	666.34
435.894	674.02
436.269	693.23
436.644	665.66
437.02	715.15
437.395	690.74
437.77	705.89
438.145	700.24
438.52	704.76
438.895	715.6
439.271	707.92
439.646	730.74
440.021	739.78
440.395	731.42
440.77	729.84
441.145	718.54
441.52	735.49
441.895	720.35
442.27	774.36
442.645	751.76
443.019	771.19
443.394	747.24
443.769	763.51
444.143	757.64
444.518	759.9
444.892	768.71
445.267	781.14
445.641	780.01
446.016	788.82
446.39	798.31
446.764	797.41
447.139	779.1
447.513	815.49
447.887	793.11
448.262	795.37
448.636	792.44
449.01	801.93
449.384	826.33
449.758	836.28
450.132	829.05
450.506	818.42
450.88	824.07
451.254	813
451.628	816.84
452.002	847.12
452.376	851.64
452.75	871.08
453.123	864.98
453.497	855.71
453.871	855.49
454.244	878.08
454.618	882.83
454.992	922.83
455.365	883.06
455.739	900.91
456.112	894.36
456.486	901.81
456.859	930.29
457.232	937.74
457.606	939.1
457.979	929.38
458.352	942.94
458.725	977.52
459.099	965.99
459.472	977.52
459.845	985.65
460.218	987.69
460.591	1011.87
460.964	1019.32
461.337	1015.03
461.71	1003.05
462.083	1063.39
462.456	1014.8
462.829	1041.47
463.201	1082.15
463.574	1098.42
463.947	1054.58
464.32	1102.03
464.692	1085.08
465.065	1106.1
465.438	1109.26
465.81	1100.9
466.183	1128.7
466.555	1151.98
466.928	1131.86
467.3	1181.58
467.672	1181.35
468.045	1174.8
468.417	1214.12
468.789	1224.52
469.161	1222.48
469.534	1250.96
469.906	1278.07
470.278	1288.02
470.65	1292.54
471.022	1287.34
471.394	1322.37
471.766	1329.82
472.138	1338.86
472.51	1401.23
472.882	1395.13
473.253	1420.67
473.625	1415.7
473.997	1414.79
474.369	1454.11
474.74	1470.61
475.112	1492.31
475.484	1497.05
475.855	1558.52
476.227	1556.71
476.598	1612.3
476.97	1614.34
477.341	1633.77
477.713	1660.89
478.084	1673.54
478.455	1723.03
478.827	1753.77
479.198	1765.74
479.569	1794.44
479.94	1830.38
480.311	1822.01
480.682	1890.49
481.053	1915.8
481.424	1956.7
481.795	1986.53
482.166	2017.49
482.537	2034.44
482.908	2052.29
483.279	2088.45
483.65	2111.72
484.021	2243.47
484.391	2201.44
484.762	2252.29
485.133	2263.81
485.503	2273.3
485.874	2324.83
486.244	2344.94
486.615	2402.11
486.985	2436.46
487.356	2451.15
487.726	2502.67
488.097	2535.44
488.467	2537.25
488.837	2615.89
489.207	2609.79
489.578	2664.93
489.948	2685.04
490.318	2739.5
490.688	2767.53
491.058	2774.08
491.428	2807.3
491.798	2824.93
492.168	2870.12
492.538	2902.21
492.908	2967.29
493.278	2986.73
493.648	3033.28
494.017	3033.51
494.387	3044.81
494.757	3109.66
495.126	3141.3
495.496	3115.09
495.866	3193.96
496.235	3252.03
496.605	3229.21
496.974	3226.5
497.344	3235.08
497.713	3242.32
498.082	3321.64
498.452	3346.04
498.821	3374.06
499.19	3350.11
499.559	3414.74
499.928	3394.85
500.298	3456.55
500.667	3495.64
501.036	3439.15
501.405	3515.98
501.774	3514.17
502.143	3520.73
502.512	3546.04
502.88	3581.06
503.249	3599.37
503.618	3601.63
503.987	3638.24
504.356	3612.25
504.724	3641.4
505.093	3664.68
505.462	3712.81
505.83	3712.59
506.199	3729.08
506.567	3735.86
506.936	3757.1
507.304	3828.74
507.672	3795.75
508.041	3810.66
508.409	3857.44
508.777	3854.5
509.145	3822.41
509.514	3866.48
509.882	3906.03
510.25	3908.97
510.618	3940.6
510.986	3934.05
511.354	3943.54
511.722	3981.51
512.09	3997.55
512.458	4020.6
512.826	4061.05
513.193	4025.57
513.561	4030.09
513.929	4030.09
514.297	4071.67
514.664	4101.28
515.032	4106.02
515.4	4132.69
515.767	4115.51
516.135	4133.59
516.502	4112.8
516.869	4193.48
517.237	4230.09
517.604	4185.79
517.972	4205.23
518.339	4231.67
518.706	4231.89
519.073	4230.09
519.44	4260.59
519.808	4295.85
520.175	4280.93
520.542	4330.2
520.909	4317.32
521.276	4313.7
521.643	4344.89
522.009	4411.55
522.376	4387.37
522.743	4405.22
523.11	4422.17
523.477	4480.02
523.843	4519.57
524.21	4547.37
524.577	4528.84
524.943	4565.22
525.31	4592.79
525.676	4619
526.043	4619.23
526.409	4655.16
526.776	4722.73
527.142	4706.01
527.508	4706.01
527.874	4766.34
528.241	4740.13
528.607	4784.65
528.973	4802.5
529.339	4811.09
529.705	4852.67
530.071	4896.51
530.437	4868.71
530.803	4934.93
531.169	4963.4
531.535	4922.95
531.901	4953.23
532.267	4983.51
532.632	4996.62
532.998	4987.58
533.364	5043.85
533.73	5052.44
534.095	5086.79
534.461	5088.37
534.826	5101.25
535.192	5126.33
535.557	5205.65
535.923	5233.22
536.288	5202.94
536.653	5236.61
537.019	5240.23
537.384	5258.31
537.749	5287.46
538.114	5250.17
538.479	5285.65
538.845	5313
539.21	5354.58
539.575	5359.1
539.94	5404.97
540.305	5439.77
540.67	5436.83
541.034	5436.83
541.399	5479.09
541.764	5521.13
542.129	5561.35
542.494	5604.74
542.858	5585.53
543.223	5548.24
543.587	5634.12
543.952	5598.64
544.316	5657.17
544.681	5633.67
545.045	5694.68
545.41	5733.55
545.774	5742.14
546.138	5784.4
546.503	5808.12
546.867	5779.65
547.231	5877.05
547.595	5826.65
547.959	5855.13
548.324	5884.05
548.688	5925.41
549.052	5933.32
549.416	5938.52
549.779	5978.06
550.143	5976.26
550.507	6028.46
550.871	6071.62
551.235	5999.08
551.599	6063.26
551.962	6089.92
552.326	6136.48
552.689	6103.03
553.053	6128.12
553.417	6147.78
553.78	6246.3
554.143	6204.5
554.507	6284.27
554.87	6283.82
555.234	6273.42
555.597	6258.06
555.96	6278.39
556.323	6335.57
556.686	6287.21
557.05	6380.54
557.413	6341.9
557.776	6328.34
558.139	6437.94
558.502	6410.37
558.865	6429.35
559.228	6468.45
559.59	6493.53
559.953	6511.38
560.316	6560.42
560.679	6569.46
561.041	6565.17
561.404	6632.28
561.767	6627.76
562.129	6603.36
562.492	6657.14
562.854	6672.51
563.217	6631.15
563.579	6689.23
563.941	6782.79
564.304	6797.02
564.666	6796.57
565.028	6800.41
565.39	6842
565.753	6898.49
566.115	6908.89
566.477	6907.3
566.839	6891.94
567.201	6957.92
567.563	6998.38
567.925	6936.68
568.287	6986.85
568.648	7052.16
569.01	7105.04
569.372	7182.78
569.734	7157.47
570.095	7189.33
570.457	7207.64
570.819	7206.28
571.18	7231.36
571.542	7303.45
571.903	7267.29
572.265	7383.45
572.626	7410.34
572.987	7409.66
573.349	7456.44
573.71	7557.23
574.071	7549.32
574.432	7573.5
574.794	7755.64
575.155	7770.56
575.516	7722.65
575.877	7872.48
576.238	7915.87
576.599	7976.43
576.96	8066.14
577.32	8038.12
577.681	8177.55
578.042	8275.86
578.403	8290.09
578.763	8392.24
579.124	8470.43
579.485	8537.32
579.845	8733.02
580.206	8740.02
580.566	8843.98
580.927	8926.91
581.287	9140.47
581.648	9222.95
582.008	9387.01
582.368	9506.78
582.728	9672.66
583.089	9719.43
583.449	9928.47
583.809	10012.76
584.169	10147.9
584.529	10356.71
584.889	10582.24
585.249	10671.73
585.609	10818.39
585.969	11067.87
586.329	11223.57
586.688	11457.92
587.048	11711.7
587.408	11821.3
587.768	12140.84
588.127	12349.42
588.487	12515.29
588.846	12828.73
589.206	13040.7
589.565	13263.3
589.925	13550.52
590.284	13740.57
590.643	14063.05
591.003	14275.25
591.362	14531.28
591.721	14881.33
592.08	15121.55
592.44	15386.18
592.799	15726.73
593.158	15827.52
593.517	16153.61
593.876	16538.24
594.235	16723.32
594.593	17053.7
594.952	17310.65
595.311	17621.15
595.67	17916.05
596.029	18299.77
596.387	18635.81
596.746	18933.88
597.104	19175
597.463	19455.45
597.822	19789.9
598.18	20085.71
598.538	20315.77
598.897	20794.85
599.255	20812.02
599.613	21466.47
599.972	21566.81
600.33	21879.57
600.688	22136.73
601.046	22542.37
601.404	22734.46
601.762	23048.35
602.12	23364.5
602.478	23670.71
602.836	24032.05
603.194	24123.12
603.552	24451.93
603.91	24557.01
604.268	24895.31
604.625	25240.16
604.983	25465.46
605.341	25632.69
605.698	25988.16
606.056	26360.58
606.413	26605.32
606.771	26965.53
607.128	27079.66
607.485	27189.93
607.843	27533.88
608.2	27878.28
608.557	28112.85
608.914	28315.1
609.272	28576.79
609.629	28819.72
609.986	29083.22
610.343	29224.91
610.7	29604.11
611.057	29747.83
611.414	29906.02
611.771	29900.6
612.127	30374.71
612.484	30646.12
612.841	30815.15
613.198	30856.05
613.554	31063.28
613.911	31386.21
614.267	31518.41
614.624	31642.93
614.98	31798.63
615.337	32080.88
615.693	32274.32
616.05	32309.35
616.406	32597.25
616.762	32630.02
617.118	32859.16
617.475	33013.96
617.831	33206.73
618.187	33375.53
618.543	33570.56
618.899	33762.64
619.255	33898.91
619.611	33824.79
619.967	34192.69
620.323	34351.1
620.678	34324.44
621.034	34379.8
621.39	34395.62
621.746	34527.37
622.101	35038.54
622.457	34854.59
622.812	35050.29
623.168	35105.43
623.523	35165.77
623.879	35303.17
624.234	35198.99
624.589	35448.7
624.945	35630.62
625.3	35673.78
625.655	35779.09
626.01	35712.42
626.365	35861.12
626.72	35939.99
627.075	36066.09
627.43	36103.82
627.785	35947.9
628.14	36147.67
628.495	36268.34
628.85	36385.17
629.205	36436.47
629.559	36664.94
629.914	36337.94
630.269	36518.73
630.623	36400.99
630.978	36490.03
631.332	36624.49
631.687	36727.09
632.041	36527.99
632.396	36641.44
632.75	36545.85
633.104	36676.92
633.459	36504.49
633.813	36566.86
634.167	36569.8
634.521	36681.21
634.875	36720.31
635.229	36695.67
635.583	36704.03
635.937	36686.41
636.291	36772.06
636.645	36684.6
636.999	36575.9
637.352	36705.84
637.706	36520.54
638.06	36649.57
638.413	36554.21
638.767	36690.02
639.121	36679.4
639.474	36586.98
639.828	36583.59
640.181	36639.4
640.534	36770.25
640.888	36572.51
641.241	36501.33
641.594	36628.1
641.947	36690.25
642.301	36590.37
642.654	36692.74
643.007	36550.37
643.36	36564.83
643.713	36535.68
644.066	36718.72
644.419	36313.31
644.771	36318.96
645.124	35889.14
645.477	35886.2
645.83	35839.65
646.182	35584.52
646.535	35417.06
646.888	35597.4
647.24	35431.3
647.593	35630.16
647.945	35527.57
648.298	35139.33
648.65	35351.3
649.002	35281.25
649.355	35573.67
649.707	35363.96
650.059	35532.77
650.411	35846.88
650.763	35832.65
651.115	36394.44
651.467	36370.94
651.819	36132.75
652.171	36210.94
652.523	36129.13
652.875	36107.44
653.227	35924.62
653.578	36167.1
653.93	36145.18
654.282	35915.13
654.633	35924.17
654.985	36001.45
655.337	36024.28
655.688	36038.74
656.039	36128.91
656.391	35779.99
656.742	35787.22
657.094	35958.52
657.445	36019.99
657.796	35917.16
658.147	35829.93
658.498	35888.01
658.849	35955.13
659.2	35822.7
659.551	35791.74
659.902	35947.67
660.253	35859.99
660.604	35992.42
660.955	35696.6
661.306	35834.68
661.656	35787.45
662.007	35699.09
662.358	35824.06
662.708	35759.65
663.059	35740.44
663.409	35499.55
663.76	35765.98
664.11	35707.9
664.461	35738.64
664.811	35830.16
665.161	35785.41
665.511	35820.89
665.862	35646.44
666.212	35854.57
666.562	35821.57
666.912	35629.94
667.262	35563.05
667.612	35736.38
667.962	35789.71
668.312	35807.56
668.662	35806.88
669.011	35762.82
669.361	35509.49
669.711	35667.23
670.06	35604.85
670.41	35516.27
670.76	35656.83
671.109	35763.72
671.459	35569.83
671.808	35432.43
672.157	35631.75
672.507	35346.56
672.856	35282.15
673.205	35538.64
673.554	35520.79
673.904	35445.08
674.253	35540.22
674.602	35432.2
674.951	34839.45
675.3	34742.96
675.649	35369.83
675.998	35372.32
676.346	35327.12
676.695	35325.99
677.044	35173.23
677.393	35395.82
677.741	35322.83
678.09	35173.45
678.438	35078.99
678.787	35251.42
679.135	35142.95
679.484	34906.12
679.832	35126.9
680.181	35005.32
680.529	35049.84
680.877	34897.3
681.225	35037.19
681.573	35031.31
681.922	34725.33
682.27	34721.04
682.618	34646.91
682.966	34660.02
683.314	34724.2
683.661	34493.25
684.009	34507.48
684.357	34443.08
684.705	34373.7
685.053	34397.43
685.4	34318.79
685.748	34106.14
686.095	34312.46
686.443	34185.01
686.79	34065.01
687.138	34180.26
687.485	34068.17
687.832	33942.53
688.18	34015.97
688.527	33796.77
688.874	33802.42
689.221	33672.93
689.568	33618.01
689.915	33587.73
690.262	33635.19
690.609	33413.27
690.956	33432.93
691.303	33286.05
691.65	33045.37
691.997	33159.95
692.344	33021.42
692.69	33024.13
693.037	32961.53
693.383	32743.24
693.73	32885.6
694.077	32591.83
694.423	32598.15
694.769	32544.14
695.116	32370.59
695.462	32400.65
695.808	32300.08
696.155	32397.26
696.501	32107.32
696.847	32129.47
697.193	31986.87
697.539	31974.44
697.885	31773.54
698.231	31692.42
698.577	31673.66
698.923	31599.99
699.269	31462.82
699.614	31294.69
699.96	31219.43
700.306	31305.53
700.651	31118.87
700.997	31028.7
701.342	30997.97
701.688	30935.37
702.033	30896.05
702.379	30873.68
702.724	30703.29
703.069	30929.05
703.415	30386.69
703.76	30455.39
704.105	30478.89
704.45	30332.23
704.795	30298.55
705.14	30200.93
705.485	30105.34
705.83	30018.56
706.175	30080.48
706.52	29960.48
706.865	29917.55
707.209	29814.27
707.554	29623.32
707.899	29711.9
708.243	29653.15
708.588	29639.14
708.932	29420.16
709.277	29428.97
709.621	29310.78
709.966	29183.55
710.31	29199.6
710.654	29007.74
710.998	29098.36
711.342	29101.52
711.687	29048.87
712.031	28933.84
712.375	28878.93
712.719	28813.85
713.063	28802.55
713.407	28696.11
713.75	28758.03
714.094	28610.24
714.438	28530.69
714.782	28556.68
715.125	28435.1
715.469	28450.01
715.812	28288.44
716.156	28108.33
716.499	28168.21
716.843	28190.59
717.186	27939.52
717.53	28074.21
717.873	28130.25
718.216	27949.46
718.559	27958.05
718.902	27676.7
719.246	27772.52
719.589	27580.88
719.932	27561.68
720.275	27557.38
720.617	27679.19
720.96	27499.76
721.303	27524.62
721.646	27519.19
721.989	27243.72
722.331	27466.76
722.674	27294.11
723.016	27363.26
723.359	27229.93
723.701	27287.56
724.044	27189.26
724.386	26951.07
724.729	27050.96
725.071	27085.53
725.413	27010.28
725.755	26933.67
726.097	26794.46
726.439	26774.35
726.782	26752.21
727.124	26945.65
727.465	26732.77
727.807	26723.96
728.149	26603.96
728.491	26488.03
728.833	26622.49
729.175	26505.66
729.516	26417.75
729.858	26490.74
730.199	26488.94
730.541	26336.85
730.882	26187.48
731.224	26378.88
731.565	26151.32
731.906	26209.62
732.248	26210.75
732.589	26040.81
732.93	26003.98
733.271	25930.98
733.612	26010.3
733.953	26129.17
734.294	25891.66
734.635	25810.31
734.976	25910.42
735.317	25832.91
735.658	25807.82
735.999	25781.84
736.339	25709.97
736.68	25747.03
737.021	25643.08
737.361	25490.77
737.702	25730.54
738.042	25655.06
738.383	25506.82
738.723	25519.7
739.063	25479.92
739.404	25429.98
739.744	25333.26
740.084	25317.67
740.424	25271.79
740.764	25206.71
741.104	25374.16
741.444	25152.47
741.784	25119.93
742.124	25243.55
742.464	25091.91
742.804	25000.61
743.143	24973.27
743.483	25079.03
743.823	24896.66
744.162	24831.35
744.502	24881.75
744.841	24656.22
745.181	24891.46
745.52	24730.56
745.86	24730.11
746.199	24657.35
746.538	24580.51
746.877	24679.27
747.216	24648.76
747.556	24583.45
747.895	24684.69
748.234	24506.62
748.573	24518.82
748.911	24491.25
749.25	24495.77
749.589	24266.17
749.928	24383.23
750.267	24335.77
750.605	24232.27
750.944	24114.54
751.283	24107.53
751.621	24201.54
751.96	24050.81
752.298	24036.12
752.636	24109.79
752.975	23798.16
753.313	23823.02
753.651	23912.28
753.989	23857.59
754.327	23761.1
754.666	23667.32
755.004	23632.29
755.342	23690.82
755.679	23568.56
756.017	23541.22
756.355	23532.18
756.693	23427.77
757.031	23414.21
757.368	23275.46
757.706	23237.04
758.044	23235.24
758.381	23305.07
758.719	23116.82
759.056	23197.72
759.394	23071.62
759.731	22909.82
760.068	22960.89
760.405	22836.6
760.743	22863.95
761.08	22707.79
761.417	22639.32
761.754	22614.24
762.091	22529.72
762.428	22484.75
762.765	22406.56
763.102	22471.19
763.438	22330.18
763.775	22162.72
764.112	22154.36
764.449	22312.32
764.785	22113.46
765.122	21900.13
765.458	21900.58
765.795	21891.77
766.131	21798.44
766.467	21810.19
766.804	21658.55
767.14	21526.81
767.476	21587.82
767.812	21476.19
768.148	21466.02
768.485	21227.15
768.821	21222.86
769.157	21183.54
769.492	21132.24
769.828	21038.68
770.164	20832.81
770.5	20810.22
770.836	20838.01
771.171	20727.96
771.507	20678.02
771.842	20544.46
772.178	20553.73
772.513	20512.37
772.849	20422.66
773.184	20317.12
773.519	20356.22
773.855	20205.26
774.19	20095.88
774.525	20060.63
774.86	20029.45
775.195	19987.64
775.53	19846.63
775.865	19765.95
776.2	19679.85
776.535	19599.63
776.87	19604.6
777.205	19465.62
777.539	19430.59
777.874	19433.53
778.209	19136.36
778.543	19203.7
778.878	19145.63
779.212	19074.67
779.547	19041.67
779.881	18953.09
780.215	18768.24
780.55	18903.37
780.884	18716.71
781.218	18659.54
781.552	18733.43
781.886	18636.04
782.22	18457.51
782.554	18468.13
782.888	18282.82
783.222	18207.12
783.556	18108.14
783.889	18045.54
784.223	18002.38
784.557	17934.58
784.89	18039.89
785.224	17833.57
785.557	17823.18
785.891	17751.09
786.224	17671.99
786.558	17732.78
786.891	17498.66
787.224	17407.59
787.557	17421.6
787.891	17311.78
788.224	17414.82
788.557	17251.44
788.89	17293.7
789.223	17281.72
789.556	17099.35
789.888	17000.82
790.221	17024.1
790.554	16875.18
790.887	16924.67
791.219	16795.63
791.552	16685.35
791.884	16646.03
792.217	16688.74
792.549	16628.18
792.882	16469.54
793.214	16386.6
793.546	16441.52
793.879	16285.36
794.211	16198.81
794.543	16292.59
794.875	16216.89
795.207	16194.74
795.539	16050.79
795.871	16147.74
796.203	15848.31
796.535	15856.22
796.867	15879.27
797.198	15745.72
797.53	15799.05
797.862	15653.06
798.193	15704.36
798.525	15548.43
798.856	15725.38
799.188	15476.12
799.519	15393.41
799.85	15296.24
800.182	15313.41
800.513	15364.48
800.844	15189.35
801.175	15215.33
801.506	15165.62
801.837	15152.06
802.168	15047.66
802.499	15079.07
802.83	14936.25
803.161	14891.05
803.491	14869.13
803.822	14836.14
804.153	14884.27
804.483	14751.39
804.814	14649.47
805.145	14649.02
805.475	14681.11
805.805	14548.69
806.136	14572.87
806.466	14526.76
806.796	14422.81
807.126	14361.12
807.457	14345.53
807.787	14390.72
808.117	14239.54
808.447	14160.22
808.777	14383.94
809.107	14285.19
809.436	14170.62
809.766	14188.02
810.096	14088.58
810.426	14020.79
810.755	14057.4
811.085	14017.17
811.414	14015.14
811.744	13811.53
812.073	13850.62
812.403	13746.9
812.732	13679.1
813.061	13793.22
813.39	13649.73
813.719	13653.34
814.049	13689.5
814.378	13601.82
814.707	13504.42
815.036	13544.64
815.365	13386.46
815.693	13348.94
816.022	13406.34
816.351	13402.73
816.68	13282.96
817.008	13341.03
817.337	13158.67
817.665	13130.87
817.994	13193.47
818.322	13152.34
818.651	13079.8
818.979	13028.95
819.307	13162.06
819.636	13081.61
819.964	12990.99
820.292	12981.49
820.62	13006.8
820.948	12963.87
821.276	13004.77
821.604	12955.28
821.932	12974.04
822.259	13009.29
822.587	12935.17
822.915	12889.75
823.243	12907.82
823.57	12878.45
823.898	12870.76
824.225	12847.49
824.553	12834.61
824.88	12809.52
825.207	12898.56
825.535	12920.48
825.862	12915.96
826.189	12852.68
826.516	12933.36
826.843	12881.61
827.17	12880.25
827.497	12908.95
827.824	12864.66
828.151	12909.63
828.478	12881.38
828.805	12956.64
829.131	12824.44
829.458	12854.49
829.785	12714.61
830.111	12803.19
830.438	12835.74
830.764	12834.38
831.09	12859.46
831.417	12802.29
831.743	12787.6
832.069	12819.01
832.395	12769.07
832.722	12781.73
833.048	12715.97
833.374	12762.07
833.7	12668.06
834.026	12727.49
834.351	12710.77
834.677	12757.77
835.003	12698.79
835.329	12685.46
835.654	12635.29
835.98	12657.66
836.306	12635.06
836.631	12559.13
836.956	12532.47
837.282	12558
837.607	12503.54
837.932	12521.39
838.258	12527.04
838.583	12486.59
838.908	12456.54
839.233	12492.69
839.558	12376.54
839.883	12348.74
840.208	12330.21
840.533	12351.23
840.858	12378.8
841.182	12358.46
841.507	12301.96
841.832	12268.07
842.156	12258.12
842.481	12193.27
842.805	12182.42
843.13	12131.8
843.454	12111.24
843.778	12088.64
844.103	12031.01
844.427	12022.2
844.751	12080.73
845.075	12022.65
845.399	12006.83
845.723	11958.92
846.047	11922.31
846.371	11757.57
846.695	11814.29
847.019	11718.48
847.343	11695.88
847.666	11537.01
847.99	11501.53
848.313	11544.92
848.637	11472.38
848.96	11408.2
849.284	11433.06
849.607	11386.28
849.931	11261.09
850.254	11220.86
850.577	11163.01
850.9	11059.06
851.223	11073.75
851.546	11036.24
851.869	11009.34
852.192	11024.26
852.515	10929.12
852.838	10815
853.161	10839.18
853.483	10777.94
853.806	10790.37
854.129	10752.4
854.451	10706.53
854.774	10678.96
855.096	10643.48
855.419	10606.87
855.741	10541.78
856.063	10539.75
856.385	10491.84
856.708	10428.12
857.03	10461.11
857.352	10444.84
857.674	10314.45
857.996	10363.26
858.318	10211.62
858.64	10248.69
858.961	10271.51
859.283	10171.85
859.605	10177.5
859.926	10208.69
860.248	10093.21
860.57	10104.96
860.891	10099.99
861.212	10047.33
861.534	10060.44
861.855	9993.32
862.176	10070.84
862.498	9975.7
862.819	10003.27
863.14	9932.31
863.461	9898.41
863.782	9911.97
864.103	9913.55
864.424	9856.15
864.745	9869.94
865.065	9822.03
865.386	9817.28
865.707	9732.09
866.027	9794.69
866.348	9784.74
866.668	9845.53
866.989	9738.19
867.309	9640.11
867.63	9718.53
867.95	9678.76
868.27	9586.1
868.59	9595.6
868.91	9602.6
869.23	9608.93
869.55	9594.69
869.87	9644.63
870.19	9584.3
870.51	9605.31
870.83	9545.65
871.15	9477.18
871.469	9425.2
871.789	9485.54
872.109	9457.75
872.428	9431.31
872.748	9467.46
873.067	9448.71
873.386	9406
873.706	9397.86
874.025	9383.4
874.344	9329.61
874.663	9370.74
874.982	9347.47
875.301	9311.31
875.62	9291.2
875.939	9312.66
876.258	9278.32
876.577	9237.41
876.896	9147.47
877.214	9161.26
877.533	9251.2
877.852	9179.56
878.17	9185.89
878.489	9116.51
878.807	9102.27
879.125	9151.09
879.444	9067.7
879.762	9112.22
880.08	9058.89
880.398	9043.52
880.716	9095.5
881.034	9017.98
881.352	8987.93
881.67	8959.45
881.988	8984.54
882.306	8952.45
882.624	8918.32
882.941	8912
883.259	8848.27
883.577	8877.65
883.894	8857.54
884.212	8822.51
884.529	8793.36
884.846	8828.38
885.164	8731.44
885.481	8778.67
885.798	8700.48
886.115	8738.89
886.432	8591.1
886.75	8664.32
887.067	8671.1
887.383	8616.19
887.7	8651.21
888.017	8570.09
888.334	8570.31
888.651	8445.12
888.967	8540.48
889.284	8504.55
889.6	8442.41
889.917	8368.51
890.233	8405.12
890.55	8398.11
890.866	8368.06
891.182	8360.15
891.498	8295.29
891.815	8271.79
892.131	8327.38
892.447	8236.99
892.763	8186.59
893.079	8200.83
893.395	8198.8
893.71	8095.75
894.026	8131.9
894.342	8097.33
894.657	8036.54
894.973	8076.09
895.289	8088.74
895.604	8035.18
895.92	7981.17
896.235	7879.93
896.55	7891.01
896.865	7894.85
897.181	7878.8
897.496	7856.66
897.811	7814.17
898.126	7760.16
898.441	7762.87
898.756	7744.12
899.071	7671.58
899.386	7758.58
899.7	7657.57
900.015	7607.17
900.33	7619.15
900.644	7490.11
900.959	7523.79
901.273	7490.79
901.588	7447.63
901.902	7492.6
902.216	7390.23
902.531	7370.79
902.845	7362.21
903.159	7370.79
903.473	7363.56
903.787	7296.67
904.101	7279.27
904.415	7314.3
904.729	7207.86
905.042	7229.1
905.356	7188.88
905.67	7179.61
905.984	7148.43
906.297	7119.73
906.611	7035.66
906.924	7016.68
907.237	7007.64
907.551	6977.81
907.864	6978.71
908.177	6900.3
908.491	6928.32
908.804	6823.46
909.117	6871.15
909.43	6809.45
909.743	6738.27
910.056	6813.97
910.368	6729
910.681	6733.07
910.994	6664.6
911.307	6661.21
911.619	6665.05
911.932	6651.27
912.244	6580.08
912.557	6582.34
912.869	6492.85
913.181	6481.33
913.494	6491.95
913.806	6431.84
914.118	6423.02
914.43	6352.52
914.742	6423.93
915.054	6362.23
915.366	6346.87
915.678	6332.4
915.99	6267.32
916.302	6225.51
916.613	6223.93
916.925	6187.78
917.236	6178.06
917.548	6119.08
917.859	6121.79
918.171	6110.26
918.482	6031.4
918.794	6052.19
919.105	6023.71
919.416	5988.23
919.727	5986.65
920.038	5997.95
920.349	5893.77
920.66	5863.94
920.971	5877.05
921.282	5849.25
921.593	5795.47
921.903	5758.86
922.214	5792.31
922.525	5750.27
922.835	5731.97
923.146	5684.29
923.456	5707.11
923.767	5634.34
924.077	5625.76
924.387	5621.69
924.697	5569.26
925.008	5525.42
925.318	5522.71
925.628	5535.36
925.938	5488.58
926.248	5456.95
926.558	5374.46
926.867	5421.92
927.177	5452.65
927.487	5324.07
927.796	5324.52
928.106	5320.91
928.416	5278.87
928.725	5298.31
929.034	5248.82
929.344	5297.18
929.653	5242.72
929.962	5168.37
930.271	5110.74
930.581	5174.24
930.89	5141.47
931.199	5132.66
931.508	5095.6
931.817	5048.6
932.125	5059.9
932.434	5036.84
932.743	4973.34
933.051	5009.5
933.36	4976.28
933.669	4918.66
933.977	4901.48
934.286	4883.85
934.594	4882.95
934.902	4859.9
935.21	4814.93
935.519	4793.69
935.827	4781.71
936.135	4755.04
936.443	4718.66
936.751	4738.55
937.059	4746.91
937.367	4698.1
937.674	4659.68
937.982	4649.28
938.29	4630.53
938.597	4618.55
938.905	4579.46
939.213	4586.24
939.52	4540.36
939.827	4596.86
940.135	4495.84
940.442	4513.02
940.749	4477.76
941.056	4479.35
941.363	4391.89
941.67	4437.54
941.977	4395.73
942.284	4389.4
942.591	4410.87
942.898	4346.92
943.205	4309.18
943.511	4305.79
943.818	4304.21
944.125	4252.91
944.431	4283.64
944.738	4238.22
945.044	4233.02
945.35	4199.35
945.657	4186.47
945.963	4176.3
946.269	4150.09
946.575	4101.5
946.881	4116.19
947.187	4122.29
947.493	4074.38
947.799	4032.8
948.105	4066.02
948.41	4026.25
948.716	4007.72
949.022	3985.35
949.327	4008.62
949.633	3930.43
949.938	3959.59
950.244	3900.83
950.549	3910.32
950.854	3888.17
951.16	3854.5
951.465	3882.98
951.77	3858.57
952.075	3804.11
952.38	3812.24
952.685	3832.58
952.99	3777.22
953.294	3763.21
953.599	3753.71
953.904	3718.69
954.209	3700.38
954.513	3702.42
954.818	3661.29
955.122	3682.53
955.426	3660.84
955.731	3624.23
956.035	3641.18
956.339	3605.02
956.643	3599.14
956.948	3563.66
957.252	3542.42
957.556	3530.9
957.86	3522.08
958.163	3533.38
958.467	3467.39
958.771	3493.16
959.075	3481.41
959.378	3429.43
959.682	3414.97
959.985	3396.44
960.289	3402.31
960.592	3361.18
960.896	3376.78
961.199	3356.66
961.502	3356.89
961.805	3321.41
962.108	3316.21
962.411	3277.34
962.714	3291.58
963.017	3288.42
963.32	3260.39
963.623	3250
963.926	3257.68
964.228	3245.71
964.531	3189.21
964.833	3217.23
965.136	3165.93
965.438	3175.65
965.741	3148.08
966.043	3108.31
966.345	3130.91
966.648	3118.25
966.95	3120.06
967.252	3104.24
967.554	3059.72
967.856	3032.83
968.158	3058.37
968.46	3033.06
968.761	3007.29
969.063	2988.54
969.365	3005.71
969.666	2959.84
969.968	2933.17
970.269	2945.15
970.571	2951.48
970.872	2965.26
971.174	2905.6
971.475	2914.19
971.776	2885.72
972.077	2914.41
972.378	2888.65
972.679	2824.7
972.98	2828.54
973.281	2857.47
973.582	2809.56
973.883	2809.56
974.183	2796.23
974.484	2769.33
974.785	2768.66
975.085	2755.32
975.386	2786.73
975.686	2745.15
975.986	2757.36
976.287	2713.74
976.587	2653.86
976.887	2677.13
977.187	2679.17
977.487	2673.97
977.787	2622.22
978.087	2654.31
978.387	2622.9
978.687	2606.85
978.987	2609.11
979.286	2583.58
979.586	2609.79
979.885	2576.34
980.185	2546.29
980.484	2546.97
980.784	2540.87
981.083	2570.02
981.382	2504.26
981.682	2492.05
981.981	2502.9
982.28	2467.42
982.579	2461.32
982.878	2469.45
983.177	2460.64
983.475	2461.32
983.774	2418.83
984.073	2384.94
984.372	2402.11
984.67	2390.59
984.969	2430.36
985.267	2386.07
985.566	2375.67
985.864	2338.16
986.162	2342.9
986.461	2344.71
986.759	2328.89
987.057	2293.87
987.355	2284.15
987.653	2314.43
987.951	2268.78
988.249	2285.28
988.547	2276.01
988.844	2266.52
989.142	2238.27
989.44	2239.63
989.737	2204.38
990.035	2207.54
990.332	2219.29
990.63	2216.81
990.927	2196.24
991.224	2198.73
991.521	2164.83
991.819	2158.5
992.116	2170.03
992.413	2140.65
992.71	2146.3
993.006	2125.51
993.303	2099.3
993.6	2104.27
993.897	2086.41
994.193	2090.93
994.49	2077.6
994.787	2067.66
995.083	2055.68
995.379	2064.72
995.676	2015.91
995.972	2033.76
996.268	2012.97
996.565	1990.15
996.861	1956.25
997.157	1982.24
997.453	1976.13
997.749	1963.71
998.044	1960.77
998.34	1923.93
998.636	1952.86
998.932	1918.51
999.227	1917.83
999.523	1918.96
999.818	1890.49
1000.114	1895.68
1000.409	1884.16
1000.704	1866.98
1001	1872.63
1001.295	1859.75
1001.59	1826.08
1001.885	1842.58
1002.18	1820.88
1002.475	1848.91
1002.77	1783.37
1003.065	1777.72
1003.359	1777.5
1003.654	1761
1003.949	1795.8
1004.243	1753.99
1004.538	1766.65
1004.832	1741.34
1005.127	1745.18
1005.421	1721
1005.715	1708.34
1006.009	1693.2
1006.304	1690.94
1006.598	1666.99
1006.892	1667.89
1007.186	1660.66
1007.48	1666.54
1007.773	1665.18
1008.067	1641.45
1008.361	1617.95
1008.655	1606.43
1008.948	1584.96
1009.242	1603.26
1009.535	1598.07
1009.829	1578.86
1010.122	1579.53
1010.415	1574.79
1010.708	1564.85
1011.001	1550.16
1011.295	1520.78
1011.588	1507.22
1011.881	1540.44
1012.173	1529.14
1012.466	1509.71
1012.759	1465.19
1013.052	1481.01
1013.344	1502.47
1013.637	1505.64
1013.93	1481.68
1014.222	1416.6
1014.514	1452.08
1014.807	1445.3
1015.099	1441.91
1015.391	1374.57
1015.683	1418.18
1015.976	1420.89
1016.268	1399.65
1016.56	1393.32
1016.851	1383.38
1017.143	1391.74
1017.435	1360.11
1017.727	1371.18
1018.018	1354
1018.31	1358.52
1018.602	1308.81
1018.893	1342.25
1019.185	1307.9
1019.476	1296.6
1019.767	1297.73
1020.058	1301.58
1020.35	1264.51
1020.641	1250.73
1020.932	1247.34
1021.223	1249.6
1021.514	1276.49
1021.804	1246.44
1022.095	1228.13
1022.386	1255.48
1022.677	1247.79
1022.967	1248.92
1023.258	1191.07
1023.548	1225.65
1023.839	1201.24
1024.129	1200.56
1024.419	1154.24
1024.709	1155.59
1025	1185.19
1025.29	1172.09
1025.58	1150.39
1025.87	1151.3
1026.16	1143.39
1026.449	1145.42
1026.739	1140.9
1027.029	1125.08
1027.319	1087.57
1027.608	1113.78
1027.898	1083.05
1028.187	1086.21
1028.477	1096.38
1028.766	1061.13
1029.055	1055.03
1029.344	1055.48
1029.634	1046.22
1029.923	1038.76
1030.212	1046.22
1030.501	1038.31
1030.79	1013
1031.078	1005.31
1031.367	1001.7
1031.656	994.24
1031.945	1014.58
1032.233	1006.22
1032.522	975.71
1032.81	959.21
1033.099	987.69
1033.387	955.37
1033.675	971.87
1033.963	987.23
1034.251	975.03
1034.54	974.13
1034.828	973.45
1035.116	935.48
1035.403	949.72
1035.691	914.24
1035.979	929.83
1036.267	917.18
1036.554	901.59
1036.842	909.72
1037.129	901.36
1037.417	902.94
1037.704	868.82
1037.992	894.36
1038.279	874.47
1038.566	888.71
1038.853	888.71
1039.14	888.71
