Data from hue_10_FLMS001491_38.txt Node
Date: Mon Feb 06 15:31:49 GMT 2017
User: dcchb
Spectrometer: FLMS00149
Trigger mode: 0
Integration Time (sec): 2.000000E-2
Scans to average: 10
Electric dark correction enabled: true
Nonlinearity correction enabled: false
Boxcar width: 0
XAxis mode: Wavelengths
Number of Pixels in Spectrum: 2048
>>>>>Begin Spectral Data<<<<<
341.393	7.74
341.776	7.74
342.16	7.74
342.543	-57.12
342.927	-68.42
343.31	-58.25
343.693	-63.9
344.077	-62.31
344.46	-66.38
344.843	-59.38
345.226	-40.85
345.61	-25.48
345.993	-19.83
346.376	-3.33
346.759	5.03
347.142	27.17
347.525	35.76
347.908	47.74
348.291	70.11
348.674	103.1
349.057	110.79
349.44	124.35
349.823	143.33
350.206	149.43
350.588	179.94
350.971	198.02
351.354	207.28
351.737	235.98
352.119	232.14
352.502	257.22
352.884	288.64
353.267	269.65
353.65	272.59
354.032	291.57
354.414	289.77
354.797	307.62
355.179	325.02
355.562	303.1
355.944	316.88
356.326	321.4
356.709	310.78
357.091	310.78
357.473	327.28
357.855	333.38
358.238	348.75
358.62	344.91
359.002	329.77
359.384	334.74
359.766	342.42
360.148	308.97
360.53	325.47
360.912	342.65
361.294	326.83
361.676	313.95
362.057	327.05
362.439	325.02
362.821	319.14
363.203	320.05
363.584	285.92
363.966	310.1
364.348	310.56
364.729	315.75
365.111	324.34
365.493	316.88
365.874	295.87
366.256	305.36
366.637	313.95
367.019	289.54
367.4	307.17
367.781	322.08
368.163	298.81
368.544	302.2
368.925	289.77
369.306	313.27
369.688	318.24
370.069	290.22
370.45	298.81
370.831	299.94
371.212	310.56
371.593	305.13
371.974	314.62
372.355	301.29
372.736	290.9
373.117	290.9
373.498	300.16
373.879	322.08
374.26	315.75
374.641	276.89
375.021	305.59
375.402	318.01
375.783	280.95
376.163	322.99
376.544	310.56
376.925	322.99
377.305	299.71
377.686	316.66
378.066	308.3
378.447	322.99
378.827	326.15
379.208	313.27
379.588	320.27
379.968	320.73
380.349	323.66
380.729	323.21
381.109	328.18
381.489	304.23
381.87	318.24
382.25	344.68
382.63	331.57
383.01	333.16
383.39	323.66
383.77	320.27
384.15	341.06
384.53	332.7
384.91	355.75
385.29	327.96
385.67	332.7
386.049	339.48
386.429	324.12
386.809	335.41
387.189	337.45
387.568	333.83
387.948	332.93
388.328	337.45
388.707	341.97
389.087	332.25
389.466	320.05
389.846	334.28
390.225	331.12
390.605	355.3
390.984	353.04
391.363	343.78
391.743	336.32
392.122	331.57
392.501	356.21
392.881	377.22
393.26	357.56
393.639	353.27
394.018	354.17
394.397	362.76
394.776	362.08
395.155	351.91
395.534	369.31
395.913	364.79
396.292	361.63
396.671	356.88
397.05	377.67
397.429	343.55
397.808	353.04
398.186	362.31
398.565	359.37
398.944	381.74
399.323	381.06
399.701	358.69
400.08	375.87
400.458	368.86
400.837	374.28
401.215	375.64
401.594	385.13
401.972	378.35
402.351	388.07
402.729	359.37
403.107	371.57
403.486	388.97
403.864	377
404.242	373.15
404.62	376.09
404.999	375.64
405.377	405.47
405.755	389.42
406.133	391.01
406.511	389.42
406.889	431.46
407.267	415.41
407.645	397.33
408.023	412.7
408.401	410.67
408.779	418.35
409.156	446.15
409.534	415.86
409.912	422.42
410.29	416.99
410.667	441.63
411.045	426.94
411.422	442.76
411.8	435.07
412.178	440.95
412.555	435.75
412.933	447.95
413.31	443.21
413.687	448.41
414.065	445.24
414.442	426.49
414.819	449.76
415.197	453.6
415.574	464
415.951	458.8
416.328	453.38
416.705	484.11
417.082	467.84
417.46	447.73
417.837	485.02
418.214	465.35
418.591	472.36
418.967	469.42
419.344	484.79
419.721	478.91
420.098	485.02
420.475	481.17
420.852	489.99
421.228	478.24
421.605	492.92
421.982	490.21
422.358	492.47
422.735	493.83
423.111	495.64
423.488	485.92
423.864	507.39
424.241	514.17
424.617	522.08
424.994	508.52
425.37	509.2
425.746	514.39
426.123	521.4
426.499	518.91
426.875	522.53
427.251	507.16
427.627	539.03
428.003	551
428.379	552.81
428.756	558.01
429.132	566.37
429.507	538.57
429.883	565.24
430.259	568.63
430.635	557.33
431.011	575.18
431.387	584.67
431.763	554.62
432.138	565.24
432.514	568.86
432.89	587.39
433.265	583.54
433.641	590.55
434.016	595.52
434.392	612.47
434.767	592.13
435.143	619.02
435.518	650.43
435.894	631
436.269	615.86
436.644	634.39
437.02	644.33
437.395	649.3
437.77	643.66
438.145	644.79
438.52	666.48
438.895	631.9
439.271	671
439.646	663.99
440.021	654.73
440.395	662.86
440.77	681.85
441.145	674.84
441.52	693.37
441.895	669.64
442.27	679.13
442.645	680.04
443.019	677.1
443.394	700.83
443.769	672.81
444.143	693.15
444.518	704.44
444.892	683.43
445.267	709.19
445.641	694.5
446.016	725.01
446.39	722.52
446.764	711.68
447.139	729.3
447.513	699.93
447.887	714.16
448.262	731.34
448.636	724.33
449.01	755.74
449.384	760.71
449.758	765.69
450.132	738.34
450.506	773.82
450.88	771.11
451.254	769.75
451.628	752.81
452.002	762.3
452.376	779.25
452.75	770.88
453.123	800.04
453.497	804.1
453.871	818.79
454.244	819.7
454.618	805.91
454.992	826.02
455.365	835.74
455.739	851.79
456.112	847.49
456.486	861.95
456.859	894.72
457.232	865.34
457.606	885.68
457.979	866.93
458.352	891.33
458.725	897.89
459.099	889.75
459.472	916.19
459.845	907.6
460.218	959.13
460.591	933.59
460.964	948.05
461.337	946.47
461.71	973.82
462.083	970.2
462.456	992.57
462.829	993.7
463.201	970.65
463.574	1021.05
463.947	989.86
464.32	997.09
464.692	1004.55
465.065	1052.01
465.438	1048.62
465.81	1051.33
466.183	1092.91
466.555	1098.33
466.928	1109.86
467.3	1090.2
467.672	1116.64
468.045	1133.59
468.417	1157.09
468.789	1173.36
469.161	1147.14
469.534	1166.35
469.906	1210.19
470.278	1204.32
470.65	1226.46
471.022	1239.12
471.394	1248.61
471.766	1298.33
472.138	1282.73
472.51	1324.77
472.882	1317.54
473.253	1368.16
473.625	1331.32
473.997	1421.94
474.369	1396.63
474.74	1397.76
475.112	1422.39
475.484	1467.81
475.855	1496.97
476.227	1516.4
476.598	1509.85
476.97	1535.84
477.341	1586.68
477.713	1625.78
478.084	1649.28
478.455	1671.88
478.827	1683.85
479.198	1741.71
479.569	1732.21
479.94	1783.29
480.311	1773.57
480.682	1818.31
481.053	1881.14
481.424	1935.15
481.795	1937.63
482.166	1986.22
482.537	1985.77
482.908	2030.51
483.279	2040.45
483.65	2101.7
484.021	2155.48
484.391	2198.19
484.762	2229.38
485.133	2251.97
485.503	2249.04
485.874	2298.3
486.244	2322.48
486.615	2392.31
486.985	2423.95
487.356	2465.53
487.726	2518.86
488.097	2547.56
488.467	2562.7
488.837	2606.09
489.207	2637.28
489.578	2666.2
489.948	2696.71
490.318	2741.68
490.688	2817.84
491.058	2833.88
491.428	2856.25
491.798	2877.27
492.168	2946.42
492.538	2969.7
492.908	3003.37
493.278	3077.04
493.648	3052.18
494.017	3119.07
494.387	3105.29
494.757	3179.86
495.126	3193.42
495.496	3256.47
495.866	3266.64
496.235	3295.34
496.605	3327.65
496.974	3328.1
497.344	3350.93
497.713	3369.69
498.082	3425.05
498.452	3485.39
498.821	3521.32
499.19	3505.95
499.559	3551.15
499.928	3571.94
500.298	3609.23
500.667	3649
501.036	3624.59
501.405	3638.6
501.774	3649.23
502.143	3670.24
502.512	3733.74
502.88	3755.89
503.249	3759.05
503.618	3780.75
503.987	3776.91
504.356	3844.93
504.724	3834.98
505.093	3851.03
505.462	3865.49
505.83	3893.97
506.199	3957.47
506.567	3958.37
506.936	3979.61
507.304	4015.09
507.672	3975.09
508.041	4057.12
508.409	4037.92
508.777	4058.71
509.145	4133.28
509.514	4107.75
509.882	4134.19
510.25	4103.68
510.618	4164.01
510.986	4202.66
511.354	4188.87
511.722	4251.02
512.09	4225.93
512.458	4240.17
512.826	4307.51
513.193	4298.93
513.561	4305.48
513.929	4357.46
514.297	4387.74
514.664	4369.21
515.032	4423.89
515.4	4395.42
515.767	4382.54
516.135	4446.49
516.502	4448.3
516.869	4477.9
517.237	4530.11
517.604	4498.47
517.972	4558.81
518.339	4575.76
518.706	4553.16
519.073	4557.22
519.44	4597.9
519.808	4626.83
520.175	4608.3
520.542	4686.94
520.909	4702.08
521.276	4709.54
521.643	4737.56
522.009	4795.41
522.376	4809.87
522.743	4770.78
523.11	4811.46
523.477	4850.78
523.843	4865.47
524.21	4953.82
524.577	4952.47
524.943	4944.79
525.31	4980.94
525.676	5065.91
526.043	5003.99
526.409	5100.26
526.776	5105.68
527.142	5098.23
527.508	5104.33
527.874	5149.07
528.241	5234.5
528.607	5209.19
528.973	5246.47
529.339	5257.55
529.705	5314.94
530.071	5344.55
530.437	5364.21
530.803	5357.66
531.169	5425
531.535	5403.3
531.901	5427.26
532.267	5461.38
532.632	5494.38
532.998	5511.78
533.364	5579.34
533.73	5554.03
534.095	5634.03
534.461	5619.57
534.826	5626.8
535.192	5704.31
535.557	5697.76
535.923	5670.64
536.288	5732.79
536.653	5784.09
537.019	5787.02
537.384	5813.91
537.749	5809.4
538.114	5839.22
538.479	5844.65
538.845	5857.08
539.21	5858.21
539.575	5891.43
539.94	5889.39
540.305	5951.09
540.67	5968.26
541.034	5981.59
541.399	6025.43
541.764	6050.74
542.129	6005.77
542.494	6133.45
542.858	6137.97
543.223	6218.65
543.587	6130.74
543.952	6185.88
544.316	6245.09
544.681	6233.34
545.045	6288.25
545.41	6289.16
545.774	6316.5
546.138	6306.78
546.503	6345.43
546.867	6367.8
547.231	6391.07
547.595	6446.44
547.959	6449.15
548.324	6502.03
548.688	6485.99
549.052	6538.42
549.416	6552.65
549.779	6540
550.143	6560.79
550.507	6613.44
550.871	6640.56
551.235	6650.5
551.599	6679.88
551.962	6684.4
552.326	6745.64
552.689	6739.09
553.053	6763.72
553.417	6700.9
553.78	6829.03
554.143	6795.58
554.507	6854.11
554.87	6849.59
555.234	6917.84
555.597	6894.34
555.96	6928.91
556.323	6955.81
556.686	6933.21
557.05	6996.03
557.413	6979.99
557.776	7055.24
558.139	7047.1
558.502	7117.16
558.865	7137.04
559.228	7149.7
559.59	7145.41
559.953	7189.25
560.316	7297.94
560.679	7232.18
561.041	7310.6
561.404	7290.03
561.767	7353.76
562.129	7300.2
562.492	7299.07
562.854	7436.25
563.217	7413.19
563.579	7466.75
563.941	7492.74
564.304	7552.63
564.666	7535
565.028	7561.89
565.39	7558.73
565.753	7658.84
566.115	7591.95
566.477	7702.45
566.839	7677.82
567.201	7704.03
567.563	7781.55
567.925	7783.81
568.287	7814.77
568.648	7840.53
569.01	7854.31
569.372	7922.56
569.734	7930.02
570.095	7960.3
570.457	7978.38
570.819	8044.14
571.18	8014.99
571.542	8068.77
571.903	8131.59
572.265	8119.17
572.626	8156.9
572.987	8310.57
573.349	8316.22
573.71	8346.73
574.071	8422.89
574.432	8473.28
574.794	8530.23
575.155	8582.2
575.516	8545.59
575.877	8597.34
576.238	8706.49
576.599	8747.85
576.96	8714.63
577.32	8862.65
577.681	8967.28
578.042	9023.55
578.403	9030.78
578.763	9156.43
579.124	9175.63
579.485	9361.39
579.845	9447.04
580.206	9540.14
580.566	9603.65
580.927	9678.67
581.287	9831.44
581.648	9870.76
582.008	10021.49
582.368	10129.51
582.728	10288.83
583.089	10398.43
583.449	10516.16
583.809	10706.22
584.169	10818.98
584.529	10951.63
584.889	11233.21
585.249	11311.4
585.609	11417.16
585.969	11714.55
586.329	11753.19
586.688	12058.95
587.048	12144.82
587.408	12364.03
587.768	12583.45
588.127	12772.6
588.487	12959.04
588.846	13324
589.206	13412.59
589.565	13623.43
589.925	13930.99
590.284	14203.98
590.643	14462.73
591.003	14640.35
591.362	14999.89
591.721	15276.04
592.08	15403.04
592.44	15782.24
592.799	15982.24
593.158	16203.47
593.517	16541.32
593.876	16767.75
594.235	16931.59
594.593	17358.47
594.952	17644.56
595.311	17845.91
595.67	18158.22
596.029	18469.4
596.387	18763.86
596.746	18991.65
597.104	19225.99
597.463	19549.15
597.822	20012.41
598.18	20202.24
598.538	20482.91
598.897	20738.49
599.255	20959.73
599.613	21479.72
599.972	21675.42
600.33	21840.61
600.688	22093.03
601.046	22530.76
601.404	22875.84
601.762	23008.49
602.12	23435.15
602.478	23787.23
602.836	23925.53
603.194	24062.93
603.552	24356.03
603.91	24551.5
604.268	25003.01
604.625	25179.28
604.983	25506.5
605.341	25578.59
605.698	26047.73
606.056	26258.58
606.413	26537.44
606.771	26707.6
607.128	27109.17
607.485	27149.17
607.843	27382.16
608.2	27629.84
608.557	28028.47
608.914	28117.28
609.272	28538.97
609.629	28787.1
609.986	28950.48
610.343	29072.29
610.7	29356.8
611.057	29484.25
611.414	29867.75
611.771	29937.12
612.127	30217.34
612.484	30319.71
612.841	30545.92
613.198	30764.9
613.554	30919.02
613.911	31304.77
614.267	31373.69
614.624	31354.49
614.98	31656.85
615.337	31991.08
615.693	31921.48
616.05	32236.27
616.406	32432.65
616.762	32431.75
617.118	32693.89
617.475	32926.65
617.831	33036.48
618.187	33262.23
618.543	33309.46
618.899	33609.79
619.255	33787.87
619.611	33834.87
619.967	33977.24
620.323	34087.52
620.678	34029.22
621.034	34264.92
621.39	34297.23
621.746	34321.19
622.101	34810.67
622.457	34772.48
622.812	34759.59
623.168	35063.32
623.523	35061.28
623.879	35241.39
624.234	34992.36
624.589	35242.75
624.945	35341.05
625.3	35514.38
625.655	35569.06
626.01	35569.74
626.365	35713.24
626.72	35699.91
627.075	35838.44
627.43	35826.01
627.785	35890.86
628.14	35904.88
628.495	36012.44
628.85	36200.23
629.205	36102.38
629.559	36202.27
629.914	36191.2
630.269	36419.44
630.623	36216.28
630.978	36114.59
631.332	36553.9
631.687	36539.43
632.041	36334.24
632.396	36501.7
632.75	36580.79
633.104	36591.86
633.459	36385.31
633.813	36372.66
634.167	36417.86
634.521	36522.49
634.875	36393.22
635.229	36553.22
635.583	36307.35
635.937	36415.14
636.291	36503.5
636.645	36527.91
636.999	36416.95
637.352	36630.73
637.706	36460.79
638.06	36484.52
638.413	36490.62
638.767	36510.73
639.121	36524.29
639.474	36400.68
639.828	36433.22
640.181	36545.08
640.534	36518.42
640.888	36405.2
641.241	36414.92
641.594	36268.48
641.947	36546.21
642.301	36379.66
642.654	36493.56
643.007	36490.4
643.36	36418.76
643.713	36401.36
644.066	36568.81
644.419	36276.84
644.771	36098.77
645.124	35845.44
645.477	35685.45
645.83	35463.98
646.182	35424.44
646.535	35336.98
646.888	35400.48
647.24	35250.43
647.593	35392.57
647.945	35358.9
648.298	35179.24
648.65	35144.67
649.002	34976.99
649.355	35301.95
649.707	35134.27
650.059	35211.56
650.411	35762.96
650.763	35676.86
651.115	36281.14
651.467	35953.24
651.819	35971.54
652.171	35865.1
652.523	35949.85
652.875	36071.42
653.227	35763.18
653.578	36068.71
653.93	35892.9
654.282	35890.86
654.633	35656.97
654.985	35722.73
655.337	35790.98
655.688	35783.75
656.039	35901.94
656.391	35564.77
656.742	35669.4
657.094	35721.15
657.445	35877.31
657.796	35875.5
658.147	35695.16
658.498	35708.95
658.849	35717.08
659.2	35662.62
659.551	35601.15
659.902	35757.31
660.253	35665.56
660.604	35729.96
660.955	35652
661.306	35748.95
661.656	35564.55
662.007	35645.67
662.358	35558.22
662.708	35616.3
663.059	35534.26
663.409	35382.18
663.76	35789.4
664.11	35545.79
664.461	35692.45
664.811	35657.65
665.161	35652
665.511	35460.14
665.862	35493.36
666.212	35625.33
666.562	35582.4
666.912	35577.2
667.262	35572.45
667.612	35561.83
667.962	35564.32
668.312	35475.06
668.662	35580.82
669.011	35428.73
669.361	35496.75
669.711	35328.17
670.06	35343.53
670.41	35445.45
670.76	35396.64
671.109	35423.31
671.459	35264.44
671.808	35221.28
672.157	35459.92
672.507	35231.22
672.856	35292.46
673.205	35233.25
673.554	35335.17
673.904	35278
674.253	35421.5
674.602	35301.73
674.951	34712.14
675.3	34582.65
675.649	35084.33
675.998	35184.22
676.346	35223.76
676.695	35212.92
677.044	34905.13
677.393	35118.46
677.741	35088.85
678.09	35004.33
678.438	34876.43
678.787	34940.15
679.135	34932.47
679.484	34846.82
679.832	34891.57
680.181	34765.24
680.529	34668.52
680.877	34736.32
681.225	34487.51
681.573	34896.99
681.922	34667.17
682.27	34448.19
682.618	34488.87
682.966	34408.42
683.314	34390.34
683.661	34364.8
684.009	34214.3
684.357	34252.26
684.705	34218.37
685.053	34228.08
685.4	34288.87
685.748	34005.94
686.095	34127.52
686.443	33869.67
686.79	33740.86
687.138	33926.4
687.485	33789.45
687.832	33775.21
688.18	33841.43
688.527	33452.28
688.874	33568.89
689.221	33527.31
689.568	33468.33
689.915	33395.11
690.262	33476.92
690.609	33287.77
690.956	33072.41
691.303	33073.09
691.65	32840.32
691.997	32934.33
692.344	32701.8
692.69	32768.46
693.037	32808.01
693.383	32508.81
693.73	32711.96
694.077	32495.47
694.423	32456.15
694.769	32221.36
695.116	32263.61
695.462	32179.32
695.808	32036.05
696.155	32136.39
696.501	31853.23
696.847	31914.47
697.193	31698.21
697.539	31850.52
697.885	31579.79
698.231	31427.93
698.577	31411.89
698.923	31436.52
699.269	31236.07
699.614	31250.31
699.96	31193.36
700.306	31202.17
700.651	30931.67
700.997	30688.74
701.342	30789.08
701.688	30820.94
702.033	30709.76
702.379	30680.83
702.724	30662.08
703.069	30551.57
703.415	30210.11
703.76	30329.65
704.105	30362.65
704.45	30196.1
704.795	29994.75
705.14	30020.28
705.485	30054.41
705.83	29762.21
706.175	29886.73
706.52	29691.25
706.865	29674.3
707.209	29586.17
707.554	29494.65
707.899	29588.66
708.243	29408.32
708.588	29464.59
708.932	29149.35
709.277	29104.6
709.621	29198.84
709.966	29028.9
710.31	29093.53
710.654	28849.69
710.998	28920.88
711.342	28960.65
711.687	28705.97
712.031	28725.85
712.375	28578.06
712.719	28715.69
713.063	28528.57
713.407	28580.55
713.75	28496.93
714.094	28444.05
714.438	28329.26
714.782	28349.37
715.125	28282.02
715.469	28188.24
715.812	28135.81
716.156	27909.38
716.499	27945.31
716.843	28017.62
717.186	27779.44
717.53	27996.61
717.873	27882.26
718.216	27922.03
718.559	27807.46
718.902	27528.15
719.246	27641.14
719.589	27648.6
719.932	27405.44
720.275	27405.89
720.617	27511.65
720.96	27282.95
721.303	27338.32
721.646	27397.53
721.989	27038.22
722.331	27250.41
722.674	27141.04
723.016	27157.08
723.359	27093.13
723.701	27093.13
724.044	26988.27
724.386	26882.06
724.729	26992.34
725.071	26793.93
725.413	26892.46
725.755	26879.8
726.097	26649.75
726.439	26477.1
726.782	26571.11
727.124	26696.3
727.465	26477.55
727.807	26419.25
728.149	26546.48
728.491	26275.75
728.833	26379.93
729.175	26321.62
729.516	26271.46
729.858	26223.1
730.199	26234.39
730.541	26091.8
730.882	26090.44
731.224	26198.46
731.565	26075.3
731.906	25959.83
732.248	26028.52
732.589	25838.25
732.93	25675.54
733.271	25854.52
733.612	25884.8
733.953	25894.74
734.294	25737.46
734.635	25696.78
734.976	25854.07
735.317	25564.81
735.658	25674.86
735.999	25616.56
736.339	25619.04
736.68	25650.91
737.021	25470.12
737.361	25388.54
737.702	25594.64
738.042	25431.25
738.383	25386.96
738.723	25442.1
739.063	25359.39
739.404	25320.29
739.744	25281.88
740.084	25108.55
740.424	25183.35
740.764	25004.82
741.104	25250.24
741.444	25040.08
741.784	24928.89
742.124	24983.13
742.464	25061.32
742.804	25057.7
743.143	24930.47
743.483	24945.39
743.823	24767.09
744.162	24717.82
744.502	24747.2
744.841	24614.32
745.181	24816.58
745.52	24735.45
745.86	24753.3
746.199	24574.33
746.538	24523.48
746.877	24648.9
747.216	24583.82
747.556	24566.87
747.895	24480.09
748.234	24391.05
748.573	24335.69
748.911	24438.96
749.25	24334.11
749.589	24180.89
749.928	24226.99
750.267	24332.75
750.605	24176.14
750.944	24122.36
751.283	24024.51
751.621	24041.46
751.96	23971.4
752.298	23970.73
752.636	24041.91
752.975	23915.59
753.313	23721.01
753.651	23930.05
753.989	23640.34
754.327	23722.14
754.666	23556.27
755.004	23632.2
755.342	23674.01
755.679	23492.32
756.017	23455.26
756.355	23565.76
756.693	23484.86
757.031	23348.14
757.368	23288.71
757.706	23242.61
758.044	23197.19
758.381	23240.58
758.719	23054.59
759.056	23149.96
759.394	22981.83
759.731	22839
760.068	22944.31
760.405	22835.16
760.743	22824.77
761.08	22726.69
761.417	22646.01
761.754	22596.07
762.091	22635.17
762.428	22479.24
762.765	22415.29
763.102	22435.62
763.438	22361.95
763.775	22241.73
764.112	22138.68
764.449	22244.67
764.785	22120.83
765.122	21992.47
765.458	21983.43
765.795	21861.63
766.131	21872.7
766.467	21772.59
766.804	21569.21
767.14	21581.64
767.476	21553.61
767.812	21456.67
768.148	21436.78
768.485	21361.3
768.821	21266.39
769.157	21214.64
769.492	21159.27
769.828	21208.76
770.164	20906.85
770.5	20899.39
770.836	20903.91
771.171	20657.37
771.507	20809.23
771.842	20641.32
772.178	20586.63
772.513	20493.98
772.849	20468.9
773.184	20387.77
773.519	20366.75
773.855	20228.68
774.19	20189.13
774.525	20095.12
774.86	20128.34
775.195	20020.1
775.53	20009.02
775.865	19845.86
776.2	19714.57
776.535	19635.7
776.87	19644.06
777.205	19539.88
777.539	19468.7
777.874	19419.88
778.209	19311.64
778.543	19284.75
778.878	19139.44
779.212	19150.51
779.547	19054.47
779.881	19130.85
780.215	18872.78
780.55	18891.09
780.884	18842.05
781.218	18815.38
781.552	18734.03
781.886	18601.38
782.22	18479.8
782.554	18500.59
782.888	18258.11
783.222	18276.41
783.556	18238
783.889	18104.21
784.223	18065.12
784.557	17991.45
784.89	17980.6
785.224	17819.02
785.557	17745.8
785.891	17696.54
786.224	17732.02
786.558	17669.65
786.891	17585.13
787.224	17504.45
787.557	17396.21
787.891	17360.96
788.224	17321.41
788.557	17320.05
788.89	17304.91
789.223	17274.63
789.556	17165.25
789.888	16967.75
790.221	16996.22
790.554	16873.96
790.887	16904.24
791.219	16900.4
791.552	16702.44
791.884	16771.14
792.217	16688.43
792.549	16647.75
792.882	16530.7
793.214	16489.11
793.546	16421.77
793.879	16330.47
794.211	16281.21
794.543	16318.72
794.875	16259.74
795.207	16269.23
795.539	16154.43
795.871	16100.42
796.203	16037.37
796.535	15883.48
796.867	15890.26
797.198	15821.79
797.53	15787.44
797.862	15637.16
798.193	15717.16
798.525	15602.13
798.856	15624.05
799.188	15454.11
799.519	15579.53
799.85	15371.18
800.182	15339.99
800.513	15426.77
800.844	15183.16
801.175	15197.17
801.506	15301.12
801.837	15162.82
802.168	15186.55
802.499	14972.32
802.83	15049.6
803.161	14975.03
803.491	14995.14
803.822	14852.55
804.153	14845.99
804.483	14726.22
804.814	14688.03
805.145	14616.4
805.475	14654.13
805.805	14582.5
806.136	14582.5
806.466	14589.28
806.796	14532.78
807.126	14415.5
807.457	14407.36
807.787	14347.93
808.117	14310.41
808.447	14257.08
808.777	14265.67
809.107	14224.09
809.436	14197.65
809.766	14195.84
810.096	14127.14
810.426	13966.92
810.755	14085.56
811.085	14057.77
811.414	14001.04
811.744	13873.36
812.073	13856.64
812.403	13840.82
812.732	13742.97
813.061	13695.97
813.39	13678.11
813.719	13655.29
814.049	13704.33
814.378	13603.77
814.707	13658.45
815.036	13547.04
815.365	13516.54
815.693	13361.06
816.022	13325.58
816.351	13400.16
816.68	13300.5
817.008	13295.53
817.337	13220.5
817.665	13194.74
817.994	13282.19
818.322	13185.25
818.651	13151.35
818.979	13019.38
819.307	13142.54
819.636	13141.41
819.964	13005.82
820.292	13101.63
820.62	12947.29
820.948	12982.54
821.276	13027.06
821.604	12864.35
821.932	12950.9
822.259	12972.14
822.587	13004.69
822.915	12907.97
823.243	12970.79
823.57	12910.9
823.898	12955.42
824.225	12906.84
824.553	12842.2
824.88	12898.02
825.207	12950.22
825.535	12928.76
825.862	12986.61
826.189	12846.27
826.516	12911.81
826.843	12889.89
827.17	12903.9
827.497	12935.31
827.824	12974.18
828.151	12885.59
828.478	12832.49
828.805	12984.57
829.131	12842.43
829.458	12884.69
829.785	12720.17
830.111	12854.63
830.438	12916.55
830.764	12885.59
831.09	12880.4
831.417	12823.67
831.743	12870
832.069	12791.36
832.395	12782.32
832.722	12794.75
833.048	12752.49
833.374	12879.94
833.7	12710.23
834.026	12715.43
834.351	12774.41
834.677	12773.28
835.003	12711.13
835.329	12709.78
835.654	12685.82
835.98	12547.75
836.306	12594.53
836.631	12573.74
836.956	12516.56
837.282	12618.26
837.607	12589.1
837.932	12498.94
838.258	12599.27
838.583	12566.05
838.908	12445.83
839.233	12451.03
839.558	12449.9
839.883	12377.58
840.208	12413.97
840.533	12387.75
840.858	12401.76
841.182	12296.46
841.507	12286.74
841.832	12285.38
842.156	12176.01
842.481	12206.52
842.805	12257.81
843.13	12225.72
843.454	12211.49
843.778	12058.72
844.103	12106.63
844.427	12017.37
844.751	12017.59
845.075	11936.24
845.399	11907.77
845.723	11884.26
846.047	11865.96
846.371	11761.33
846.695	11772.63
847.019	11769.46
847.343	11672.74
847.666	11621.45
847.99	11563.14
848.313	11536.25
848.637	11430.26
848.96	11489.92
849.284	11396.37
849.607	11346.2
849.931	11319.76
850.254	11235.69
850.577	11129.03
850.9	11108.92
851.223	11130.16
851.546	11034.79
851.869	11068.01
852.192	11021.91
852.515	10901.92
852.838	10887.23
853.161	10974.68
853.483	10878.64
853.806	10800.45
854.129	10763.62
854.451	10700.57
854.774	10753.22
855.096	10632.55
855.419	10621.47
855.741	10611.98
856.063	10511.64
856.385	10502.38
856.708	10400.01
857.03	10455.83
857.352	10407.47
857.674	10357.3
857.996	10390.29
858.318	10361.82
858.64	10312.1
858.961	10276.85
859.283	10273.68
859.605	10167.7
859.926	10277.98
860.248	10148.49
860.57	10187.81
860.891	10165.44
861.212	10076.85
861.534	10070.07
861.855	10055.39
862.176	10033.46
862.498	10025.78
862.819	10044.99
863.14	9988.04
863.461	9933.35
863.782	9911.43
864.103	9862.4
864.424	9794.83
864.745	9880.93
865.065	9759.12
865.386	9827.82
865.707	9811.55
866.027	9724.32
866.348	9728.39
866.668	9779.23
866.989	9745.34
867.309	9734.72
867.63	9651.33
867.95	9685.45
868.27	9609.3
868.59	9648.62
868.91	9646.36
869.23	9633.02
869.55	9629.86
869.87	9628.96
870.19	9578.56
870.51	9528.85
870.83	9555.06
871.15	9525.46
871.469	9480.49
871.789	9492.69
872.109	9517.09
872.428	9419.24
872.748	9460.6
873.067	9455.85
873.386	9506.93
873.706	9495.85
874.025	9337.21
874.344	9348.74
874.663	9379.02
874.982	9369.75
875.301	9290.66
875.62	9271.45
875.939	9206.59
876.258	9309.64
876.577	9244.56
876.896	9209.76
877.214	9207.05
877.533	9250.43
877.852	9218.8
878.17	9198.01
878.489	9144
878.807	9207.27
879.125	9140.16
879.444	9160.04
879.762	9142.64
880.08	9069.65
880.398	9065.35
880.716	9078.46
881.034	9049.31
881.352	9026.49
881.67	8995.53
881.988	9038.69
882.306	9008.18
882.624	9019.71
882.941	8868.75
883.259	8890.44
883.577	8832.37
883.894	8799.6
884.212	8831.69
884.529	8842.54
884.846	8822.65
885.164	8771.13
885.481	8703.1
885.798	8765.02
886.115	8711.01
886.432	8676.44
886.75	8687.06
887.067	8636.89
887.383	8579.72
887.7	8660.39
888.017	8626.04
888.334	8568.19
888.651	8524.13
888.967	8550.34
889.284	8494.75
889.6	8494.3
889.917	8478.7
890.233	8435.54
890.55	8394.41
890.866	8349.44
891.182	8370.23
891.498	8316.67
891.815	8311.48
892.131	8261.76
892.447	8228.09
892.763	8262.44
893.079	8202.1
893.395	8139.28
893.71	8204.59
894.026	8208.43
894.342	8086.4
894.657	8098.15
894.973	8101.31
895.289	8064.03
895.604	8024.25
895.92	8014.31
896.235	7975.44
896.55	7974.31
896.865	7909.91
897.181	7910.13
897.496	7817.93
897.811	7807.99
898.126	7819.06
898.441	7773.19
898.756	7725.28
899.071	7691.38
899.386	7745.16
899.7	7663.13
900.015	7638.5
900.33	7602.12
900.644	7604.15
900.959	7582.91
901.273	7569.8
901.588	7472.85
901.902	7443.25
902.216	7465.62
902.531	7409.58
902.845	7421.78
903.159	7396.7
903.473	7346.76
903.787	7332.07
904.101	7245.06
904.415	7243.48
904.729	7169.13
905.042	7203.48
905.356	7175.69
905.67	7187.44
905.984	7165.52
906.297	7121.45
906.611	7033.09
906.924	7034.22
907.237	7073.77
907.551	7036.71
907.864	7012.98
908.177	7047.55
908.491	6933.66
908.804	6907.67
909.117	6906.09
909.43	6857.05
909.743	6834.23
910.056	6864.06
910.368	6737.28
910.681	6708.13
910.994	6704.06
911.307	6699.99
911.619	6649.83
911.932	6625.19
912.244	6586.32
912.557	6588.81
912.869	6522.6
913.181	6557.85
913.494	6530.96
913.806	6480.79
914.118	6430.17
914.43	6467.01
914.742	6429.49
915.054	6329.61
915.366	6346.78
915.678	6322.38
915.99	6301.59
916.302	6228.14
916.613	6293.22
916.925	6237.41
917.236	6191.76
917.548	6155.6
917.859	6193.11
918.171	6099.78
918.482	6062.95
918.794	6064.53
919.105	6064.53
919.416	6005.55
919.727	5976.62
920.038	5961.71
920.349	5942.27
920.66	5867.02
920.971	5890.52
921.282	5898.66
921.593	5807.81
921.903	5763.97
922.214	5785.44
922.525	5799.45
922.835	5724.88
923.146	5680.36
923.456	5687.14
923.767	5682.84
924.077	5675.39
924.387	5679
924.697	5598.78
925.008	5576.41
925.318	5552.23
925.628	5573.24
925.938	5547.26
926.248	5438.33
926.558	5451.21
926.867	5383.87
927.177	5434.72
927.487	5408.73
927.796	5329.18
928.106	5338.67
928.416	5328.96
928.725	5302.29
929.034	5250.99
929.344	5281.73
929.653	5266.36
929.962	5221.61
930.271	5176.42
930.581	5121.05
930.89	5161.28
931.199	5121.5
931.508	5156.31
931.817	5070.88
932.125	5043.09
932.434	5011.45
932.743	4982.07
933.051	4983.2
933.36	4945.24
933.669	4983.88
933.977	4929.87
934.286	4908.63
934.594	4918.57
934.902	4841.96
935.21	4822.53
935.519	4855.97
935.827	4783.43
936.135	4787.28
936.443	4811.23
936.751	4734.17
937.059	4668.18
937.367	4686.94
937.674	4688.75
937.982	4670.22
938.29	4654.17
938.597	4629.31
938.905	4592.48
939.213	4523.78
939.52	4564
939.827	4601.97
940.135	4518.81
940.442	4486.49
940.749	4480.62
941.056	4502.31
941.363	4435.65
941.67	4393.16
941.977	4429.77
942.284	4396.33
942.591	4347.51
942.898	4346.83
943.205	4344.12
943.511	4339.15
943.818	4338.02
944.125	4244.69
944.431	4278.81
944.738	4279.72
945.044	4221.87
945.35	4225.48
945.657	4182.77
945.963	4206.05
946.269	4197.01
946.575	4185.03
946.881	4092.83
947.187	4143.22
947.493	4094.86
947.799	4092.6
948.105	4071.81
948.41	4031.14
948.716	4040.18
949.022	3986.17
949.327	3968.09
949.633	3908.2
949.938	3967.86
950.244	3953.85
950.549	3928.09
950.854	3870.01
951.16	3906.85
951.465	3867.3
951.77	3848.09
952.075	3794.98
952.38	3806.96
952.685	3825.27
952.99	3744.36
953.294	3804.93
953.599	3782.56
953.904	3727.64
954.209	3660.07
954.513	3717.47
954.818	3682.45
955.122	3613.29
955.426	3619.17
955.731	3641.99
956.035	3587.31
956.339	3596.57
956.643	3632.96
956.948	3597.25
957.252	3578.49
957.556	3579.62
957.86	3507.08
958.163	3526.74
958.467	3513.64
958.771	3511.38
959.075	3467.08
959.378	3439.06
959.682	3442.9
959.985	3467.54
960.289	3393.87
960.592	3376.46
960.896	3366.3
961.199	3356.58
961.502	3340.31
961.805	3340.08
962.108	3314.77
962.411	3303.92
962.714	3265.06
963.017	3286.98
963.32	3293.3
963.623	3268.9
963.926	3262.12
964.228	3228.22
964.531	3227.09
964.833	3243.81
965.136	3190.71
965.438	3160.65
965.741	3152.29
966.043	3115.68
966.345	3131.27
966.648	3134.21
966.95	3095.79
967.252	3130.14
967.554	3077.72
967.856	3048.11
968.158	3027.55
968.46	3048.34
968.761	3011.05
969.063	3025.06
969.365	3009.02
969.666	3021.9
969.968	2922.92
970.269	2960.88
970.571	2945.29
970.872	2924.05
971.174	2934.22
971.475	2910.26
971.776	2890.6
972.077	2895.57
972.378	2854.22
972.679	2834.11
972.98	2832.75
973.281	2850.83
973.582	2826.87
973.883	2804.95
974.183	2815.58
974.484	2787.33
974.785	2768.57
975.085	2790.72
975.386	2754.11
975.686	2751.17
975.986	2729.7
976.287	2720.21
976.587	2715.24
976.887	2663.04
977.187	2674.79
977.487	2715.47
977.787	2663.26
978.087	2650.38
978.387	2644.73
978.687	2617.84
978.987	2597.28
979.286	2581.01
979.586	2611.29
979.885	2574
980.185	2571.06
980.484	2561.8
980.784	2566.99
981.083	2551.4
981.382	2490.39
981.682	2498.3
981.981	2501.69
982.28	2465.53
982.579	2456.26
982.878	2505.53
983.177	2448.81
983.475	2445.19
983.774	2426.66
984.073	2435.7
984.372	2422.14
984.67	2419.65
984.969	2401.35
985.267	2373.78
985.566	2362.93
985.864	2383.95
986.162	2351.18
986.461	2362.48
986.759	2320.67
987.057	2301.92
987.355	2316.38
987.653	2318.64
987.951	2267.79
988.249	2284.52
988.547	2294.46
988.844	2266.44
989.142	2228.02
989.44	2191.19
989.737	2220.34
990.035	2211.98
990.332	2228.7
990.63	2204.97
990.927	2183.28
991.224	2165.42
991.521	2196.83
991.819	2151.64
992.116	2153.22
992.413	2150.51
992.71	2125.88
993.006	2065.76
993.303	2105.54
993.6	2141.24
993.897	2107.8
994.193	2063.28
994.49	2093.11
994.787	2074.58
995.083	2028.48
995.379	2047.69
995.676	2031.87
995.972	2026.22
996.268	2022.38
996.565	2019.44
996.861	2019.21
997.157	1999.33
997.453	1969.27
997.749	1936.05
998.044	1960.91
998.34	1927.01
998.636	1920.68
998.932	1917.75
999.227	1929.72
999.523	1913.23
999.818	1896.5
1000.114	1913.9
1000.409	1899.44
1000.704	1855.83
1001	1844.98
1001.295	1827.35
1001.59	1834.81
1001.885	1836.84
1002.18	1837.3
1002.475	1781.48
1002.77	1780.57
1003.065	1749.62
1003.359	1782.61
1003.654	1742.61
1003.949	1760.24
1004.243	1782.38
1004.538	1756.17
1004.832	1763.17
1005.127	1741.71
1005.421	1709.39
1005.715	1719.11
1006.009	1700.8
1006.304	1725.43
1006.598	1720.92
1006.892	1666.45
1007.186	1664.87
1007.48	1649.73
1007.773	1654.25
1008.067	1671.42
1008.361	1636.4
1008.655	1623.74
1008.948	1599.34
1009.242	1603.18
1009.535	1606.12
1009.829	1580.58
1010.122	1558.21
1010.415	1565.67
1010.708	1575.61
1011.001	1583.52
1011.295	1557.98
1011.588	1525.67
1011.881	1524.08
1012.173	1505.1
1012.466	1525.44
1012.759	1496.06
1013.052	1507.59
1013.344	1477.76
1013.637	1479.57
1013.93	1465.78
1014.222	1458.78
1014.514	1471.2
1014.807	1457.19
1015.099	1431.43
1015.391	1442.28
1015.683	1399.79
1015.976	1419
1016.268	1405.22
1016.56	1386.69
1016.851	1402.05
1017.143	1377.87
1017.435	1362.96
1017.727	1383.3
1018.018	1364.54
1018.31	1360.02
1018.602	1324.54
1018.893	1320.25
1019.185	1292
1019.476	1301.27
1019.767	1286.8
1020.058	1279.12
1020.35	1285.9
1020.641	1287.03
1020.932	1254.26
1021.223	1254.94
1021.514	1259.23
1021.804	1245.45
1022.095	1257.2
1022.386	1234.37
1022.677	1252.68
1022.967	1200.25
1023.258	1196.86
1023.548	1195.96
1023.839	1190.99
1024.129	1159.8
1024.419	1158.9
1024.709	1162.96
1025	1161.38
1025.29	1135.17
1025.58	1164.77
1025.87	1144.89
1026.16	1121.61
1026.449	1121.83
1026.739	1116.19
1027.029	1132.23
1027.319	1089.97
1027.608	1098.33
1027.898	1099.24
1028.187	1082.97
1028.477	1096.3
1028.766	1090.42
1029.055	1078.67
1029.344	1052.01
1029.634	1056.07
1029.923	1040.93
1030.212	1055.85
1030.501	1024.89
1030.79	1025.79
1031.078	1041.16
1031.367	1013.82
1031.656	1007.49
1031.945	990.09
1032.233	1010.65
1032.522	970.2
1032.81	975.62
1033.099	965
1033.387	967.26
1033.675	958.68
1033.963	968.17
1034.251	977.88
1034.54	963.65
1034.828	924.78
1035.116	937.43
1035.403	917.55
1035.691	902.41
1035.979	899.69
1036.267	928.85
1036.554	903.08
1036.842	902.86
1037.129	907.6
1037.417	876.42
1037.704	870.09
1037.992	903.54
1038.279	878.45
1038.566	862.18
1038.853	862.18
1039.14	862.18
