Data from hue_30_FLMS001491_83.txt Node
Date: Mon Feb 06 15:06:11 GMT 2017
User: dcchb
Spectrometer: FLMS00149
Trigger mode: 0
Integration Time (sec): 2.000000E-2
Scans to average: 10
Electric dark correction enabled: true
Nonlinearity correction enabled: false
Boxcar width: 0
XAxis mode: Wavelengths
Number of Pixels in Spectrum: 2048
>>>>>Begin Spectral Data<<<<<
341.393	-3.95
341.776	-3.95
342.16	-3.95
342.543	-47.57
342.927	-70.17
343.31	-71.75
343.693	-70.62
344.077	-63.61
344.46	-68.13
344.843	-60.68
345.226	-41.02
345.61	-34.01
345.993	-20.45
346.376	-17.29
346.759	2.15
347.142	32.88
347.525	57.96
347.908	54.8
348.291	84.4
348.674	99.77
349.057	115.59
349.44	116.27
349.823	146.1
350.206	170.28
350.588	187
350.971	199.88
351.354	222.25
351.737	238.52
352.119	256.6
352.502	271.74
352.884	272.42
353.267	298.64
353.65	300.9
354.032	285.3
354.414	325.75
354.797	321.01
355.179	324.4
355.562	321.69
355.944	324.17
356.326	341.8
356.709	317.17
357.091	328.69
357.473	364.85
357.855	348.58
358.238	354.45
358.62	344.28
359.002	326.88
359.384	333.44
359.766	325.3
360.148	342.93
360.53	335.02
360.912	358.52
361.294	320.78
361.676	353.32
362.057	331.86
362.439	327.79
362.821	344.28
363.203	325.98
363.584	332.76
363.966	329.37
364.348	324.4
364.729	333.66
365.111	317.17
365.493	327.56
365.874	329.82
366.256	319.2
366.637	317.17
367.019	317.39
367.4	328.92
367.781	319.2
368.163	321.69
368.544	311.07
368.925	330.5
369.306	316.49
369.688	319.88
370.069	319.2
370.45	310.84
370.831	325.08
371.212	329.37
371.593	337.05
371.974	342.02
372.355	316.71
372.736	320.1
373.117	319.43
373.498	319.88
373.879	318.97
374.26	323.27
374.641	329.6
375.021	305.42
375.402	329.14
375.783	323.27
376.163	320.56
376.544	339.99
376.925	336.83
377.305	333.44
377.686	325.53
378.066	307.9
378.447	322.59
378.827	341.35
379.208	330.5
379.588	350.84
379.968	337.51
380.349	353.1
380.729	365.98
381.109	356.71
381.489	355.58
381.87	346.09
382.25	364.85
382.63	360.33
383.01	358.97
383.39	351.06
383.77	366.88
384.15	347.45
384.53	354.91
384.91	365.08
385.29	357.84
385.67	356.26
386.049	372.76
386.429	353.78
386.809	379.09
387.189	365.08
387.568	359.2
387.948	367.56
388.328	378.86
388.707	360.56
389.087	379.31
389.466	362.14
389.846	387.45
390.225	379.54
390.605	357.39
390.984	391.97
391.363	372.53
391.743	394.68
392.122	374.34
392.501	377.5
392.881	386.09
393.26	375.92
393.639	410.27
394.018	384.06
394.397	387.67
394.776	396.26
395.155	405.07
395.534	395.81
395.913	388.58
396.292	416.37
396.671	395.58
397.05	390.39
397.429	401.68
397.808	421.57
398.186	406.88
398.565	409.59
398.944	402.36
399.323	419.76
399.701	428.12
400.08	422.7
400.458	412.08
400.837	411.63
401.215	409.82
401.594	413.21
401.972	403.27
402.351	428.58
402.729	414.79
403.107	411.18
403.486	426.32
403.864	441.46
404.242	446.88
404.62	445.98
404.999	424.51
405.377	432.87
405.755	456.15
406.133	452.08
406.511	451.63
406.889	453.89
407.267	456.15
407.645	465.64
408.023	453.66
408.401	478.07
408.779	479.87
409.156	472.42
409.534	486.43
409.912	457.95
410.29	478.29
410.667	487.33
411.045	478.74
411.422	523.49
411.8	492.53
412.178	502.47
412.555	488.46
412.933	500.44
413.31	495.92
413.687	520.1
414.065	512.64
414.442	535.01
414.819	522.59
415.197	511.06
415.574	527.33
415.951	530.95
416.328	541.57
416.705	557.39
417.082	534.34
417.46	541.57
417.837	538.86
418.214	555.13
418.591	545.41
418.967	536.37
419.344	534.56
419.721	566.2
420.098	569.14
420.475	562.81
420.852	547.9
421.228	606.2
421.605	597.16
421.982	594.22
422.358	617.72
422.735	587.22
423.111	596.71
423.488	607.1
423.864	615.46
424.241	633.77
424.617	623.83
424.994	631.06
425.37	608.91
425.746	634.45
426.123	657.95
426.499	644.39
426.875	622.02
427.251	636.93
427.627	657.72
428.003	658.85
428.379	656.37
428.756	661.79
429.132	667.21
429.507	688.23
429.883	681.9
430.259	674.45
430.635	695.24
431.011	699.98
431.387	703.37
431.763	734.56
432.138	711.51
432.514	700.43
432.89	712.64
433.265	717.83
433.641	766.87
434.016	752.64
434.392	763.48
434.767	767.1
435.143	750.38
435.518	774.33
435.894	785.63
436.269	815.01
436.644	793.99
437.02	809.81
437.395	796.02
437.77	807.32
438.145	819.07
438.52	829.7
438.895	834.89
439.271	829.24
439.646	836.48
440.021	846.87
440.395	821.33
440.77	874.21
441.145	862.46
441.52	876.7
441.895	877.6
442.27	876.93
442.645	904.72
443.019	910.82
443.394	888.45
443.769	892.52
444.143	892.97
444.518	904.72
444.892	900.43
445.267	909.47
445.641	909.24
446.016	923.48
446.39	938.39
446.764	934.78
447.139	939.98
447.513	931.61
447.887	969.81
448.262	969.13
448.636	970.93
449.01	964.16
449.384	1020.2
449.758	993.99
450.132	1007.54
450.506	990.6
450.88	1007.77
451.254	1012.52
451.628	1017.04
452.002	1046.19
452.376	1008.45
452.75	1041.22
453.123	1031.05
453.497	1050.48
453.871	1065.62
454.244	1104.94
454.618	1105.85
454.992	1110.14
455.365	1084.38
455.739	1123.47
456.112	1129.57
456.486	1163.92
456.859	1161.44
457.232	1173.42
457.606	1169.57
457.979	1171.83
458.352	1202.12
458.725	1219.06
459.099	1237.14
459.472	1287.08
459.845	1257.93
460.218	1268.1
460.591	1298.84
460.964	1278.72
461.337	1327.54
461.71	1348.1
462.083	1330.93
462.456	1330.7
462.829	1364.14
463.201	1391.26
463.574	1393.97
463.947	1444.82
464.32	1432.62
464.692	1438.49
465.065	1440.75
465.438	1466.97
465.81	1495.67
466.183	1497.25
466.555	1566.17
466.928	1539.96
467.3	1570.69
467.672	1577.7
468.045	1611.6
468.417	1654.76
468.789	1664.93
469.161	1661.76
469.534	1682.78
469.906	1756.23
470.278	1734.76
470.65	1757.13
471.022	1792.61
471.394	1798.03
471.766	1831.25
472.138	1852.27
472.51	1939.5
472.882	1929.55
473.253	1964.13
473.625	1994.41
473.997	2030.79
474.369	2089.32
474.74	2063.34
475.112	2142.2
475.484	2132.94
475.855	2228.3
476.227	2209.32
476.598	2293.16
476.97	2299.94
477.341	2362.31
477.713	2417.9
478.084	2438.69
478.455	2503.1
478.827	2562.31
479.198	2616.54
479.569	2619.93
479.94	2694.51
480.311	2761.4
480.682	2832.35
481.053	2919.81
481.424	2971.33
481.795	2977.21
482.166	3053.82
482.537	3113.93
482.908	3150.31
483.279	3205.45
483.65	3269.63
484.021	3351.21
484.391	3402.51
484.762	3447.25
485.133	3525.44
485.503	3550.3
485.874	3658.55
486.244	3719.56
486.615	3802.5
486.985	3839.11
487.356	3924.08
487.726	4013.57
488.097	4121.59
488.467	4114.36
488.837	4262.83
489.207	4271.19
489.578	4334.91
489.948	4439.77
490.318	4527.9
490.688	4593.89
491.058	4606.77
491.428	4734.45
491.798	4818.52
492.168	4865.97
492.538	4959.76
492.908	4978.74
493.278	5097.38
493.648	5065.97
494.017	5173.31
494.387	5282.23
494.757	5357.49
495.126	5420.54
495.496	5431.38
495.866	5497.14
496.235	5538.72
496.605	5636.8
496.974	5694.88
497.344	5725.39
497.713	5784.14
498.082	5874.31
498.452	5911.6
498.821	6025.94
499.19	6045.6
499.559	6038.6
499.928	6089.22
500.298	6136.45
500.667	6180.74
501.036	6256.22
501.405	6342.32
501.774	6378.02
502.143	6438.81
502.512	6419.61
502.88	6540.73
503.249	6592.71
503.618	6595.42
503.987	6668.64
504.356	6752.48
504.724	6738.47
505.093	6742.99
505.462	6840.84
505.83	6894.62
506.199	6961.06
506.567	7031.57
506.936	6998.57
507.304	7112.47
507.672	7125.58
508.041	7154.05
508.409	7276.08
508.777	7210.32
509.145	7326.93
509.514	7364.89
509.882	7393.36
510.25	7387.26
510.618	7434.72
510.986	7479.92
511.354	7604.88
511.722	7658.44
512.09	7695.5
512.458	7655.96
512.826	7699.8
513.193	7764.88
513.561	7850.3
513.929	7895.05
514.297	7912.67
514.664	8016.85
515.032	7987.47
515.4	8100.01
515.767	8113.12
516.135	8157.86
516.502	8131.65
516.869	8271.99
517.237	8289.61
517.604	8283.29
517.972	8338.65
518.339	8348.37
518.706	8327.58
519.073	8440.57
519.44	8498.87
519.808	8574.58
520.175	8545.2
520.542	8653.67
520.909	8627.68
521.276	8728.92
521.643	8720.56
522.009	8799.66
522.376	8820.9
522.743	8854.12
523.11	8984.74
523.477	9118.97
523.843	9097.5
524.21	9175.24
524.577	9199.65
524.943	9332.3
525.31	9290.26
525.676	9300.21
526.043	9485.06
526.409	9424.72
526.776	9556.25
527.142	9557.83
527.508	9629.46
527.874	9687.54
528.241	9795.56
528.607	9773.42
528.973	9880.08
529.339	9852.96
529.705	9977.48
530.071	9981.32
530.437	10083.01
530.803	10073.97
531.169	10199.62
531.535	10131.82
531.901	10263.8
532.267	10290.01
532.632	10360.52
532.998	10393.51
533.364	10445.94
533.73	10485.26
534.095	10598.03
534.461	10582.89
534.826	10589.21
535.192	10713.73
535.557	10788.76
535.923	10731.13
536.288	10777.91
536.653	10811.13
537.019	10824.91
537.384	10895.42
537.749	10970.67
538.114	11023.33
538.479	10998.92
538.845	11083.21
539.21	11076.66
539.575	11132.25
539.94	11187.84
540.305	11293.15
540.67	11259.25
541.034	11350.1
541.399	11359.14
541.764	11385.8
542.129	11490.43
542.494	11493.82
542.858	11520.49
543.223	11648.39
543.587	11696.53
543.952	11659.69
544.316	11787.6
544.681	11792.35
545.045	11799.58
545.41	11968.84
545.774	11932.23
546.138	11938.56
546.503	12084.54
546.867	12017.65
547.231	12146.01
547.595	12121.15
547.959	12156.63
548.324	12232.79
548.688	12211.54
549.052	12323.18
549.416	12355.27
549.779	12322.27
550.143	12447.24
550.507	12528.82
550.871	12581.7
551.235	12513.68
551.599	12606.79
551.962	12660.35
552.326	12700.12
552.689	12769.72
553.053	12739.21
553.417	12799.55
553.78	12926.33
554.143	12864.86
554.507	12927
554.87	12963.61
555.234	13120.9
555.597	13038.19
555.96	13089.94
556.323	13155.25
556.686	13185.08
557.05	13250.84
557.413	13284.96
557.776	13417.39
558.139	13414.9
558.502	13409.25
558.865	13497.84
559.228	13539.87
559.59	13562.69
559.953	13520.44
560.316	13749.36
560.679	13710.49
561.041	13759.3
561.404	13845.85
561.767	13916.13
562.129	13936.7
562.492	14042.46
562.854	14010.59
563.217	13989.8
563.579	14120.65
563.941	14224.37
564.304	14293.3
564.666	14370.58
565.028	14296.01
565.39	14396.8
565.753	14544.14
566.115	14484.48
566.477	14664.81
566.839	14635.89
567.201	14634.76
567.563	14668.2
567.925	14775.09
568.287	14806.05
568.648	14823.45
569.01	14885.15
569.372	15054.18
569.734	14983.45
570.095	15195.19
570.457	15209.43
570.819	15251.46
571.18	15299.15
571.542	15439.93
571.903	15382.99
572.265	15504.34
572.626	15572.81
572.987	15589.76
573.349	15641.06
573.71	15764.44
574.071	15876.08
574.432	15864.78
574.794	16064.1
575.155	16010.54
575.516	16081.95
575.877	16191.55
576.238	16295.5
576.599	16403.3
576.96	16540.24
577.32	16511.54
577.681	16742.5
578.042	16792.67
578.403	16911.76
578.763	17004.64
579.124	17260
579.485	17303.39
579.845	17504.06
580.206	17550.16
580.566	17722.81
580.927	17857.27
581.287	18051.62
581.648	18155.34
582.008	18367.99
582.368	18519.17
582.728	18691.82
583.089	18769.79
583.449	19031.93
583.809	19166.39
584.169	19380.85
584.529	19580.39
584.889	19915.07
585.249	20060.83
585.609	20248.62
585.969	20477.31
586.329	20669.85
586.688	20982.39
587.048	21200.23
587.408	21435.48
587.768	21666.66
588.127	21930.61
588.487	22068.46
588.846	22541.44
589.206	22458.73
589.565	22717.03
589.925	23104.82
590.284	23245.6
590.643	23565.82
591.003	24035.87
591.362	24310.89
591.721	24602.18
592.08	24859.35
592.44	25135.27
592.799	25291.2
593.158	25673.56
593.517	25992.65
593.876	26295.24
594.235	26488
594.593	26689.58
594.952	27104.49
595.311	27464.48
595.67	27733.85
596.029	28078.7
596.387	28466.71
596.746	28828.73
597.104	28822.86
597.463	29161.61
597.822	29503.97
598.18	29725.66
598.538	30075.03
598.897	30315.02
599.255	30585.75
599.613	31182.8
599.972	31079.3
600.33	31577.36
600.688	31663.46
601.046	32063
601.404	32503.44
601.762	32563.78
602.12	32927.38
602.478	33265
602.836	33480.81
603.194	33593.35
603.552	33985.21
603.91	34090.52
604.268	34395.14
604.625	34560.11
604.983	34852.08
605.341	34943.37
605.698	35371.61
606.056	35537.71
606.413	35800.53
606.771	36057.92
607.128	36268.31
607.485	36442.77
607.843	36539.49
608.2	37080.04
608.557	37200.49
608.914	37319.36
609.272	37731.78
609.629	38003.86
609.986	38141.03
610.343	38225.32
610.7	38553.9
611.057	38642.71
611.414	38836.15
611.771	39058.3
612.127	39375.57
612.484	39437.49
612.841	39790.93
613.198	39745.73
613.554	39922.68
613.911	40395.21
614.267	40217.36
614.624	40478.6
614.98	40678.37
615.337	40881.52
615.693	41066.6
616.05	40920.84
616.406	41344.56
616.762	41297.11
617.118	41525.12
617.475	41656.87
617.831	41865.45
618.187	41862.29
618.543	41954.04
618.899	42363.52
619.255	42370.07
619.611	42389.28
619.967	42636.73
620.323	42784.52
620.678	42846.22
621.034	42884.64
621.39	42938.64
621.746	42954.24
622.101	43485.52
622.457	43174.35
622.812	43369.82
623.168	43478.29
623.523	43520.1
623.879	43826.76
624.234	43504.05
624.589	43745.18
624.945	43894.78
625.3	43997.83
625.655	43880.99
626.01	43916.92
626.365	44077.15
626.72	44303.35
627.075	44236.69
627.43	44260.87
627.785	44176.58
628.14	44268.1
628.495	44483.24
628.85	44307.65
629.205	44391.94
629.559	44623.8
629.914	44416.12
630.269	44530.92
630.623	44420.64
630.978	44465.61
631.332	44623.8
631.687	44741.76
632.041	44488.66
632.396	44663.57
632.75	44629
633.104	44597.36
633.459	44522.78
633.813	44587.64
634.167	44633.06
634.521	44671.03
634.875	44559.39
635.229	44646.62
635.583	44508.77
635.937	44497.93
636.291	44563.24
636.645	44700.18
636.999	44501.77
637.352	44692.05
637.706	44561.43
638.06	44644.36
638.413	44592.39
638.767	44485.27
639.121	44545.38
639.474	44431.94
639.828	44461.54
640.181	44560.98
640.534	44525.95
640.888	44349.23
641.241	44353.75
641.594	44331.6
641.947	44353.98
642.301	44322.34
642.654	44323.47
643.007	44137.94
643.36	44262.68
643.713	44269.46
644.066	44360.53
644.419	44100.65
644.771	43862.01
645.124	43608.68
645.477	43585.18
645.83	43168.24
646.182	43091.41
646.535	43004.63
646.888	42964.18
647.24	42869.27
647.593	43107.68
647.945	42999.66
648.298	42824.98
648.65	42760.12
649.002	42770.97
649.355	42801.47
649.707	42837.86
650.059	43011.86
650.411	43345.19
650.763	43546.76
651.115	43907.89
651.467	43760.32
651.819	43793.31
652.171	43681.22
652.523	43643.26
652.875	43653.2
653.227	43536.14
653.578	43902.01
653.93	43636.48
654.282	43510.83
654.633	43379.31
654.985	43439.87
655.337	43536.37
655.688	43592.64
656.039	43753.31
656.391	43215.93
656.742	43381.35
657.094	43253.89
657.445	43557.16
657.796	43408.46
658.147	43299.99
658.498	43311.52
658.849	43353.55
659.2	43316.49
659.551	43251.86
659.902	43355.36
660.253	43355.58
660.604	43274.68
660.955	43081.69
661.306	43454.34
661.656	43232.65
662.007	43180.22
662.358	43128.92
662.708	43138.64
663.059	43136.61
663.409	43090.73
663.76	43370.27
664.11	43151.29
664.461	43213.89
664.811	43183.84
665.161	43163.5
665.511	43087.12
665.862	43199.66
666.212	43327.34
666.562	43244.63
666.912	43139.32
667.262	43130.05
667.612	43232.2
667.962	43133.89
668.312	43060.22
668.662	43218.41
669.011	43007.34
669.361	42996.27
669.711	43001.69
670.06	42877.4
670.41	42831.76
670.76	42917.4
671.109	42974.35
671.459	42996.04
671.808	42943.62
672.157	42920.57
672.507	42629.05
672.856	42772.1
673.205	42807.12
673.554	42885.99
673.904	42744.75
674.253	42921.92
674.602	42864.07
674.951	42283.29
675.3	42189.29
675.649	42683.06
675.998	42689.16
676.346	42720.35
676.695	42871.08
677.044	42471.31
677.393	42672.89
677.741	42763.73
678.09	42492.78
678.438	42482.16
678.787	42620.01
679.135	42434.25
679.484	42222.96
679.832	42452.56
680.181	42297.08
680.529	42346.12
680.877	42165.11
681.225	42138.21
681.573	42353.8
681.922	42180.47
682.27	41977.31
682.618	42091.44
682.966	41801.27
683.314	42036.07
683.661	41936.41
684.009	41719.47
684.357	41650.77
684.705	41719.92
685.053	41561.73
685.4	41471.11
685.748	41309.31
686.095	41333.04
686.443	41215.53
686.79	41154.29
687.138	41231.12
687.485	41268.18
687.832	41003.78
688.18	41036.77
688.527	40866.61
688.874	40965.36
689.221	40749.1
689.568	40598.14
689.915	40512.27
690.262	40566.73
690.609	40657.35
690.956	40369
691.303	40404.25
691.65	40173.75
691.997	40181.66
692.344	39909.8
692.69	39859.18
693.037	39952.06
693.383	39539.86
693.73	39794.09
694.077	39535.8
694.423	39531.5
694.769	39341.45
695.116	39256.48
695.462	39244.05
695.808	38973.78
696.155	39167.44
696.501	39042.02
696.847	38881.35
697.193	38528.14
697.539	38670.28
697.885	38633.67
698.231	38502.83
698.577	38404.75
698.923	38306.9
699.269	38128.15
699.614	37934.93
699.96	37955.5
700.306	37964.99
700.651	37770.19
700.997	37660.59
701.342	37662.63
701.688	37563.65
702.033	37425.12
702.379	37492.01
702.724	37223.32
703.069	37395.97
703.415	36915.75
703.76	36983.32
704.105	37056.54
704.45	36803.67
704.795	36649.09
705.14	36531.13
705.485	36568.87
705.83	36434.64
706.175	36529.32
706.52	36394.41
706.865	36271.93
707.209	36265.83
707.554	36110.35
707.899	36121.42
708.243	36010.92
708.588	36006.85
708.932	35715.56
709.277	35774.77
709.621	35757.59
709.966	35436.47
710.31	35587.65
710.654	35195.57
710.998	35291.16
711.342	35432.63
711.687	35227.44
712.031	35075.57
712.375	34947.89
712.719	34996.71
713.063	34832.64
713.407	35038.74
713.75	34758.3
714.094	34558.53
714.438	34526.44
714.782	34661.12
715.125	34376.16
715.469	34590.16
715.812	34359.66
716.156	34153.57
716.499	34036.96
716.843	34312.88
717.186	33946.34
717.53	34096.39
717.873	34239.44
718.216	34132.55
718.559	33822.05
718.902	33566.01
719.246	33857.3
719.589	33727.81
719.932	33525.56
720.275	33541.38
720.617	33578.89
720.96	33462.51
721.303	33499.35
721.646	33481.27
721.989	33203.76
722.331	33297.54
722.674	33192.91
723.016	33273.14
723.359	33235.62
723.701	33144.1
724.044	32920.6
724.386	32766.71
724.729	32894.62
725.071	32763.09
725.413	32883.32
725.755	32806.71
726.097	32549.54
726.439	32461.86
726.782	32397.23
727.124	32665.47
727.465	32501.41
727.807	32360.17
728.149	32360.84
728.491	32235.65
728.833	32333.05
729.175	32121.98
729.516	32119.95
729.858	32056.22
730.199	32166.72
730.541	32020.51
730.882	31996.33
731.224	32097.12
731.565	31840.41
731.906	31847.41
732.248	31765.38
732.589	31735.32
732.93	31578.27
733.271	31686.96
733.612	31582.56
733.953	31631.37
734.294	31457.59
734.635	31328.55
734.976	31472.28
735.317	31310.7
735.658	31368.1
735.999	31356.35
736.339	31242.91
736.68	31311.83
737.021	31215.34
737.361	31061.9
737.702	31236.13
738.042	31075.68
738.383	31079.97
738.723	31092.85
739.063	30989.58
739.404	30913.2
739.744	30907.55
740.084	30731.96
740.424	30848.57
740.764	30677.72
741.104	30902.58
741.444	30476.6
741.784	30532.64
742.124	30681.11
742.464	30522.93
742.804	30479.09
743.143	30337.85
743.483	30451.29
743.823	30228.7
744.162	30257.85
744.502	30270.73
744.841	30034.58
745.181	30154.8
745.52	30109.83
745.86	30063.73
746.199	30052.88
746.538	30061.7
746.877	30029.38
747.216	29947.12
747.556	29789.39
747.895	29923.62
748.234	29743.51
748.573	29743.96
748.911	29522.27
749.25	29696.73
749.589	29525.44
749.928	29536.06
750.267	29577.19
750.605	29485.89
750.944	29362.05
751.283	29253.36
751.621	29342.84
751.96	29239.57
752.298	29289.29
752.636	29251.1
752.975	29030.08
753.313	29062.85
753.651	29162.74
753.989	28780.83
754.327	28758.45
754.666	28695.18
755.004	28835.06
755.342	28793.25
755.679	28737.89
756.017	28644.78
756.355	28657.66
756.693	28503.77
757.031	28538.57
757.368	28280.05
757.706	28343.77
758.044	28244.79
758.381	28277.56
758.719	28211.8
759.056	28149.43
759.394	28090
759.731	27779.72
760.068	28041.64
760.405	27765.26
760.743	27685.03
761.08	27702.44
761.417	27523.46
761.754	27471.03
762.091	27346.74
762.428	27360.52
762.765	27212.28
763.102	27294.31
763.438	27186.52
763.775	27065.39
764.112	27027.42
764.449	27102.9
764.785	26873.08
765.122	26659.98
765.458	26648.68
765.795	26680.99
766.131	26539.3
766.467	26330.04
766.804	26256.37
767.14	26235.13
767.476	26166.66
767.812	26041.46
768.148	26091.18
768.485	25863.39
768.821	25675.6
769.157	25782.03
769.492	25752.43
769.828	25528.93
770.164	25390.63
770.5	25361.03
770.836	25291.88
771.171	25137.76
771.507	25048.04
771.842	25051.43
772.178	24935.05
772.513	25011.66
772.849	24787.94
773.184	24699.35
773.519	24805.56
773.855	24526.25
774.19	24508.4
774.525	24427.27
774.86	24444.67
775.195	24295.97
775.53	24142.76
775.865	24045.36
776.2	23962.87
776.535	23735.76
776.87	23753.16
777.205	23585.93
777.539	23644.92
777.874	23597.01
778.209	23361.76
778.543	23408.31
778.878	23367.18
779.212	23284.7
779.547	23177.81
779.881	23212.61
780.215	22991.37
780.55	23014.2
780.884	22797.48
781.218	22723.36
781.552	22744.37
781.886	22645.17
782.22	22456.02
782.554	22385.29
782.888	22146.88
783.222	22214.22
783.556	22052.19
783.889	21945.75
784.223	21920.89
784.557	21913.89
784.89	21848.35
785.224	21660.56
785.557	21654.46
785.891	21569.72
786.224	21448.59
786.558	21516.38
786.891	21362.94
787.224	21194.36
787.557	21136.51
787.891	21137.41
788.224	21136.28
788.557	21028.49
788.89	20992.33
789.223	20973.8
789.556	20809.51
789.888	20757.08
790.221	20666.24
790.554	20477.54
790.887	20587.82
791.219	20415.62
791.552	20426.92
791.884	20339.24
792.217	20289.3
792.549	20186.47
792.882	19882.3
793.214	19936.76
793.546	19885.92
793.879	19875.75
794.211	19773.6
794.543	19814.28
794.875	19614.51
795.207	19673.95
795.539	19645.25
795.871	19627.39
796.203	19502.65
796.535	19321.19
796.867	19362.77
797.198	19295.88
797.53	19216.33
797.862	19061.31
798.193	19155.32
798.525	18947.86
798.856	18985.6
799.188	18784.48
799.519	18687.98
799.85	18746.06
800.182	18751.48
800.513	18697.7
800.844	18537.7
801.175	18565.05
801.506	18594.2
801.837	18446.18
802.168	18332.96
802.499	18317.82
802.83	18206.41
803.161	18246.86
803.491	18184.27
803.822	18181.1
804.153	18033.54
804.483	17942.24
804.814	17862.47
805.145	17786.99
805.475	17793.32
805.805	17702.47
806.136	17741.57
806.466	17781.79
806.796	17675.35
807.126	17419.09
807.457	17467.9
807.787	17399.43
808.117	17442.14
808.447	17229.49
808.777	17238.3
809.107	17349.71
809.436	17242.15
809.766	17228.59
810.096	17157.63
810.426	17111.08
810.755	17099.78
811.085	17031.3
811.414	16996.5
811.744	16766.68
812.073	16834.7
812.403	16773.01
812.732	16720.58
813.061	16645.33
813.39	16587.7
813.719	16510.41
814.049	16659.79
814.378	16587.25
814.707	16478.32
815.036	16475.16
815.365	16346.58
815.693	16246.01
816.022	16222.51
816.351	16269.52
816.68	16189.74
817.008	16194.49
817.337	16047.83
817.665	16017.54
817.994	16119.69
818.322	15971.22
818.651	15944.55
818.979	15912.24
819.307	15950.65
819.636	15978.45
819.964	15698.46
820.292	15769.42
820.62	15830.43
820.948	15740.49
821.276	15780.72
821.604	15694.39
821.932	15792.47
822.259	15726.71
822.587	15692.81
822.915	15657.78
823.243	15720.6
823.57	15736.2
823.898	15663.43
824.225	15648.29
824.553	15656.2
824.88	15641.06
825.207	15691
825.535	15583.43
825.862	15622.3
826.189	15668.63
826.516	15775.52
826.843	15662.3
827.17	15659.59
827.497	15667.72
827.824	15676.08
828.151	15654.62
828.478	15656.42
828.805	15677.21
829.131	15641.06
829.458	15532.81
829.785	15626.37
830.111	15629.31
830.438	15665.24
830.764	15561.06
831.09	15669.31
831.417	15536.65
831.743	15534.85
832.069	15590.66
832.395	15425.7
832.722	15545.69
833.048	15483.1
833.374	15469.54
833.7	15442.64
834.026	15416.66
834.351	15380.27
834.677	15496.65
835.003	15430.67
835.329	15433.61
835.654	15344.57
835.98	15247.17
836.306	15376.21
836.631	15365.13
836.956	15351.12
837.282	15267.28
837.607	15260.5
837.932	15194.74
838.258	15250.33
838.583	15261.63
838.908	15085.59
839.233	15135.76
839.558	15085.37
839.883	15028.19
840.208	14984.35
840.533	15018.25
840.858	15009.66
841.182	14982.54
841.507	15047.85
841.832	14858.93
842.156	14832.49
842.481	14849.21
842.805	14778.48
843.13	14705.94
843.454	14766.96
843.778	14771.7
844.103	14658.03
844.427	14644.93
844.751	14657.81
845.075	14541.88
845.399	14440.41
845.723	14487.87
846.047	14459.85
846.371	14356.8
846.695	14340.75
847.019	14163.13
847.343	14130.59
847.666	14083.81
847.99	13992.29
848.313	14029.35
848.637	13887.21
848.96	13851.05
849.284	13841.78
849.607	13715.01
849.931	13675.01
850.254	13542.13
850.577	13501
850.9	13495.13
851.223	13513.66
851.546	13406.09
851.869	13348.69
852.192	13402.02
852.515	13266.2
852.838	13181.91
853.161	13167.68
853.483	13172.87
853.806	13097.17
854.129	13056.49
854.451	12981.01
854.774	12970.62
855.096	12952.77
855.419	12847.91
855.741	12914.35
856.063	12808.82
856.385	12774.24
856.708	12706.9
857.03	12671.87
857.352	12738.54
857.674	12600.91
857.996	12560.01
858.318	12573.12
858.64	12579.9
858.961	12427.13
859.283	12363.4
859.605	12362.73
859.926	12419.9
860.248	12397.98
860.57	12312.56
860.891	12300.81
861.212	12182.17
861.534	12198.21
861.855	12211.54
862.176	12132.22
862.498	12156.63
862.819	12145.78
863.14	12075.73
863.461	11990.08
863.782	11924.55
864.103	12012.23
864.424	12018.1
864.745	12022.4
865.065	11906.69
865.386	11875.73
865.707	11837.09
866.027	11852.23
866.348	11846.81
866.668	11825.34
866.989	11797.09
867.309	11697.43
867.63	11741.95
867.95	11743.08
868.27	11582.18
868.59	11709.41
868.91	11638.23
869.23	11684.78
869.55	11533.6
869.87	11661.73
870.19	11614.04
870.51	11542.41
870.83	11578.11
871.15	11446.14
871.469	11491.11
871.789	11494.05
872.109	11529.75
872.428	11417.89
872.748	11501.96
873.067	11493.6
873.386	11516.42
873.706	11369.98
874.025	11367.72
874.344	11283.43
874.663	11362.07
874.982	11301.06
875.301	11269.2
875.62	11259.25
875.939	11247.5
876.258	11276.43
876.577	11202.76
876.896	11158.46
877.214	11163.66
877.533	11237.33
877.852	11187.84
878.17	11215.19
878.489	11131.12
878.807	11025.59
879.125	11039.14
879.444	11114.17
879.762	11056.09
880.08	11022.87
880.398	11023.78
880.716	10998.92
881.034	10918.24
881.352	10898.81
881.67	10910.56
881.988	10958.47
882.306	10883.89
882.624	10788.53
882.941	10767.74
883.259	10694.3
883.577	10683.45
883.894	10692.04
884.212	10694.52
884.529	10709.89
884.846	10659.49
885.164	10638.25
885.481	10568.2
885.798	10600.74
886.115	10525.03
886.432	10508.76
886.75	10511.93
887.067	10452.49
887.383	10441.65
887.7	10398.48
888.017	10349.67
888.334	10351.48
888.651	10317.13
888.967	10320.97
889.284	10262.22
889.6	10198.04
889.917	10139.73
890.233	10218.15
890.55	10189.68
890.866	10173.86
891.182	10099.73
891.498	10069.45
891.815	10054.31
892.131	10001.21
892.447	9981.32
892.763	10044.82
893.079	9969.57
893.395	9854.77
893.71	9820.87
894.026	9856.13
894.342	9796.92
894.657	9768.67
894.973	9699.74
895.289	9689.35
895.604	9777.26
895.92	9668.11
896.235	9632.4
896.55	9636.02
896.865	9542.69
897.181	9542.91
897.496	9555.57
897.811	9489.13
898.126	9450.49
898.441	9454.1
898.756	9412.29
899.071	9362.8
899.386	9340.21
899.7	9303.15
900.015	9242.58
900.33	9191.06
900.644	9108.12
900.959	9202.81
901.273	9188.35
901.588	9110.83
901.902	9036.03
902.216	9085.75
902.531	8955.58
902.845	9002.59
903.159	8915.36
903.473	8847.34
903.787	8825.64
904.101	8815.02
904.415	8867
904.729	8732.99
905.042	8703.16
905.356	8665.2
905.67	8621.58
905.984	8617.06
906.297	8668.13
906.611	8584.29
906.924	8507.69
907.237	8529.38
907.551	8507.46
907.864	8454.81
908.177	8457.52
908.491	8359.89
908.804	8279.44
909.117	8308.37
909.43	8261.59
909.743	8204.87
910.056	8244.19
910.368	8140.46
910.681	8122.84
910.994	8098.21
911.307	8071.31
911.619	7991.54
911.932	8031.09
912.244	7947.93
912.557	7966.46
912.869	7918.1
913.181	7825.44
913.494	7850.75
913.806	7808.95
914.118	7793.13
914.43	7798.55
914.742	7736.63
915.054	7727.59
915.366	7716.07
915.678	7576.18
915.99	7664.77
916.302	7493.7
916.613	7497.54
916.925	7472.23
917.236	7423.87
917.548	7396.98
917.859	7417.09
918.171	7376.42
918.482	7301.16
918.794	7259.58
919.105	7350.2
919.416	7199.92
919.727	7239.92
920.038	7232.69
920.349	7156.76
920.66	7102.3
920.971	7087.38
921.282	7065.24
921.593	7047.84
921.903	6974.17
922.214	6988.86
922.525	6961.96
922.835	6861.63
923.146	6878.35
923.456	6835.87
923.767	6853.04
924.077	6804.91
924.387	6718.13
924.697	6701.18
925.008	6731.46
925.318	6677.23
925.628	6669.77
925.938	6623.89
926.248	6637.9
926.558	6531.47
926.867	6526.27
927.177	6516.1
927.487	6465.93
927.796	6469.55
928.106	6433.39
928.416	6429.32
928.725	6410.79
929.034	6314.75
929.344	6312.04
929.653	6271.81
929.962	6286.05
930.271	6257.35
930.581	6240.17
930.89	6189.33
931.199	6132.38
931.508	6097.81
931.817	6058.71
932.125	6053.74
932.434	6057.35
932.743	5995.21
933.051	5964.02
933.36	5963.12
933.669	5954.98
933.977	5880.64
934.286	5902.56
934.594	5860.3
934.902	5766.52
935.21	5774.2
935.519	5781.88
935.827	5788.89
936.135	5683.13
936.443	5678.16
936.751	5669.57
937.059	5663.47
937.367	5602.9
937.674	5655.33
937.982	5629.8
938.29	5580.31
938.597	5522
938.905	5508.89
939.213	5454.88
939.52	5454.43
939.827	5465.28
940.135	5413.3
940.442	5363.81
940.749	5405.17
941.056	5388.22
941.363	5341.89
941.67	5361.78
941.977	5232.29
942.284	5261.9
942.591	5267.32
942.898	5257.38
943.205	5205.85
943.511	5197.04
943.818	5157.94
944.125	5112.75
944.431	5024.61
944.738	5045.4
945.044	5093.99
945.35	5038.4
945.657	5061.67
945.963	5031.85
946.269	4976.25
946.575	4963.6
946.881	4917.72
947.187	4926.09
947.493	4925.86
947.799	4900.32
948.105	4866.43
948.41	4800.21
948.716	4829.14
949.022	4799.76
949.327	4803.38
949.633	4720.89
949.938	4769.93
950.244	4705.98
950.549	4697.62
950.854	4656.49
951.16	4654.91
951.465	4573.33
951.77	4605.19
952.075	4533.33
952.38	4576.04
952.685	4537.85
952.99	4527.45
953.294	4541.69
953.599	4480
953.904	4404.29
954.209	4431.18
954.513	4405.87
954.818	4389.38
955.122	4350.51
955.426	4387.34
955.731	4381.01
956.035	4312.09
956.339	4307.34
956.643	4279.1
956.948	4229.15
957.252	4233.67
957.556	4256.05
957.86	4209.49
958.163	4249.72
958.467	4202.04
958.771	4186.9
959.075	4116.39
959.378	4137.63
959.682	4075.71
959.985	4103.73
960.289	4083.4
960.592	4030.29
960.896	4082.27
961.199	4019.22
961.502	4045.88
961.805	3989.61
962.108	3959.1
962.411	3919.56
962.714	3951.42
963.017	3887.69
963.32	3933.57
963.623	3899.22
963.926	3860.12
964.228	3842.05
964.531	3828.71
964.833	3817.87
965.136	3798.43
965.438	3817.64
965.741	3827.13
966.043	3745.1
966.345	3717.3
966.648	3724.53
966.95	3696.51
967.252	3682.28
967.554	3700.81
967.856	3618.77
968.158	3664.65
968.46	3636.4
968.761	3608.83
969.063	3557.53
969.365	3590.08
969.666	3569.96
969.968	3514.37
970.269	3529.96
970.571	3527.93
970.872	3509.63
971.174	3451.1
971.475	3427.82
971.776	3456.29
972.077	3439.12
972.378	3401.15
972.679	3420.81
972.98	3405.45
973.281	3349.4
973.582	3382.62
973.883	3304.43
974.183	3334.26
974.484	3302.85
974.785	3339.91
975.085	3251.55
975.386	3328.16
975.686	3279.35
975.986	3223.98
976.287	3246.36
976.587	3209.07
976.887	3211.55
977.187	3180.37
977.487	3172.46
977.787	3143.99
978.087	3147.6
978.387	3118.45
978.687	3122.74
978.987	3113.03
979.286	3101.05
979.586	3056.3
979.885	3079.35
980.185	3033.71
980.484	3027.38
980.784	3010.66
981.083	3025.12
981.382	2992.58
981.682	3010.43
981.981	2944.44
982.28	2915.06
982.579	2927.72
982.878	2966.59
983.177	2936.08
983.475	2930.21
983.774	2878.91
984.073	2883.88
984.372	2884.56
984.67	2818.12
984.969	2850.66
985.267	2849.98
985.566	2800.94
985.864	2786.93
986.162	2773.15
986.461	2778.35
986.759	2749.19
987.057	2752.36
987.355	2718.46
987.653	2717.1
987.951	2699.48
988.249	2715.07
988.547	2732.7
988.844	2698.8
989.142	2702.64
989.44	2666.03
989.737	2614.28
990.035	2648.63
990.332	2617.67
990.63	2611.12
990.927	2576.54
991.224	2571.34
991.521	2580.38
991.819	2566.83
992.116	2562.53
992.413	2506.94
992.71	2538.58
993.006	2533.15
993.303	2506.26
993.6	2519.14
993.897	2483.66
994.193	2468.97
994.49	2459.48
994.787	2394.17
995.083	2422.2
995.379	2410.45
995.676	2456.09
995.972	2389.65
996.268	2389.43
996.565	2369.32
996.861	2363.67
997.157	2349.66
997.453	2344.46
997.749	2351.24
998.044	2306.27
998.34	2308.75
998.636	2333.61
998.932	2296.55
999.227	2227.85
999.523	2248.87
999.818	2258.58
1000.114	2243.9
1000.409	2196.67
1000.704	2225.14
1001	2174.29
1001.295	2148.08
1001.59	2165.48
1001.885	2174.97
1002.18	2140.85
1002.475	2134.52
1002.77	2128.42
1003.065	2121.41
1003.359	2116.67
1003.654	2089.32
1003.949	2083
1004.243	2047.52
1004.538	2044.58
1004.832	2050
1005.127	2030.57
1005.421	2027.63
1005.715	1996.67
1006.009	2006.84
1006.304	1993.96
1006.598	1963.45
1006.892	1964.81
1007.186	1978.14
1007.48	1925.26
1007.773	1953.96
1008.067	1918.93
1008.361	1920.97
1008.655	1890.01
1008.948	1887.97
1009.242	1858.37
1009.535	1872.38
1009.829	1861.76
1010.122	1831.48
1010.415	1827.18
1010.708	1841.65
1011.001	1804.13
1011.295	1798.26
1011.588	1813.4
1011.881	1788.54
1012.173	1788.31
1012.466	1791.25
1012.759	1773.17
1013.052	1746.06
1013.344	1727.3
1013.637	1742.21
1013.93	1721.2
1014.222	1723.23
1014.514	1687.07
1014.807	1697.7
1015.099	1686.85
1015.391	1671.03
1015.683	1643.91
1015.976	1658.6
1016.268	1618.83
1016.56	1601.88
1016.851	1612.95
1017.143	1589.22
1017.435	1581.99
1017.727	1565.04
1018.018	1544.48
1018.31	1558.04
1018.602	1538.83
1018.893	1537.47
1019.185	1518.49
1019.476	1500.19
1019.767	1524.59
1020.058	1505.61
1020.35	1504.03
1020.641	1480.53
1020.932	1494.99
1021.223	1478.27
1021.514	1487.98
1021.804	1445.05
1022.095	1466.06
1022.386	1448.66
1022.677	1409.34
1022.967	1434.43
1023.258	1404.14
1023.548	1405.27
1023.839	1406.4
1024.129	1397.36
1024.419	1389.68
1024.709	1353.07
1025	1352.62
1025.29	1347.87
1025.58	1326.63
1025.87	1328.44
1026.16	1304.94
1026.449	1304.49
1026.739	1296.35
1027.029	1267.42
1027.319	1283.24
1027.608	1263.58
1027.898	1268.78
1028.187	1258.38
1028.477	1278.95
1028.766	1235.11
1029.055	1225.62
1029.344	1228.78
1029.634	1204.6
1029.923	1209.8
1030.212	1190.82
1030.501	1194.88
1030.79	1169.35
1031.078	1176.35
1031.367	1189.01
1031.656	1168.9
1031.945	1149.91
1032.233	1139.97
1032.522	1123.93
1032.81	1128.9
1033.099	1131.16
1033.387	1098.16
1033.675	1095
1033.963	1074.44
1034.251	1071.95
1034.54	1079.63
1034.828	1093.64
1035.116	1076.24
1035.403	1040.99
1035.691	1076.02
1035.979	1043.25
1036.267	1060.65
1036.554	1030.82
1036.842	1020.65
1037.129	1026.53
1037.417	991.95
1037.704	1012.74
1037.992	1010.93
1038.279	1004.83
1038.566	989.92
1038.853	989.92
1039.14	989.92
