Data from hue_32_FLMS001491_00018.txt Node
Date: Tue Feb 07 17:22:59 GMT 2017
User: dcchb
Spectrometer: FLMS00149
Trigger mode: 0
Integration Time (sec): 2.000000E-2
Scans to average: 10
Electric dark correction enabled: true
Nonlinearity correction enabled: false
Boxcar width: 0
XAxis mode: Wavelengths
Number of Pixels in Spectrum: 2048
>>>>>Begin Spectral Data<<<<<
341.393	-14.41
341.776	-14.41
342.16	-14.41
342.543	-50.79
342.927	-57.34
343.31	-67.74
343.693	-67.51
344.077	-77.68
344.46	-52.82
344.843	-48.08
345.226	-30.68
345.61	-33.61
345.993	-33.84
346.376	-12.37
346.759	3.9
347.142	33.28
347.525	38.25
347.908	48.87
348.291	79.15
348.674	94.97
349.057	125.93
349.44	110.56
349.823	132.71
350.206	161.86
350.588	213.16
350.971	223.55
351.354	230.56
351.737	247.28
352.119	251.8
352.502	264.46
352.884	297.45
353.267	283.89
353.65	292.93
354.032	290.9
354.414	313.95
354.797	311.23
355.179	329.54
355.562	316.66
355.944	345.81
356.326	322.99
356.709	352.82
357.091	338.35
357.473	351.01
357.855	356.88
358.238	336.54
358.62	341.97
359.002	343.1
359.384	358.01
359.766	329.99
360.148	360.95
360.53	347.84
360.912	329.09
361.294	332.7
361.676	332.7
362.057	343.1
362.439	328.86
362.821	321.18
363.203	329.31
363.584	336.54
363.966	313.72
364.348	335.64
364.729	332.03
365.111	312.82
365.493	331.12
365.874	315.53
366.256	320.5
366.637	327.73
367.019	310.56
367.4	329.77
367.781	306.72
368.163	314.85
368.544	312.59
368.925	315.75
369.306	334.51
369.688	337
370.069	329.77
370.45	303.33
370.831	289.54
371.212	319.37
371.593	315.3
371.974	311.46
372.355	311.69
372.736	320.95
373.117	324.57
373.498	324.57
373.879	303.78
374.26	315.3
374.641	312.82
375.021	311.23
375.402	330.9
375.783	330.22
376.163	333.83
376.544	333.38
376.925	321.86
377.305	330.9
377.686	328.86
378.066	351.69
378.447	339.48
378.827	336.77
379.208	327.28
379.588	335.41
379.968	352.82
380.349	333.83
380.729	340.39
381.109	322.99
381.489	329.54
381.87	331.12
382.25	335.87
382.63	328.41
383.01	341.29
383.39	331.12
383.77	341.06
384.15	346.94
384.53	343.1
384.91	335.19
385.29	361.4
385.67	347.39
386.049	368.86
386.429	352.14
386.809	371.12
387.189	356.88
387.568	361.18
387.948	385.58
388.328	343.32
388.707	382.19
389.087	390.55
389.466	369.31
389.846	375.41
390.225	354.62
390.605	365.47
390.984	384
391.363	382.19
391.743	364.11
392.122	373.38
392.501	374.51
392.881	378.13
393.26	370.22
393.639	400.5
394.018	379.03
394.397	386.71
394.776	392.14
395.155	383.1
395.534	396.66
395.913	391.01
396.292	407.28
396.671	398.69
397.05	375.41
397.429	416.77
397.808	393.94
398.186	400.05
398.565	401.63
398.944	374.96
399.323	402.31
399.701	406.37
400.08	400.5
400.458	409.31
400.837	390.55
401.215	395.98
401.594	417.22
401.972	393.94
402.351	419.48
402.729	412.02
403.107	411.57
403.486	413.15
403.864	409.99
404.242	418.35
404.62	425.13
404.999	424.68
405.377	437.33
405.755	423.55
406.133	421.06
406.511	415.19
406.889	433.27
407.267	443.89
407.645	462.42
408.023	434.17
408.401	433.27
408.779	438.24
409.156	448.41
409.534	449.31
409.912	441.4
410.29	460.84
410.667	450.67
411.045	447.73
411.422	462.87
411.8	453.83
412.178	482.98
412.555	465.13
412.933	478.01
413.31	468.52
413.687	494.05
414.065	481.63
414.442	501.74
414.819	506.71
415.197	484.34
415.574	515.52
415.951	515.52
416.328	518.46
416.705	503.77
417.082	502.42
417.46	515.98
417.837	516.43
418.214	527.5
418.591	516.43
418.967	508.52
419.344	523.88
419.721	535.86
420.098	539.7
420.475	540.61
420.852	532.92
421.228	552.58
421.605	545.13
421.982	551
422.358	545.13
422.735	552.13
423.111	533.83
423.488	569.99
423.864	564.79
424.241	556.65
424.617	559.82
424.994	574.05
425.37	559.14
425.746	583.32
426.123	571.34
426.499	572.92
426.875	597.55
427.251	590.55
427.627	593.04
428.003	609.76
428.379	610.21
428.756	612.47
429.132	609.98
429.507	609.98
429.883	606.14
430.259	643.2
430.635	623.09
431.011	632.13
431.387	636.88
431.763	643.66
432.138	653.15
432.514	651.11
432.89	666.48
433.265	694.5
433.641	685.91
434.016	664.9
434.392	711.9
434.767	700.38
435.143	667.38
435.518	692.69
435.894	711.68
436.269	693.82
436.644	722.52
437.02	714.61
437.395	719.36
437.77	716.65
438.145	731.79
438.52	729.75
438.895	743.09
439.271	753.26
439.646	773.82
440.021	750.09
440.395	789.87
440.77	781.73
441.145	783.99
441.52	762.3
441.895	793.26
442.27	790.77
442.645	808.85
443.019	802.3
443.394	777.66
443.769	815.18
444.143	795.52
444.518	815.18
444.892	818.57
445.267	825.57
445.641	838.23
446.016	831.67
446.39	833.48
446.764	830.32
447.139	857.66
447.513	838.68
447.887	854.5
448.262	859.92
448.636	868.73
449.01	870.77
449.384	869.64
449.758	861.05
450.132	887.04
450.506	886.81
450.88	884.1
451.254	889.98
451.628	903.08
452.002	907.6
452.376	908.96
452.75	937.43
453.123	936.3
453.497	933.14
453.871	951.44
454.244	965
454.618	970.2
454.992	976.08
455.365	972.46
455.739	1000.93
456.112	1014.49
456.486	1006.58
456.859	1023.08
457.232	1026.92
457.606	1040.71
457.979	1026.47
458.352	1075.28
458.725	1077.99
459.099	1110.99
459.472	1098.11
459.845	1075.28
460.218	1121.38
460.591	1116.86
460.964	1122.74
461.337	1148.27
461.71	1183.98
462.083	1173.81
462.456	1191.21
462.829	1200.02
463.201	1192.57
463.574	1217.43
463.947	1203.19
464.32	1249.29
464.692	1265.79
465.065	1284.54
465.438	1279.34
465.81	1284.77
466.183	1328.61
466.555	1334.26
466.928	1335.84
467.3	1358.66
467.672	1381.49
468.045	1416.06
468.417	1398.44
468.789	1430.3
469.161	1451.77
469.534	1446.12
469.906	1499
470.278	1525.44
470.65	1539
471.022	1582.61
471.394	1590.3
471.766	1613.12
472.138	1655.61
472.51	1656.28
472.882	1723.85
473.253	1729.28
473.625	1751.2
473.997	1797.52
474.369	1828.93
474.74	1818.99
475.112	1876.17
475.484	1940.57
475.855	1948.25
476.227	1985.32
476.598	2030.74
476.97	2075.48
477.341	2102.15
477.713	2169.72
478.084	2205.2
478.455	2252.65
478.827	2292.65
479.198	2349.37
479.569	2405.19
479.94	2465.08
480.311	2503.72
480.682	2573.55
481.053	2659.87
481.424	2727.22
481.795	2721.34
482.166	2814.45
482.537	2828.68
482.908	2945.06
483.279	2994.78
483.65	3069.81
484.021	3159.3
484.391	3210.14
484.762	3227.77
485.133	3327.65
485.503	3428.44
485.874	3504.82
486.244	3538.95
486.615	3647.87
486.985	3735.55
487.356	3794.76
487.726	3849.22
488.097	3953.62
488.467	4051.25
488.837	4156.11
489.207	4207.4
489.578	4289.89
489.948	4360.17
490.318	4449.66
490.688	4514.06
491.058	4639.48
491.428	4696.43
491.798	4749.99
492.168	4887.61
492.538	4938.01
492.908	5051
493.278	5115.63
493.648	5153.37
494.017	5246.02
494.387	5344.77
494.757	5394.94
495.126	5521.95
495.496	5505.9
495.866	5601.49
496.235	5704.54
496.605	5789.96
496.974	5838.55
497.344	5915.61
497.713	6036.06
498.082	6047.13
498.452	6126.45
498.821	6200.12
499.19	6221.81
499.559	6300
499.928	6342.94
500.298	6438.31
500.667	6463.39
501.036	6538.64
501.405	6617.06
501.774	6691.18
502.143	6771.63
502.512	6820.22
502.88	6867.45
503.249	6874.68
503.618	6981.34
503.987	7047.1
504.356	7126.65
504.724	7161.22
505.093	7128.23
505.462	7226.53
505.83	7269.24
506.199	7424.72
506.567	7449.58
506.936	7504.94
507.304	7583.36
507.672	7637.82
508.041	7759.4
508.409	7775.22
508.777	7802.56
509.145	7919.85
509.514	7922.79
509.882	7921.2
510.25	7906.52
510.618	8034.87
510.986	8072.16
511.354	8160.29
511.722	8242.78
512.09	8292.49
512.458	8264.47
512.826	8328.88
513.193	8406.39
513.561	8496.56
513.929	8404.81
514.297	8486.61
514.664	8579.94
515.032	8698.36
515.4	8704.01
515.767	8770.67
516.135	8763.67
516.502	8739.49
516.869	8876.43
517.237	8919.6
517.604	8909.88
517.972	9005.24
518.339	9058.12
518.706	9033.94
519.073	9044.34
519.44	9132.7
519.808	9243.66
520.175	9203.66
520.542	9327.04
520.909	9368.62
521.276	9331.34
521.643	9503.76
522.009	9551.44
522.376	9565.68
522.743	9634.38
523.11	9743.76
523.477	9829.85
523.843	9829.85
524.21	9896.52
524.577	10035.72
524.943	10068.49
525.31	10083.86
525.676	10182.84
526.043	10247.92
526.409	10287.92
526.776	10340.8
527.142	10420.8
527.508	10439.1
527.874	10514.13
528.241	10531.53
528.607	10558.87
528.973	10672.09
529.339	10651.3
529.705	10776.72
530.071	10853.78
530.437	10915.25
530.803	10992.76
531.169	11053.55
531.535	11033.21
531.901	10971.75
532.267	11169.03
532.632	11218.97
532.998	11248.12
533.364	11387.1
533.73	11345.97
534.095	11395.46
534.461	11512.3
534.826	11514.1
535.192	11583.71
535.557	11657.38
535.923	11585.06
536.288	11760.65
536.653	11700.09
537.019	11738.28
537.384	11873.64
537.749	11883.59
538.114	11894.43
538.479	11959.52
538.845	11982.57
539.21	11983.02
539.575	12014.2
539.94	12075.9
540.305	12234.99
540.67	12147.53
541.034	12227.76
541.399	12322.22
541.764	12307.53
542.129	12354.99
542.494	12506.85
542.858	12487.41
543.223	12474.53
543.587	12528.99
543.952	12585.94
544.316	12608.76
544.681	12716.78
545.045	12653.28
545.41	12808.31
545.774	12872.94
546.138	12882.2
546.503	12953.39
546.867	12990.45
547.231	13090.79
547.595	13079.49
547.959	13117.68
548.324	13215.3
548.688	13267.5
549.052	13225.02
549.416	13321.74
549.779	13303.21
550.143	13381.63
550.507	13492.36
550.871	13562.19
551.235	13509.08
551.599	13634.95
551.962	13579.36
552.326	13774.16
552.689	13775.74
553.053	13719.02
553.417	13803.76
553.78	13929.41
554.143	13801.5
554.507	13968.05
554.87	13979.35
555.234	14168.95
555.597	14041.72
555.96	14214.15
556.323	14193.81
556.686	14229.74
557.05	14296.4
557.413	14285.1
557.776	14445.33
558.139	14484.87
558.502	14445.55
558.865	14451.65
559.228	14572.78
559.59	14596.06
559.953	14636.06
560.316	14812.1
560.679	14790.4
561.041	14904.98
561.404	14860.46
561.767	14968.7
562.129	14933.68
562.492	15141.58
562.854	15183.61
563.217	15103.39
563.579	15213.22
563.941	15313.78
564.304	15396.26
564.666	15419.31
565.028	15460.44
565.39	15445.07
565.753	15509.25
566.115	15635.35
566.477	15677.38
566.839	15746.08
567.201	15820.43
567.563	15809.81
567.925	15877.15
568.287	15898.17
568.648	15856.36
569.01	16069.24
569.372	16165.51
569.734	16148.11
570.095	16240.31
570.457	16378.38
570.819	16294.54
571.18	16424.71
571.542	16495.22
571.903	16621.09
572.265	16596.68
572.626	16739.5
572.987	16835.55
573.349	16890.46
573.71	17047.74
574.071	17090.68
574.432	17075.77
574.794	17349.66
575.155	17258.13
575.516	17298.58
575.877	17473.95
576.238	17459.94
576.599	17686.82
576.96	17730.21
577.32	17903.09
577.681	18068.06
578.042	18026.93
578.403	18201.16
578.763	18351.66
579.124	18434.83
579.485	18658.32
579.845	18852.67
580.206	19014.47
580.566	19169.95
580.927	19135.15
581.287	19455.36
581.648	19499.66
582.008	19737.16
582.368	19883.83
582.728	20067.33
583.089	20258.73
583.449	20380.54
583.809	20653.52
584.169	20811.94
584.529	20958.6
584.889	21390.68
585.249	21432.04
585.609	21643.1
585.969	21954.96
586.329	22089.65
586.688	22325.57
587.048	22597.2
587.408	22725.11
587.768	22930.3
588.127	23162.61
588.487	23425.43
588.846	23815.93
589.206	23911.97
589.565	24242.36
589.925	24551.28
590.284	24791.27
590.643	25024.03
591.003	25377.47
591.362	25747.18
591.721	25903.1
592.08	26218.12
592.44	26569.75
592.799	26783.53
593.158	26964.32
593.517	27307.14
593.876	27611.31
594.235	27771.53
594.593	28022.37
594.952	28472.08
595.311	28623.48
595.67	28916.36
596.029	29290.59
596.387	29492.84
596.746	29849.44
597.104	29996.1
597.463	30214.63
597.822	30705.24
598.18	30720.38
598.538	30983.42
598.897	31339.8
599.255	31348.38
599.613	32107.23
599.972	32171.87
600.33	32347.68
600.688	32509.48
601.046	32931.17
601.404	33181.33
601.762	33279.86
602.12	33779.06
602.478	33805.95
602.836	34189.67
603.194	34158.71
603.552	34458.81
603.91	34591.69
604.268	34829.65
604.625	35125.23
604.983	35317.09
605.341	35444.1
605.698	35766.57
606.056	35952.78
606.413	36154.59
606.771	36442.49
607.128	36724.74
607.485	36665.99
607.843	36947.79
608.2	37213.54
608.557	37458.51
608.914	37483.36
609.272	37933.75
609.629	37954.99
609.986	38307.75
610.343	38238.6
610.7	38658.02
611.057	38778.25
611.414	38805.59
611.771	39183.88
612.127	39406.25
612.484	39398.12
612.841	39712.46
613.198	39667.49
613.554	39867.93
613.911	39956.75
614.267	40163.52
614.624	40231.99
614.98	40422.04
615.337	40657.29
615.693	40808.48
616.05	40765.76
616.406	41056.38
616.762	40992.88
617.118	41059.99
617.475	41229.93
617.831	41577.27
618.187	41581.56
618.543	41693.65
618.899	42079.85
619.255	42120.76
619.611	42115.33
619.967	42212.96
620.323	42355.55
620.678	42432.16
621.034	42302.67
621.39	42411.37
621.746	42557.81
622.101	42944.69
622.457	42697.01
622.812	42932.94
623.168	43123.67
623.523	43085.7
623.879	43351.01
624.234	42948.53
624.589	43347.17
624.945	43248.18
625.3	43358.92
625.655	43449.31
626.01	43523.43
626.365	43572.7
626.72	43645.01
627.075	43718.68
627.43	43776.08
627.785	43664.22
628.14	43740.15
628.495	43966.81
628.85	43759.58
629.205	43696.76
629.559	43848.85
629.914	43860.37
630.269	43899.02
630.623	43903.53
630.978	43844.78
631.332	44073.93
631.687	44153.47
632.041	43982.85
632.396	44084.1
632.75	43952.12
633.104	44092.91
633.459	43872.35
633.813	43969.52
634.167	43988.05
634.521	43971.78
634.875	44009.75
635.229	43961.39
635.583	43827.83
635.937	43755.06
636.291	43728.62
636.645	43921.16
636.999	43772.01
637.352	44042.29
637.706	43776.98
638.06	43926.81
638.413	43842.97
638.767	43882.52
639.121	43996.19
639.474	43715.07
639.828	43770.43
640.181	43709.87
640.534	43947.15
640.888	43699.02
641.241	43697.66
641.594	43814.27
641.947	43898.11
642.301	43779.24
642.654	43751.22
643.007	43767.49
643.36	43701.73
643.713	43705.8
644.066	43871.9
644.419	43537.22
644.771	43314.4
645.124	42973.84
645.477	42849.1
645.83	42625.15
646.182	42544.93
646.535	42440.3
646.888	42477.36
647.24	42372.28
647.593	42473.97
647.945	42578.6
648.298	42316.01
648.65	42304.48
649.002	42064.94
649.355	42355.55
649.707	42288.44
650.059	42490.92
650.411	42811.36
650.763	43059.72
651.115	43266.49
651.467	43162.09
651.819	43051.58
652.171	42966.61
652.523	43056.55
652.875	43012.26
653.227	42861.08
653.578	43209.32
653.93	43002.77
654.282	42934.29
654.633	42870.34
654.985	42934.97
655.337	43017.46
655.688	42862.21
656.039	43047.29
656.391	42773.62
656.742	42905.37
657.094	42896.33
657.445	43019.26
657.796	43007.06
658.147	42730.46
658.498	42757.58
658.849	42864.01
659.2	42788.54
659.551	42630.35
659.902	42940.17
660.253	42656.79
660.604	42797.58
660.955	42571.37
661.306	42730.23
661.656	42781.76
662.007	42840.51
662.358	42655.21
662.708	42703.57
663.059	42597.81
663.409	42506.51
663.76	42902.21
664.11	42690.69
664.461	42628.77
664.811	42864.01
665.161	42769.33
665.511	42694.08
665.862	42530.92
666.212	42809.78
666.562	42626.51
666.912	42556.45
667.262	42464.7
667.612	42538.82
667.962	42498.6
668.312	42605.04
668.662	42809.33
669.011	42663.57
669.361	42353.29
669.711	42579.95
670.06	42418.38
670.41	42509.22
670.76	42418.83
671.109	42557.13
671.459	42594.87
671.808	42466.06
672.157	42505.83
672.507	42234.65
672.856	42217.25
673.205	42360.75
673.554	42494.76
673.904	42375.67
674.253	42443.01
674.602	42287.98
674.951	41607.32
675.3	41717.38
675.649	42211.83
675.998	42220.19
676.346	42269.91
676.695	42369.11
677.044	42072.17
677.393	42236.46
677.741	42310.58
678.09	42066.3
678.438	42097.25
678.787	42105.62
679.135	42066.07
679.484	41841.89
679.832	41901.55
680.181	41792.86
680.529	41797.6
680.877	41722.35
681.225	41604.16
681.573	41931.84
681.922	41643.71
682.27	41555.35
682.618	41504.5
682.966	41579.75
683.314	41480.77
683.661	41341.79
684.009	41295.92
684.357	41182.7
684.705	41209.14
685.053	41111.74
685.4	41182.48
685.748	40952.2
686.095	40962.6
686.443	40754.47
686.79	40661.36
687.138	40821.13
687.485	40790.62
687.832	40569.16
688.18	40772.77
688.527	40538.88
688.874	40510.4
689.221	40299.56
689.568	40248.49
689.915	40177.08
690.262	40100.02
690.609	39906.58
690.956	39872.91
691.303	39783.42
691.65	39877.88
691.997	39755.62
692.344	39604.66
692.69	39443.77
693.037	39563.99
693.383	39181.63
693.73	39358.12
694.077	39167.39
694.423	39093.49
694.769	38991.57
695.116	38938.69
695.462	38777.79
695.808	38763.78
696.155	38749.77
696.501	38529.66
696.847	38640.4
697.193	38353.62
697.539	38365.38
697.885	38213.06
698.231	38207.64
698.577	38008.55
698.923	37903.47
699.269	37833.41
699.614	37642.23
699.96	37762.45
700.306	37537.37
700.651	37468.45
700.997	37280.88
701.342	37263.94
701.688	37092.19
702.033	37135.8
702.379	37199.08
702.724	36941.01
703.069	36985.98
703.415	36591.64
703.76	36686.55
704.105	36696.49
704.45	36474.58
704.795	36383.51
705.14	36355.03
705.485	36237.97
705.83	36169.05
706.175	36201.82
706.52	35943.07
706.865	35994.14
707.209	35853.35
707.554	35711.21
707.899	35845.89
708.243	35726.35
708.588	35516.64
708.932	35321.61
709.277	35332.23
709.621	35376.3
709.966	35080.04
710.31	35245.91
710.654	34876.65
710.998	35006.14
711.342	35027.84
711.687	34861.74
712.031	34763.44
712.375	34680.05
712.719	34712.14
713.063	34585.59
713.407	34743.78
713.75	34364.35
714.094	34473.95
714.438	34297.46
714.782	34452.48
715.125	34170.46
715.469	34227.41
715.812	34040.74
716.156	33841.65
716.499	33977.92
716.843	33958.03
717.186	33749
717.53	33985.38
717.873	33942.21
718.216	33785.61
718.559	33689.34
718.902	33449.35
719.246	33423.81
719.589	33402.57
719.932	33340.87
720.275	33287.32
720.617	33214.78
720.96	33280.09
721.303	33124.38
721.646	33098.85
721.989	32991.96
722.331	32995.35
722.674	32981.11
723.016	32977.72
723.359	32852.98
723.701	32779.99
724.044	32674
724.386	32640.55
724.729	32693.89
725.071	32664.28
725.413	32570.5
725.755	32494.12
726.097	32411.86
726.439	32164.41
726.782	32209.61
727.124	32398.53
727.465	32200.34
727.807	32130.74
728.149	32069.5
728.491	32022.49
728.833	32013.9
729.175	31953.34
729.516	31905.43
729.858	31911.31
730.199	31895.94
730.541	31744.08
730.882	31629.06
731.224	31869.5
731.565	31582.05
731.906	31679.68
732.248	31683.52
732.589	31606.68
732.93	31371.44
733.271	31338.44
733.612	31347.25
733.953	31425.44
734.294	31333.24
734.635	31271.32
734.976	31285.79
735.317	31061.61
735.658	31144.1
735.999	31210.76
736.339	31004.21
736.68	31127.37
737.021	31078.11
737.361	30896.87
737.702	31018.9
738.042	30912.69
738.383	30808.06
738.723	30898.45
739.063	30608.74
739.404	30814.61
739.744	30645.8
740.084	30604.22
740.424	30587.27
740.764	30499.82
741.104	30669.98
741.444	30300.95
741.784	30449.2
742.124	30292.59
742.464	30310.22
742.804	30219.83
743.143	30243.56
743.483	30163.78
743.823	30011.47
744.162	30157.46
744.502	30140.96
744.841	29983.22
745.181	30117.68
745.52	29978.03
745.86	30029.32
746.199	29966.05
746.538	29822.78
746.877	29882.43
747.216	29851.47
747.556	29744.36
747.895	29758.82
748.234	29656.23
748.573	29728.77
748.911	29538.49
749.25	29450.58
749.589	29447.87
749.928	29421.43
750.267	29430.47
750.605	29347.31
750.944	29306.86
751.283	29122.91
751.621	29298.04
751.96	29044.04
752.298	29161.1
752.636	29056.02
752.975	28947.77
753.313	28879.3
753.651	28934.21
753.989	28863.25
754.327	28876.13
754.666	28623.71
755.004	28767.44
755.342	28729.92
755.679	28635.69
756.017	28473.66
756.355	28635.91
756.693	28453.55
757.031	28497.16
757.368	28217.62
757.706	28169.49
758.044	28041.13
758.381	28196.6
758.719	27919.1
759.056	28018.75
759.394	28006.33
759.731	27748.25
760.068	27639.78
760.405	27647.69
760.743	27511.88
761.08	27663.28
761.417	27353.01
761.754	27358.89
762.091	27292.9
762.428	27188.49
762.765	26997.09
763.102	27237.08
763.438	26970.65
763.775	26806.58
764.112	26897.43
764.449	26948.05
764.785	26736.3
765.122	26545.57
765.458	26449.08
765.795	26445.24
766.131	26351.91
766.467	26364.34
766.804	26234.85
767.14	25996.21
767.476	26119.37
767.812	25934.06
768.148	26003.89
768.485	25906.27
768.821	25680.74
769.157	25712.15
769.492	25584.69
769.828	25512.15
770.164	25262.44
770.5	25337.02
770.836	25265.38
771.171	25159.39
771.507	25062.22
771.842	24953.07
772.178	24923.47
772.513	24876.46
772.849	24783.13
773.184	24631.73
773.519	24597.6
773.855	24598.51
774.19	24475.57
774.525	24210.49
774.86	24278.29
775.195	24330.49
775.53	24171.17
775.865	24083.72
776.2	23764.18
776.535	23660.68
776.87	23647.57
777.205	23558.76
777.539	23512.66
777.874	23510.85
778.209	23315.15
778.543	23424.98
778.878	23190.86
779.212	23210.29
779.547	23069.28
779.881	23064.31
780.215	22878.1
780.55	22936.18
780.884	22790.42
781.218	22715.17
781.552	22689.4
781.886	22602.17
782.22	22421.39
782.554	22353.37
782.888	22125.12
783.222	22105.01
783.556	21930.33
783.889	21947.73
784.223	21826.83
784.557	21775.98
784.89	21823.44
785.224	21780.5
785.557	21620.28
785.891	21369.44
786.224	21421.87
786.558	21364.47
786.891	21265.49
787.224	21102.33
787.557	21135.77
787.891	21083.57
788.224	20992.95
788.557	21008.54
788.89	20898.94
789.223	20913.63
789.556	20677.48
789.888	20644.26
790.221	20593.19
790.554	20451.5
790.887	20395.9
791.219	20387.09
791.552	20320.2
791.884	20287.21
792.217	20132.41
792.549	20124.05
792.882	19891.74
793.214	19877.73
793.546	19857.84
793.879	19755.92
794.211	19568.81
794.543	19690.39
794.875	19589.6
795.207	19741.68
795.539	19578.75
795.871	19474.57
796.203	19371.07
796.535	19331.75
796.867	19187.12
797.198	19157.74
797.53	19102.38
797.862	18973.12
798.193	18987.35
798.525	18962.72
798.856	18977.86
799.188	18808.83
799.519	18629.4
799.85	18514.37
800.182	18662.16
800.513	18522.28
800.844	18457.42
801.175	18517.31
801.506	18461.27
801.837	18423.75
802.168	18349.4
802.499	18268.73
802.83	18194.83
803.161	18100.15
803.491	18146.02
803.822	18096.98
804.153	17962.97
804.483	17873.03
804.814	17838.01
805.145	17818.57
805.475	17836.42
805.805	17694.96
806.136	17781.06
806.466	17637.11
806.796	17614.28
807.126	17556.88
807.457	17440.73
807.787	17477.11
808.117	17363.22
808.447	17233.28
808.777	17231.24
809.107	17229.66
809.436	17213.84
809.766	17163.9
810.096	17151.92
810.426	17017.24
810.755	17001.87
811.085	16968.42
811.414	16955.32
811.744	16929.78
812.073	16847.52
812.403	16879.39
812.732	16735.89
813.061	16635.33
813.39	16607.08
813.719	16657.7
814.049	16617.25
814.378	16548.77
814.707	16468.55
815.036	16469.91
815.365	16383.13
815.693	16148.33
816.022	16252.74
816.351	16212.74
816.68	16216.58
817.008	16164.15
817.337	16044.83
817.665	15996.47
817.994	15959.64
818.322	16032.18
818.651	15872.18
818.979	15829.02
819.307	15968.22
819.636	15803.48
819.964	15736.59
820.292	15819.08
820.62	15772.98
820.948	15712.64
821.276	15843.71
821.604	15766.42
821.932	15730.94
822.259	15723.03
822.587	15626.54
822.915	15605.3
823.243	15651.85
823.57	15629.48
823.898	15671.51
824.225	15581.12
824.553	15596.26
824.88	15576.14
825.207	15658.18
825.535	15646.2
825.862	15659.76
826.189	15627.67
826.516	15633.32
826.843	15718.97
827.17	15595.8
827.497	15650.72
827.824	15584.05
828.151	15590.16
828.478	15626.54
828.805	15648.68
829.131	15560.55
829.458	15634
829.785	15462.02
830.111	15689.59
830.438	15633.77
830.764	15573.21
831.09	15509.93
831.417	15455.24
831.743	15556.48
832.069	15506.99
832.395	15467.45
832.722	15528.01
833.048	15509.25
833.374	15514
833.7	15367.11
834.026	15365.08
834.351	15500.44
834.677	15496.82
835.003	15440.78
835.329	15410.05
835.654	15346.77
835.98	15399.88
836.306	15349.48
836.631	15225.19
836.956	15378.18
837.282	15251.41
837.607	15273.55
837.932	15281.46
838.258	15173.67
838.583	15079.89
838.908	14984.07
839.233	15115.37
839.558	15033.79
839.883	15027.91
840.208	14917.63
840.533	14978.65
840.858	14940.68
841.182	15032.43
841.507	14932.09
841.832	14860.68
842.156	14836.05
842.481	14803.28
842.805	14796.05
843.13	14695.04
843.454	14726
843.778	14589.5
844.103	14665.43
844.427	14476.96
844.751	14606.68
845.075	14580.92
845.399	14481.48
845.723	14412.11
846.047	14439.45
846.371	14335.05
846.695	14211.66
847.019	14246.91
847.343	14144.54
847.666	14096.86
847.99	13937.32
848.313	13997.43
848.637	13817.09
848.96	13918.79
849.284	13829.07
849.607	13729.86
849.931	13710.43
850.254	13553.6
850.577	13582.07
850.9	13509.76
851.223	13500.04
851.546	13406.71
851.869	13318.12
852.192	13415.75
852.515	13254.4
852.838	13167.39
853.161	13220.05
853.483	13128.3
853.806	13095.08
854.129	12984.12
854.451	13020.05
854.774	13037.45
855.096	12910
855.419	12817.57
855.741	12844.46
856.063	12781.19
856.385	12705.49
856.708	12764.47
857.03	12635.66
857.352	12603.79
857.674	12583.23
857.996	12634.75
858.318	12521.54
858.64	12512.27
858.961	12392.95
859.283	12443.8
859.605	12314.31
859.926	12422.1
860.248	12322.9
860.57	12186.85
860.891	12228.89
861.212	12188.66
861.534	12051.04
861.855	12095.78
862.176	12114.54
862.498	12077.48
862.819	12172.39
863.14	12017.82
863.461	12046.29
863.782	11972.62
864.103	11956.35
864.424	11970.82
864.745	11978.5
865.065	11911.16
865.386	11829.35
865.707	11881.33
866.027	11812.63
866.348	11830.25
866.668	11828.9
866.989	11830.93
867.309	11712.52
867.63	11780.09
867.95	11700.31
868.27	11635.91
868.59	11598.17
868.91	11677.26
869.23	11580.77
869.55	11572.86
869.87	11620.32
870.19	11542.8
870.51	11635.46
870.83	11599.3
871.15	11535.57
871.469	11543.26
871.789	11516.14
872.109	11477.27
872.428	11418.97
872.748	11445.18
873.067	11371.96
873.386	11430.72
873.706	11337.61
874.025	11364.05
874.344	11300.32
874.663	11349.36
874.982	11293.32
875.301	11294
875.62	11230.27
875.939	11220.1
876.258	11196.15
876.577	11231.85
876.896	11183.94
877.214	11152.31
877.533	11056.26
877.852	11081.12
878.17	11139.65
878.489	11044.29
878.807	11033.44
879.125	11037.96
879.444	11062.82
879.762	11032.99
880.08	10961.58
880.398	10966.55
880.716	10934.46
881.034	10883.61
881.352	10926.55
881.67	10888.36
881.988	10845.2
882.306	10830.05
882.624	10768.81
882.941	10775.37
883.259	10765.2
883.577	10721.36
883.894	10648.36
884.212	10669.15
884.529	10613.34
884.846	10625.09
885.164	10675.93
885.481	10566.33
885.798	10595.71
886.115	10510.06
886.432	10449.05
886.75	10459.44
887.067	10476.17
887.383	10366.79
887.7	10426
888.017	10347.58
888.334	10334.93
888.651	10364.08
888.967	10318.88
889.284	10284.76
889.6	10246.79
889.917	10191.2
890.233	10202.5
890.55	10142.16
890.866	10168.38
891.182	10040.7
891.498	10077.53
891.815	10021.71
892.131	9978.1
892.447	9984.88
892.763	9949.63
893.079	9929.29
893.395	9850.42
893.71	9849.52
894.026	9869.63
894.342	9823.53
894.657	9682.97
894.973	9737.43
895.289	9743.76
895.604	9739.01
895.92	9643.87
896.235	9576.75
896.55	9554.83
896.865	9575.62
897.181	9546.47
897.496	9572.01
897.811	9511.44
898.126	9461.95
898.441	9339.47
898.756	9349.19
899.071	9326.14
899.386	9345.8
899.7	9225.35
900.015	9231
900.33	9205.46
900.644	9141.29
900.959	9213.83
901.273	9163.43
901.588	9095.18
901.902	9039.59
902.216	8997.56
902.531	9002.76
902.845	9007.28
903.159	8881.4
903.473	8891.8
903.787	8835.08
904.101	8875.76
904.415	8767.28
904.729	8812.48
905.042	8716.66
905.356	8700.62
905.67	8628.08
905.984	8634.63
906.297	8566.16
906.611	8520.96
906.924	8556.44
907.237	8495.88
907.551	8479.38
907.864	8413.85
908.177	8377.69
908.491	8364.13
908.804	8351.25
909.117	8239.84
909.43	8346.28
909.743	8204.81
910.056	8151.25
910.368	8140.63
910.681	8166.17
910.994	8102.22
911.307	8113.06
911.619	8026.06
911.932	8020.64
912.244	7970.24
912.557	7918.04
912.869	7864.93
913.181	7828.78
913.494	7909
913.806	7822.68
914.118	7770.02
914.43	7709.68
914.742	7712.62
915.054	7677.82
915.366	7650.48
915.678	7638.5
915.99	7598.05
916.302	7504.72
916.613	7429.92
916.925	7491.38
917.236	7453.87
917.548	7408.45
917.859	7459.97
918.171	7376.59
918.482	7297.04
918.794	7243.03
919.105	7295.68
919.416	7219.75
919.727	7170.72
920.038	7122.58
920.349	7104.5
920.66	7087.1
920.971	7099.08
921.282	7004.62
921.593	7061.34
921.903	6941.34
922.214	6972.08
922.525	6922.81
922.835	6884.62
923.146	6891.85
923.456	6790.61
923.767	6794
924.077	6780.67
924.387	6730.5
924.697	6705.19
925.008	6724.4
925.318	6687.56
925.628	6631.75
925.938	6592.88
926.248	6560.34
926.558	6549.04
926.867	6497.06
927.177	6516.5
927.487	6455.93
927.796	6471.3
928.106	6419.77
928.416	6368.7
928.725	6376.39
929.034	6338.87
929.344	6332.32
929.653	6284.41
929.962	6230.18
930.271	6210.74
930.581	6192.66
930.89	6122.83
931.199	6132.32
931.508	6084.19
931.817	6063.85
932.125	6026.11
932.434	6014.59
932.743	6018.43
933.051	5974.36
933.36	6000.8
933.669	5912.22
933.977	5888.72
934.286	5894.59
934.594	5891.43
934.902	5815.5
935.21	5807.81
935.519	5819.56
935.827	5748.15
936.135	5732.56
936.443	5697.31
936.751	5644.88
937.059	5699.34
937.367	5613.92
937.674	5615.5
937.982	5635.39
938.29	5581.83
938.597	5578.89
938.905	5467.03
939.213	5484.66
939.52	5412.57
939.827	5468.16
940.135	5489.4
940.442	5391.55
940.749	5401.72
941.056	5363.53
941.363	5339.58
941.67	5288.05
941.977	5275.85
942.284	5264.55
942.591	5278.56
942.898	5232.24
943.205	5219.13
943.511	5172.12
943.818	5112.01
944.125	5091.67
944.431	5104.1
944.738	5092.13
945.044	5075.63
945.35	5036.76
945.657	4994.5
945.963	5002.86
946.269	4966.25
946.575	4933.49
946.881	4890.1
947.187	4906.37
947.493	4867.27
947.799	4871.57
948.105	4847.84
948.41	4790.21
948.716	4793.6
949.022	4791.79
949.327	4704.11
949.633	4754.96
949.938	4731.46
950.244	4696.2
950.549	4688.75
950.854	4685.13
951.16	4641.52
951.465	4604.68
951.77	4614.85
952.075	4597
952.38	4577.56
952.685	4535.53
952.99	4513.38
953.294	4486.72
953.599	4481.07
953.904	4443.1
954.209	4422.31
954.513	4412.14
954.818	4394.74
955.122	4352.71
955.426	4341.41
955.731	4384.57
956.035	4351.81
956.339	4314.75
956.643	4286.72
956.948	4302.54
957.252	4259.61
957.556	4207.18
957.86	4211.47
958.163	4201.53
958.467	4174.18
958.771	4148.42
959.075	4126.5
959.378	4153.85
959.682	4121.98
959.985	4105.26
960.289	4043.11
960.592	4058.03
960.896	4032.27
961.199	4049.44
961.502	4024.36
961.805	3968.31
962.108	3978.48
962.411	3961.76
962.714	3947.98
963.017	3921.31
963.32	3928.31
963.623	3852.61
963.926	3870.24
964.228	3858.49
964.531	3868.66
964.833	3858.71
965.136	3750.01
965.438	3785.49
965.741	3765.83
966.043	3748.21
966.345	3747.53
966.648	3736.46
966.95	3720.64
967.252	3662.11
967.554	3667.98
967.856	3668.66
968.158	3622.79
968.46	3617.36
968.761	3592.28
969.063	3553.64
969.365	3568.78
969.666	3546.86
969.968	3508.21
970.269	3514.09
970.571	3502.79
970.872	3535.1
971.174	3498.04
971.475	3479.51
971.776	3448.1
972.077	3469.8
972.378	3431.15
972.679	3411.49
972.98	3387.09
973.281	3363.13
973.582	3384.37
973.883	3364.94
974.183	3360.65
974.484	3317.94
974.785	3265.51
975.085	3273.64
975.386	3290.37
975.686	3270.03
975.986	3253.53
976.287	3250.82
976.587	3230.93
976.887	3236.58
977.187	3162.23
977.487	3196.13
977.787	3136.02
978.087	3160.88
978.387	3104.83
978.687	3126.98
978.987	3086.98
979.286	3093.76
979.586	3082.91
979.885	3044.72
980.185	3028.68
980.484	3013.76
980.784	3022.58
981.083	2981.67
981.382	2973.54
981.682	2973.31
981.981	2966.31
982.28	2929.25
982.579	2926.31
982.878	2960.2
983.177	2906.42
983.475	2896.03
983.774	2849.25
984.073	2892.18
984.372	2848.12
984.67	2852.86
984.969	2865.07
985.267	2818.97
985.566	2775.35
985.864	2797.95
986.162	2808.8
986.461	2724.28
986.759	2751.62
987.057	2704.17
987.355	2730.38
987.653	2694.67
987.951	2696.93
988.249	2693.77
988.547	2687.9
988.844	2672.53
989.142	2668.91
989.44	2693.09
989.737	2641.12
990.035	2627.78
990.332	2610.38
990.63	2583.27
990.927	2591.63
991.224	2581.68
991.521	2553.66
991.819	2554.34
992.116	2520.44
992.413	2549.37
992.71	2530.39
993.006	2514.34
993.303	2495.13
993.6	2484.28
993.897	2487
994.193	2443.83
994.49	2452.42
994.787	2442.03
995.083	2427.56
995.379	2419.88
995.676	2409.48
995.972	2376.27
996.268	2385.3
996.565	2367
996.861	2370.16
997.157	2357.96
997.453	2331.75
997.749	2304.85
998.044	2296.72
998.34	2307.57
998.636	2301.69
998.932	2306.66
999.227	2239.55
999.523	2262.37
999.818	2261.69
1000.114	2219.66
1000.409	2208.59
1000.704	2208.13
1001	2214.46
1001.295	2170.62
1001.59	2180.34
1001.885	2159.1
1002.18	2171.3
1002.475	2139.89
1002.77	2113.22
1003.065	2076.39
1003.359	2111.41
1003.654	2073.45
1003.949	2088.59
1004.243	2048.59
1004.538	2071.19
1004.832	2067.57
1005.127	2019.89
1005.421	2035.26
1005.715	1979.89
1006.009	2007.69
1006.304	2005.65
1006.598	1981.02
1006.892	1995.94
1007.186	1943.73
1007.48	1940.12
1007.773	1910.51
1008.067	1947.35
1008.361	1886.33
1008.655	1900.35
1008.948	1896.28
1009.242	1889.95
1009.535	1855.37
1009.829	1841.82
1010.122	1851.31
1010.415	1802.95
1010.708	1835.49
1011.001	1796.17
1011.295	1787.81
1011.588	1811.76
1011.881	1790.52
1012.173	1784.42
1012.466	1736.51
1012.759	1761.14
1013.052	1741.71
1013.344	1724.3
1013.637	1722.05
1013.93	1720.46
1014.222	1719.79
1014.514	1682.72
1014.807	1654.7
1015.099	1667.13
1015.391	1688.6
1015.683	1671.42
1015.976	1646.79
1016.268	1632.78
1016.56	1629.62
1016.851	1611.31
1017.143	1582.84
1017.435	1597.75
1017.727	1579
1018.018	1583.07
1018.31	1579.9
1018.602	1577.64
1018.893	1542.84
1019.185	1525.89
1019.476	1502.16
1019.767	1527.25
1020.058	1510.3
1020.35	1474.82
1020.641	1479.34
1020.932	1472.56
1021.223	1490.41
1021.514	1447.48
1021.804	1426.01
1022.095	1460.36
1022.386	1422.39
1022.677	1428.95
1022.967	1428.04
1023.258	1383.75
1023.548	1385.1
1023.839	1423.52
1024.129	1360.7
1024.419	1360.25
1024.709	1367.93
1025	1354.6
1025.29	1350.08
1025.58	1309.63
1025.87	1315.73
1026.16	1321.83
1026.449	1290.19
1026.739	1291.55
1027.029	1275.05
1027.319	1268.5
1027.608	1276.18
1027.898	1279.34
1028.187	1258.78
1028.477	1254.03
1028.766	1249.97
1029.055	1241.38
1029.344	1222.85
1029.634	1217.88
1029.923	1205.9
1030.212	1190.99
1030.501	1193.7
1030.79	1191.44
1031.078	1186.92
1031.367	1153.25
1031.656	1143.76
1031.945	1160.7
1032.233	1163.42
1032.522	1136.07
1032.81	1141.27
1033.099	1106.69
1033.387	1106.24
1033.675	1106.47
1033.963	1084.32
1034.251	1071.44
1034.54	1096.3
1034.828	1068.05
1035.116	1067.6
1035.403	1067.37
1035.691	1049.52
1035.979	1042.29
1036.267	1030.31
1036.554	1039.8
1036.842	1030.31
1037.129	1030.09
1037.417	1007.49
1037.704	1002.29
1037.992	977.88
1038.279	984.44
1038.566	999.58
1038.853	999.58
1039.14	999.58
