Data from hue_220_FLMS001491_00009.txt Node
Date: Tue Feb 07 16:38:28 GMT 2017
User: dcchb
Spectrometer: FLMS00149
Trigger mode: 0
Integration Time (sec): 2.000000E-2
Scans to average: 10
Electric dark correction enabled: true
Nonlinearity correction enabled: false
Boxcar width: 0
XAxis mode: Wavelengths
Number of Pixels in Spectrum: 2048
>>>>>Begin Spectral Data<<<<<
341.393	10.34
341.776	10.34
342.16	10.34
342.543	-40.73
342.927	-48.87
343.31	-59.04
343.693	-64.69
344.077	-71.24
344.46	-63.33
344.843	-50.68
345.226	-14.29
345.61	-28.98
345.993	-21.52
346.376	1.3
346.759	6.95
347.142	25.25
347.525	25.48
347.908	69.09
348.291	55.54
348.674	81.98
349.057	108.19
349.44	117.23
349.823	137.34
350.206	170.56
350.588	190.67
350.971	239.26
351.354	232.48
351.737	254.63
352.119	239.71
352.502	277.9
352.884	277.9
353.267	280.39
353.65	291.24
354.032	304.34
354.414	292.37
354.797	340.73
355.179	344.34
355.562	336.21
355.944	326.26
356.326	337.11
356.709	349.09
357.091	326.04
357.473	341.63
357.855	349.31
358.238	341.63
358.62	348.18
359.002	360.61
359.384	343.44
359.766	341.86
360.148	353.83
360.53	361.74
360.912	319.03
361.294	339.37
361.676	351.8
362.057	335.3
362.439	314.96
362.821	335.75
363.203	326.71
363.584	332.59
363.966	347.28
364.348	318.81
364.729	340.95
365.111	323.1
365.493	336.21
365.874	331.01
366.256	321.29
366.637	327.62
367.019	322.65
367.4	328.3
367.781	318.35
368.163	318.35
368.544	326.04
368.925	320.39
369.306	319.48
369.688	305.25
370.069	319.26
370.45	317.9
370.831	307.96
371.212	321.74
371.593	307.51
371.974	334.62
372.355	340.27
372.736	320.39
373.117	324.45
373.498	327.62
373.879	303.21
374.26	319.26
374.641	329.2
375.021	321.97
375.402	315.87
375.783	319.94
376.163	328.97
376.544	332.59
376.925	323.78
377.305	321.74
377.686	328.97
378.066	329.65
378.447	341.18
378.827	324.91
379.208	327.39
379.588	336.66
379.968	345.02
380.349	339.6
380.729	340.95
381.109	350.67
381.489	347.05
381.87	335.98
382.25	340.5
382.63	352.93
383.01	369.65
383.39	346.6
383.77	335.75
384.15	357.9
384.53	338.92
384.91	359.48
385.29	357.45
385.67	348.18
386.049	359.93
386.429	351.35
386.809	350.44
387.189	362.19
387.568	349.54
387.948	366.26
388.328	384.57
388.707	360.84
389.087	360.61
389.466	370.1
389.846	365.13
390.225	374.4
390.605	380.5
390.984	360.39
391.363	366.04
391.743	368.75
392.122	381.18
392.501	395.64
392.881	405.13
393.26	404
393.639	385.24
394.018	369.2
394.397	387.05
394.776	413.04
395.155	380.72
395.534	389.31
395.913	400.61
396.292	425.92
396.671	414.85
397.05	397.9
397.429	403.55
397.808	408.29
398.186	417.11
398.565	404
398.944	404.68
399.323	406.71
399.701	416.2
400.08	445.36
400.458	415.53
400.837	439.71
401.215	420.27
401.594	420.27
401.972	420.95
402.351	426.15
402.729	437.45
403.107	433.38
403.486	440.61
403.864	428.63
404.242	425.24
404.62	469.76
404.999	452.81
405.377	458.01
405.755	465.47
406.133	460.04
406.511	465.92
406.889	489.2
407.267	490.1
407.645	497.78
408.023	485.58
408.401	493.72
408.779	508.86
409.156	504.11
409.534	520.61
409.912	517.44
410.29	545.92
410.667	548.86
411.045	567.84
411.422	561.74
411.8	558.35
412.178	598.8
412.555	573.71
412.933	603.32
413.31	588.85
413.687	627.72
414.065	613.71
414.442	609.42
414.819	625.01
415.197	661.17
415.574	663.88
415.951	676.08
416.328	668.17
416.705	666.82
417.082	677.89
417.46	677.21
417.837	697.78
418.214	708.85
418.591	697.78
418.967	732.13
419.344	731.68
419.721	716.08
420.098	750.43
420.475	765.57
420.852	776.42
421.228	803.54
421.605	799.7
421.982	794.95
422.358	813.71
422.735	819.81
423.111	834.05
423.488	871.56
423.864	847.83
424.241	882.41
424.617	899.35
424.994	901.61
425.37	920.82
425.746	919.02
426.123	935.06
426.499	963.08
426.875	957.21
427.251	986.81
427.627	971.67
428.003	1021.84
428.379	1046.7
428.756	1027.49
429.132	1031.33
429.507	1053.48
429.883	1092.34
430.259	1084.89
430.635	1094.15
431.011	1096.41
431.387	1154.26
431.763	1136.86
432.138	1175.73
432.514	1172.57
432.89	1170.99
433.265	1221.38
433.641	1243.07
434.016	1258.22
434.392	1295.95
434.767	1288.5
435.143	1302.06
435.518	1365.33
435.894	1377.76
436.269	1353.35
436.644	1394.26
437.02	1408.27
437.395	1427.02
437.77	1481.71
438.145	1515.84
438.52	1528.04
438.895	1552.67
439.271	1556.29
439.646	1585.89
440.021	1609.84
440.395	1618.43
440.77	1644.19
441.145	1619.34
441.52	1659.33
441.895	1707.24
442.27	1728.03
442.645	1710.86
443.019	1753.12
443.394	1761.03
443.769	1763.51
444.143	1773.91
444.518	1817.75
444.892	1800.35
445.267	1816.39
445.641	1854.58
446.016	1807.35
446.39	1866.79
446.764	1891.87
447.139	1883.96
447.513	1928.93
447.887	1909.72
448.262	1930.74
448.636	1955.6
449.01	1971.64
449.384	1964.41
449.758	1984.98
450.132	1993.11
450.506	2009.38
450.88	2047.57
451.254	2049.16
451.628	2083.28
452.002	2105.65
452.376	2070.17
452.75	2108.36
453.123	2116.5
453.497	2154.24
453.871	2181.58
454.244	2213.67
454.618	2207.34
454.992	2237.17
455.365	2290.5
455.739	2313.1
456.112	2347.9
456.486	2374.12
456.859	2363.05
457.232	2443.5
457.606	2413.44
457.979	2463.83
458.352	2510.16
458.725	2499.76
459.099	2545.87
459.472	2568.24
459.845	2570.27
460.218	2629.93
460.591	2637.61
460.964	2642.59
461.337	2739.98
461.71	2731.4
462.083	2770.72
462.456	2744.96
462.829	2751.96
463.201	2810.04
463.574	2831.28
463.947	2872.41
464.32	2961.45
464.692	2949.7
465.065	2964.39
465.438	3011.84
465.81	3062.69
466.183	3058.62
466.555	3117.15
466.928	3107.43
467.3	3180.88
467.672	3185.85
468.045	3257.94
468.417	3264.72
468.789	3303.81
469.161	3308.11
469.534	3407.76
469.906	3445.73
470.278	3484.15
470.65	3503.35
471.022	3546.97
471.394	3614.09
471.766	3663.8
472.138	3682.56
472.51	3726.63
472.882	3802.1
473.253	3799.17
473.625	3857.02
473.997	3921.87
474.369	3933.85
474.74	3982.89
475.112	4071.02
475.484	4144.02
475.855	4163.68
476.227	4178.14
476.598	4274.63
476.97	4330
477.341	4389.21
477.713	4440.05
478.084	4496.77
478.455	4609.54
478.827	4650.22
479.198	4741.29
479.569	4743.77
479.94	4844.79
480.311	4864.67
480.682	5001.62
481.053	5068.06
481.424	5139.47
481.795	5178.56
482.166	5232.12
482.537	5328.84
482.908	5380.59
483.279	5432.34
483.65	5516.86
484.021	5599.12
484.391	5637.08
484.762	5714.82
485.133	5725.22
485.503	5726.12
485.874	5865.78
486.244	5937.64
486.615	6051.31
486.985	6080.91
487.356	6163.62
487.726	6185.77
488.097	6290.85
488.467	6337.63
488.837	6461.69
489.207	6474.12
489.578	6573.56
489.948	6637.96
490.318	6705.08
490.688	6702.37
491.058	6785.98
491.428	6865.53
491.798	6960.89
492.168	7071.4
492.538	7060.32
492.908	7076.59
493.278	7202.24
493.648	7226.19
494.017	7235.23
494.387	7281.79
494.757	7360.2
495.126	7426.41
495.496	7431.39
495.866	7548.67
496.235	7522.46
496.605	7581.44
496.974	7607.88
497.344	7621.89
497.713	7708.44
498.082	7689.46
498.452	7845.39
498.821	7885.61
499.19	7828.44
499.559	7901.43
499.928	7897.36
500.298	7955.44
500.667	8032.05
501.036	8004.93
501.405	8026.4
501.774	8028.43
502.143	8124.7
502.512	8207.41
502.88	8215.32
503.249	8175.77
503.618	8261.65
503.987	8277.01
504.356	8232.04
504.724	8336.67
505.093	8305.49
505.462	8384.58
505.83	8357.92
506.199	8409.67
506.567	8491.47
506.936	8469.55
507.304	8523.11
507.672	8523.34
508.041	8526.95
508.409	8564.92
508.777	8638.13
509.145	8653.95
509.514	8587.06
509.882	8669.32
510.25	8676.55
510.618	8692.14
510.986	8701.18
511.354	8844.68
511.722	8811.24
512.09	8818.24
512.458	8777.11
512.826	8765.14
513.193	8935.53
513.561	8864.34
513.929	8893.49
514.297	8922.65
514.664	8925.36
515.032	8933.27
515.4	9023.21
515.767	9000.84
516.135	8981.63
516.502	8973.72
516.869	9057.11
517.237	9061.63
517.604	9030.89
517.972	9095.07
518.339	9065.24
518.706	9030.21
519.073	9022.53
519.44	9129.87
519.808	9107.05
520.175	9046.26
520.542	9151.34
520.909	9199.93
521.276	9171.23
521.643	9180.95
522.009	9246.03
522.376	9148.18
522.743	9212.58
523.11	9314.73
523.477	9259.36
523.843	9289.87
524.21	9333.26
524.577	9367.83
524.943	9318.57
525.31	9324.22
525.676	9417.1
526.043	9396.08
526.409	9387.04
526.776	9464.1
527.142	9392.24
527.508	9420.94
527.874	9471.56
528.241	9479.47
528.607	9526.47
528.973	9572.57
529.339	9480.37
529.705	9521.05
530.071	9568.73
530.437	9464.33
530.803	9608.5
531.169	9544.33
531.535	9516.76
531.901	9516.76
532.267	9491.9
532.632	9481.95
532.998	9521.05
533.364	9495.97
533.73	9548.84
534.095	9520.6
534.461	9578.67
534.826	9552.46
535.192	9541.84
535.557	9534.83
535.923	9477.21
536.288	9505
536.653	9425.68
537.019	9414.84
537.384	9360.38
537.749	9416.87
538.114	9392.24
538.479	9441.05
538.845	9327.61
539.21	9344.56
539.575	9340.04
539.94	9341.84
540.305	9339.58
540.67	9288.06
541.034	9296.42
541.399	9276.31
541.764	9223.88
542.129	9265.46
542.494	9242.86
542.858	9233.83
543.223	9191.34
543.587	9154.28
543.952	9168.52
544.316	9145.47
544.681	9074.06
545.045	9118.12
545.41	9139.36
545.774	9138.23
546.138	9147.95
546.503	9088.97
546.867	9048.29
547.231	8988.18
547.595	9074.96
547.959	8990.89
548.324	9017.79
548.688	8936.88
549.052	8959.71
549.416	8945.47
549.779	8907.51
550.143	8914.51
550.507	8857.34
550.871	8912.93
551.235	8886.72
551.599	8944.12
551.962	8865.7
552.326	8781.18
552.689	8832.25
553.053	8755.87
553.417	8719.26
553.78	8795.42
554.143	8783.22
554.507	8746.83
554.87	8785.48
555.234	8801.52
555.597	8730.79
555.96	8755.19
556.323	8722.88
556.686	8677.68
557.05	8813.95
557.413	8743.44
557.776	8644.46
558.139	8695.99
558.502	8687.85
558.865	8689.21
559.228	8711.58
559.59	8748.87
559.953	8678.13
560.316	8765.36
560.679	8733.73
561.041	8742.09
561.404	8762.88
561.767	8842.2
562.129	8732.37
562.492	8778.24
562.854	8833.38
563.217	8751.8
563.579	8794.74
563.941	8835.64
564.304	8808.98
564.666	8882.87
565.028	8831.58
565.39	8887.39
565.753	8891.46
566.115	8874.06
566.477	8963.1
566.839	8889.88
567.201	8886.49
567.563	8944.57
567.925	9008.97
568.287	8958.13
568.648	8984.57
569.01	9002.64
569.372	9081.74
569.734	9034.96
570.095	9041.97
570.457	9058.46
570.819	9114.73
571.18	9125.81
571.542	9178.46
571.903	9188.63
572.265	9054.62
572.626	9138.91
572.987	9222.53
573.349	9241.73
573.71	9245.58
574.071	9251
574.432	9255.29
574.794	9300.94
575.155	9307.27
575.516	9265.01
575.877	9367.38
576.238	9342.07
576.599	9343.88
576.96	9366.25
577.32	9432.92
577.681	9485.8
578.042	9489.19
578.403	9450.99
578.763	9483.08
579.124	9458.68
579.485	9548.17
579.845	9549.07
580.206	9545.91
580.566	9570.31
580.927	9590.88
581.287	9706.13
581.648	9558.34
582.008	9676.75
582.368	9674.04
582.728	9723.08
583.089	9725.79
583.449	9729.86
583.809	9697.99
584.169	9766.24
584.529	9717.65
584.889	9813.92
585.249	9816.41
585.609	9788.39
585.969	9879.23
586.329	9815.05
586.688	9839.91
587.048	9844.2
587.408	9853.92
587.768	9931.21
588.127	9847.14
588.487	9875.16
588.846	9959.91
589.206	9884.88
589.565	9924.65
589.925	9902.28
590.284	10015.27
590.643	9918.33
591.003	10060.7
591.362	10043.52
591.721	10064.76
592.08	10019.57
592.44	10107.93
592.799	10086.46
593.158	10055.95
593.517	10052.56
593.876	10079.68
594.235	10044.2
594.593	10060.92
594.952	10111.32
595.311	10051.43
595.67	10093.92
596.029	10207.58
596.387	10191.09
596.746	10223.86
597.104	10219.79
597.463	10143.86
597.822	10236.96
598.18	10180.92
598.538	10192.9
598.897	10261.37
599.255	10131.65
599.613	10320.35
599.972	10201.48
600.33	10272.22
600.688	10210.07
601.046	10277.64
601.404	10325.55
601.762	10247.13
602.12	10332.55
602.478	10342.27
602.836	10302.72
603.194	10294.59
603.552	10316.73
603.91	10271.09
604.268	10300.01
604.625	10281.26
604.983	10360.58
605.341	10296.62
605.698	10328.03
606.056	10390.4
606.413	10266.34
606.771	10334.81
607.128	10362.38
607.485	10355.6
607.843	10355.83
608.2	10456.39
608.557	10407.58
608.914	10422.27
609.272	10466.33
609.629	10488.48
609.986	10547.91
610.343	10450.52
610.7	10529.16
611.057	10571.19
611.414	10533.45
611.771	10450.52
612.127	10544.07
612.484	10514.02
612.841	10548.59
613.198	10504.98
613.554	10573.68
613.911	10615.94
614.267	10564.41
614.624	10573.9
614.98	10589.72
615.337	10613.45
615.693	10644.64
616.05	10551.76
616.406	10663.84
616.762	10616.84
617.118	10652.09
617.475	10689.15
617.831	10629.95
618.187	10767.8
618.543	10657.06
618.899	10767.12
619.255	10718.76
619.611	10723.96
619.967	10733.45
620.323	10734.8
620.678	10694.13
621.034	10707.01
621.39	10656.16
621.746	10608.7
622.101	10876.95
622.457	10674.92
622.812	10734.35
623.168	10767.12
623.523	10697.97
623.879	10790.85
624.234	10806.44
624.589	10757.63
624.945	10769.6
625.3	10795.82
625.655	10702.26
626.01	10720.79
626.365	10796.72
626.72	10778.42
627.075	10772.54
627.43	10693.67
627.785	10744.52
628.14	10658.65
628.495	10725.76
628.85	10677.18
629.205	10667.91
629.559	10718.98
629.914	10705.88
630.269	10711.53
630.623	10643.51
630.978	10615.48
631.332	10667.01
631.687	10667.46
632.041	10620
632.396	10634.92
632.75	10623.17
633.104	10617.97
633.459	10570.06
633.813	10542.72
634.167	10488.03
634.521	10550.17
634.875	10587.24
635.229	10544.98
635.583	10529.16
635.937	10440.12
636.291	10540.46
636.645	10490.74
636.999	10501.36
637.352	10501.59
637.706	10431.31
638.06	10463.85
638.413	10406.22
638.767	10398.99
639.121	10452.1
639.474	10361.48
639.828	10388.6
640.181	10406.22
640.534	10408.48
640.888	10338.65
641.241	10297.98
641.594	10353.8
641.947	10319.22
642.301	10264.76
642.654	10302.05
643.007	10278.32
643.36	10280.8
643.713	10312.44
644.066	10300.46
644.419	10202.84
644.771	10121.71
645.124	10167.13
645.477	10059.34
645.83	10011.66
646.182	9948.38
646.535	9994.26
646.888	9933.92
647.24	9919.46
647.593	9931.66
647.945	9947.25
648.298	9911.32
648.65	9872.68
649.002	9908.38
649.355	9988.61
649.707	9847.14
650.059	9959.46
650.411	10073.8
650.763	10096.4
651.115	10224.31
651.467	10128.72
651.819	10182.95
652.171	10175.95
652.523	10123.75
652.875	10117.42
653.227	10104.08
653.578	10178.66
653.93	10105.21
654.282	10138.66
654.633	10059.11
654.985	10088.49
655.337	10149.28
655.688	10083.75
656.039	10169.39
656.391	10128.94
656.742	10089.4
657.094	10057.76
657.445	10131.2
657.796	10164.87
658.147	10140.24
658.498	10106.8
658.849	10140.92
659.2	10129.39
659.551	10101.82
659.902	10168.49
660.253	10111.99
660.604	10191.09
660.955	10115.16
661.306	10142.05
661.656	10077.19
662.007	10277.64
662.358	10188.6
662.708	10173.46
663.059	10160.13
663.409	10136.17
663.76	10171.2
664.11	10202.39
664.461	10236.06
664.811	10207.81
665.161	10154.93
665.511	10185.66
665.862	10227.92
666.212	10239.45
666.562	10246.68
666.912	10236.28
667.262	10157.19
667.612	10139.11
667.962	10224.31
668.312	10169.17
668.662	10263.85
669.011	10146.12
669.361	10144.54
669.711	10255.04
670.06	10191.09
670.41	10167.13
670.76	10169.85
671.109	10144.99
671.459	10159.9
671.808	10133.46
672.157	10161.26
672.507	10043.3
672.856	10032
673.205	10133.46
673.554	10113.12
673.904	10093.46
674.253	10102.5
674.602	10089.62
674.951	9936.63
675.3	9917.2
675.649	10074.25
675.998	10044.43
676.346	9971.88
676.695	10070.87
677.044	9984.31
677.393	10031.32
677.741	10018.66
678.09	9905.9
678.438	9967.59
678.787	10047.81
679.135	10035.16
679.484	9900.25
679.832	9960.13
680.181	9905.45
680.529	9852.79
680.877	9889.4
681.225	9867.25
681.573	9989.51
681.922	9869.97
682.27	9801.04
682.618	9890.53
682.966	9738.22
683.314	9759.46
683.661	9730.31
684.009	9725.11
684.357	9721.27
684.705	9607.6
685.053	9729.86
685.4	9685.56
685.748	9619.58
686.095	9516.76
686.443	9476.3
686.79	9545.68
687.138	9574.61
687.485	9568.73
687.832	9501.84
688.18	9473.82
688.527	9455.97
688.874	9434.27
689.221	9458.68
689.568	9358.12
689.915	9396.76
690.262	9365.35
690.609	9287.83
690.956	9303.43
691.303	9263.88
691.65	9210.77
691.997	9240.83
692.344	9154.96
692.69	9079.48
693.037	9206.71
693.383	9037.9
693.73	9078.57
694.077	9007.84
694.423	9006.26
694.769	8935.53
695.116	8914.51
695.462	8919.71
695.808	8864.12
696.155	8852.14
696.501	8761.3
696.847	8764.91
697.193	8731.92
697.539	8745.25
697.885	8722.88
698.231	8719.71
698.577	8608.98
698.923	8605.37
699.269	8555.65
699.614	8473.84
699.96	8505.26
700.306	8544.8
700.651	8513.17
700.997	8380.51
701.342	8365.6
701.688	8402.21
702.033	8325.83
702.379	8311.59
702.724	8303.91
703.069	8307.07
703.415	8169.9
703.76	8261.2
704.105	8188.2
704.45	8200.86
704.795	8154.08
705.14	8057.13
705.485	8056.91
705.83	8079.96
706.175	8127.64
706.52	7985.5
706.865	7952.95
707.209	7972.84
707.554	7951.82
707.899	7927.64
708.243	7924.48
708.588	7891.94
708.932	7788.67
709.277	7820.3
709.621	7853.07
709.966	7788.21
710.31	7778.27
710.654	7694.2
710.998	7709.12
711.342	7735.79
711.687	7677.26
712.031	7622.34
712.375	7627.99
712.719	7609.01
713.063	7639.06
713.407	7618.5
713.75	7586.41
714.094	7583.25
714.438	7487.43
714.782	7554.55
715.125	7499.86
715.469	7517.26
715.812	7433.19
716.156	7437.49
716.499	7455.57
716.843	7491.27
717.186	7382.12
717.53	7488.79
717.873	7429.13
718.216	7423.48
718.559	7406.53
718.902	7327.43
719.246	7360.2
719.589	7284.95
719.932	7248.11
720.275	7310.71
720.617	7331.95
720.96	7323.82
721.303	7256.02
721.646	7309.13
721.989	7261
722.331	7275.68
722.674	7242.24
723.016	7227.1
723.359	7261.22
723.701	7210.38
724.044	7227.32
724.386	7133.32
724.729	7226.87
725.071	7222.8
725.413	7237.27
725.755	7172.64
726.097	7176.93
726.439	7136.25
726.782	7185.52
727.124	7193.2
727.465	7162.69
727.807	7150.94
728.149	7182.35
728.491	7133.77
728.833	7165.63
729.175	7074.11
729.516	7144.39
729.858	7145.52
730.199	7080.21
730.541	7178.74
730.882	7104.62
731.224	7097.61
731.565	7126.08
731.906	7133.09
732.248	7130.6
732.589	7030.49
732.93	7071.62
733.271	7061.23
733.612	7139.19
733.953	7136.93
734.294	7111.17
734.635	7152.52
734.976	7081.34
735.317	7105.29
735.658	7124.95
735.999	7112.75
736.339	7126.99
736.68	7123.82
737.021	7127.89
737.361	7125.18
737.702	7182.58
738.042	7165.63
738.383	7174.9
738.723	7208.34
739.063	7171.28
739.404	7187.78
739.744	7164.27
740.084	7145.07
740.424	7166.53
740.764	7191.62
741.104	7207.89
741.444	7242.24
741.784	7200.21
742.124	7280.2
742.464	7242.92
742.804	7244.72
743.143	7326.98
743.483	7275.23
743.823	7339.64
744.162	7349.35
744.502	7366.98
744.841	7426.41
745.181	7416.47
745.52	7422.57
745.86	7532.17
746.199	7561.55
746.538	7607.43
746.877	7630.93
747.216	7732.62
747.556	7649.69
747.895	7703.47
748.234	7784.15
748.573	7770.81
748.911	7921.54
749.25	7961.54
749.589	8006.74
749.928	8066.62
750.267	8141.2
750.605	8193.63
750.944	8241.08
751.283	8300.06
751.621	8435.43
751.96	8506.61
752.298	8596.55
752.636	8706.16
752.975	8749.32
753.313	8897.56
753.651	8986.6
753.989	8999.25
754.327	9131
754.666	9258.91
755.004	9391.79
755.342	9494.38
755.679	9623.87
756.017	9736.86
756.355	9869.06
756.693	10060.24
757.031	10204.65
757.368	10274.7
757.706	10423.62
758.044	10586.33
758.381	10798.53
758.719	10844.86
759.056	11100.44
759.394	11180.21
759.731	11306.99
760.068	11511.28
760.405	11683.93
760.743	11828.56
761.08	12035.33
761.417	12194.2
761.754	12308.32
762.091	12530.24
762.428	12767.97
762.765	12827.4
763.102	13021.52
763.438	13241.63
763.775	13391.46
764.112	13563.43
764.449	13758
764.785	13914.61
765.122	14102.4
765.458	14231.43
765.795	14405.67
766.131	14507.36
766.467	14666.68
766.804	14762.04
767.14	15036.84
767.476	15254.46
767.812	15292.2
768.148	15622.36
768.485	15501.46
768.821	15799.08
769.157	15860.32
769.492	16082.46
769.828	16209.69
770.164	16219.18
770.5	16399.29
770.836	16557.47
771.171	16589.11
771.507	16707.98
771.842	16800.41
772.178	16924.24
772.513	17075.65
772.849	17165.14
773.184	17189.1
773.519	17249.89
773.855	17381.41
774.19	17482.87
774.525	17489.65
774.86	17657.78
775.195	17854.16
775.53	17685.81
775.865	17810.55
776.2	17774.39
776.535	17738.23
776.87	17955.63
777.205	17981.84
777.539	18033.14
777.874	18131.22
778.209	18129.18
778.543	18175.28
778.878	18133.03
779.212	18237.2
779.547	18215.51
779.881	18429.74
780.215	18348.16
780.55	18406.92
780.884	18421.61
781.218	18420.25
781.552	18526.24
781.886	18458.22
782.22	18512.45
782.554	18476.29
782.888	18335.05
783.222	18406.01
783.556	18373.25
783.889	18468.84
784.223	18340.03
784.557	18393.81
784.89	18467.25
785.224	18450.98
785.557	18392.45
785.891	18396.3
786.224	18384.77
786.558	18363.98
786.891	18288.5
787.224	18307.71
787.557	18389.97
787.891	18400.36
788.224	18343.64
788.557	18398.56
788.89	18346.81
789.223	18303.42
789.556	18250.09
789.888	18289.63
790.221	18067.27
790.554	18187.94
790.887	18072.01
791.219	18081.5
791.552	18134.83
791.884	17955.63
792.217	18002.18
792.549	18043.31
792.882	17968.96
793.214	17856.42
793.546	17944.33
793.879	17809.42
794.211	17808.29
794.543	17858.91
794.875	17753.6
795.207	17851.23
795.539	17797.89
795.871	17775.97
796.203	17691.68
796.535	17687.84
796.867	17610.78
797.198	17552.48
797.53	17538.47
797.862	17490.11
798.193	17402.42
798.525	17264.57
798.856	17425.02
799.188	17228.42
799.519	17218.47
799.85	17132.6
800.182	17172.83
800.513	17210.79
800.844	17023.45
801.175	17148.19
801.506	17115.88
801.837	17106.16
802.168	16995.2
802.499	16997.24
802.83	16829.11
803.161	16822.55
803.491	16885.15
803.822	16893.96
804.153	16784.13
804.483	16668.21
804.814	16705.49
805.145	16594.54
805.475	16623.46
805.805	16519.06
806.136	16626.17
806.466	16573.29
806.796	16472.5
807.126	16388.44
807.457	16387.99
807.787	16430.92
808.117	16291.49
808.447	16239.97
808.777	16303.47
809.107	16252.4
809.436	16284.71
809.766	16194.77
810.096	16112.29
810.426	16092.85
810.755	16102.8
811.085	16021.22
811.414	16066.19
811.744	15963.59
812.073	15899.86
812.403	15995.46
812.732	15807.66
813.061	15825.52
813.39	15721.79
813.719	15732.19
814.049	15817.15
814.378	15748.46
814.707	15634.56
815.036	15719.98
815.365	15631.62
815.693	15435.02
816.022	15550.95
816.351	15533.09
816.68	15385.53
817.008	15521.8
817.337	15343.49
817.665	15297.62
817.994	15286.77
818.322	15400.67
818.651	15291.97
818.979	15230.96
819.307	15261.92
819.636	15218.07
819.964	15145.08
820.292	15222.59
820.62	15212.65
820.948	15231.41
821.276	15247.9
821.604	15091.75
821.932	15247.68
822.259	15160
822.587	15136.27
822.915	15113.67
823.243	15186.21
823.57	15154.57
823.898	15149.83
824.225	15093.33
824.553	15068.02
824.88	15093.78
825.207	15237.28
825.535	15114.12
825.862	15171.97
826.189	15106.89
826.516	15242.25
826.843	15134.01
827.17	15186.21
827.497	15218.75
827.824	15174.01
828.151	15207
828.478	15258.98
828.805	15289.94
829.131	15170.84
829.458	15190.5
829.785	15113.67
830.111	15209.94
830.438	15244.97
830.764	15228.02
831.09	15259.88
831.417	15080.22
831.743	15249.71
832.069	15140.56
832.395	15081.13
832.722	15248.58
833.048	15103.5
833.374	15140.79
833.7	15058.53
834.026	15101.24
834.351	15097.85
834.677	15144.18
835.003	15063.95
835.329	15120.68
835.654	15008.14
835.98	15000.68
836.306	15042.49
836.631	14883.17
836.956	14998.19
837.282	14917.52
837.607	14840.23
837.932	14806.11
838.258	14875.48
838.583	14870.51
838.908	14841.81
839.233	14846.33
839.558	14741.93
839.883	14670.29
840.208	14653.8
840.533	14700.35
840.858	14627.36
841.182	14702.61
841.507	14680.01
841.832	14531.54
842.156	14541.03
842.481	14519.79
842.805	14514.14
843.13	14459.9
843.454	14502.39
843.778	14373.8
844.103	14368.83
844.427	14244.99
844.751	14313.47
845.075	14257.42
845.399	14219.91
845.723	14181.94
846.047	14237.54
846.371	14117.99
846.695	14114.37
847.019	13989.63
847.343	13892.23
847.666	13868.28
847.99	13782.41
848.313	13764.33
848.637	13629.19
848.96	13719.13
849.284	13703.09
849.607	13578.8
849.931	13389.42
850.254	13387.61
850.577	13367.28
850.9	13275.53
851.223	13268.75
851.546	13229.88
851.869	13178.81
852.192	13144
852.515	13026.04
852.838	13057.91
853.161	13010.45
853.483	12955.08
853.806	12867.85
854.129	12901.3
854.451	12824.92
854.774	12780.62
855.096	12683.9
855.419	12737.46
855.741	12621.31
856.063	12607.3
856.385	12585.38
856.708	12528.43
857.03	12413.18
857.352	12517.81
857.674	12407.98
857.996	12440.97
858.318	12288.66
858.64	12323.01
858.961	12302.22
859.283	12218.15
859.605	12167.53
859.926	12224.25
860.248	12159.62
860.57	12130.02
860.891	12144.26
861.212	12053.86
861.534	12030.14
861.855	11930.25
862.176	12028.78
862.498	11986.97
862.819	12022.23
863.14	11839.18
863.461	11918.73
863.782	11885.28
864.103	11909.69
864.424	11788.56
864.745	11807.09
865.065	11733.42
865.386	11753.53
865.707	11738.62
866.027	11740.43
866.348	11758.05
866.668	11700.65
866.989	11649.35
867.309	11608.68
867.63	11545.63
867.95	11622.46
868.27	11440.77
868.59	11580.43
868.91	11551.28
869.23	11490.71
869.55	11450.94
869.87	11544.95
870.19	11409.36
870.51	11389.25
870.83	11486.42
871.15	11401.9
871.469	11401
871.789	11380.21
872.109	11431.28
872.428	11304.05
872.748	11436.03
873.067	11340.21
873.386	11348.57
873.706	11318.29
874.025	11264.28
874.344	11146.32
874.663	11240.1
874.982	11186.54
875.301	11150.84
875.62	11193.55
875.939	11106.09
876.258	11159.88
876.577	11069.93
876.896	11108.13
877.214	11045.3
877.533	11010.28
877.852	11024.29
878.17	11032.87
878.489	11043.04
878.807	11014.57
879.125	10964.85
879.444	10942.48
879.762	10895.48
880.08	10951.52
880.398	10881.92
880.716	10871.52
881.034	10892.54
881.352	10771.64
881.67	10848.25
881.988	10794.91
882.306	10740.68
882.624	10720.79
882.941	10730.73
883.259	10654.8
883.577	10602.6
883.894	10622.94
884.212	10589.04
884.529	10551.3
884.846	10611.64
885.164	10524.86
885.481	10483.28
885.798	10496.84
886.115	10399.22
886.432	10429.5
886.75	10358.99
887.067	10444.41
887.383	10364.19
887.7	10380.91
888.017	10280.8
888.334	10326.68
888.651	10258.2
888.967	10307.7
889.284	10179.11
889.6	10164.42
889.917	10140.47
890.233	10103.86
890.55	10078.32
890.866	10015.05
891.182	9996.97
891.498	9984.77
891.815	9947.93
892.131	9961.49
892.447	9936.86
892.763	9831.78
893.079	9830.87
893.395	9793.36
893.71	9697.09
894.026	9738.22
894.342	9721.72
894.657	9624.55
894.973	9678.56
895.289	9606.7
895.604	9650.76
895.92	9487.6
896.235	9496.19
896.55	9497.09
896.865	9460.71
897.181	9474.95
897.496	9418
897.811	9359.7
898.126	9283.32
898.441	9290.32
898.756	9304.56
899.071	9203.32
899.386	9234.73
899.7	9115.41
900.015	9139.82
900.33	9113.38
900.644	9011.91
900.959	9004.68
901.273	9006.26
901.588	8963.32
901.902	8899.37
902.216	8838.13
902.531	8892.59
902.845	8950.67
903.159	8812.37
903.473	8760.62
903.787	8692.6
904.101	8629.1
904.415	8615.54
904.729	8651.47
905.042	8610.11
905.356	8575.09
905.67	8550
905.984	8546.39
906.297	8488.99
906.611	8448.53
906.924	8461.19
907.237	8392.94
907.551	8366.5
907.864	8307.75
908.177	8344.36
908.491	8279.95
908.804	8220.52
909.117	8177.13
909.43	8129.9
909.743	8124.93
910.056	8103.46
910.368	8070.47
910.681	7977.81
910.994	8031.82
911.307	7924.03
911.619	7911.83
911.932	7924.03
912.244	7827.53
912.557	7865.5
912.869	7759.06
913.181	7734.88
913.494	7747.08
913.806	7639.97
914.118	7669.8
914.43	7589.8
914.742	7570.82
915.054	7572.63
915.366	7507.09
915.678	7490.14
915.99	7416.47
916.302	7379.86
916.613	7363.82
916.925	7400.65
917.236	7328.11
917.548	7331.28
917.859	7339.41
918.171	7260.54
918.482	7241.56
918.794	7233.2
919.105	7259.87
919.416	7131.06
919.727	7140.77
920.038	7025.52
920.349	7043.6
920.66	6996.82
920.971	7030.95
921.282	6985.3
921.593	6899.42
921.903	6891.29
922.214	6859.65
922.525	6849.48
922.835	6796.6
923.146	6791.63
923.456	6722.03
923.767	6744.4
924.077	6751.86
924.387	6687.45
924.697	6633.89
925.008	6651.97
925.318	6617.62
925.628	6546.89
925.938	6536.27
926.248	6524.97
926.558	6524.07
926.867	6428.25
927.177	6454.01
927.487	6454.46
927.796	6368.82
928.106	6361.13
928.416	6322.49
928.725	6296.95
929.034	6269.84
929.344	6233.9
929.653	6210.4
929.962	6145.77
930.271	6144.19
930.581	6147.58
930.89	6111.2
931.199	6079.33
931.508	6070.74
931.817	6111.65
932.125	6078.43
932.434	5995.72
932.743	5939.9
933.051	5925.89
933.36	5933.8
933.669	5895.16
933.977	5876.63
934.286	5829.62
934.594	5863.29
934.902	5814.48
935.21	5779
935.519	5818.32
935.827	5751.43
936.135	5718.44
936.443	5641.38
936.751	5671.21
937.059	5630.53
937.367	5600.93
937.674	5588.5
937.982	5593.02
938.29	5537.2
938.597	5519.57
938.905	5490.65
939.213	5445.45
939.52	5450.87
939.827	5475.05
940.135	5373.14
940.442	5373.59
940.749	5354.15
941.056	5312.35
941.363	5232.8
941.67	5304.21
941.977	5258.79
942.284	5215.63
942.591	5171.78
942.898	5200.03
943.205	5211.11
943.511	5135.18
943.818	5151.45
944.125	5088.62
944.431	5083.88
944.738	5073.93
945.044	5007.95
945.35	4998.68
945.657	5012.24
945.963	4926.14
946.269	4929.31
946.575	4925.92
946.881	4922.07
947.187	4899.93
947.493	4860.83
947.799	4812.92
948.105	4774.06
948.41	4786.26
948.716	4816.09
949.022	4753.49
949.327	4756.2
949.633	4680.72
949.938	4707.84
950.244	4701.06
950.549	4684.57
950.854	4648.63
951.16	4626.71
951.465	4602.76
951.77	4570.22
952.075	4548.07
952.38	4547.62
952.685	4506.27
952.99	4508.75
953.294	4507.62
953.599	4452.48
953.904	4441.63
954.209	4424.01
954.513	4429.66
954.818	4397.57
955.122	4381.98
955.426	4311.92
955.731	4314.41
956.035	4346.95
956.339	4284.12
956.643	4293.84
956.948	4226.5
957.252	4234.86
957.556	4192.6
957.86	4222.66
958.163	4169.55
958.467	4171.13
958.771	4165.48
959.075	4189.89
959.378	4122.77
959.682	4110.8
959.985	4073.51
960.289	4110.34
960.592	4054.98
960.896	4032.15
961.199	4028.76
961.502	4010.69
961.805	3936.34
962.108	3944.25
962.411	3961.65
962.714	3952.83
963.017	3910.8
963.32	3930.24
963.623	3849.79
963.926	3919.16
964.228	3875.32
964.531	3843.91
964.833	3824.48
965.136	3830.8
965.438	3742.67
965.741	3735.66
966.043	3729.34
966.345	3729.79
966.648	3722.78
966.95	3713.74
967.252	3691.15
967.554	3646.4
967.856	3631.03
968.158	3631.26
968.46	3638.04
968.761	3617.7
969.063	3619.28
969.365	3551.04
969.666	3574.31
969.968	3515.78
970.269	3535.9
970.571	3521.66
970.872	3537.03
971.174	3493.41
971.475	3451.6
971.776	3458.38
972.077	3429.23
972.378	3424.03
972.679	3405.96
972.98	3391.04
973.281	3368.89
973.582	3340.42
973.883	3327.77
974.183	3324.83
974.484	3335.22
974.785	3285.73
975.085	3289.8
975.386	3264.49
975.686	3245.51
975.986	3272.63
976.287	3211.38
976.587	3212.29
976.887	3205.28
977.187	3203.48
977.487	3135.91
977.787	3163.93
978.087	3140.43
978.387	3163.93
978.687	3128.67
978.987	3078.96
979.286	3102.46
979.586	3080.09
979.885	3055.91
980.185	3038.73
980.484	3015.68
980.784	3022.24
981.083	3051.16
981.382	2979.07
981.682	2946.31
981.981	2975.68
982.28	2964.16
982.579	2935.23
982.878	2927.78
983.177	2892.52
983.475	2903.14
983.774	2870.83
984.073	2875.57
984.372	2849.59
984.67	2859.98
984.969	2868.34
985.267	2854.78
985.566	2826.76
985.864	2777.95
986.162	2798.97
986.461	2753.54
986.759	2758.06
987.057	2732.08
987.355	2749.25
987.653	2714
987.951	2713.77
988.249	2705.64
988.547	2721.45
988.844	2669.93
989.142	2679.65
989.44	2631.96
989.737	2628.12
990.035	2641
990.332	2631.06
990.63	2577.5
990.927	2633.55
991.224	2592.64
991.521	2584.96
991.819	2548.13
992.116	2516.04
992.413	2511.29
992.71	2542.7
993.006	2474.23
993.303	2496.83
993.6	2465.19
993.897	2485.75
994.193	2440.56
994.49	2461.35
994.787	2452.76
995.083	2438.3
995.379	2422.25
995.676	2378.64
995.972	2404.63
996.268	2364.63
996.565	2351.52
996.861	2346.77
997.157	2342.25
997.453	2291.41
997.749	2260.9
998.044	2321.24
998.34	2285.76
998.636	2309.49
998.932	2255.93
999.227	2265.42
999.523	2243.95
999.818	2210.73
1000.114	2230.85
1000.409	2169.83
1000.704	2204.63
1001	2202.82
1001.295	2163.28
1001.59	2147.46
1001.885	2193.33
1002.18	2150.17
1002.475	2173.9
1002.77	2124.18
1003.065	2080.11
1003.359	2087.35
1003.654	2070.85
1003.949	2071.98
1004.243	2084.18
1004.538	2050.96
1004.832	2055.48
1005.127	2042.83
1005.421	2034.69
1005.715	2002.38
1006.009	1972.1
1006.304	1962.6
1006.598	1958.76
1006.892	1954.92
1007.186	1964.19
1007.48	1934.58
1007.773	1911.76
1008.067	1925.77
1008.361	1909.27
1008.655	1892.1
1008.948	1889.16
1009.242	1887.58
1009.535	1885.77
1009.829	1828.14
1010.122	1844.64
1010.415	1822.95
1010.708	1833.34
1011.001	1813.91
1011.295	1780.69
1011.588	1777.98
1011.881	1770.97
1012.173	1747.69
1012.466	1754.02
1012.759	1758.09
1013.052	1754.93
1013.344	1740.24
1013.637	1737.3
1013.93	1707.92
1014.222	1695.27
1014.514	1684.64
1014.807	1701.82
1015.099	1670.41
1015.391	1657.08
1015.683	1658.88
1015.976	1636.74
1016.268	1627.7
1016.56	1596.96
1016.851	1589.73
1017.143	1613.01
1017.435	1578.89
1017.727	1583.63
1018.018	1562.39
1018.31	1572.11
1018.602	1571.65
1018.893	1543.63
1019.185	1513.12
1019.476	1511.54
1019.767	1502.73
1020.058	1471.32
1020.35	1467.25
1020.641	1477.87
1020.932	1497.31
1021.223	1443.52
1021.514	1439.23
1021.804	1412.56
1022.095	1408.04
1022.386	1439
1022.677	1413.01
1022.967	1371.43
1023.258	1410.3
1023.548	1394.71
1023.839	1352.45
1024.129	1346.35
1024.419	1338.44
1024.709	1351.55
1025	1323.75
1025.29	1298.89
1025.58	1290.31
1025.87	1305.9
1026.16	1299.34
1026.449	1280.81
1026.739	1296.86
1027.029	1284.66
1027.319	1288.05
1027.608	1259.12
1027.898	1244.66
1028.187	1239.23
1028.477	1229.74
1028.766	1227.03
1029.055	1200.59
1029.344	1205.11
1029.634	1213.92
1029.923	1196.75
1030.212	1207.37
1030.501	1203.98
1030.79	1195.39
1031.078	1153.59
1031.367	1139.12
1031.656	1156.07
1031.945	1112.23
1032.233	1147.94
1032.522	1146.35
1032.81	1135.51
1033.099	1133.7
1033.387	1138.9
1033.675	1106.58
1033.963	1089.18
1034.251	1100.48
1034.54	1078.56
1034.828	1094.83
1035.116	1069.07
1035.403	1063.87
1035.691	1080.14
1035.979	1040.14
1036.267	1044.44
1036.554	1034.72
1036.842	1045.57
1037.129	1043.31
1037.417	1007.6
1037.704	1004.66
1037.992	1018.9
1038.279	990.2
1038.566	992.91
1038.853	992.91
1039.14	992.91
