Data from hue_60_FLMS001491_80.txt Node
Date: Mon Feb 06 15:17:55 GMT 2017
User: dcchb
Spectrometer: FLMS00149
Trigger mode: 0
Integration Time (sec): 2.000000E-2
Scans to average: 10
Electric dark correction enabled: true
Nonlinearity correction enabled: false
Boxcar width: 0
XAxis mode: Wavelengths
Number of Pixels in Spectrum: 2048
>>>>>Begin Spectral Data<<<<<
341.393	-8.94
341.776	-8.94
342.16	-8.94
342.543	-69.05
342.927	-43.29
343.31	-51.65
343.693	-69.96
344.077	-61.37
344.46	-41.71
344.843	-58.2
345.226	-30.86
345.61	-35.15
345.993	-24.53
346.376	-4.87
346.759	1.68
347.142	37.84
347.525	33.54
347.908	70.15
348.291	69.25
348.674	80.77
349.057	85.07
349.44	94.56
349.823	139.98
350.206	157.38
350.588	200.77
350.971	215.23
351.354	230.83
351.737	241.67
352.119	260.88
352.502	273.99
352.884	266.31
353.267	302.46
353.65	301.79
354.032	302.24
354.414	326.64
354.797	332.97
355.179	318.51
355.562	340.43
355.944	344.04
356.326	346.98
356.709	341.56
357.091	335.23
357.473	335.91
357.855	320.54
358.238	340.88
358.62	340.43
359.002	344.04
359.384	367.32
359.766	348.34
360.148	341.56
360.53	345.85
360.912	331.62
361.294	337.04
361.676	332.29
362.057	336.59
362.439	330.26
362.821	331.16
363.203	323.71
363.584	325.97
363.966	329.36
364.348	323.48
364.729	331.39
365.111	328
365.493	332.07
365.874	358.73
366.256	324.38
366.637	324.84
367.019	324.16
367.4	316.02
367.781	329.36
368.163	338.4
368.544	317.15
368.925	314.44
369.306	320.99
369.688	315.12
370.069	305.18
370.45	320.09
370.831	309.7
371.212	307.66
371.593	320.77
371.974	318.51
372.355	345.85
372.736	328.9
373.117	311.5
373.498	308.79
373.879	327.32
374.26	313.54
374.641	330.94
375.021	338.62
375.402	347.89
375.783	329.36
376.163	318.28
376.544	332.97
376.925	322.58
377.305	315.57
377.686	320.32
378.066	327.1
378.447	322.58
378.827	320.09
379.208	328.68
379.588	326.19
379.968	328
380.349	339.3
380.729	352.41
381.109	334.55
381.489	329.81
381.87	342.69
382.25	346.53
382.63	353.31
383.01	332.75
383.39	342.69
383.77	365.74
384.15	348.34
384.53	366.19
384.91	349.47
385.29	372.07
385.67	340.88
386.049	359.86
386.429	340.43
386.809	373.2
387.189	352.86
387.568	361.9
387.948	347.21
388.328	326.19
388.707	368.22
389.087	345.4
389.466	339.3
389.846	364.38
390.225	341.56
390.605	363.25
390.984	347.66
391.363	372.97
391.743	346.53
392.122	360.54
392.501	375.46
392.881	363.48
393.26	375.23
393.639	357.38
394.018	362.58
394.397	381.11
394.776	373.87
395.155	402.12
395.534	360.54
395.913	381.78
396.292	389.47
396.671	369.81
397.05	382.01
397.429	382.91
397.808	399.18
398.186	377.72
398.565	406.19
398.944	386.98
399.323	368.9
399.701	398.51
400.08	388.79
400.458	411.16
400.837	412.07
401.215	406.19
401.594	413.87
401.972	386.08
402.351	412.74
402.729	398.73
403.107	433.76
403.486	396.7
403.864	426.53
404.242	386.76
404.62	407.32
404.999	426.08
405.377	420.2
405.755	403.48
406.133	423.59
406.511	436.47
406.889	420.65
407.267	438.05
407.645	432.86
408.023	452.06
408.401	415.91
408.779	423.82
409.156	414.1
409.534	422.01
409.912	462.01
410.29	459.07
410.667	442.8
411.045	434.66
411.422	469.47
411.8	470.82
412.178	457.26
412.555	475.57
412.933	472.18
413.31	453.42
413.687	469.69
414.065	469.01
414.442	488
414.819	482.8
415.197	484.61
415.574	478.28
415.951	476.02
416.328	487.54
416.705	477.37
417.082	485.06
417.46	491.39
417.837	484.83
418.214	511.05
418.591	509.24
418.967	519.86
419.344	519.63
419.721	514.89
420.098	520.31
420.475	518.96
420.852	506.98
421.228	510.82
421.605	534.55
421.982	521.67
422.358	527.99
422.735	556.24
423.111	548.79
423.488	531.38
423.864	541.78
424.241	552.4
424.617	551.27
424.994	542.91
425.37	537.94
425.746	539.52
426.123	562.57
426.499	578.84
426.875	556.24
427.251	556.24
427.627	571.38
428.003	586.07
428.379	608.44
428.756	597.82
429.132	607.31
429.507	578.61
429.883	603.25
430.259	607.31
430.635	601.66
431.011	636.92
431.387	611.16
431.763	637.14
432.138	663.58
432.514	631.95
432.89	635.56
433.265	634.43
433.641	655.45
434.016	695.22
434.392	662.45
434.767	671.49
435.143	673.53
435.518	695.22
435.894	669.23
436.269	680.76
436.644	696.35
437.02	696.8
437.395	696.58
437.77	702
438.145	692.96
438.52	718.72
438.895	698.84
439.271	712.17
439.646	732.06
440.021	721.66
440.395	726.41
440.77	738.16
441.145	743.36
441.52	745.62
441.895	758.05
442.27	759.85
442.645	759.4
443.019	781.32
443.394	772.51
443.769	781.77
444.143	788.78
444.518	798.27
444.892	792.62
445.267	787.42
445.641	779.29
446.016	798.5
446.39	790.36
446.764	792.85
447.139	820.87
447.513	823.35
447.887	801.66
448.262	844.14
448.636	819.74
449.01	838.27
449.384	854.77
449.758	845.95
450.132	860.64
450.506	864.93
450.88	837.82
451.254	854.09
451.628	871.04
452.002	883.01
452.376	890.7
452.75	905.84
453.123	888.21
453.497	912.17
453.871	890.47
454.244	913.52
454.618	925.5
454.992	951.03
455.365	957.59
455.739	932.05
456.112	970.24
456.486	952.16
456.859	978.6
457.232	998.94
457.606	1008.66
457.979	1022.44
458.352	1019.96
458.725	1025.38
459.099	1016.57
459.472	1061.54
459.845	1076.91
460.218	1095.66
460.591	1080.3
460.964	1085.72
461.337	1132.5
461.71	1094.53
462.083	1119.17
462.456	1152.61
462.829	1169.11
463.201	1174.31
463.574	1184.47
463.947	1168.66
464.32	1243.68
464.692	1213.17
465.065	1247.98
465.438	1273.96
465.81	1271.03
466.183	1290.46
466.555	1321.42
466.928	1331.14
467.3	1333.85
467.672	1360.97
468.045	1417.46
468.417	1414.75
468.789	1424.47
469.161	1491.36
469.534	1471.92
469.906	1499.95
470.278	1536.33
470.65	1553.73
471.022	1606.84
471.394	1614.07
471.766	1626.5
472.138	1671.92
472.51	1721.41
472.882	1748.53
473.253	1789.66
473.625	1813.38
473.997	1848.64
474.369	1887.96
474.74	1895.64
475.112	1994.17
475.484	2041.18
475.855	2075.75
476.227	2087.28
476.598	2198.46
476.97	2253.82
477.341	2283.65
477.713	2343.77
478.084	2395.97
478.455	2484.33
478.827	2552.8
479.198	2640.71
479.569	2642.29
479.94	2737.2
480.311	2836.63
480.682	2910.08
481.053	2953.24
481.424	3081.37
481.795	3167.25
482.166	3263.52
482.537	3310.97
482.908	3413.34
483.279	3491.53
483.65	3629.38
484.021	3716.84
484.391	3825.54
484.762	3904.63
485.133	4036.6
485.503	4145.75
485.874	4255.58
486.244	4350.94
486.615	4540.09
486.985	4653.31
487.356	4849.91
487.726	4901.44
488.097	5080.19
488.467	5134.2
488.837	5340.3
489.207	5427.75
489.578	5611.93
489.948	5761.3
490.318	5909.32
490.688	6022.54
491.058	6161.97
491.428	6311.12
491.798	6542.07
492.168	6648.74
492.538	6811.67
492.908	6950.42
493.278	7094.83
493.648	7248.5
494.017	7364.65
494.387	7499.79
494.757	7749.27
495.126	7863.85
495.496	7970.51
495.866	8216.15
496.235	8322.82
496.605	8519.65
496.974	8674.67
497.344	8873.99
497.713	8960.32
498.082	9179.29
498.452	9328.89
498.821	9431.04
499.19	9585.16
499.559	9798.71
499.928	9939.95
500.298	10007.07
500.667	10273.05
501.036	10305.59
501.405	10500.61
501.774	10626.94
502.143	10753.94
502.512	10878
502.88	11135.17
503.249	11213.59
503.618	11409.74
503.987	11541.04
504.356	11637.08
504.724	11741.71
505.093	11923.18
505.462	12071.87
505.83	12218.53
506.199	12460.11
506.567	12564.97
506.936	12653.55
507.304	12948.91
507.672	13005.18
508.041	13139.19
508.409	13228
508.777	13497.37
509.145	13504.83
509.514	13694.65
509.882	13795.89
510.25	13996.57
510.618	14132.16
510.986	14159.5
511.354	14425.03
511.722	14593.39
512.09	14703.89
512.458	14763.55
512.826	14973.49
513.193	15006.48
513.561	15232.69
513.929	15377.77
514.297	15640.37
514.664	15747.48
515.032	15694.38
515.4	15960.58
515.767	16058.89
516.135	16210.52
516.502	16162.61
516.869	16550.62
517.237	16657.29
517.604	16580.23
517.972	16916.49
518.339	17005.75
518.706	17101.12
519.073	17245.07
519.44	17352.41
519.808	17540.65
520.175	17585.4
520.542	17925.05
520.909	18050.25
521.276	17970.02
521.643	18311.48
522.009	18361.42
522.376	18529.1
522.743	18670.79
523.11	18827.85
523.477	19057
523.843	19239.82
524.21	19392.13
524.577	19658.79
524.943	19669.19
525.31	19820.37
525.676	19971.55
526.043	20175.61
526.409	20325.44
526.776	20535.83
527.142	20566.79
527.508	20708.71
527.874	20769.04
528.241	21084.29
528.607	21070.73
528.973	21293.78
529.339	21295.81
529.705	21452.19
530.071	21683.82
530.437	21723.37
530.803	21971.95
531.169	22010.37
531.535	22120.2
531.901	22206.52
532.267	22340.08
532.632	22472.95
532.998	22554.53
533.364	22555.66
533.73	22803.57
534.095	22943.45
534.461	23022.09
534.826	23178.47
535.192	23211.01
535.557	23500.95
535.923	23335.08
536.288	23527.62
536.653	23706.14
537.019	23637.44
537.384	23748.18
537.749	23991.33
538.114	24024.78
538.479	24006.25
538.845	24168.05
539.21	24157.88
539.575	24261.61
539.94	24300.02
540.305	24461.15
540.67	24509.06
541.034	24628.6
541.399	24827.92
541.764	24782.5
542.129	24891.42
542.494	24932.78
542.858	25018.42
543.223	25133.9
543.587	25348.36
543.952	25158.53
544.316	25441.92
544.681	25319.66
545.045	25543.38
545.41	25622.48
545.774	25670.84
546.138	25768.01
546.503	25716.94
546.867	25741.34
547.231	26089.13
547.595	26057.72
547.959	26145.4
548.324	26288.22
548.688	26333.64
549.052	26492.51
549.416	26503.13
549.779	26555.78
550.143	26661.32
550.507	26809.79
550.871	26876.68
551.235	26972.27
551.599	27087.52
551.962	27093.62
552.326	27115.54
552.689	27424.24
553.053	27210
553.417	27377.68
553.78	27692.48
554.143	27709.2
554.507	27782.42
554.87	27866.94
555.234	28216.53
555.597	28010.66
555.96	28203.65
556.323	28303.76
556.686	28245.01
557.05	28520.03
557.413	28551.89
557.776	28796.4
558.139	28768.83
558.502	28999.34
558.865	29027.13
559.228	29221.93
559.59	29289.05
559.953	29315.03
560.316	29777.4
560.679	29713.67
561.041	29769.03
561.404	30072.08
561.767	30118.4
562.129	30067.78
562.492	30441.11
562.854	30521.78
563.217	30356.14
563.579	30642.91
563.941	30835.9
564.304	30890.13
564.666	31086.97
565.028	31203.8
565.39	31283.8
565.753	31452.38
566.115	31548.87
566.477	31678.81
566.839	31783.44
567.201	32077.22
567.563	31966.72
567.925	32308.4
568.287	32248.74
568.648	32307.72
569.01	32504.33
569.372	32709.3
569.734	32645.79
570.095	32871.55
570.457	33032.68
570.819	33128.95
571.18	33138.21
571.542	33317.41
571.903	33347.47
572.265	33331.43
572.626	33499.56
572.987	33650.74
573.349	33808.02
573.71	33959.66
574.071	33874.69
574.432	33966.21
574.794	34318.07
575.155	34271.74
575.516	34188.13
575.877	34405.75
576.238	34443.26
576.599	34571.17
576.96	34519.19
577.32	34629.24
577.681	34895.9
578.042	34952.17
578.403	34912.4
578.763	34886.87
579.124	35065.39
579.485	35119.18
579.845	35223.81
580.206	35158.27
580.566	35208.21
580.927	35195.56
581.287	35501.76
581.648	35356.46
582.008	35467.41
582.368	35455.44
582.728	35409.34
583.089	35480.97
583.449	35384.48
583.809	35587.86
584.169	35569.56
584.529	35552.84
584.889	35847.29
585.249	35551.93
585.609	35560.52
585.969	35813.39
586.329	35651.36
586.688	35764.13
587.048	35763.9
587.408	35781.08
587.768	35759.84
588.127	35776.11
588.487	35825.6
588.846	36049.55
589.206	35624.47
589.565	35655.21
589.925	35924.8
590.284	35733.17
590.643	35924.13
591.003	35764.13
591.362	36026.72
591.721	35905.14
592.08	36004.12
592.44	36035.08
592.799	36071.47
593.158	35965.25
593.517	36146.04
593.876	36213.84
594.235	36020.39
594.593	36101.07
594.952	36245.7
595.311	36091.81
595.67	36368.63
596.029	36380.61
596.387	36462.19
596.746	36496.31
597.104	36421.97
597.463	36399.14
597.822	36417.22
598.18	36501.06
598.538	36255.42
598.897	36680.49
599.255	36371.8
599.613	36949.18
599.972	36660.38
600.33	36788.06
600.688	36765.23
601.046	36875.51
601.404	36994.61
601.762	36890.43
602.12	36954.16
602.478	37033.02
602.836	37164.09
603.194	36839.81
603.552	36927.04
603.91	36928.17
604.268	37155.96
604.625	36929.52
604.983	37157.31
605.341	37117.54
605.698	37351.89
606.056	37377.65
606.413	37426.01
606.771	37450.19
607.128	37621.71
607.485	37485.21
607.843	37346.24
608.2	37616.74
608.557	37723.4
608.914	37678.2
609.272	37882.94
609.629	37906.9
609.986	38033.45
610.343	37835.49
610.7	38159.77
611.057	38148.25
611.414	38191.86
611.771	38373.33
612.127	38382.59
612.484	38157.06
612.841	38496.71
613.198	38363.84
613.554	38372.65
613.911	38678.18
614.267	38564.73
614.624	38637.95
614.98	38658.07
615.337	38882.24
615.693	38895.35
616.05	38831.62
616.406	39097.83
616.762	38781.68
617.118	38900.32
617.475	38932.41
617.831	39110.48
618.187	39132.18
618.543	39202.46
618.899	39390.7
619.255	39390.02
619.611	39206.07
619.967	39478.61
620.323	39448.55
620.678	39496.01
621.034	39538.72
621.39	39512.28
621.746	39414.43
622.101	39879.5
622.457	39546.63
622.812	39641.32
623.168	39841.54
623.523	39815.32
623.879	39882.89
624.234	39755.44
624.589	39718.15
624.945	39838.15
625.3	39928.09
625.655	39947.3
626.01	39887.86
626.365	39989.78
626.72	39786.62
627.075	39910.24
627.43	39916.34
627.785	39831.59
628.14	39903.46
628.495	40167.86
628.85	39936.22
629.205	39892.38
629.559	40133.96
629.914	39930.8
630.269	40030.23
630.623	40063.68
630.978	39810.58
631.332	40127.63
631.687	40113.17
632.041	40023.68
632.396	40033.85
632.75	39926.28
633.104	39858.94
633.459	39689.45
633.813	39755.89
634.167	39773.74
634.521	39792.72
634.875	39908.43
635.229	39804.48
635.583	39586.63
635.937	39749.56
636.291	39537.82
636.645	39500.76
636.999	39576.69
637.352	39700.75
637.706	39443.13
638.06	39552.96
638.413	39569.91
638.767	39319.29
639.121	39416.69
639.474	39390.02
639.828	39256.69
640.181	39304.15
640.534	39451.49
640.888	39133.76
641.241	39215.34
641.594	39130.82
641.947	39308.67
642.301	39147.32
642.654	39210.59
643.007	39135.79
643.36	39275.9
643.713	39103.48
644.066	39166.53
644.419	38883.14
644.771	38648.35
645.124	38409.71
645.477	38332.88
645.83	38178.3
646.182	37914.81
646.535	37958.87
646.888	37916.16
647.24	37582.39
647.593	37904.41
647.945	37746.9
648.298	37710.75
648.65	37449.51
649.002	37549.17
649.355	37710.52
649.707	37646.57
650.059	37828.48
650.411	38201.81
650.763	38365.42
651.115	38661
651.467	38525.64
651.819	38517.05
652.171	38428.47
652.523	38415.81
652.875	38359.09
653.227	38266.44
653.578	38503.04
653.93	38376.94
654.282	38162.94
654.633	38049.72
654.985	38190.51
655.337	38237.06
655.688	38196.38
656.039	38297.4
656.391	37972.21
656.742	38012.43
657.094	38134.46
657.445	38167.23
657.796	37993.68
658.147	37946.67
658.498	38062.6
658.849	37841.36
659.2	38047.69
659.551	37810.4
659.902	38079.78
660.253	37975.15
660.604	38042.71
660.955	37719.11
661.306	38006.33
661.656	37945.99
662.007	37768.15
662.358	37882.94
662.708	37873.23
663.059	37837.3
663.409	37673.01
663.76	37964.52
664.11	37898.31
664.461	37905.99
664.811	37923.85
665.161	37865.09
665.511	37652.22
665.862	37789.16
666.212	37824.42
666.562	38012.21
666.912	37898.54
667.262	37698.54
667.612	37743.51
667.962	37768.82
668.312	37902.83
668.662	37756.85
669.011	37685.44
669.361	37611.77
669.711	37684.76
670.06	37606.34
670.41	37453.58
670.76	37431.88
671.109	37707.81
671.459	37631.2
671.808	37473.01
672.157	37658.09
672.507	37444.09
672.856	37447.93
673.205	37537.87
673.554	37624.42
673.904	37452.67
674.253	37677.07
674.602	37498.32
674.951	36934.49
675.3	36890.2
675.649	37311.21
675.998	37388.49
676.346	37289.74
676.695	37498.1
677.044	37167.03
677.393	37386.91
677.741	37279.57
678.09	37204.09
678.438	37128.39
678.787	37159.12
679.135	37214.94
679.484	36932.46
679.832	37086.13
680.181	36918
680.529	36925.91
680.877	36892.24
681.225	36706.48
681.573	37100.82
681.922	36808.17
682.27	36648.63
682.618	36737.44
682.966	36676.65
683.314	36695.63
683.661	36556.2
684.009	36364.79
684.357	36348.3
684.705	36264.46
685.053	36249.54
685.4	36225.36
685.748	35984.24
686.095	36028.53
686.443	35854.75
686.79	35855.88
687.138	35961.87
687.485	35965.03
687.832	35697.69
688.18	35786.05
688.527	35600.07
688.874	35604.59
689.221	35622.21
689.568	35578.37
689.915	35313.52
690.262	35417.92
690.609	35229.91
690.956	35187.42
691.303	35049.57
691.65	34950.14
691.997	34934.1
692.344	34815.68
692.69	34764.38
693.037	34755.8
693.383	34532.98
693.73	34631.05
694.077	34392.87
694.423	34393.77
694.769	34377.27
695.116	34406.88
695.462	34310.16
695.808	34080.11
696.155	34243.04
696.501	33953.1
696.847	33824.07
697.193	33751.08
697.539	33872.2
697.885	33605.09
698.231	33497.98
698.577	33527.35
698.923	33459.56
699.269	33275.16
699.614	33100.47
699.96	33066.12
700.306	32957.42
700.651	32887.14
700.997	32867.71
701.342	32755.4
701.688	32708.84
702.033	32587.26
702.379	32428.4
702.724	32361.73
703.069	32472.01
703.415	32133.72
703.76	32090.78
704.105	32263.21
704.45	32046.04
704.795	31798.36
705.14	31809.43
705.485	31838.58
705.83	31607.4
706.175	31780.96
706.52	31556.33
706.865	31544.13
707.209	31407.86
707.554	31390.69
707.899	31412.61
708.243	31205.15
708.588	31196.57
708.932	31012.62
709.277	31049.45
709.621	31062.56
709.966	30777.82
710.31	31022.11
710.654	30635.23
710.998	30678.16
711.342	30704.6
711.687	30638.84
712.031	30423.71
712.375	30383.48
712.719	30432.29
713.063	30351.39
713.407	30299.64
713.75	30144.84
714.094	30351.17
714.438	30059.42
714.782	30061
715.125	30051.51
715.469	30045.41
715.812	29889.26
716.156	29670.51
716.499	29683.39
716.843	29755.02
717.186	29673.22
717.53	29663.73
717.873	29584.18
718.216	29575.59
718.559	29469.83
718.902	29317.97
719.246	29283.4
719.589	29212.44
719.932	29048.15
720.275	29065.55
720.617	28963.86
720.96	28935.16
721.303	29065.1
721.646	28920.69
721.989	28771.55
722.331	28927.47
722.674	28681.83
723.016	28777.2
723.359	28782.62
723.701	28726.12
724.044	28573.81
724.386	28390.31
724.729	28604.54
725.071	28571.33
725.413	28505.11
725.755	28386.25
726.097	28235.29
726.439	28116.42
726.782	28155.97
727.124	28323.65
727.465	28177.44
727.807	28167.04
728.149	28101.51
728.491	27925.24
728.833	28054.05
729.175	27924.11
729.516	27852.47
729.858	27852.25
730.199	27923.21
730.541	27864.9
730.882	27788.97
731.224	27873.26
731.565	27492.26
731.906	27541.52
732.248	27602.54
732.589	27479.83
732.93	27457.91
733.271	27420.85
733.612	27363.67
733.953	27445.7
734.294	27319.38
734.635	27182.89
734.976	27385.14
735.317	27147.63
735.658	27179.72
735.999	27117.58
736.339	27049.33
736.68	27069.9
737.021	26986.06
737.361	26824.03
737.702	27026.73
738.042	26852.95
738.383	26766.85
738.723	26946.06
739.063	26768.89
739.404	26884.14
739.744	26676.46
740.084	26575.9
740.424	26586.52
740.764	26512.85
741.104	26667.42
741.444	26425.62
741.784	26506.75
742.124	26410.7
742.464	26325.28
742.804	26334.32
743.143	26308.56
743.483	26418.39
743.823	26164.61
744.162	26190.6
744.502	26224.95
744.841	26062.46
745.181	26142.01
745.52	26012.3
745.86	26077.83
746.199	25978.85
746.538	25917.61
746.877	25901.11
747.216	25835.13
747.556	25843.04
747.895	25786.31
748.234	25725.98
748.573	25675.13
748.911	25710.16
749.25	25698.63
749.589	25535.7
749.928	25473.78
750.267	25591.06
750.605	25475.59
750.944	25227.91
751.283	25425.19
751.621	25368.47
751.96	25198.98
752.298	25240.57
752.636	25268.36
752.975	25078.54
753.313	24942.72
753.651	25029.95
753.989	24903.17
754.327	24832.44
754.666	24789.5
755.004	24850.97
755.342	24819.33
755.679	24801.03
756.017	24605.33
756.355	24562.84
756.693	24461.15
757.031	24501.83
757.368	24297.77
757.706	24363.75
758.044	24120.59
758.381	24227.26
758.719	24154.94
759.056	24223.64
759.394	24088.96
759.731	24010.09
760.068	23892.13
760.405	23708.18
760.743	23781.17
761.08	23752.92
761.417	23704.33
761.754	23711.57
762.091	23562.87
762.428	23518.8
762.765	23229.32
763.102	23398.13
763.438	23193.39
763.775	23099.83
764.112	23061.64
764.449	23167.85
764.785	23027.06
765.122	22838.14
765.458	22729.67
765.795	22852.38
766.131	22709.56
766.467	22708.65
766.804	22499.39
767.14	22411.94
767.476	22442.67
767.812	22272.73
768.148	22374.88
768.485	22282.45
768.821	21992.97
769.157	22040.65
769.492	22000.65
769.828	21936.02
770.164	21802.46
770.5	21731.73
770.836	21707.1
771.171	21523.37
771.507	21569.93
771.842	21412.64
772.178	21356.37
772.513	21324.96
772.849	21236.83
773.184	21095.36
773.519	21193.89
773.855	21040.68
774.19	21103.72
774.525	20968.81
774.86	20957.97
775.195	20879.32
775.53	20738.99
775.865	20500.12
776.2	20430.75
776.535	20345.1
776.87	20410.64
777.205	20284.31
777.539	20240.47
777.874	20158.66
778.209	20022.85
778.543	19961.38
778.878	19877.99
779.212	19887.26
779.547	19697.43
779.881	19740.14
780.215	19581.05
780.55	19690.2
780.884	19498.34
781.218	19496.08
781.552	19361.17
781.886	19356.43
782.22	19249.76
782.554	19195.75
782.888	18997.34
783.222	18946.04
783.556	18830.11
783.889	18805.71
784.223	18739.95
784.557	18664.47
784.89	18653.85
785.224	18557.13
785.557	18446.39
785.891	18306.74
786.224	18435.32
786.558	18308.32
786.891	18206.63
787.224	18102.22
787.557	18000.3
787.891	18059.74
788.224	17960.76
788.557	18045.73
788.89	17869.91
789.223	17857.26
789.556	17866.75
789.888	17729.8
790.221	17624.72
790.554	17536.81
790.887	17546.3
791.219	17452.75
791.552	17399.87
791.884	17314.22
792.217	17307.21
792.549	17213.88
792.882	17144.73
793.214	17092.08
793.546	17076.03
793.879	16921.01
794.211	16835.59
794.543	16889.15
794.875	16816.61
795.207	16811.41
795.539	16731.86
795.871	16797.62
796.203	16542.94
796.535	16473.79
796.867	16460.68
797.198	16354.02
797.53	16410.29
797.862	16262.72
798.193	16327.35
798.525	16230.86
798.856	16206.68
799.188	16056.4
799.519	16037.64
799.85	15936.18
800.182	15977.53
800.513	15916.06
800.844	15770.08
801.175	15838.33
801.506	15788.84
801.837	15773.47
802.168	15713.13
802.499	15602.63
802.83	15623.19
803.161	15544.1
803.491	15486.7
803.822	15525.57
804.153	15466.58
804.483	15334.38
804.814	15229.3
805.145	15313.59
805.475	15192.02
805.805	15146.37
806.136	15166.25
806.466	15118.57
806.796	14976.2
807.126	14948.63
807.457	14928.75
807.787	15006.71
808.117	14872.7
808.447	14773.95
808.777	14804.46
809.107	14836.09
809.436	14692.59
809.766	14699.37
810.096	14650.34
810.426	14580.51
810.755	14569.43
811.085	14526.72
811.414	14506.16
811.744	14473.39
812.073	14434.3
812.403	14331.7
812.732	14241.98
813.061	14249.89
813.39	14166.51
813.719	14141.87
814.049	14234.98
814.378	14111.14
814.707	14162.89
815.036	14118.37
815.365	14015.55
815.693	13812.39
816.022	13792.05
816.351	13835.67
816.68	13745.73
817.008	13773.97
817.337	13696.46
817.665	13631.83
817.994	13637.48
818.322	13646.52
818.651	13592.28
818.979	13582.34
819.307	13596.8
819.636	13540.99
819.964	13423.93
820.292	13497.15
820.62	13508.67
820.948	13514.09
821.276	13489.01
821.604	13412.85
821.932	13377.6
822.259	13394.1
822.587	13369.46
822.915	13392.52
823.243	13545.05
823.57	13408.56
823.898	13385.74
824.225	13306.42
824.553	13288.34
824.88	13352.97
825.207	13417.15
825.535	13336.47
825.862	13385.28
826.189	13319.97
826.516	13335.79
826.843	13365.4
827.17	13352.29
827.497	13419.63
827.824	13365.85
828.151	13400.2
828.478	13358.84
828.805	13394.1
829.131	13357.04
829.458	13333.08
829.785	13225.06
830.111	13267.55
830.438	13300.54
830.764	13301.67
831.09	13348.9
831.417	13218.73
831.743	13286.98
832.069	13244.27
832.395	13252.63
832.722	13262.35
833.048	13209.92
833.374	13240.43
833.7	13178.28
834.026	13192.07
834.351	13193.2
834.677	13166.98
835.003	13198.4
835.329	13139.19
835.654	13130.38
835.98	13082.92
836.306	13118.17
836.631	13042.47
836.956	13059.64
837.282	13027.55
837.607	13009.93
837.932	12911.62
838.258	12974.67
838.583	12884.28
838.908	12894
839.233	12960.44
839.558	12886.54
839.883	12783.72
840.208	12730.61
840.533	12892.42
840.858	12823.72
841.182	12756.15
841.507	12761.12
841.832	12675.47
842.156	12620.33
842.481	12645.87
842.805	12581.01
843.13	12542.82
843.454	12632.31
843.778	12490.39
844.103	12398.19
844.427	12392.77
844.751	12494.69
845.075	12435.25
845.399	12332.88
845.723	12287.23
846.047	12378.08
846.371	12223.28
846.695	12262.38
847.019	12120.46
847.343	12088.59
847.666	11982.61
847.99	12012.21
848.313	11919.56
848.637	11902.84
848.96	11915.27
849.284	11858.54
849.607	11734.03
849.931	11777.87
850.254	11634.82
850.577	11568.16
850.9	11519.57
851.223	11450.19
851.546	11467.37
851.869	11319.35
852.192	11398.22
852.515	11277.32
852.838	11300.14
853.161	11253.36
853.483	11244.32
853.806	11155.96
854.129	11112.58
854.451	11064.21
854.774	11045.23
855.096	11042.75
855.419	10974.73
855.741	11038.68
856.063	10875.52
856.385	10894.28
856.708	10816.76
857.03	10804.79
857.352	10787.16
857.674	10736.54
857.996	10679.37
858.318	10676.65
858.64	10754.17
858.961	10648.86
859.283	10554.85
859.605	10521.18
859.926	10613.83
860.248	10524.79
860.57	10474.4
860.891	10503.33
861.212	10424.46
861.534	10396.89
861.855	10419.26
862.176	10415.42
862.498	10379.49
862.819	10367.51
863.14	10314.86
863.461	10230.34
863.782	10258.81
864.103	10188.98
864.424	10230.79
864.745	10253.61
865.065	10204.35
865.386	10197.12
865.707	10224.46
866.027	10135.2
866.348	10088.2
866.668	10118.02
866.989	10090
867.309	9983.79
867.63	10087.74
867.95	10019.5
868.27	9915.77
868.59	9996.9
868.91	9954.19
869.23	9937.01
869.55	9854.08
869.87	9882.1
870.19	9814.76
870.51	9927.07
870.83	9891.59
871.15	9861.31
871.469	9826.28
871.789	9865.38
872.109	9870.57
872.428	9725.72
872.748	9777.69
873.067	9759.39
873.386	9757.13
873.706	9754.19
874.025	9647.3
874.344	9658.6
874.663	9690.24
874.982	9687.08
875.301	9646.62
875.62	9637.81
875.939	9566.63
876.258	9539.28
876.577	9544.25
876.896	9489.34
877.214	9459.96
877.533	9524.59
877.852	9426.74
878.17	9502.67
878.489	9509.91
878.807	9458.83
879.125	9409.79
879.444	9436.91
879.762	9436.23
880.08	9391.49
880.398	9321.21
880.716	9317.82
881.034	9372.51
881.352	9341.77
881.67	9289.12
881.988	9291.61
882.306	9330.25
882.624	9309.23
882.941	9182
883.259	9135
883.577	9143.36
883.894	9108.11
884.212	9153.08
884.529	9099.75
884.846	9092.97
885.164	9085.74
885.481	9076.24
885.798	9065.17
886.115	8984.04
886.432	8957.83
886.75	8980.2
887.067	8937.49
887.383	8937.72
887.7	8920.99
888.017	8890.26
888.334	8946.98
888.651	8791.51
888.967	8788.57
889.284	8797.38
889.6	8744.5
889.917	8710.15
890.233	8736.14
890.55	8680.1
890.866	8725.97
891.182	8643.49
891.498	8631.96
891.815	8617.05
892.131	8616.37
892.447	8530.5
892.763	8517.16
893.079	8494.79
893.395	8474.9
893.71	8467.67
894.026	8389.48
894.342	8391.52
894.657	8362.82
894.973	8372.08
895.289	8364.4
895.604	8335.47
895.92	8258.41
896.235	8193.33
896.55	8203.72
896.865	8151.07
897.181	8175.93
897.496	8098.64
897.811	8113.33
898.126	8097.97
898.441	8057.51
898.756	8042.83
899.071	7986.78
899.386	7995.14
899.7	7929.38
900.015	7877.41
900.33	7865.65
900.644	7844.19
900.959	7905.88
901.273	7742.49
901.588	7791.98
901.902	7680.57
902.216	7729.61
902.531	7698.65
902.845	7668.37
903.159	7642.61
903.473	7635.83
903.787	7512.9
904.101	7529.17
904.415	7492.11
904.729	7456.85
905.042	7389.96
905.356	7470.18
905.67	7372.11
905.984	7391.99
906.297	7342.28
906.611	7288.49
906.924	7274.48
907.237	7285.56
907.551	7270.64
907.864	7282.17
908.177	7224.99
908.491	7149.06
908.804	7096.18
909.117	7139.12
909.43	7027.03
909.743	7003.76
910.056	7021.16
910.368	6951.33
910.681	6982.06
910.994	6970.76
911.307	6885.34
911.619	6893.93
911.932	6871.78
912.244	6787.49
912.557	6736.42
912.869	6665.91
913.181	6760.6
913.494	6712.24
913.806	6708.17
914.118	6635.18
914.43	6602.19
914.742	6620.49
915.054	6596.08
915.366	6556.31
915.678	6540.72
915.99	6532.36
916.302	6422.53
916.613	6401.51
916.925	6441.96
917.236	6457.1
917.548	6366.49
917.859	6311.57
918.171	6272.93
918.482	6241.74
918.794	6224.12
919.105	6227.96
919.416	6198.13
919.727	6155.64
920.038	6128.53
920.349	6088.3
920.66	6086.94
920.971	6032.26
921.282	6100.05
921.593	5989.09
921.903	6000.17
922.214	5985.25
922.525	5979.83
922.835	5885.59
923.146	5894.63
923.456	5835.43
923.767	5845.37
924.077	5793.62
924.387	5860.96
924.697	5774.64
925.008	5734.41
925.318	5742.77
925.628	5706.84
925.938	5703.68
926.248	5646.28
926.558	5676.11
926.867	5633.85
927.177	5608.99
927.487	5576.9
927.796	5515.89
928.106	5542.55
928.416	5490.35
928.725	5450.8
929.034	5467.98
929.344	5422.1
929.653	5393.63
929.962	5393.18
930.271	5373.74
930.581	5313.86
930.89	5301.43
931.199	5214.65
931.508	5249.45
931.817	5255.55
932.125	5270.24
932.434	5211.71
932.743	5180.08
933.051	5102.11
933.36	5133.07
933.669	5105.28
933.977	5065.95
934.286	5048.78
934.594	5032.73
934.902	5018.27
935.21	5024.37
935.519	4995.67
935.827	4964.49
936.135	4979.4
936.443	4884.26
936.751	4913.19
937.059	4871.84
937.367	4820.99
937.674	4851.04
937.982	4853.76
938.29	4787.09
938.597	4794.78
938.905	4763.36
939.213	4727.43
939.52	4735.34
939.827	4755.23
940.135	4649.92
940.442	4665.06
940.749	4621.9
941.056	4665.51
941.363	4590.03
941.67	4628.9
941.977	4539.19
942.284	4516.14
942.591	4528.34
942.898	4529.02
943.205	4512.75
943.511	4476.59
943.818	4443.37
944.125	4426.65
944.431	4408.8
944.738	4383.71
945.044	4359.31
945.35	4390.27
945.657	4313.21
945.963	4295.58
946.269	4322.02
946.575	4321.34
946.881	4254.22
947.187	4284.51
947.493	4188.92
947.799	4224.39
948.105	4167.67
948.41	4147.11
948.716	4165.64
949.022	4119.99
949.327	4154.79
949.633	4094.23
949.938	4091.97
950.244	4060.78
950.549	4050.39
950.854	4043.61
951.16	3988.24
951.465	3982.37
951.77	3982.37
952.075	3985.98
952.38	3989.15
952.685	3897.85
952.99	3905.98
953.294	3866.66
953.599	3905.76
953.904	3841.81
954.209	3783.5
954.513	3829.15
954.818	3795.03
955.122	3777.4
955.426	3802.03
955.731	3771.07
956.035	3719.32
956.339	3694.92
956.643	3686.33
956.948	3703.96
957.252	3663.28
957.556	3631.64
957.86	3620.12
958.163	3640.91
958.467	3606.11
958.771	3590.06
959.075	3601.36
959.378	3560.23
959.682	3561.14
959.985	3554.36
960.289	3501.7
960.592	3506.9
960.896	3496.05
961.199	3475.94
961.502	3490.85
961.805	3458.31
962.108	3414.7
962.411	3415.6
962.714	3403.63
963.017	3378.09
963.32	3388.71
963.623	3399.78
963.926	3356.85
964.228	3331.54
964.531	3306.45
964.833	3337.64
965.136	3278.88
965.438	3260.8
965.741	3236.85
966.043	3206.57
966.345	3237.08
966.648	3175.16
966.95	3222.39
967.252	3186.91
967.554	3234.36
967.856	3152.11
968.158	3125.67
968.46	3158.66
968.761	3082.28
969.063	3103.52
969.365	3079.79
969.666	3079.79
969.968	3059.68
970.269	3058.32
970.571	3033.24
970.872	3055.61
971.174	3033.01
971.475	2981.04
971.776	3003.18
972.077	2993.47
972.378	2996.18
972.679	2953.24
972.98	2914.15
973.281	2906.01
973.582	2927.93
973.883	2895.39
974.183	2877.31
974.484	2898.78
974.785	2844.09
975.085	2838.22
975.386	2858.1
975.686	2815.84
975.986	2798.9
976.287	2838.67
976.587	2770.65
976.887	2767.71
977.187	2773.36
977.487	2750.31
977.787	2733.13
978.087	2719.35
978.387	2712.34
978.687	2743.3
978.987	2682.29
979.286	2689.97
979.586	2608.62
979.885	2617.21
980.185	2650.42
980.484	2644.78
980.784	2590.99
981.083	2628.5
981.382	2608.62
981.682	2563.87
981.981	2582.63
982.28	2581.5
982.579	2579.92
982.878	2554.61
983.177	2572.23
983.475	2553.7
983.774	2543.08
984.073	2502.18
984.372	2466.7
984.67	2504.67
984.969	2489.07
985.267	2468.96
985.566	2451.56
985.864	2466.7
986.162	2433.03
986.461	2400.49
986.759	2411.11
987.057	2376.99
987.355	2392.8
987.653	2397.1
987.951	2333.6
988.249	2381.51
988.547	2393.93
988.844	2324.56
989.142	2336.08
989.44	2290.66
989.737	2312.13
990.035	2321.85
990.332	2275.52
990.63	2286.14
990.927	2257.44
991.224	2238.68
991.521	2227.38
991.819	2186.71
992.116	2224.9
992.413	2225.8
992.71	2192.81
993.006	2192.13
993.303	2159.59
993.6	2149.65
993.897	2175.86
994.193	2159.14
994.49	2127.05
994.787	2137.9
995.083	2100.38
995.379	2096.31
995.676	2108.74
995.972	2085.69
996.268	2084.79
996.565	2097.9
996.861	2059.03
997.157	2045.02
997.453	2048.18
997.749	2031.46
998.044	2046.15
998.34	1995.3
998.636	1989.88
998.932	2019.25
999.227	1961.4
999.523	1982.19
999.818	1946.94
1000.114	1952.36
1000.409	1912.36
1000.704	1911.46
1001	1938.13
1001.295	1893.83
1001.59	1903.33
1001.885	1885.25
1002.18	1880.5
1002.475	1861.07
1002.77	1853.84
1003.065	1844.12
1003.359	1823.78
1003.654	1835.98
1003.949	1822.42
1004.243	1802.09
1004.538	1781.52
1004.832	1826.04
1005.127	1780.84
1005.421	1764.8
1005.715	1774.06
1006.009	1767.74
1006.304	1747.85
1006.598	1704.46
1006.892	1727.74
1007.186	1700.17
1007.48	1723.22
1007.773	1679.6
1008.067	1704.46
1008.361	1642.99
1008.655	1655.87
1008.948	1659.94
1009.242	1662.2
1009.535	1651.35
1009.829	1602.09
1010.122	1616.1
1010.415	1644.35
1010.708	1597.35
1011.001	1598.93
1011.295	1586.95
1011.588	1600.51
1011.881	1565.26
1012.173	1546.27
1012.466	1552.6
1012.759	1562.32
1013.052	1511.02
1013.344	1520.74
1013.637	1504.92
1013.93	1493.17
1014.222	1504.47
1014.514	1491.81
1014.807	1479.61
1015.099	1481.87
1015.391	1450.23
1015.683	1446.16
1015.976	1436.9
1016.268	1440.51
1016.56	1421.53
1016.851	1441.64
1017.143	1394.19
1017.435	1403.45
1017.727	1391.7
1018.018	1372.27
1018.31	1379.72
1018.602	1388.54
1018.893	1378.59
1019.185	1367.97
1019.476	1351.93
1019.767	1342.21
1020.058	1337.92
1020.35	1314.64
1020.641	1292.27
1020.932	1302.21
1021.223	1314.41
1021.514	1289.56
1021.804	1259.27
1022.095	1254.76
1022.386	1273.51
1022.677	1258.14
1022.967	1237.35
1023.258	1226.51
1023.548	1231.03
1023.839	1219.95
1024.129	1217.47
1024.419	1215.21
1024.709	1188.54
1025	1186.96
1025.29	1183.34
1025.58	1188.77
1025.87	1163.91
1026.16	1168.2
1026.449	1165.04
1026.739	1162.33
1027.029	1135.21
1027.319	1173.85
1027.608	1117.13
1027.898	1118.26
1028.187	1105.15
1028.477	1106.06
1028.766	1118.49
1029.055	1102.67
1029.344	1095.44
1029.634	1094.31
1029.923	1074.42
1030.212	1055.66
1030.501	1066.29
1030.79	1064.03
1031.078	1036.23
1031.367	1056.12
1031.656	1041.2
1031.945	1031.26
1032.233	1021.54
1032.522	1014.08
1032.81	1029
1033.099	1002.33
1033.387	993.07
1033.675	991.49
1033.963	962.33
1034.251	995.1
1034.54	978.6
1034.828	977.02
1035.116	948.1
1035.403	977.47
1035.691	965.27
1035.979	924.59
1036.267	950.81
1036.554	929.79
1036.842	915.78
1037.129	920.75
1037.417	918.04
1037.704	926.4
1037.992	889.79
1038.279	881.88
1038.566	896.12
1038.853	896.12
1039.14	896.12
