Data from hue_40_FLMS001491_51.txt Node
Date: Mon Feb 06 15:08:05 GMT 2017
User: dcchb
Spectrometer: FLMS00149
Trigger mode: 0
Integration Time (sec): 2.000000E-2
Scans to average: 10
Electric dark correction enabled: true
Nonlinearity correction enabled: false
Boxcar width: 0
XAxis mode: Wavelengths
Number of Pixels in Spectrum: 2048
>>>>>Begin Spectral Data<<<<<
341.393	-15.47
341.776	-15.47
342.16	-15.47
342.543	-66.99
342.927	-57.27
343.31	-65.18
343.693	-76.93
344.077	-70.38
344.46	-42.81
344.843	-57.95
345.226	-73.32
345.61	-19.99
345.993	-6.88
346.376	1.26
346.759	-0.78
347.142	1.48
347.525	35.83
347.908	74.48
348.291	95.27
348.674	89.62
349.057	116.28
349.44	129.39
349.823	150.63
350.206	159.9
350.588	179.56
350.971	191.53
351.354	247.8
351.737	236.96
352.119	238.54
352.502	255.71
352.884	262.27
353.267	282.38
353.65	303.85
354.032	299.78
354.414	309.5
354.797	295.94
355.179	317.41
355.562	313.79
355.944	314.7
356.326	358.99
356.709	335.49
357.091	333.45
357.473	340.91
357.855	349.95
358.238	339.33
358.62	336.84
359.002	349.27
359.384	333.68
359.766	354.92
360.148	335.26
360.53	346.56
360.912	360.34
361.294	335.26
361.676	338.88
362.057	335.49
362.439	327.12
362.821	337.52
363.203	325.54
363.584	298.2
363.966	354.02
364.348	334.58
364.729	329.84
365.111	334.36
365.493	323.73
365.874	325.77
366.256	328.03
366.637	290.97
367.019	311.76
367.4	323.73
367.781	310.63
368.163	298.2
368.544	325.32
368.925	321.93
369.306	318.99
369.688	322.6
370.069	317.18
370.45	318.54
370.831	318.54
371.212	333.9
371.593	312.21
371.974	308.59
372.355	333.68
372.736	310.4
373.117	314.92
373.498	317.86
373.879	314.92
374.26	311.76
374.641	300.46
375.021	322.38
375.402	328.48
375.783	327.8
376.163	305.66
376.544	325.77
376.925	329.61
377.305	323.06
377.686	312.21
378.066	309.05
378.447	345.88
378.827	318.08
379.208	339.33
379.588	339.33
379.968	327.12
380.349	327.58
380.729	349.5
381.109	336.62
381.489	326.22
381.87	339.78
382.25	340.23
382.63	328.93
383.01	347.24
383.39	342.72
383.77	360.12
384.15	332.32
384.53	354.24
384.91	355.6
385.29	365.54
385.67	366.22
386.049	325.77
386.429	361.7
386.809	364.41
387.189	348.37
387.568	367.35
387.948	344.98
388.328	371.87
388.707	377.74
389.087	349.5
389.466	360.12
389.846	368.25
390.225	362.6
390.605	374.58
390.984	384.52
391.363	385.2
391.743	387.01
392.122	378.2
392.501	372.77
392.881	372.55
393.26	393.11
393.639	363.06
394.018	383.39
394.397	392.21
394.776	367.12
395.155	386.78
395.534	390.85
395.913	372.09
396.292	380.91
396.671	398.08
397.05	390.85
397.429	375.03
397.808	376.84
398.186	404.86
398.565	404.41
398.944	406.22
399.323	402.6
399.701	396.27
400.08	389.27
400.458	377.74
400.837	406.9
401.215	408.03
401.594	398.99
401.972	396.5
402.351	405.31
402.729	410.74
403.107	408.48
403.486	400.57
403.864	411.19
404.242	432.43
404.62	446.44
404.999	431.98
405.377	427.23
405.755	407.57
406.133	426.1
406.511	427.01
406.889	446.44
407.267	429.72
407.645	427.46
408.023	457.74
408.401	453.9
408.779	438.76
409.156	454.35
409.534	446.22
409.912	431.53
410.29	461.81
410.667	449.61
411.045	474.01
411.422	467.01
411.8	439.44
412.178	456.39
412.555	478.53
412.933	492.77
413.31	455.03
413.687	481.92
414.065	491.19
414.442	478.53
414.819	501.81
415.197	501.58
415.574	502.03
415.951	514.24
416.328	503.84
416.705	514.46
417.082	495.71
417.46	492.32
417.837	501.13
418.214	513.79
418.591	530.28
418.967	504.52
419.344	524.18
419.721	522.6
420.098	536.16
420.475	517.85
420.852	518.53
421.228	529.6
421.605	525.54
421.982	549.27
422.358	542.49
422.735	559.89
423.111	552.65
423.488	564.41
423.864	570.28
424.241	598.53
424.617	574.35
424.994	573.22
425.37	560.34
425.746	580
426.123	587.23
426.499	577.06
426.875	584.29
427.251	567.34
427.627	597.85
428.003	617.29
428.379	593.33
428.756	607.79
429.132	621.81
429.507	629.72
429.883	631.3
430.259	647.57
430.635	612.99
431.011	644.4
431.387	624.29
431.763	667.23
432.138	650.73
432.514	669.94
432.89	642.6
433.265	669.04
433.641	683.5
434.016	688.47
434.392	703.61
434.767	677.85
435.143	680.79
435.518	688.7
435.894	686.44
436.269	714.91
436.644	729.15
437.02	709.49
437.395	712.65
437.77	737.73
438.145	747.9
438.52	751.97
438.895	774.57
439.271	749.71
439.646	785.64
440.021	725.31
440.395	781.35
440.77	748.81
441.145	785.64
441.52	788.81
441.895	775.93
442.27	771.18
442.645	803.72
443.019	788.81
443.394	806.66
443.769	787.23
444.143	801.24
444.518	801.46
444.892	815.02
445.267	806.66
445.641	810.73
446.016	824.74
446.39	844.17
446.764	855.02
447.139	847.56
447.513	859.09
447.887	838.52
448.262	855.02
448.636	838.75
449.01	878.75
449.384	881.46
449.758	884.17
450.132	891.18
450.506	895.24
450.88	901.12
451.254	899.54
451.628	911.74
452.002	911.74
452.376	931.18
452.75	927.56
453.123	970.95
453.497	936.83
453.871	966.43
454.244	971.4
454.618	975.69
454.992	996.03
455.365	966.43
455.739	980.67
456.112	1045.07
456.486	1036.03
456.859	1041.23
457.232	1061.57
457.606	1059.99
457.979	1031.06
458.352	1092.98
458.725	1113.77
459.099	1090.72
459.472	1116.48
459.845	1122.36
460.218	1142.7
460.591	1128.46
460.964	1156.48
461.337	1158.74
461.71	1174.79
462.083	1187.21
462.456	1190.38
462.829	1199.87
463.201	1211.39
463.574	1237.38
463.947	1234.22
464.32	1271.96
464.692	1309.7
465.065	1283.48
465.438	1315.8
465.81	1347.66
466.183	1355.57
466.555	1408.45
466.928	1438.06
467.3	1398.73
467.672	1441.22
468.045	1444.38
468.417	1459.3
468.789	1480.31
469.161	1497.04
469.534	1542.69
469.906	1559.41
470.278	1547.43
470.65	1594.89
471.022	1640.31
471.394	1681.44
471.766	1691.61
472.138	1693.87
472.51	1739.52
472.882	1795.11
473.253	1794.2
473.625	1851.15
473.997	1890.92
474.369	1901.09
474.74	1967.76
475.112	2002.11
475.484	2033.52
475.855	2091.82
476.227	2116.91
476.598	2209.11
476.97	2233.74
477.341	2265.83
477.713	2322.33
478.084	2375.88
478.455	2469.21
478.827	2518.03
479.198	2585.6
479.569	2602.09
479.94	2732.48
480.311	2750.79
480.682	2867.85
481.053	2903.33
481.424	3011.8
481.795	3058.35
482.166	3152.81
482.537	3216.77
482.908	3283.43
483.279	3408.63
483.65	3459.25
484.021	3553.93
484.391	3627.83
484.762	3663.31
485.133	3756.19
485.503	3843.19
485.874	4007.71
486.244	4058.78
486.615	4251.09
486.985	4309.84
487.356	4421.93
487.726	4520.01
488.097	4656.73
488.467	4741.25
488.837	4841.81
489.207	4939.43
489.578	5074.34
489.948	5174.68
490.318	5314.56
490.688	5333.32
491.058	5490.38
491.428	5651.73
491.798	5750.03
492.168	5868
492.538	5959.07
492.908	6058.27
493.278	6191.15
493.648	6253.52
494.017	6389.79
494.387	6488.09
494.757	6628.65
495.126	6719.95
495.496	6841.08
495.866	6929.44
496.235	7091.01
496.605	7210.33
496.974	7279.26
497.344	7317.45
497.713	7477.67
498.082	7554.28
498.452	7698.68
498.821	7791.79
499.19	7810.09
499.559	7967.6
499.928	8010.99
500.298	8193.81
500.667	8266.35
501.036	8288.04
501.405	8412.79
501.774	8542.28
502.143	8625.44
502.512	8672.22
502.88	8807.81
503.249	8874.02
503.618	8930.74
503.987	9114.01
504.356	9101.58
504.724	9229.94
505.093	9253.44
505.462	9379.54
505.83	9492.76
506.199	9556.03
506.567	9674.9
506.936	9670.16
507.304	9816.59
507.672	9949.92
508.041	9973.88
508.409	10099.07
508.777	10140.65
509.145	10289.8
509.514	10327.99
509.882	10431.94
510.25	10446.86
510.618	10492.28
510.986	10602.79
511.354	10679.39
511.722	10797.36
512.09	10884.81
512.458	10912.38
512.826	11064.47
513.193	11055.2
513.561	11129.55
513.929	11256.33
514.297	11346.72
514.664	11467.4
515.032	11473.27
515.4	11613.83
515.767	11682.98
516.135	11703.55
516.502	11715.3
516.869	11842.3
517.237	11921.85
517.604	11877.33
517.972	12051.79
518.339	12168.39
518.706	12252.91
519.073	12223.31
519.44	12262.86
519.808	12415.39
520.175	12448.39
520.542	12645.67
520.909	12624.2
521.276	12728.15
521.643	12866.23
522.009	12884.31
522.376	12973.12
522.743	13064.19
523.11	13161.59
523.477	13268.25
523.843	13381.24
524.21	13472.32
524.577	13537.4
524.943	13687.9
525.31	13741.01
525.676	13808.58
526.043	13865.98
526.409	13932.87
526.776	14192.07
527.142	14118.17
527.508	14178.51
527.874	14394.78
528.241	14425.74
528.607	14498.05
528.973	14616.47
529.339	14647.2
529.705	14746.18
530.071	14870.7
530.437	14920.19
530.803	15037.25
531.169	15077.24
531.535	15130.8
531.901	15089.9
532.267	15223.68
532.632	15338.03
532.998	15373.73
533.364	15545.03
533.73	15544.8
534.095	15676.33
534.461	15659.38
534.826	15752.48
535.192	15869.77
535.557	15893.95
535.923	16014.17
536.288	16017.33
536.653	16112.92
537.019	16099.14
537.384	16226.82
537.749	16267.95
538.114	16266.82
538.479	16291
538.845	16423.88
539.21	16362.86
539.575	16605.57
539.94	16586.36
540.305	16675.17
540.67	16729.63
541.034	16771.89
541.399	16880.81
541.764	16906.35
542.129	17024.31
542.494	17030.41
542.858	17145.44
543.223	17199
543.587	17242.84
543.952	17300.69
544.316	17333
544.681	17416.17
545.045	17517.18
545.41	17613.68
545.774	17604.86
546.138	17564.64
546.503	17715.59
546.867	17710.62
547.231	17846.89
547.595	17860.67
547.959	18047.11
548.324	17975.93
548.688	18032.2
549.052	18089.14
549.416	18234.9
549.779	18215.47
550.143	18289.82
550.507	18441.45
550.871	18509.24
551.235	18444.84
551.599	18606.42
551.962	18623.82
552.326	18717.38
552.689	18800.08
553.053	18798.95
553.417	18871.27
553.78	19014.32
554.143	18913.3
554.507	19074.88
554.87	19116.23
555.234	19339.28
555.597	19261.32
555.96	19350.13
556.323	19421.09
556.686	19436.45
557.05	19589.89
557.413	19601.19
557.776	19562.55
558.139	19758.48
558.502	19756.22
558.865	19809.1
559.228	20010.22
559.59	20019.26
559.953	20103.55
560.316	20292.7
560.679	20278.92
561.041	20448.85
561.404	20577.21
561.767	20607.72
562.129	20463.54
562.492	20767.94
562.854	20718.23
563.217	20770.2
563.579	20819.92
563.941	20892.69
564.304	21066.47
564.666	21209.51
565.028	21161.6
565.39	21301.26
565.753	21373.35
566.115	21419.9
566.477	21533.8
566.839	21580.58
567.201	21750.74
567.563	21794.58
567.925	21900.57
568.287	21974.46
568.648	21908.25
569.01	22128.13
569.372	22210.62
569.734	22199.77
570.095	22382.36
570.457	22468.01
570.819	22483.15
571.18	22522.02
571.542	22651.96
571.903	22646.99
572.265	22960.43
572.626	22952.07
572.987	22933.54
573.349	23110.48
573.71	23219.86
574.071	23273.64
574.432	23406.97
574.794	23554.76
575.155	23578.49
575.516	23566.74
575.877	23826.17
576.238	23763.8
576.599	23881.53
576.96	24019.83
577.32	24187.97
577.681	24303.44
578.042	24516.09
578.403	24589.76
578.763	24686.26
579.124	24792.02
579.485	25015.29
579.845	25136.64
580.206	25237.2
580.566	25370.08
580.927	25472.68
581.287	25645.78
581.648	25729.62
582.008	25976.39
582.368	26132.1
582.728	26283.5
583.089	26480.79
583.449	26610.95
583.809	26693.21
584.169	26802.81
584.529	27007.78
584.889	27351.27
585.249	27468.33
585.609	27499.07
585.969	27750.58
586.329	27838.72
586.688	28171.36
587.048	28130.46
587.408	28292.26
587.768	28560.73
588.127	28815.41
588.487	28922.53
588.846	29355.29
589.206	29430.99
589.565	29502.63
589.925	29884.09
590.284	29939.9
590.643	30109.17
591.003	30341.25
591.362	30736.95
591.721	30683.61
592.08	30936.26
592.44	31093.77
592.799	31387.1
593.158	31512.07
593.517	31567.43
593.876	31879.51
594.235	31961.32
594.593	32289.45
594.952	32452.61
595.311	32534.86
595.67	32768.53
596.029	33216.43
596.387	33177.56
596.746	33420.94
597.104	33526.25
597.463	33621.84
597.822	33917.2
598.18	34036.07
598.538	34096.63
598.897	34538.88
599.255	34354.03
599.613	35008.7
599.972	34923.95
600.33	35264.28
600.688	35092.54
601.046	35352.64
601.404	35609.36
601.762	35830.6
602.12	35966.87
602.478	36002.34
602.836	36192.85
603.194	36269.68
603.552	36473.52
603.91	36416.12
604.268	36645.72
604.625	36732.72
604.983	36855.2
605.341	36933.17
605.698	37273.05
606.056	37363.44
606.413	37334.29
606.771	37699.93
607.128	37672.81
607.485	37711.9
607.843	37869.64
608.2	38164.77
608.557	38322.28
608.914	38388.72
609.272	38541.03
609.629	38731.09
609.986	38947.13
610.343	38757.53
610.7	39107.8
611.057	39144.18
611.414	39364.97
611.771	39307.79
612.127	39571.29
612.484	39675.47
612.841	39750.49
613.198	39689.25
613.554	39888.8
613.911	40231.39
614.267	40299.18
614.624	40267.99
614.98	40353.42
615.337	40541.89
615.693	40606.97
616.05	40635.89
616.406	40770.58
616.762	40676.12
617.118	40830.24
617.475	40925.15
617.831	41107.75
618.187	41211.02
618.543	41195.88
618.899	41463.67
619.255	41429.77
619.611	41552.93
619.967	41606.49
620.323	41807.62
620.678	41653.27
621.034	41664.79
621.39	41702.31
621.746	41658.92
622.101	42063.65
622.457	41791.8
622.812	41863.21
623.168	42095.07
623.523	42155.18
623.879	42312.46
624.234	41966.71
624.589	42241.95
624.945	42274.5
625.3	42334.16
625.655	42444.43
626.01	42625.9
626.365	42579.12
626.72	42529.18
627.075	42390.65
627.43	42626.58
627.785	42509.97
628.14	42493.7
628.495	42683.52
628.85	42634.26
629.205	42570.08
629.559	42772.79
629.914	42655.73
630.269	42625.22
630.623	42594.49
630.978	42592
631.332	42870.64
631.687	42845.78
632.041	42633.81
632.396	42714.71
632.75	42578.22
633.104	42683.98
633.459	42523.08
633.813	42605.11
634.167	42552.45
634.521	42562.17
634.875	42564.88
635.229	42568.73
635.583	42443.3
635.937	42508.16
636.291	42519.91
636.645	42548.39
636.999	42265.46
637.352	42487.6
637.706	42318.56
638.06	42392.91
638.413	42469.52
638.767	42276.3
639.121	42276.76
639.474	42210.77
639.828	42102.97
640.181	42259.58
640.534	42286.25
640.888	42076.08
641.241	41997.44
641.594	42073.15
641.947	42355.4
642.301	42094.84
642.654	42167.83
643.007	42260.94
643.36	42104.1
643.713	41971.9
644.066	42353.59
644.419	41867.5
644.771	41669.31
645.124	41400.17
645.477	41328.76
645.83	41111.14
646.182	40943.91
646.535	40793.18
646.888	40815.55
647.24	40606.52
647.593	40904.81
647.945	40728.32
648.298	40572.85
648.65	40602.45
649.002	40551.6
649.355	40624.14
649.707	40668.21
650.059	40708.66
650.411	41187.74
650.763	41247.18
651.115	41640.16
651.467	41471.58
651.819	41564.91
652.171	41520.39
652.523	41340.96
652.875	41342.32
653.227	41173.96
653.578	41386.84
653.93	41294.86
654.282	41088.09
654.633	41163.56
654.985	41126.28
655.337	41164.92
655.688	41246.73
656.039	41258.7
656.391	40926.73
656.742	40962.44
657.094	41061.65
657.445	41007.86
657.796	41179.16
658.147	41075.88
658.498	40969.22
658.849	41125.15
659.2	41127.41
659.551	40888.77
659.902	41048.77
660.253	40954.3
660.604	41162.43
660.955	40900.75
661.306	41063.45
661.656	40981.42
662.007	41066.39
662.358	40931.25
662.708	40979.61
663.059	40998.15
663.409	40706.18
663.76	40896.45
664.11	40795.21
664.461	40928.09
664.811	40948.88
665.161	40820.3
665.511	40623.24
665.862	40803.12
666.212	40982.55
666.562	40943.23
666.912	40844.93
667.262	40877.47
667.612	40737.81
667.962	40970.58
668.312	40619.17
668.662	40884.93
669.011	40702.79
669.361	40688.77
669.711	40752.95
670.06	40615.56
670.41	40585.05
670.76	40520.42
671.109	40650.13
671.459	40486.07
671.808	40647.87
672.157	40658.72
672.507	40387.99
672.856	40583.01
673.205	40580.3
673.554	40718.15
673.904	40462.11
674.253	40652.39
674.602	40502.11
674.951	39964.27
675.3	39870.27
675.649	40363.13
675.998	40312.29
676.346	40274.77
676.695	40422.12
677.044	40211.27
677.393	40320.2
677.741	40362.68
678.09	40170.82
678.438	40126.53
678.787	40223.7
679.135	40222.57
679.484	39941.45
679.832	39983.48
680.181	39910.72
680.529	40047.89
680.877	39870.27
681.225	39921.34
681.573	40082.69
681.922	39821.45
682.27	39697.39
682.618	39710.72
682.966	39658.75
683.314	39758.63
683.661	39593.44
684.009	39302.82
684.357	39371.3
684.705	39296.72
685.053	39337.85
685.4	39391.63
685.748	39102.38
686.095	39058.99
686.443	38856.05
686.79	38833
687.138	38899.44
687.485	38839.33
687.832	38888.37
688.18	38891.76
688.527	38601.6
688.874	38746.68
689.221	38505.56
689.568	38586.01
689.915	38442.51
690.262	38410.19
690.609	38210.87
690.956	38174.94
691.303	38085
691.65	37863.09
691.997	37876.42
692.344	37624.9
692.69	37532.25
693.037	37670.32
693.383	37358.92
693.73	37613.38
694.077	37387.39
694.423	37190.34
694.769	37210.67
695.116	37068.3
695.462	37081.19
695.808	37034.41
696.155	37075.54
696.501	36593.52
696.847	36682.1
697.193	36536.12
697.539	36612.72
697.885	36390.81
698.231	36288.21
698.577	36192.4
698.923	36308.78
699.269	36100.87
699.614	35828.34
699.96	35744.95
700.306	35795.57
700.651	35651.39
700.997	35560.77
701.342	35532.3
701.688	35565.97
702.033	35383.83
702.379	35224.29
702.724	35183.16
703.069	35295.47
703.415	34805.31
703.76	34882.15
704.105	34929.15
704.45	34833.11
704.795	34652.78
705.14	34523.97
705.485	34435.83
705.83	34422.72
706.175	34356.06
706.52	34356.74
706.865	34200.36
707.209	34179.12
707.554	34054.37
707.899	34131.66
708.243	33957.2
708.588	33708.17
708.932	33554.5
709.277	33491.9
709.621	33579.36
709.966	33470.89
710.31	33478.79
710.654	33396.31
710.998	33368.97
711.342	33314.73
711.687	33217.33
712.031	33116.54
712.375	33156.77
712.719	32976.44
713.063	32909.77
713.407	32903.44
713.75	32764.46
714.094	32710
714.438	32655.31
714.782	32716.1
715.125	32454.19
715.469	32470.46
715.812	32274.76
716.156	32090.81
716.499	32256.68
716.843	32277.24
717.186	32089.9
717.53	32126.97
717.873	32150.92
718.216	32092.62
718.559	32056.69
718.902	31697.6
719.246	31891.49
719.589	31780.08
719.932	31690.59
720.275	31690.37
720.617	31471.84
720.96	31463.25
721.303	31581.9
721.646	31417.38
721.989	31299.42
722.331	31402.47
722.674	31301.68
723.016	31387.55
723.359	31192.98
723.701	31364.05
724.044	30955.02
724.386	30927.68
724.729	31015.58
725.071	30974.91
725.413	30905.08
725.755	30814.91
726.097	30680.9
726.439	30662.15
726.782	30629.15
727.124	30677.06
727.465	30649.72
727.807	30534.24
728.149	30456.95
728.491	30432.1
728.833	30447.46
729.175	30384.41
729.516	30287.69
729.858	30268.48
730.199	30150.52
730.541	30202.5
730.882	30095.61
731.224	30126.11
731.565	29920.92
731.906	29929.06
732.248	30073.23
732.589	29821.04
732.93	29750.08
733.271	29729.74
733.612	29852
733.953	29810.87
734.294	29719.8
734.635	29507.15
734.976	29701.04
735.317	29581.95
735.658	29410.65
735.999	29491.33
736.339	29476.19
736.68	29481.39
737.021	29328.17
737.361	29241.62
737.702	29347.15
738.042	29240.04
738.383	29308.74
738.723	29306.7
739.063	29056.76
739.404	29013.15
739.744	29054.96
740.084	28970.44
740.424	28861.97
740.764	28975.41
741.104	29049.76
741.444	28829.2
741.784	28666.72
742.124	28823.1
742.464	28801.86
742.804	28637.79
743.143	28571.13
743.483	28592.6
743.823	28382.88
744.162	28509.66
744.502	28490.9
744.841	28336.78
745.181	28344.92
745.52	28387.4
745.86	28331.59
746.199	28195.09
746.538	28115.55
746.877	28361.64
747.216	28228.76
747.556	28071.48
747.895	28149.9
748.234	27988.77
748.573	27971.37
748.911	27906.74
749.25	27877.59
749.589	27695.22
749.928	27754.88
750.267	27830.13
750.605	27833.52
750.944	27654.32
751.283	27578.39
751.621	27650.25
751.96	27468.56
752.298	27423.36
752.636	27493.19
752.975	27196.47
753.313	27127.1
753.651	27383.36
753.989	27212.52
754.327	27187.66
754.666	27021.79
755.004	27062.01
755.342	27042.13
755.679	26972.3
756.017	26831.06
756.355	26873.77
756.693	26786.09
757.031	26808.24
757.368	26589.94
757.706	26614.34
758.044	26526.21
758.381	26426.55
758.719	26393.33
759.056	26413.44
759.394	26491.86
759.731	26295.71
760.068	26275.14
760.405	26024.98
760.743	25944.3
761.08	26119.89
761.417	25820.01
761.754	25890.29
762.091	25864.53
762.428	25710.86
762.765	25609.62
763.102	25630.19
763.438	25483.98
763.775	25261.38
764.112	25464.09
764.449	25374.83
764.785	25298.22
765.122	25004.89
765.458	24900.94
765.795	24973.03
766.131	24896.87
766.467	24833.82
766.804	24724
767.14	24576.43
767.476	24520.84
767.812	24435.42
768.148	24460.5
768.485	24275.2
768.821	24168.08
769.157	24273.84
769.492	24113.62
769.828	24076.78
770.164	23878.14
770.5	23840.86
770.836	23802.21
771.171	23740.97
771.507	23697.58
771.842	23455.33
772.178	23460.3
772.513	23487.65
772.849	23341.89
773.184	23218.05
773.519	23322.68
773.855	23195.9
774.19	22906.42
774.525	22989.58
774.86	22753.88
775.195	22781
775.53	22691.06
775.865	22606.09
776.2	22457.39
776.535	22311.63
776.87	22381.91
777.205	22296.26
777.539	22113.44
777.874	22242.71
778.209	21933.56
778.543	21961.58
778.878	21800.01
779.212	21759.55
779.547	21655.38
779.881	21703.06
780.215	21578.99
780.55	21498.54
780.884	21396.85
781.218	21340.36
781.552	21414.71
781.886	21230.53
782.22	21153.24
782.554	21019.24
782.888	20872.8
783.222	20883.42
783.556	20645.69
783.889	20710.54
784.223	20600.04
784.557	20433.49
784.89	20530.21
785.224	20355.52
785.557	20318.69
785.891	20241.18
786.224	20165.47
786.558	20270.55
786.891	20059.26
787.224	19935.42
787.557	19956.66
787.891	19831.7
788.224	19836.44
788.557	19851.13
788.89	19744.24
789.223	19723.22
789.556	19502.67
789.888	19514.87
790.221	19362.33
790.554	19148.32
790.887	19229.9
791.219	19196.23
791.552	19132.05
791.884	19022.45
792.217	18906.52
792.549	18908.78
792.882	18689.13
793.214	18707.43
793.546	18694.78
793.879	18540.2
794.211	18562.8
794.543	18516.48
794.875	18561.45
795.207	18427.67
795.539	18393.99
795.871	18324.62
796.203	18081.01
796.535	18089.14
796.867	17993.1
797.198	17966.66
797.53	18012.76
797.862	17838.53
798.193	17892.54
798.525	17779.55
798.856	17855.7
799.188	17671.3
799.519	17594.01
799.85	17495.49
800.182	17505.66
800.513	17433.79
800.844	17303.63
801.175	17478.99
801.506	17363.06
801.837	17247.13
802.168	17198.09
802.499	17181.37
802.83	17104.99
803.161	16988.83
803.491	16951.32
803.822	17095.27
804.153	16976.4
804.483	16721.72
804.814	16658.9
805.145	16711.33
805.475	16748.39
805.805	16637.66
806.136	16600.59
806.466	16548.39
806.796	16514.04
807.126	16399.92
807.457	16318.79
807.787	16360.37
808.117	16282.64
808.447	16153.15
808.777	16309.3
809.107	16126.48
809.436	16134.84
809.766	16138.23
810.096	16020.5
810.426	15945.7
810.755	16012.59
811.085	15978.46
811.414	15913.83
811.744	15842.2
812.073	15806.27
812.403	15677.46
812.732	15706.61
813.061	15724.23
813.39	15533.5
813.719	15485.82
814.049	15586.61
814.378	15530.34
814.707	15412.83
815.036	15458.03
815.365	15354.75
815.693	15222.33
816.022	15185.04
816.351	15123.35
816.68	15178.49
817.008	15230.01
817.337	15133.29
817.665	14966.06
817.994	15062.1
818.322	14992.5
818.651	14910.47
818.979	14881.32
819.307	14921.54
819.636	14907.08
819.964	14755.22
820.292	14900.07
820.62	14860.3
820.948	14663.7
821.276	14752.28
821.604	14697.37
821.932	14793.41
822.259	14787.99
822.587	14721.55
822.915	14692.62
823.243	14746.18
823.57	14653.08
823.898	14707.31
824.225	14638.84
824.553	14644.94
824.88	14671.15
825.207	14756.35
825.535	14652.4
825.862	14671.15
826.189	14653.98
826.516	14646.3
826.843	14687.65
827.17	14726.29
827.497	14745.95
827.824	14757.71
828.151	14716.58
828.478	14662.11
828.805	14682.23
829.131	14637.71
829.458	14606.52
829.785	14519.07
830.111	14618.27
830.438	14637.93
830.764	14619.4
831.09	14647.43
831.417	14516.81
831.743	14648.56
832.069	14603.36
832.395	14442.01
832.722	14609.01
833.048	14515.23
833.374	14456.24
833.7	14430.48
834.026	14521.33
834.351	14569.01
834.677	14508.22
835.003	14503.02
835.329	14433.19
835.654	14458.96
835.98	14335.34
836.306	14389.35
836.631	14341.22
836.956	14373.76
837.282	14296.47
837.607	14261
837.932	14308.23
838.258	14317.04
838.583	14212.86
838.908	14113.2
839.233	14167.89
839.558	14103.71
839.883	14071.17
840.208	14069.59
840.533	14067.1
840.858	14015.8
841.182	14068.01
841.507	14016.03
841.832	13886.54
842.156	13870.04
842.481	13888.58
842.805	13812.87
843.13	13854.9
843.454	13869.37
843.778	13725.87
844.103	13677.73
844.427	13681.58
844.751	13680.22
845.075	13676.38
845.399	13568.13
845.723	13557.74
846.047	13575.82
846.371	13421.92
846.695	13432.09
847.019	13285.88
847.343	13238.2
847.666	13215.82
847.99	13112.55
848.313	13240.46
848.637	13131.31
848.96	13006.56
849.284	13016.06
849.607	12900.35
849.931	12931.09
850.254	12802.05
850.577	12728.83
850.9	12625.33
851.223	12654.03
851.546	12564.77
851.869	12549.18
852.192	12596.18
852.515	12464.66
852.838	12317.77
853.161	12403.87
853.483	12339.24
853.806	12290.2
854.129	12200.03
854.451	12192.35
854.774	12205
855.096	12083.88
855.419	12010.43
855.741	12107.15
856.063	11998.91
856.385	11931.11
856.708	11928.63
857.03	11889.76
857.352	11856.54
857.674	11739.48
857.996	11771.57
858.318	11692.48
858.64	11718.01
858.961	11684.34
859.283	11664.23
859.605	11525.7
859.926	11624.91
860.248	11529.32
860.57	11519.37
860.891	11502.88
861.212	11492.48
861.534	11425.14
861.855	11416.78
862.176	11409.77
862.498	11399.15
862.819	11368.42
863.14	11210.45
863.461	11290.23
863.782	11172.94
864.103	11206.61
864.424	11226.72
864.745	11258.14
865.065	11118.48
865.386	11143.56
865.707	11090.46
866.027	11163
866.348	11116.22
866.668	11028.99
866.989	11043.45
867.309	10996.9
867.63	11008.88
867.95	10947.41
868.27	10964.81
868.59	10957.13
868.91	10968.88
869.23	10909.9
869.55	10834.19
869.87	10942.44
870.19	10831.25
870.51	10837.13
870.83	10791.71
871.15	10758.71
871.469	10812.95
871.789	10792.16
872.109	10730.92
872.428	10704.7
872.748	10698.38
873.067	10702.22
873.386	10686.85
873.706	10683.46
874.025	10667.42
874.344	10661.32
874.663	10624.93
874.982	10568.44
875.301	10641.43
875.62	10564.82
875.939	10570.7
876.258	10520.98
876.577	10470.59
876.896	10462.22
877.214	10451.6
877.533	10500.64
877.852	10379.97
878.17	10434.66
878.489	10394.88
878.807	10442.56
879.125	10375
879.444	10342.45
879.762	10319.86
880.08	10356.46
880.398	10306.75
880.716	10294.32
881.034	10215.68
881.352	10229.91
881.67	10180.65
881.988	10231.5
882.306	10165.96
882.624	10132.06
882.941	10129.8
883.259	10041.9
883.577	10038.28
883.894	10013.65
884.212	10055.46
884.529	9963.25
884.846	9934.56
885.164	9938.4
885.481	9911.96
885.798	9965.06
886.115	9878.51
886.432	9857.27
886.75	9838.96
887.067	9848.68
887.383	9761.9
887.7	9830.38
888.017	9743.6
888.334	9750.61
888.651	9699.76
888.967	9661.12
889.284	9660.44
889.6	9564.17
889.917	9544.51
890.233	9540.67
890.55	9473.78
890.866	9518.29
891.182	9453.21
891.498	9514.68
891.815	9458.64
892.131	9479.43
892.447	9361.69
892.763	9356.27
893.079	9257.28
893.395	9296.83
893.71	9224.52
894.026	9253.44
894.342	9238.53
894.657	9161.69
894.973	9180.45
895.289	9098.87
895.604	9134.58
895.92	8998.31
896.235	9008.7
896.55	8973.22
896.865	8964.19
897.181	8942.94
897.496	8990.4
897.811	8876.05
898.126	8872.66
898.441	8863.62
898.756	8738.65
899.071	8753.57
899.386	8748.37
899.7	8724.87
900.015	8690.97
900.33	8609.17
900.644	8610.52
900.959	8595.16
901.273	8537.53
901.588	8470.19
901.902	8495.27
902.216	8447.14
902.531	8397.42
902.845	8393.35
903.159	8314.94
903.473	8317.87
903.787	8262.06
904.101	8219.12
904.415	8286.24
904.729	8213.92
905.042	8198.78
905.356	8115.62
905.67	8114.04
905.984	8106.58
906.297	8081.04
906.611	8053.7
906.924	8004.44
907.237	7944.55
907.551	7995.62
907.864	7934.16
908.177	7923.99
908.491	7890.09
908.804	7829.75
909.117	7833.82
909.43	7728.06
909.743	7711.11
910.056	7666.37
910.368	7590.66
910.681	7624.79
910.994	7548.63
911.307	7555.86
911.619	7449.42
911.932	7554.5
912.244	7454.85
912.557	7389.99
912.869	7373.27
913.181	7412.36
913.494	7403.32
913.806	7266.15
914.118	7283.33
914.43	7208.53
914.742	7243.78
915.054	7202.65
915.366	7150.22
915.678	7114.74
915.99	7110.45
916.302	6983.9
916.613	7003.78
916.925	6992.49
917.236	6995.42
917.548	6906.84
917.859	6984.35
918.171	6908.19
918.482	6893.73
918.794	6838.59
919.105	6843.79
919.416	6801.3
919.727	6747.29
920.038	6739.61
920.349	6671.14
920.66	6635.21
920.971	6724.47
921.282	6650.57
921.593	6587.07
921.903	6522.89
922.214	6563.8
922.525	6478.15
922.835	6477.47
923.146	6433.18
923.456	6447.87
923.767	6422.78
924.077	6432.05
924.387	6401.31
924.697	6318.38
925.008	6325.61
925.318	6309.79
925.628	6291.94
925.938	6210.59
926.248	6182.11
926.558	6172.85
926.867	6187.99
927.177	6131.72
927.487	6072.96
927.796	6053.75
928.106	6047.88
928.416	6015.79
928.725	6020.99
929.034	5955.45
929.344	5954.55
929.653	5956.58
929.962	5895.34
930.271	5814.44
930.581	5857.37
930.89	5802.46
931.199	5761.11
931.508	5737.6
931.817	5768.11
932.125	5719.75
932.434	5675.91
932.743	5594.56
933.051	5584.16
933.36	5577.38
933.669	5556.82
933.977	5510.94
934.286	5517.04
934.594	5498.06
934.902	5468.46
935.21	5450.83
935.519	5422.36
935.827	5415.13
936.135	5377.61
936.443	5381.68
936.751	5301
937.059	5363.38
937.367	5308.01
937.674	5296.71
937.982	5256.71
938.29	5253.1
938.597	5206.09
938.905	5172.42
939.213	5143.95
939.52	5114.34
939.827	5135.59
940.135	5081.35
940.442	5081.12
940.749	5058.3
941.056	5113.21
941.363	5002.71
941.67	5059.66
941.977	4962.71
942.284	4929.26
942.591	4912.77
942.898	4920.9
943.205	4882.94
943.511	4865.08
943.818	4850.17
944.125	4801.58
944.431	4800.9
944.738	4839.1
945.044	4785.09
945.35	4753.45
945.657	4733.56
945.963	4715.48
946.269	4714.81
946.575	4645.88
946.881	4644.52
947.187	4631.87
947.493	4563.85
947.799	4620.57
948.105	4555.04
948.41	4548.03
948.716	4533.12
949.022	4539.67
949.327	4492.44
949.633	4461.03
949.938	4466
950.244	4454.7
950.549	4432.1
950.854	4428.71
951.16	4364.08
951.465	4383.29
951.77	4321.82
952.075	4291.31
952.38	4254.93
952.685	4272.33
952.99	4216.97
953.294	4274.14
953.599	4247.47
953.904	4207.47
954.209	4196.63
954.513	4137.65
954.818	4132.67
955.122	4128.61
955.426	4111.66
955.731	4077.08
956.035	4068.95
956.339	4060.59
956.643	4014.26
956.948	4002.73
957.252	3971.32
957.556	3990.98
957.86	3981.49
958.163	3966.35
958.467	3934.94
958.771	3907.59
959.075	3901.72
959.378	3882.96
959.682	3869.4
959.985	3826.47
960.289	3843.42
960.592	3823.53
960.896	3791.21
961.199	3791.89
961.502	3824.21
961.805	3791.21
962.108	3703.53
962.411	3687.94
962.714	3674.38
963.017	3604.78
963.32	3680.26
963.623	3633.48
963.926	3658.34
964.228	3626.25
964.531	3605.23
964.833	3594.38
965.136	3579.47
965.438	3593.25
965.741	3506.25
966.043	3507.61
966.345	3548.06
966.648	3471.67
966.95	3479.81
967.252	3479.36
967.554	3466.93
967.856	3403.2
968.158	3389.87
968.46	3383.31
968.761	3364.56
969.063	3360.04
969.365	3335.63
969.666	3347.38
969.968	3334.5
970.269	3293.15
970.571	3278.23
970.872	3304
971.174	3302.64
971.475	3252.92
971.776	3254.28
972.077	3233.04
972.378	3221.06
972.679	3188.97
972.98	3174.96
973.281	3143.1
973.582	3195.52
973.883	3180.83
974.183	3125.92
974.484	3115.07
974.785	3121.63
975.085	3084.11
975.386	3081.63
975.686	3071.46
975.986	3075.3
976.287	3079.59
976.587	3020.61
976.887	3022.19
977.187	2974.29
977.487	3023.32
977.787	2978.81
978.087	2951.24
978.387	2945.81
978.687	2941.29
978.987	2924.34
979.286	2918.02
979.586	2912.59
979.885	2879.6
980.185	2872.82
980.484	2856.78
980.784	2842.31
981.083	2801.18
981.382	2811.13
981.682	2805.03
981.981	2784.01
982.28	2755.53
982.579	2730
982.878	2741.75
983.177	2752.15
983.475	2715.99
983.774	2688.64
984.073	2708.53
984.372	2722.09
984.67	2658.36
984.969	2691.58
985.267	2667.85
985.566	2641.41
985.864	2666.27
986.162	2599.83
986.461	2618.59
986.759	2584.69
987.057	2603.9
987.355	2589.44
987.653	2559.16
987.951	2543.11
988.249	2516.22
988.547	2552.15
988.844	2515.99
989.142	2531.36
989.44	2479.16
989.737	2475.09
990.035	2433.28
990.332	2490.46
990.63	2465.15
990.927	2459.72
991.224	2422.89
991.521	2444.81
991.819	2438.26
992.116	2386.96
992.413	2403.45
992.71	2410.91
993.006	2368.43
993.303	2363
993.6	2355.55
993.897	2330.46
994.193	2322.33
994.49	2304.7
994.787	2330.24
995.083	2303.34
995.379	2281.88
995.676	2259.5
995.972	2226.51
996.268	2252.72
996.565	2243.46
996.861	2169.34
997.157	2178.83
997.453	2183.57
997.749	2188.09
998.044	2167.08
998.34	2160.52
998.636	2178.6
998.932	2193.06
999.227	2141.99
999.523	2109.22
999.818	2104.48
1000.114	2080.07
1000.409	2080.75
1000.704	2087.08
1001	2066.51
1001.295	2075.1
1001.59	2016.57
1001.885	2036.68
1002.18	2034.42
1002.475	1997.14
1002.77	2003.69
1003.065	1969.79
1003.359	1955.33
1003.654	1973.86
1003.949	1958.95
1004.243	1980.64
1004.538	1944.71
1004.832	1927.08
1005.127	1898.61
1005.421	1938.16
1005.715	1894.54
1006.009	1865.39
1006.304	1865.61
1006.598	1870.13
1006.892	1870.13
1007.186	1850.93
1007.48	1834.43
1007.773	1841.89
1008.067	1810.02
1008.361	1790.59
1008.655	1786.52
1008.948	1796.46
1009.242	1815.9
1009.535	1756.24
1009.829	1762.79
1010.122	1747.2
1010.415	1761.21
1010.708	1755.79
1011.001	1714.88
1011.295	1706.3
1011.588	1710.36
1011.881	1674.66
1012.173	1671.72
1012.466	1668.33
1012.759	1643.47
1013.052	1646.86
1013.344	1628.56
1013.637	1637.15
1013.93	1602.57
1014.222	1645.28
1014.514	1615.9
1014.807	1608.45
1015.099	1595.57
1015.391	1576.81
1015.683	1548.33
1015.976	1550.14
1016.268	1556.24
1016.56	1530.26
1016.851	1523.48
1017.143	1521.44
1017.435	1504.27
1017.727	1497.49
1018.018	1513.76
1018.31	1509.01
1018.602	1468.11
1018.893	1453.87
1019.185	1444.83
1019.476	1425.85
1019.767	1440.32
1020.058	1445.29
1020.35	1409.58
1020.641	1432.63
1020.932	1392.41
1021.223	1372.97
1021.514	1382.01
1021.804	1374.1
1022.095	1356.7
1022.386	1369.58
1022.677	1355.12
1022.967	1336.36
1023.258	1320.09
1023.548	1316.93
1023.839	1292.75
1024.129	1323.03
1024.419	1279.42
1024.709	1295.01
1025	1256.37
1025.29	1245.74
1025.58	1247.78
1025.87	1262.01
1026.16	1245.97
1026.449	1241.9
1026.739	1216.59
1027.029	1227.44
1027.319	1212.98
1027.608	1218.4
1027.898	1231.06
1028.187	1200.55
1028.477	1205.75
1028.766	1180.21
1029.055	1152.41
1029.344	1187.67
1029.634	1127.33
1029.923	1130.49
1030.212	1135.92
1030.501	1155.8
1030.79	1114.45
1031.078	1114.45
1031.367	1109.25
1031.656	1101.12
1031.945	1104.28
1032.233	1089.82
1032.522	1074
1032.81	1079.65
1033.099	1064.96
1033.387	1057.95
1033.675	1061.57
1033.963	1045.3
1034.251	1063.38
1034.54	1049.59
1034.828	1035.35
1035.116	1025.64
1035.403	1004.39
1035.691	1000.1
1035.979	1012.76
1036.267	995.81
1036.554	985.86
1036.842	987.9
1037.129	964.17
1037.417	960.1
1037.704	946.32
1037.992	956.94
1038.279	957.84
1038.566	969.37
1038.853	969.37
1039.14	969.37
