Data from hue_350_FLMS001491_64.txt Node
Date: Mon Feb 06 15:38:21 GMT 2017
User: dcchb
Spectrometer: FLMS00149
Trigger mode: 0
Integration Time (sec): 2.000000E-2
Scans to average: 10
Electric dark correction enabled: true
Nonlinearity correction enabled: false
Boxcar width: 0
XAxis mode: Wavelengths
Number of Pixels in Spectrum: 2048
>>>>>Begin Spectral Data<<<<<
341.393	-11.34
341.776	-11.34
342.16	-11.34
342.543	-53.83
342.927	-61.28
343.31	-68.74
343.693	-89.53
344.077	-71.45
344.46	-55.18
344.843	-31.23
345.226	-37.56
345.61	-20.15
345.993	-21.28
346.376	-7.27
346.759	-1.85
347.142	20.07
347.525	48.09
347.908	53.97
348.291	71.82
348.674	101.65
349.057	108.66
349.44	140.29
349.823	139.39
350.206	168.09
350.588	187.98
350.971	201.76
351.354	212.16
351.737	261.42
352.119	251.02
352.502	281.53
352.884	294.87
353.267	284.47
353.65	272.72
354.032	290.12
354.414	293.06
354.797	315.66
355.179	323.11
355.562	318.59
355.944	319.05
356.326	334.86
356.709	324.92
357.091	313.17
357.473	355.88
357.855	343
358.238	333.51
358.62	331.25
359.002	338.03
359.384	338.71
359.766	345.71
360.148	338.48
360.53	330.57
360.912	337.12
361.294	342.32
361.676	322.89
362.057	333.06
362.439	344.81
362.821	314.75
363.203	335.09
363.584	312.04
363.966	317.69
364.348	317.69
364.729	326.05
365.111	307.97
365.493	303.9
365.874	298.25
366.256	325.6
366.637	308.42
367.019	318.59
367.4	300.29
367.781	282.89
368.163	315.66
368.544	312.04
368.925	290.35
369.306	304.81
369.688	321.31
370.069	312.04
370.45	334.64
370.831	318.14
371.212	307.52
371.593	316.79
371.974	313.17
372.355	315.43
372.736	327.18
373.117	320.18
373.498	314.98
373.879	286.05
374.26	312.27
374.641	319.27
375.021	313.4
375.402	317.01
375.783	330.57
376.163	316.33
376.544	306.84
376.925	324.69
377.305	338.48
377.686	315.66
378.066	330.34
378.447	328.31
378.827	310.68
379.208	333.28
379.588	352.72
379.968	340.74
380.349	330.57
380.729	341.64
381.109	347.29
381.489	322.66
381.87	332.38
382.25	338.25
382.63	325.82
383.01	354.75
383.39	338.48
383.77	343
384.15	354.98
384.53	351.59
384.91	346.16
385.29	340.06
385.67	342.77
386.049	349.78
386.429	356.56
386.809	344.81
387.189	360.4
387.568	340.74
387.948	371.7
388.328	351.59
388.707	334.19
389.087	340.74
389.466	358.82
389.846	361.98
390.225	362.43
390.605	358.14
390.984	349.55
391.363	351.13
391.743	379.61
392.122	339.61
392.501	343.45
392.881	369.89
393.26	351.81
393.639	341.87
394.018	361.08
394.397	374.86
394.776	356.56
395.155	371.93
395.534	358.37
395.913	389.33
396.292	355.2
396.671	361.98
397.05	375.54
397.429	373.73
397.808	357.24
398.186	371.93
398.565	372.6
398.944	368.31
399.323	377.8
399.701	366.28
400.08	378.7
400.458	391.59
400.837	396.56
401.215	396.78
401.594	381.64
401.972	382.32
402.351	388.65
402.729	399.72
403.107	402.66
403.486	405.14
403.864	399.04
404.242	387.74
404.62	389.78
404.999	427.29
405.377	399.04
405.755	409.66
406.133	398.14
406.511	406.95
406.889	402.66
407.267	405.82
407.645	437.69
408.023	417.8
408.401	407.86
408.779	421.64
409.156	404.69
409.534	435.43
409.912	415.99
410.29	419.83
410.667	448.08
411.045	440.4
411.422	429.55
411.8	455.09
412.178	461.41
412.555	445.37
412.933	461.19
413.31	461.87
413.687	459.38
414.065	460.74
414.442	484.92
414.819	453.28
415.197	461.87
415.574	480.62
415.951	493.28
416.328	470.91
416.705	481.3
417.082	484.92
417.46	498.7
417.837	509.55
418.214	491.24
418.591	486.72
418.967	488.76
419.344	493.73
419.721	496.22
420.098	513.39
420.475	530.11
420.852	513.16
421.228	525.14
421.605	513.62
421.982	524.92
422.358	529.89
422.735	528.53
423.111	546.38
423.488	543.67
423.864	533.73
424.241	544.58
424.617	552.94
424.994	544.12
425.37	556.78
425.746	532.37
426.123	561.3
426.499	565.59
426.875	562.65
427.251	557.91
427.627	574.41
428.003	580.06
428.379	574.86
428.756	593.84
429.132	587.96
429.507	588.19
429.883	600.17
430.259	608.53
430.635	614.18
431.011	602.2
431.387	612.82
431.763	637.68
432.138	633.16
432.514	643.33
432.89	640.84
433.265	668.64
433.641	661.86
434.016	649.88
434.392	645.59
434.767	675.65
435.143	666.83
435.518	685.59
435.894	705.02
436.269	673.84
436.644	696.44
437.02	726.49
437.395	699.6
437.77	703.22
438.145	733.72
438.52	734.85
438.895	716.77
439.271	719.03
439.646	737.57
440.021	735.98
440.395	728.07
440.77	712.26
441.145	761.29
441.52	748.86
441.895	749.54
442.27	767.17
442.645	761.75
443.019	761.07
443.394	740.28
443.769	769.65
444.143	773.5
444.518	784.57
444.892	789.32
445.267	766.04
445.641	790.67
446.016	778.02
446.39	796.55
446.764	792.93
447.139	799.71
447.513	811.69
447.887	811.01
448.262	823.44
448.636	829.09
449.01	843.1
449.384	803.78
449.758	803.33
450.132	844.68
450.506	815.53
450.88	841.52
451.254	851.91
451.628	859.14
452.002	861.86
452.376	875.41
452.75	867.05
453.123	869.09
453.497	882.65
453.871	870.9
454.244	896.88
454.618	896.21
454.992	914.06
455.365	922.19
455.739	933.72
456.112	944.34
456.486	918.35
456.859	932.81
457.232	967.39
457.606	955.41
457.979	948.86
458.352	971.68
458.725	994.96
459.099	1000.61
459.472	1007.61
459.845	1029.54
460.218	1022.08
460.591	1018.01
460.964	1060.72
461.337	1068.63
461.71	1053.72
462.083	1061.17
462.456	1073.38
462.829	1075.86
463.201	1091.45
463.574	1081.74
463.947	1099.36
464.32	1114.73
464.692	1149.76
465.065	1126.93
465.438	1158.12
465.81	1160.38
466.183	1184.11
466.555	1170.55
466.928	1166.48
467.3	1213.94
467.672	1202.64
468.045	1227.5
468.417	1250.09
468.789	1260.26
469.161	1282.86
469.534	1270.66
469.906	1297.78
470.278	1338.45
470.65	1319.7
471.022	1359.7
471.394	1380.49
471.766	1378.45
472.138	1418.45
472.51	1429.98
472.882	1442.18
473.253	1450.54
473.625	1461.84
473.997	1503.65
474.369	1526.7
474.74	1518.11
475.112	1558.79
475.484	1560.82
475.855	1617.77
476.227	1631.78
476.598	1681.95
476.97	1676.75
477.341	1691.21
477.713	1760.36
478.084	1705.9
478.455	1809.4
478.827	1810.53
479.198	1841.49
479.569	1863.64
479.94	1918.33
480.311	1912
480.682	1983.18
481.053	1991.54
481.424	2070.19
481.795	2055.95
482.166	2090.07
482.537	2115.16
482.908	2135.49
483.279	2217.53
483.65	2210.52
484.021	2290.52
484.391	2275.15
484.762	2312.89
485.133	2326.68
485.503	2380.01
485.874	2400.8
486.244	2458.65
486.615	2450.97
486.985	2476.05
487.356	2573.68
487.726	2591.3
488.097	2663.39
488.467	2654.13
488.837	2704.52
489.207	2715.59
489.578	2784.29
489.948	2800.11
490.318	2807.79
490.688	2837.85
491.058	2900.9
491.428	2904.97
491.798	2992.65
492.168	3014.34
492.538	3059.31
492.908	3079.65
493.278	3132.76
493.648	3127.78
494.017	3189.48
494.387	3197.39
494.757	3244.39
495.126	3241
495.496	3279.87
495.866	3295.69
496.235	3351.73
496.605	3377.72
496.974	3386.99
497.344	3422.24
497.713	3428.79
498.082	3441.68
498.452	3491.62
498.821	3499.98
499.19	3495.68
499.559	3583.82
499.928	3568.68
500.298	3616.81
500.667	3655.45
501.036	3609.35
501.405	3676.02
501.774	3635.57
502.143	3706.75
502.512	3737.03
502.88	3711.27
503.249	3747.43
503.618	3774.77
503.987	3806.86
504.356	3809.35
504.724	3821.78
505.093	3890.25
505.462	3857.71
505.83	3851.38
506.199	3925.96
506.567	3956.46
506.936	3924.37
507.304	3948.33
507.672	3984.26
508.041	4009.57
508.409	4049.34
508.777	4059.06
509.145	4130.7
509.514	4099.51
509.882	4065.16
510.25	4088.89
510.618	4125.27
510.986	4140.41
511.354	4151.49
511.722	4191.03
512.09	4235.78
512.458	4196.23
512.826	4212.5
513.193	4263.8
513.561	4243.24
513.929	4296.34
514.297	4318.26
514.664	4312.61
515.032	4384.02
515.4	4331.14
515.767	4379.5
516.135	4394.42
516.502	4374.98
516.869	4431.93
517.237	4445.26
517.604	4446.17
517.972	4482.55
518.339	4482.1
518.706	4491.36
519.073	4516.45
519.44	4523.23
519.808	4561.19
520.175	4541.53
520.542	4609.78
520.909	4585.15
521.276	4600.74
521.643	4631.02
522.009	4620.4
522.376	4664.69
522.743	4717.57
523.11	4708.31
523.477	4790.79
523.843	4784.24
524.21	4834.41
524.577	4853.39
524.943	4828.53
525.31	4823.33
525.676	4914.63
526.043	4906.27
526.409	4945.82
526.776	4994.4
527.142	5012.48
527.508	4999.83
527.874	5061.07
528.241	5051.58
528.607	5077.79
528.973	5107.85
529.339	5099.71
529.705	5178.8
530.071	5187.39
530.437	5207.96
530.803	5217.9
531.169	5307.84
531.535	5273.27
531.901	5284.34
532.267	5301.74
532.632	5378.35
532.998	5360.04
533.364	5345.81
533.73	5424
534.095	5452.7
534.461	5465.8
534.826	5447.5
535.192	5471.23
535.557	5565.46
535.923	5521.17
536.288	5588.51
536.653	5584.9
537.019	5586.7
537.384	5575.4
537.749	5638.68
538.114	5656.08
538.479	5673.48
538.845	5722.29
539.21	5673.93
539.575	5751.67
539.94	5808.84
540.305	5781.05
540.67	5863.76
541.034	5824.89
541.399	5898.56
541.764	5864.89
542.129	5899.69
542.494	5914.38
542.858	5943.53
543.223	5983.76
543.587	6025.11
543.952	5972
544.316	6055.84
544.681	6070.08
545.045	6123.41
545.41	6119.34
545.774	6202.51
546.138	6099.68
546.503	6148.27
546.867	6202.51
547.231	6266.91
547.595	6225.56
547.959	6243.41
548.324	6320.47
548.688	6281.6
549.052	6305.78
549.416	6354.37
549.779	6322.5
550.143	6382.16
550.507	6477.3
550.871	6488.6
551.235	6434.36
551.599	6477.75
551.962	6485.44
552.326	6545.77
552.689	6525.44
553.053	6531.99
553.417	6554.81
553.78	6606.11
554.143	6568.37
554.507	6672.1
554.87	6629.16
555.234	6682.49
555.597	6666.22
555.96	6726.11
556.323	6691.76
556.686	6732.21
557.05	6738.99
557.413	6795.94
557.776	6807.46
558.139	6917.52
558.502	6836.16
558.865	6922.71
559.228	6915.48
559.59	6971.3
559.953	6954.13
560.316	7025.76
560.679	7018.98
561.041	6982.6
561.404	7075.7
561.767	7131.07
562.129	7075.03
562.492	7161.35
562.854	7177.85
563.217	7145.08
563.579	7148.02
563.941	7225.98
564.304	7265.76
564.666	7329.71
565.028	7319.54
565.39	7325.87
565.753	7327.22
566.115	7391.63
566.477	7426.43
566.839	7434.56
567.201	7522.47
567.563	7458.07
567.925	7522.47
568.287	7592.75
568.648	7604.73
569.01	7624.84
569.372	7653.54
569.734	7607.22
570.095	7672.52
570.457	7729.47
570.819	7716.36
571.18	7741.9
571.542	7872.74
571.903	7771.96
572.265	7928.11
572.626	7968.34
572.987	7970.14
573.349	8006.3
573.71	8013.76
574.071	8095.56
574.432	8130.82
574.794	8259.18
575.155	8228.89
575.516	8265.28
575.877	8328.33
576.238	8387.99
576.599	8436.35
576.96	8563.8
577.32	8550.24
577.681	8684.93
578.042	8739.16
578.403	8796.34
578.763	8907.29
579.124	8974.64
579.485	9099.15
579.845	9128.53
580.206	9226.16
580.566	9303.22
580.927	9427.05
581.287	9539.37
581.648	9617.33
582.008	9771
582.368	9937.32
582.728	10107.94
583.089	10160.37
583.449	10293.47
583.809	10481.26
584.169	10685.1
584.529	10828.6
584.889	11016.84
585.249	11126.22
585.609	11287.57
585.969	11483.27
586.329	11626.32
586.688	11887.33
587.048	12106.98
587.408	12279.18
587.768	12418.61
588.127	12624.26
588.487	12883.23
588.846	13213.17
589.206	13363.9
589.565	13574.52
589.925	13903.09
590.284	14037.55
590.643	14291.56
591.003	14573.59
591.362	14900.13
591.721	15055.15
592.08	15446.11
592.44	15780.11
592.799	15921.57
593.158	16174.67
593.517	16432.97
593.876	16836.8
594.235	17152.5
594.593	17289.22
594.952	17632.71
595.311	17766.27
595.67	18163.1
596.029	18542.75
596.387	18796.75
596.746	19220.92
597.104	19266.34
597.463	19598.54
597.822	19946.55
598.18	20234.91
598.538	20387.22
598.897	20813.87
599.255	20937.26
599.613	21594.42
599.972	21585.38
600.33	21906.05
600.688	22195.31
601.046	22560.49
601.404	22870.77
601.762	23072.57
602.12	23494.93
602.478	23696.51
602.836	23990.97
603.194	24139.66
603.552	24370.39
603.91	24599.54
604.268	25075.68
604.625	25200.2
604.983	25501.89
605.341	25636.57
605.698	26106.39
606.056	26262.54
606.413	26464.12
606.771	26888.06
607.128	27180.49
607.485	27147.04
607.843	27494.15
608.2	27875.83
608.557	28170.52
608.914	28154.25
609.272	28608.02
609.629	28725.76
609.986	29086.2
610.343	29149.7
610.7	29636.47
611.057	29635.79
611.414	29722.34
611.771	29965.72
612.127	30444.13
612.484	30619.94
612.841	30740.84
613.198	30738.36
613.554	30935.42
613.911	31253.15
614.267	31408.62
614.624	31538.11
614.98	31786.92
615.337	32198.21
615.693	32166.12
616.05	32219.22
616.406	32659.44
616.762	32604.75
617.118	32765.88
617.475	32912.54
617.831	33073.21
618.187	33240.21
618.543	33283.83
618.899	33725.85
619.255	33827.99
619.611	33757.71
619.967	34125.61
620.323	34218.49
620.678	34227.08
621.034	34251.49
621.39	34319.28
621.746	34472.27
622.101	34997.68
622.457	34662.1
622.812	34718.82
623.168	35008.98
623.523	35198.58
623.879	35221.18
624.234	35155.19
624.589	35424.56
624.945	35492.81
625.3	35695.97
625.655	35583.2
626.01	35890.99
626.365	35825.91
626.72	35881.27
627.075	35956.53
627.43	35934.83
627.785	35868.85
628.14	36106.8
628.495	36120.59
628.85	36152.23
629.205	36187.25
629.559	36444.2
629.914	36332.79
630.269	36337.99
630.623	36290.98
630.978	36340.47
631.332	36651.42
631.687	36678.77
632.041	36546.34
632.396	36527.58
632.75	36467.02
633.104	36576.62
633.459	36554.7
633.813	36466.12
634.167	36637.64
634.521	36508.83
634.875	36633.34
635.229	36449.85
635.583	36489.39
635.937	36570.3
636.291	36581.82
636.645	36584.08
636.999	36521.71
637.352	36646
637.706	36499.79
638.06	36607.81
638.413	36467.47
638.767	36522.16
639.121	36615.04
639.474	36435.84
639.828	36398.55
640.181	36615.27
640.534	36520.58
640.888	36556.96
641.241	36423.18
641.594	36447.59
641.947	36597.64
642.301	36487.59
642.654	36435.84
643.007	36486.68
643.36	36575.04
643.713	36549.51
644.066	36669.95
644.419	36373.24
644.771	36248.04
645.124	35946.81
645.477	35923.08
645.83	35624.78
646.182	35422.98
646.535	35537.55
646.888	35441.06
647.24	35361.06
647.593	35460.27
647.945	35542.07
648.298	35341.85
648.65	35211.69
649.002	35211.46
649.355	35473.38
649.707	35369.2
650.059	35418.69
650.411	35936.87
650.763	35763.54
651.115	36313.13
651.467	36139.57
651.819	36175.28
652.171	36078.11
652.523	35999.69
652.875	36028.16
653.227	35942.29
653.578	36256.86
653.93	35954.94
654.282	35893.93
654.633	35878.79
654.985	35755.18
655.337	35910.65
655.688	35931.67
656.039	35985.9
656.391	35792.24
656.742	35776.19
657.094	35824.33
657.445	36032
657.796	35740.94
658.147	35795.17
658.498	35810.99
658.849	35841.95
659.2	35710.21
659.551	35755.63
659.902	35813.48
660.253	35781.16
660.604	35791.56
660.955	35629.76
661.306	35836.08
661.656	35809.41
662.007	35764.67
662.358	35665.46
662.708	35634.05
663.059	35542.3
663.409	35434.73
663.76	35650.09
664.11	35775.51
664.461	35672.47
664.811	35710.21
665.161	35597.21
665.511	35641.28
665.862	35690.32
666.212	35761.96
666.562	35748.62
666.912	35570.32
667.262	35617.1
667.612	35682.41
667.962	35609.64
668.312	35596.31
668.662	35727.83
669.011	35583.65
669.361	35642.86
669.711	35481.96
670.06	35372.13
670.41	35464.56
670.76	35357.9
671.109	35613.94
671.459	35449.87
671.808	35411.23
672.157	35500.72
672.507	35290.1
672.856	35329.65
673.205	35247.17
673.554	35412.59
673.904	35451.68
674.253	35503.66
674.602	35366.26
674.951	34851.02
675.3	34660.74
675.649	35239.48
675.998	35224.12
676.346	35251.01
676.695	35443.55
677.044	35129.66
677.393	35145.93
677.741	35222.31
678.09	35116.32
678.438	35189.09
678.787	35099.83
679.135	35121.29
679.484	35060.96
679.832	35049.88
680.181	34864.58
680.529	34923.79
680.877	34903.67
681.225	34857.57
681.573	35048.75
681.922	34633.17
682.27	34662.1
682.618	34657.8
682.966	34505.49
683.314	34635.88
683.661	34504.36
684.009	34489.67
684.357	34370.58
684.705	34309.79
685.053	34354.31
685.4	34183.92
685.748	34144.14
686.095	34088.55
686.443	33998.39
686.79	33983.92
687.138	34032.51
687.485	33978.73
687.832	33776.92
688.18	33834.1
688.527	33837.71
688.874	33670.94
689.221	33536.25
689.568	33417.84
689.915	33414.67
690.262	33387.33
690.609	33345.07
690.956	33253.55
691.303	33124.51
691.65	33083.16
691.997	33005.42
692.344	32770.62
692.69	32889.49
693.037	32840
693.383	32591.64
693.73	32724.75
694.077	32526.11
694.423	32600.68
694.769	32374.47
695.116	32369.73
695.462	32280.92
695.808	32168.83
696.155	32190.52
696.501	31973.81
696.847	32065.78
697.193	31861.04
697.539	31991.21
697.885	31705.34
698.231	31630.54
698.577	31521.84
698.923	31567.49
699.269	31360.49
699.614	31328.17
699.96	31257.21
700.306	31332.92
700.651	31089.08
700.997	30999.14
701.342	30915.3
701.688	30901.74
702.033	30733.84
702.379	30874.4
702.724	30807.96
703.069	30696.55
703.415	30375.88
703.76	30403.68
704.105	30449.33
704.45	30316.67
704.795	30222.21
705.14	30016.34
705.485	29929.57
705.83	29881.43
706.175	29967.53
706.52	29857.93
706.865	29774.54
707.209	29736.12
707.554	29586.52
707.899	29786.07
708.243	29480.54
708.588	29547.88
708.932	29271.73
709.277	29287.32
709.621	29277.61
709.966	29058.18
710.31	29147.21
710.654	28923.94
710.998	29000.1
711.342	29043.26
711.687	28991.51
712.031	28738.86
712.375	28730.05
712.719	28638.98
713.063	28609.37
713.407	28833.32
713.75	28583.84
714.094	28591.3
714.438	28424.52
714.782	28463.16
715.125	28340
715.469	28514.01
715.812	28227.01
716.156	28029.96
716.499	28037.41
716.843	28113.12
717.186	28045.55
717.53	28066.56
717.873	28122.83
718.216	27930.07
718.559	27800.81
718.902	27708.83
719.246	27724.43
719.589	27704.77
719.932	27476.52
720.275	27607.59
720.617	27543.19
720.96	27457.31
721.303	27481.49
721.646	27412.34
721.989	27261.16
722.331	27349.97
722.674	27304.78
723.016	27310.65
723.359	27094.39
723.701	27196.3
724.044	26941.62
724.386	26865.01
724.729	27049.19
725.071	26913.15
725.413	27061.39
725.755	26843.55
726.097	26818.01
726.439	26709.54
726.782	26670.22
727.124	26687.17
727.465	26508.41
727.807	26579.15
728.149	26496.89
728.491	26458.92
728.833	26558.58
729.175	26331.02
729.516	26334.86
729.858	26292.83
730.199	26392.71
730.541	26345.48
730.882	26241.08
731.224	26272.94
731.565	26116.33
731.906	26122.21
732.248	26212.6
732.589	26029.78
732.93	25942.78
733.271	25924.47
733.612	26021.42
733.953	25959.95
734.294	25900.75
734.635	25670.7
734.976	25879.73
735.317	25607.42
735.658	25711.6
735.999	25659.85
736.339	25564.48
736.68	25594.99
737.021	25479.97
737.361	25543.01
737.702	25472.73
738.042	25451.04
738.383	25356.13
738.723	25468.89
739.063	25397.03
739.404	25351.38
739.744	25265.73
740.084	25167.66
740.424	25267.32
740.764	25230.93
741.104	25292.85
741.444	25083.82
741.784	24935.35
742.124	25096.47
742.464	25091.73
742.804	24909.36
743.143	24956.14
743.483	24993.65
743.823	24916.59
744.162	24742.13
744.502	24784.16
744.841	24801.57
745.181	24839.98
745.52	24708.69
745.86	24723.38
746.199	24588.24
746.538	24599.08
746.877	24637.5
747.216	24476.6
747.556	24558.86
747.895	24442.93
748.234	24387.79
748.573	24360.67
748.911	24294.69
749.25	24277.06
749.589	24263.73
749.928	24214.01
750.267	24242.48
750.605	24101.92
750.944	24135.14
751.283	24145.54
751.621	24133.11
751.96	24002.49
752.298	23945.09
752.636	23934.7
752.975	23840.46
753.313	23783.97
753.651	23855.38
753.989	23780.12
754.327	23744.64
754.666	23541.26
755.004	23573.35
755.342	23605.21
755.679	23479.57
756.017	23547.81
756.355	23579.22
756.693	23400.7
757.031	23437.53
757.368	23275.28
757.706	23224.21
758.044	23177.88
758.381	23179.01
758.719	23111.67
759.056	23106.02
759.394	23016.3
759.731	22922.74
760.068	22782.86
760.405	22797.55
760.743	22698.57
761.08	22683.65
761.417	22697.67
761.754	22546.48
762.091	22520.72
762.428	22342.42
762.765	22348.3
763.102	22290.9
763.438	22240.28
763.775	22181.52
764.112	22219.03
764.449	22115.31
764.785	22026.05
765.122	22006.16
765.458	21919.83
765.795	21779.5
766.131	21926.84
766.467	21615.43
766.804	21576.57
767.14	21584.7
767.476	21479.39
767.812	21381.77
768.148	21477.13
768.485	21206.63
768.821	21088.89
769.157	21138.84
769.492	21019.97
769.828	21104.26
770.164	20865.85
770.5	20903.81
770.836	20846.19
771.171	20582.69
771.507	20646.87
771.842	20431.51
772.178	20494.11
772.513	20411.85
772.849	20392.19
773.184	20263.83
773.519	20207.79
773.855	20128.24
774.19	20139.32
774.525	20014.12
774.86	19985.65
775.195	19935.48
775.53	19902.49
775.865	19778.87
776.2	19636.28
776.535	19525.77
776.87	19581.14
777.205	19487.13
777.539	19389.96
777.874	19424.76
778.209	19206.46
778.543	19146.57
778.878	19115.84
779.212	19104.09
779.547	18988.16
779.881	18943.41
780.215	18813.7
780.55	18854.15
780.884	18789.52
781.218	18686.7
781.552	18648.51
781.886	18630.88
782.22	18481.28
782.554	18488.74
782.888	18304.79
783.222	18214.62
783.556	18085.13
783.889	18106.6
784.223	17981.86
784.557	17858.25
784.89	17920.39
785.224	17823.9
785.557	17738.02
785.891	17709.77
786.224	17690.79
786.558	17682.2
786.891	17580.96
787.224	17320.63
787.557	17391.14
787.891	17330.12
788.224	17342.78
788.557	17315.89
788.89	17198.83
789.223	17159.51
789.556	17131.26
789.888	16926.97
790.221	16917.48
790.554	16781.66
790.887	16822.34
791.219	16729.91
791.552	16785.73
791.884	16640.65
792.217	16506.87
792.549	16556.36
792.882	16298.51
793.214	16300.32
793.546	16377.38
793.879	16237.72
794.211	16148.91
794.543	16220.77
794.875	16183.26
795.207	16105.52
795.539	16116.82
795.871	16014.45
796.203	15915.47
796.535	15845.87
796.867	15813.78
797.198	15740.11
797.53	15745.08
797.862	15640.68
798.193	15645.2
798.525	15604.29
798.856	15608.36
799.188	15425.77
799.519	15343.28
799.85	15295.83
800.182	15417.18
800.513	15296.05
800.844	15284.3
801.175	15238.88
801.506	15144.19
801.837	15084.31
802.168	15047.7
802.499	15083.18
802.83	14948.49
803.161	14921.15
803.491	14811.77
803.822	14880.47
804.153	14766.35
804.483	14687.26
804.814	14603.19
805.145	14679.57
805.475	14612.68
805.805	14580.37
806.136	14436.64
806.466	14470.09
806.796	14453.81
807.126	14329.52
807.457	14300.37
807.787	14322.74
808.117	14213.82
808.447	14095.86
808.777	14238.45
809.107	14100.83
809.436	14090.66
809.766	14113.26
810.096	13992.81
810.426	14001.17
810.755	14098.12
811.085	13884.34
811.414	13969.76
811.744	13805.24
812.073	13742.87
812.403	13835.3
812.732	13706.04
813.061	13702.65
813.39	13561.63
813.719	13605.48
814.049	13639.15
814.378	13571.8
814.707	13523.22
815.036	13504.46
815.365	13382.88
815.693	13370.91
816.022	13353.28
816.351	13263.11
816.68	13229.89
817.008	13262.21
817.337	13165.94
817.665	13146.96
817.994	13161.65
818.322	13171.81
818.651	13094.75
818.979	12971.59
819.307	13094.08
819.636	12998.49
819.964	12825.38
820.292	12972.95
820.62	12960.52
820.948	12916.68
821.276	12903.12
821.604	12881.43
821.932	12996.9
822.259	12878.49
822.587	12918.26
822.915	12866.29
823.243	12888.66
823.57	12914.19
823.898	12873.52
824.225	12862.9
824.553	12869
824.88	12815.89
825.207	12919.39
825.535	12846.4
825.862	12840.75
826.189	12904.48
826.516	12983.35
826.843	12963.91
827.17	12926.62
827.497	12848.66
827.824	12838.72
828.151	12881.2
828.478	12873.29
828.805	12836.46
829.131	12912.61
829.458	12729.11
829.785	12757.14
830.111	12710.81
830.438	12862.44
830.764	12763.69
831.09	12941.76
831.417	12777.25
831.743	12762.33
832.069	12779.28
832.395	12798.49
832.722	12760.07
833.048	12695.44
833.374	12728.44
833.7	12715.78
834.026	12685.27
834.351	12673.75
834.677	12664.26
835.003	12660.19
835.329	12674.88
835.654	12699.74
835.98	12590.59
836.306	12605.73
836.631	12496.58
836.956	12549.23
837.282	12562.79
837.607	12529.12
837.932	12504.49
838.258	12472.62
838.583	12472.85
838.908	12417.94
839.233	12466.52
839.558	12412.51
839.883	12292.29
840.208	12255.45
840.533	12286.41
840.858	12379.07
841.182	12235.12
841.507	12295
841.832	12176.59
842.156	12158.28
842.481	12242.8
842.805	12170.94
843.13	12073.54
843.454	12123.71
843.778	12022.24
844.103	12004.61
844.427	12058.17
844.751	12024.73
845.075	11981.79
845.399	11913.77
845.723	11870.38
846.047	11878.06
846.371	11821.12
846.695	11734.79
847.019	11664.96
847.343	11593.55
847.666	11532.54
847.99	11537.96
848.313	11542.48
848.637	11445.31
848.96	11377.51
849.284	11434.91
849.607	11297.29
849.931	11302.71
850.254	11218.65
850.577	11115.6
850.9	11111.3
851.223	11049.16
851.546	11030.4
851.869	10910.86
852.192	10956.05
852.515	10865.21
852.838	10842.61
853.161	10896.39
853.483	10804.87
853.806	10778.21
854.129	10741.37
854.451	10745.44
854.774	10641.94
855.096	10561.71
855.419	10552.22
855.741	10516.52
856.063	10515.61
856.385	10505.22
856.708	10389.29
857.03	10430.42
857.352	10459.34
857.674	10335.73
857.996	10330.53
858.318	10254.38
858.64	10338.22
858.961	10211.21
859.283	10187.94
859.605	10170.09
859.926	10187.03
860.248	10136.87
860.57	10128.96
860.891	10168.28
861.212	10048.28
861.534	9933.71
861.855	9985.68
862.176	10079.24
862.498	9958.57
862.819	9977.1
863.14	9948.4
863.461	9917.21
863.782	9885.35
864.103	9944.1
864.424	9836.99
864.745	9884.44
865.065	9815.07
865.386	9776.88
865.707	9716.31
866.027	9778.91
866.348	9725.13
866.668	9716.99
866.989	9741.62
867.309	9663.21
867.63	9674.05
867.95	9658.46
868.27	9555.64
868.59	9655.07
868.91	9635.18
869.23	9569.42
869.55	9547.05
869.87	9502.31
870.19	9504.34
870.51	9494.4
870.83	9536.2
871.15	9509.76
871.469	9520.61
871.789	9427.73
872.109	9409.88
872.428	9380.73
872.748	9454.4
873.067	9346.83
873.386	9361.97
873.706	9377.79
874.025	9368.75
874.344	9348.64
874.663	9346.38
874.982	9317.45
875.301	9316.55
875.62	9284.01
875.939	9296.44
876.258	9254.86
876.577	9190.45
876.896	9229.77
877.214	9142.99
877.533	9210.11
877.852	9150.23
878.17	9157.91
878.489	9167.85
878.807	9166.95
879.125	9048.53
879.444	9080.4
879.762	9074.75
880.08	9072.71
880.398	9002.66
880.716	9008.08
881.034	8965.15
881.352	8956.56
881.67	8980.96
881.988	8960.17
882.306	8975.31
882.624	8876.79
882.941	8872.94
883.259	8867.97
883.577	8801.76
883.894	8787.98
884.212	8763.57
884.529	8798.37
884.846	8751.59
885.164	8761.99
885.481	8697.58
885.798	8740.74
886.115	8667.53
886.432	8632.05
886.75	8545.04
887.067	8624.36
887.383	8583.91
887.7	8614.42
888.017	8477.7
888.334	8558.15
888.651	8551.37
888.967	8483.12
889.284	8421.88
889.6	8375.78
889.917	8423.01
890.233	8389.34
890.55	8353.41
890.866	8397.7
891.182	8363.35
891.498	8276.35
891.815	8321.55
892.131	8265.5
892.447	8175.34
892.763	8190.7
893.079	8196.58
893.395	8098.05
893.71	8163.58
894.026	8068.9
894.342	8091.04
894.657	8070.25
894.973	7999.3
895.289	7983.7
895.604	7998.39
895.92	7950.26
896.235	7959.07
896.55	7934.66
896.865	7886.53
897.181	7902.35
897.496	7862.35
897.811	7813.76
898.126	7803.14
898.441	7737.61
898.756	7739.42
899.071	7710.04
899.386	7733.54
899.7	7611.51
900.015	7623.26
900.33	7518.18
900.644	7537.61
900.959	7531.96
901.273	7511.17
901.588	7443.38
901.902	7467.11
902.216	7425.75
902.531	7397.05
902.845	7339.43
903.159	7274.34
903.473	7310.27
903.787	7275.47
904.101	7251.29
904.415	7190.95
904.729	7188.24
905.042	7146.89
905.356	7103.73
905.67	7151.86
905.984	7169.26
906.297	7106.44
906.611	7060.79
906.924	7024.18
907.237	7035.7
907.551	6933.56
907.864	6953.22
908.177	6957.97
908.491	6925.88
908.804	6862.15
909.117	6834.81
909.43	6784.41
909.743	6768.59
910.056	6795.03
910.368	6777.86
910.681	6657.86
910.994	6673.91
911.307	6677.07
911.619	6554.59
911.932	6619.22
912.244	6552.78
912.557	6591.87
912.869	6538.09
913.181	6540.12
913.494	6463.06
913.806	6415.83
914.118	6417.42
914.43	6331.09
914.742	6404.53
915.054	6339
915.366	6307.81
915.678	6302.62
915.99	6204.99
916.302	6202.05
916.613	6179.46
916.925	6233.24
917.236	6210.42
917.548	6158.21
917.859	6144.65
918.171	6073.24
918.482	6054.49
918.794	6046.58
919.105	5991.89
919.416	5949.63
919.727	5983.53
920.038	5866.24
920.349	5857.66
920.66	5869.18
920.971	5827.15
921.282	5828.73
921.593	5772.24
921.903	5756.64
922.214	5794.16
922.525	5768.85
922.835	5740.37
923.146	5645.68
923.456	5635.06
923.767	5658.11
924.077	5631.9
924.387	5611.34
924.697	5570.21
925.008	5536.54
925.318	5494.5
925.628	5553.48
925.938	5492.47
926.248	5433.71
926.558	5400.95
926.867	5392.13
927.177	5353.49
927.487	5329.31
927.796	5321.4
928.106	5292.25
928.416	5308.74
928.725	5259.25
929.034	5294.28
929.344	5223.32
929.653	5209.54
929.962	5175.87
930.271	5161.63
930.581	5134.51
930.89	5119.37
931.199	5115.76
931.508	5078.24
931.817	5058.58
932.125	5062.88
932.434	5040.96
932.743	4963.44
933.051	4967.51
933.36	4965.25
933.669	4892.26
933.977	4911.01
934.286	4846.38
934.594	4873.05
934.902	4756.44
935.21	4834.18
935.519	4803.9
935.827	4794.86
936.135	4751.7
936.443	4768.42
936.751	4695.65
937.059	4671.93
937.367	4678.03
937.674	4648.65
937.982	4657.46
938.29	4644.81
938.597	4619.05
938.905	4530.69
939.213	4559.39
939.52	4543.57
939.827	4556.45
940.135	4466.28
940.442	4485.72
940.749	4507.18
941.056	4480.07
941.363	4447.3
941.67	4396
941.977	4375.21
942.284	4405.94
942.591	4361.65
942.898	4331.14
943.205	4336.57
943.511	4320.75
943.818	4309.9
944.125	4253.18
944.431	4251.37
944.738	4220.64
945.044	4206.85
945.35	4137.25
945.657	4187.42
945.963	4113.52
946.269	4108.55
946.575	4134.31
946.881	4086.4
947.187	4103.58
947.493	4043.02
947.799	4062.68
948.105	4005.05
948.41	4038.5
948.716	4022.22
949.022	3976.8
949.327	3932.28
949.633	3942.9
949.938	3915.33
950.244	3972.28
950.549	3905.62
950.854	3857.94
951.16	3878.73
951.465	3808.22
951.77	3842.12
952.075	3792.85
952.38	3763.93
952.685	3812.29
952.99	3787.43
953.294	3755.34
953.599	3767.77
953.904	3736.13
954.209	3676.92
954.513	3709.24
954.818	3643.03
955.122	3652.97
955.426	3651.39
955.731	3627.43
956.035	3599.64
956.339	3621.56
956.643	3581.56
956.948	3561.45
957.252	3534.78
957.556	3496.59
957.86	3511.5
958.163	3521.67
958.467	3495.68
958.771	3468.12
959.075	3508.79
959.378	3429.25
959.682	3447.32
959.985	3424.73
960.289	3382.92
960.592	3396.48
960.896	3368
961.199	3358.97
961.502	3392.18
961.805	3358.74
962.108	3335.69
962.411	3316.93
962.714	3311.73
963.017	3239.87
963.32	3286.2
963.623	3245.52
963.926	3230.83
964.228	3238.06
964.531	3230.61
964.833	3220.44
965.136	3144.51
965.438	3149.93
965.741	3124.85
966.043	3140.89
966.345	3150.38
966.648	3144.06
966.95	3080.55
967.252	3089.14
967.554	3069.26
967.856	3051.4
968.158	3010.5
968.46	3029.48
968.761	2997.39
969.063	3000.56
969.365	2990.84
969.666	2949.71
969.968	2952.87
970.269	2972.08
970.571	2933.89
970.872	2934.12
971.174	2914.01
971.475	2932.54
971.776	2867.45
972.077	2899.32
972.378	2860.9
972.679	2838.98
972.98	2800.56
973.281	2845.98
973.582	2769.15
973.883	2808.47
974.183	2787.23
974.484	2785.87
974.785	2764.4
975.085	2764.4
975.386	2790.84
975.686	2739.09
975.986	2685.54
976.287	2721.69
976.587	2672.43
976.887	2705.88
977.187	2671.3
977.487	2649.83
977.787	2638.98
978.087	2622.49
978.387	2625.43
978.687	2611.41
978.987	2592.88
979.286	2570.06
979.586	2569.38
979.885	2580
980.185	2527.35
980.484	2537.29
980.784	2527.12
981.083	2524.41
981.382	2480.34
981.682	2536.84
981.981	2511.3
982.28	2462.49
982.579	2491.19
982.878	2436.28
983.177	2434.7
983.475	2430.85
983.774	2432.89
984.073	2413.23
984.372	2365.77
984.67	2388.37
984.969	2387.01
985.267	2406.9
985.566	2373.68
985.864	2402.61
986.162	2341.36
986.461	2314.02
986.759	2313.12
987.057	2318.31
987.355	2318.31
987.653	2284.19
987.951	2280.35
988.249	2294.13
988.547	2267.69
988.844	2231.76
989.142	2254.14
989.44	2270.41
989.737	2230.86
990.035	2212.33
990.332	2202.84
990.63	2208.26
990.927	2198.09
991.224	2172.56
991.521	2170.07
991.819	2153.8
992.116	2149.96
992.413	2138.21
992.71	2129.85
993.006	2114.48
993.303	2134.36
993.6	2103.63
993.897	2065.89
994.193	2084.65
994.49	2075.61
994.787	2052.79
995.083	2038.32
995.379	2049.17
995.676	1998.55
995.972	2027.7
996.268	2032.22
996.565	2006.23
996.861	1988.15
997.157	2002.84
997.453	1966.91
997.749	1960.36
998.044	1956.97
998.34	1949.96
998.636	1941.83
998.932	1953.35
999.227	1903.41
999.523	1896.4
999.818	1920.81
1000.114	1882.17
1000.409	1861.15
1000.704	1864.54
1001	1883.07
1001.295	1823.86
1001.59	1812.79
1001.885	1837.2
1002.18	1832.45
1002.475	1810.08
1002.77	1823.19
1003.065	1811.21
1003.359	1769.4
1003.654	1790.42
1003.949	1759.23
1004.243	1741.83
1004.538	1747.71
1004.832	1727.82
1005.127	1723.08
1005.421	1711.78
1005.715	1700.93
1006.009	1688.05
1006.304	1698.22
1006.598	1694.15
1006.892	1675.17
1007.186	1650.08
1007.48	1654.83
1007.773	1643.76
1008.067	1654.6
1008.361	1640.14
1008.655	1600.59
1008.948	1621.84
1009.242	1608.28
1009.535	1605.57
1009.829	1584.32
1010.122	1549.3
1010.415	1573.02
1010.708	1543.65
1011.001	1561.95
1011.295	1530.76
1011.588	1547.94
1011.881	1533.02
1012.173	1488.28
1012.466	1499.13
1012.759	1521.05
1013.052	1492.12
1013.344	1475.63
1013.637	1499.13
1013.93	1485.79
1014.222	1463.42
1014.514	1446.47
1014.807	1420.49
1015.099	1436.76
1015.391	1435.85
1015.683	1424.1
1015.976	1415.29
1016.268	1377.32
1016.56	1414.61
1016.851	1383.65
1017.143	1380.03
1017.435	1366.48
1017.727	1373.03
1018.018	1355.85
1018.31	1350.2
1018.602	1330.32
1018.893	1325.35
1019.185	1321.5
1019.476	1349.98
1019.767	1300.49
1020.058	1290.77
1020.35	1288.74
1020.641	1265.24
1020.932	1275.86
1021.223	1263.65
1021.514	1268.85
1021.804	1247.38
1022.095	1233.15
1022.386	1229.76
1022.677	1226.14
1022.967	1220.49
1023.258	1211
1023.548	1203.32
1023.839	1214.39
1024.129	1178.68
1024.419	1205.35
1024.709	1180.72
1025	1193.6
1025.29	1152.47
1025.58	1176.42
1025.87	1140.27
1026.16	1147.27
1026.449	1147.27
1026.739	1140.72
1027.029	1121.96
1027.319	1111.11
1027.608	1105.92
1027.898	1104.34
1028.187	1112.02
1028.477	1076.54
1028.766	1086.48
1029.055	1052.36
1029.344	1073.6
1029.634	1059.36
1029.923	1053.94
1030.212	1047.61
1030.501	1034.51
1030.79	1019.14
1031.078	1055.3
1031.367	1020.72
1031.656	993.15
1031.945	1032.7
1032.233	999.93
1032.522	1003.77
1032.81	1001.97
1033.099	972.36
1033.387	966.49
1033.675	961.51
1033.963	977.79
1034.251	966.94
1034.54	951.57
1034.828	941.63
1035.116	929.65
1035.403	924.91
1035.691	924.23
1035.979	913.61
1036.267	904.79
1036.554	930.55
1036.842	897.34
1037.129	899.59
1037.417	878.35
1037.704	889.43
1037.992	893.49
1038.279	899.14
1038.566	859.37
1038.853	859.37
1039.14	859.37
