Data from hue_180_FLMS001491_00078.txt Node
Date: Tue Feb 07 16:47:28 GMT 2017
User: dcchb
Spectrometer: FLMS00149
Trigger mode: 0
Integration Time (sec): 2.000000E-2
Scans to average: 10
Electric dark correction enabled: true
Nonlinearity correction enabled: false
Boxcar width: 0
XAxis mode: Wavelengths
Number of Pixels in Spectrum: 2048
>>>>>Begin Spectral Data<<<<<
341.393	-9.27
341.776	-9.27
342.16	-9.27
342.543	-64.41
342.927	-58.98
343.31	-56.72
343.693	-68.25
344.077	-65.08
344.46	-79.77
344.843	-40
345.226	-40
345.61	-58.53
345.993	-27.8
346.376	-3.84
346.759	2.03
347.142	40.22
347.525	51.3
347.908	54.91
348.291	72.09
348.674	100.11
349.057	119.32
349.44	136.95
349.823	146.66
350.206	166.32
350.588	183.5
350.971	190.96
351.354	236.83
351.737	242.03
352.119	250.84
352.502	264.85
352.884	270.5
353.267	262.59
353.65	300.56
354.032	286.32
354.414	316.6
354.797	327.45
355.179	317.51
355.562	332.65
355.944	331.97
356.326	300.78
356.709	324.96
357.091	328.35
357.473	352.99
357.855	329.48
358.238	322.48
358.62	345.98
359.002	355.02
359.384	342.36
359.766	336.94
360.148	341.69
360.53	349.82
360.912	322.93
361.294	332.87
361.676	343.27
362.057	344.17
362.439	326.09
362.821	342.14
363.203	321.35
363.584	320.67
363.966	330.84
364.348	313.44
364.729	317.51
365.111	314.34
365.493	327.9
365.874	326.32
366.256	307.56
366.637	309.82
367.019	306.88
367.4	296.04
367.781	321.57
368.163	295.36
368.544	305.08
368.925	308.69
369.306	328.8
369.688	315.92
370.069	308.69
370.45	322.93
370.831	308.92
371.212	305.98
371.593	291.97
371.974	320.22
372.355	321.12
372.736	310.05
373.117	325.19
373.498	307.34
373.879	302.14
374.26	319.99
374.641	316.6
375.021	324.29
375.402	338.75
375.783	304.62
376.163	312.99
376.544	330.39
376.925	322.03
377.305	341.23
377.686	318.41
378.066	332.42
378.447	320.22
378.827	336.04
379.208	340.33
379.588	315.7
379.968	344.4
380.349	328.35
380.729	343.04
381.109	317.96
381.489	333.78
381.87	344.4
382.25	348.01
382.63	345.3
383.01	342.59
383.39	320.67
383.77	322.7
384.15	340.33
384.53	355.47
384.91	359.31
385.29	334.91
385.67	352.08
386.049	350.73
386.429	367.67
386.809	325.42
387.189	342.82
387.568	340.78
387.948	347.34
388.328	348.01
388.707	334.45
389.087	359.31
389.466	350.27
389.846	373.1
390.225	366.77
390.605	363.38
390.984	356.15
391.363	353.21
391.743	382.36
392.122	375.81
392.501	346.43
392.881	370.84
393.26	378.97
393.639	387.56
394.018	389.59
394.397	377.62
394.776	366.09
395.155	379.88
395.534	367.45
395.913	378.3
396.292	384.17
396.671	370.61
397.05	379.43
397.429	388.69
397.808	378.97
398.186	392.76
398.565	395.02
398.944	410.61
399.323	409.03
399.701	402.93
400.08	392.08
400.458	432.98
400.837	411.06
401.215	426.2
401.594	425.07
401.972	401.12
402.351	413.1
402.729	425.53
403.107	417.16
403.486	419.42
403.864	424.85
404.242	440.44
404.62	432.08
404.999	445.41
405.377	439.31
405.755	445.86
406.133	446.09
406.511	431.18
406.889	467.11
407.267	462.13
407.645	439.99
408.023	462.81
408.401	473.43
408.779	475.24
409.156	460.78
409.534	493.55
409.912	488.57
410.29	474.34
410.667	499.65
411.045	516.82
411.422	509.37
411.8	507.33
412.178	538.29
412.555	556.82
412.933	552.53
413.31	537.39
413.687	558.18
414.065	571.28
414.442	581.68
414.819	569.25
415.197	580.1
415.574	603.83
415.951	584.39
416.328	575.8
416.705	599.08
417.082	625.75
417.46	617.38
417.837	647.21
418.214	652.64
418.591	661.9
418.967	653.54
419.344	648.12
419.721	686.08
420.098	680.89
420.475	649.02
420.852	680.89
421.228	687.21
421.605	705.29
421.982	732.86
422.358	728.57
422.735	723.82
423.111	732.64
423.488	763.37
423.864	753.65
424.241	774.22
424.617	795.01
424.994	792.75
425.37	801.33
425.746	818.74
426.123	833.88
426.499	834.33
426.875	842.92
427.251	864.38
427.627	870.26
428.003	862.8
428.379	889.47
428.756	896.02
429.132	911.61
429.507	923.59
429.883	922.46
430.259	954.78
430.635	927.43
431.011	949.81
431.387	949.13
431.763	973.76
432.138	1001.33
432.514	1005.4
432.89	1006.75
433.265	1011.05
433.641	1042.91
434.016	1070.71
434.392	1112.06
434.767	1123.36
435.143	1112.74
435.518	1115
435.894	1147.54
436.269	1159.52
436.644	1161.1
437.02	1215.11
437.395	1181.66
437.77	1251.94
438.145	1255.11
438.52	1230.7
438.895	1266.86
439.271	1272.73
439.646	1319.74
440.021	1339.17
440.395	1311.83
440.77	1321.55
441.145	1327.2
441.52	1373.07
441.895	1397.7
442.27	1429.57
442.645	1399.74
443.019	1431.15
443.394	1439.74
443.769	1468.89
444.143	1462.11
444.518	1494.2
444.892	1482.67
445.267	1495.1
445.641	1507.08
446.016	1543.24
446.39	1541.65
446.764	1558.83
447.139	1582.56
447.513	1568.55
447.887	1561.77
448.262	1582.56
448.636	1628.43
449.01	1621.43
449.384	1625.72
449.758	1672.72
450.132	1636.57
450.506	1694.42
450.88	1687.41
451.254	1709.11
451.628	1718.37
452.002	1771.48
452.376	1787.98
452.75	1787.52
453.123	1820.52
453.497	1852.38
453.871	1825.04
454.244	1874.98
454.618	1892.15
454.992	1898.71
455.365	1896.67
455.739	1972.38
456.112	1947.07
456.486	1998.37
456.859	2013.96
457.232	2072.94
457.606	2079.04
457.979	2118.14
458.352	2123.79
458.725	2142.99
459.099	2162.2
459.472	2221.86
459.845	2233.39
460.218	2251.47
460.591	2303.67
460.964	2286.27
461.337	2363.33
461.71	2384.12
462.083	2388.86
462.456	2413.95
462.829	2453.04
463.201	2470.67
463.574	2511.8
463.947	2540.95
464.32	2541.63
464.692	2624.79
465.065	2622.53
465.438	2673.83
465.81	2729.87
466.183	2727.61
466.555	2804.9
466.928	2825.24
467.3	2867.72
467.672	2852.13
468.045	2949.3
468.417	3001.95
468.789	3065
469.161	3050.99
469.534	3120.82
469.906	3176.19
470.278	3195.62
470.65	3258.45
471.022	3305.22
471.394	3356.07
471.766	3396.07
472.138	3433.58
472.51	3577.99
472.882	3602.84
473.253	3632.45
473.625	3690.75
473.997	3816.4
474.369	3806.91
474.74	3922.38
475.112	3967.58
475.484	4026.33
475.855	4107.46
476.227	4143.17
476.598	4289.83
476.97	4325.99
477.341	4401.92
477.713	4489.15
478.084	4527.11
478.455	4669.48
478.827	4756.49
479.198	4878.52
479.569	4923.03
479.94	5058.85
480.311	5108.34
480.682	5190.15
481.053	5328.67
481.424	5417.03
481.795	5507.2
482.166	5601.21
482.537	5705.84
482.908	5852.5
483.279	5960.97
483.65	6033.74
484.021	6158.48
484.391	6226.73
484.762	6348.08
485.133	6417.46
485.503	6472.6
485.874	6651.8
486.244	6741.29
486.615	6883.66
486.985	6976.09
487.356	7103.54
487.726	7114.62
488.097	7352.35
488.467	7343.08
488.837	7549.86
489.207	7619.91
489.578	7776.29
489.948	7805.9
490.318	7971.09
490.688	8011.31
491.058	8174.93
491.428	8336.28
491.798	8339.22
492.168	8524.75
492.538	8630.06
492.908	8669.6
493.278	8799.99
493.648	8783.27
494.017	8992.53
494.387	9037.05
494.757	9147.33
495.126	9188.01
495.496	9297.38
495.866	9297.61
496.235	9401.33
496.605	9529.47
496.974	9510.48
497.344	9586.87
497.713	9636.81
498.082	9756.13
498.452	9822.79
498.821	9933.98
499.19	9944.6
499.559	9990.02
499.928	10076.12
500.298	10157.25
500.667	10277.02
501.036	10183.46
501.405	10366.96
501.774	10388.2
502.143	10378.03
502.512	10422.78
502.88	10476.11
503.249	10452.15
503.618	10587.97
503.987	10573.28
504.356	10607.4
504.724	10670.91
505.093	10700.96
505.462	10754.52
505.83	10815.08
506.199	10890.11
506.567	10989.32
506.936	10875.19
507.304	11059.82
507.672	11106.83
508.041	11079.93
508.409	11145.02
508.777	11216.65
509.145	11208.74
509.514	11300.27
509.882	11362.19
510.25	11217.33
510.618	11340.72
510.986	11397.67
511.354	11481.96
511.722	11375.07
512.09	11587.27
512.458	11538.23
512.826	11577.1
513.193	11576.19
513.561	11635.85
513.929	11724.21
514.297	11722.63
514.664	11681.95
515.032	11753.59
515.4	11777.32
515.767	11754.04
516.135	11806.47
516.502	11733.48
516.869	11816.86
517.237	11956.52
517.604	11862.29
517.972	11841.72
518.339	11928.05
518.706	11968.05
519.073	11846.92
519.44	11957.2
519.808	12050.98
520.175	12062.96
520.542	12119.46
520.909	12060.93
521.276	12072.9
521.643	12194.26
522.009	12191.77
522.376	12189.74
522.743	12181.6
523.11	12280.58
523.477	12321.26
523.843	12348.15
524.21	12392.67
524.577	12397.19
524.943	12384.99
525.31	12315.38
525.676	12421.59
526.043	12351.09
526.409	12432.89
526.776	12522.83
527.142	12433.12
527.508	12466.11
527.874	12527.58
528.241	12491.2
528.607	12483.06
528.973	12480.8
529.339	12454.14
529.705	12459.79
530.071	12440.35
530.437	12410.97
530.803	12442.84
531.169	12478.32
531.535	12414.81
531.901	12438.99
532.267	12415.27
532.632	12396.74
532.998	12382.95
533.364	12372.78
533.73	12395.83
534.095	12418.88
534.461	12312.22
534.826	12301.37
535.192	12348.6
535.557	12293.46
535.923	12230.64
536.288	12185.44
536.653	12167.36
537.019	12161.49
537.384	12099.34
537.749	12074.26
538.114	11987.48
538.479	12032.68
538.845	11967.14
539.21	11913.13
539.575	11932.79
539.94	11819.35
540.305	11923.75
540.67	11743.19
541.034	11682.18
541.399	11740.93
541.764	11691.67
542.129	11639.92
542.494	11681.73
542.858	11613.48
543.223	11580.26
543.587	11525.12
543.952	11488.51
544.316	11476.53
544.681	11327.39
545.045	11303.43
545.41	11360.61
545.774	11293.49
546.138	11220.72
546.503	11152.7
546.867	11132.14
547.231	11164
547.595	11106.37
547.959	11018.69
548.324	10991.8
548.688	10962.88
549.052	10931.69
549.416	10996.77
549.779	10874.06
550.143	10844.01
550.507	10727.18
550.871	10810.79
551.235	10756.55
551.599	10750.9
551.962	10669.55
552.326	10633.39
552.689	10651.47
553.053	10559.72
553.417	10480.63
553.78	10486.73
554.143	10458.71
554.507	10444.7
554.87	10421.65
555.234	10416
555.597	10376.22
555.96	10311.37
556.323	10317.24
556.686	10254.19
557.05	10318.37
557.413	10263.91
557.776	10262.78
558.139	10239.5
558.502	10134.87
558.865	10147.3
559.228	10205.38
559.59	10119.06
559.953	10185.04
560.316	10227.53
560.679	10133.29
561.041	10219.62
561.404	10159.96
561.767	10170.58
562.129	10058.04
562.492	10117.25
562.854	10071.37
563.217	9999.29
563.579	10057.59
563.941	10089.9
564.304	10144.82
564.666	10112.5
565.028	10006.52
565.39	10041.54
565.753	10125.16
566.115	10175.1
566.477	10155.21
566.839	10076.57
567.201	10132.61
567.563	10113.41
567.925	10154.31
568.287	10116.12
568.648	10124.93
569.01	10124.93
569.372	10161.99
569.734	10041.32
570.095	10111.37
570.457	10135.78
570.819	10162.9
571.18	10084.48
571.542	10132.39
571.903	10154.08
572.265	10194.31
572.626	10155.21
572.987	10204.93
573.349	10103.24
573.71	10220.07
574.071	10155.44
574.432	10179.62
574.794	10207.64
575.155	10154.99
575.516	10124.93
575.877	10157.25
576.238	10218.04
576.599	10194.99
576.96	10167.19
577.32	10165.61
577.681	10110.69
578.042	10191.6
578.403	10188.43
578.763	10170.81
579.124	10168.77
579.485	10236.12
579.845	10177.36
580.206	10138.26
580.566	10172.39
580.927	10159.73
581.287	10138.94
581.648	10092.84
582.008	10159.28
582.368	10046.06
582.728	10124.93
583.089	10079.96
583.449	10072.28
583.809	10078.38
584.169	10117.7
584.529	10021.21
584.889	10074.54
585.249	10015.33
585.609	9964.03
585.969	10014.88
586.329	10009.68
586.688	10025.27
587.048	9990.7
587.408	9970.81
587.768	9987.99
588.127	9968.1
588.487	9956.57
588.846	9984.14
589.206	9930.59
589.565	9976.91
589.925	9953.41
590.284	9920.19
590.643	9909.12
591.003	9917.93
591.362	9922.68
591.721	9929.91
592.08	9939.17
592.44	9899.63
592.799	9839.74
593.158	9843.81
593.517	9898.5
593.876	9893.75
594.235	9804.49
594.593	9824.37
594.952	9826.18
595.311	9780.76
595.67	9784.6
596.029	9812.85
596.387	9827.09
596.746	9784.6
597.104	9699.41
597.463	9712.96
597.822	9706.64
598.18	9689.46
598.538	9764.04
598.897	9775.56
599.255	9700.08
599.613	9775.34
599.972	9804.71
600.33	9793.87
600.688	9731.27
601.046	9808.33
601.404	9795.45
601.762	9746.18
602.12	9825.5
602.478	9791.15
602.836	9750.25
603.194	9721.33
603.552	9761.78
603.91	9697.37
604.268	9772.85
604.625	9702.57
604.983	9693.98
605.341	9666.19
605.698	9682.91
606.056	9682.68
606.413	9703.02
606.771	9750.7
607.128	9749.35
607.485	9712.96
607.843	9739.86
608.2	9703.25
608.557	9798.16
608.914	9678.16
609.272	9771.04
609.629	9748.22
609.986	9761.33
610.343	9778.27
610.7	9808.78
611.057	9781.89
611.414	9665.96
611.771	9807.43
612.127	9786.64
612.484	9781.66
612.841	9840.65
613.198	9727.43
613.554	9819.4
613.911	9849.01
614.267	9916.58
614.624	9814.21
614.98	9757.94
615.337	9865.73
615.693	9837.71
616.05	9951.6
616.406	9892.17
616.762	9885.39
617.118	9897.37
617.475	9847.88
617.831	9877.48
618.187	9901.43
618.543	9880.64
618.899	9942.34
619.255	9849.23
619.611	9924.94
619.967	9940.53
620.323	9966.52
620.678	9907.08
621.034	9914.99
621.39	9905.73
621.746	9849.23
622.101	9990.7
622.457	9942.79
622.812	9908.44
623.168	9947.76
623.523	9924.48
623.879	9884.03
624.234	9920.19
624.589	9949.12
624.945	9881.1
625.3	9942.56
625.655	9855.11
626.01	9860.76
626.365	9922.45
626.72	9955.9
627.075	9908.89
627.43	9867.99
627.785	9920.87
628.14	9926.97
628.495	9906.18
628.85	9867.76
629.205	9827.09
629.559	9907.76
629.914	9848.78
630.269	9846.29
630.623	9811.95
630.978	9792.06
631.332	9841.55
631.687	9826.86
632.041	9825.05
632.396	9809.01
632.75	9799.97
633.104	9782.34
633.459	9717.94
633.813	9788.9
634.167	9714.55
634.521	9699.86
634.875	9744.83
635.229	9683.36
635.583	9730.37
635.937	9672.29
636.291	9620.54
636.645	9621.44
636.999	9668.22
637.352	9645.4
637.706	9572.86
638.06	9601.56
638.413	9628.9
638.767	9610.14
639.121	9526.53
639.474	9524.95
639.828	9576.47
640.181	9539.41
640.534	9489.02
640.888	9454.21
641.241	9475.46
641.594	9466.42
641.947	9534.44
642.301	9511.84
642.654	9504.83
643.007	9482.91
643.36	9495.8
643.713	9414.44
644.066	9505.51
644.419	9416.93
644.771	9379.87
645.124	9274.56
645.477	9305.97
645.83	9208.35
646.182	9159.08
646.535	9096.26
646.888	9227.1
647.24	9080.67
647.593	9172.64
647.945	9102.13
648.298	9095.35
648.65	9045.64
649.002	9076.37
649.355	9140.78
649.707	9107.56
650.059	9190.72
650.411	9263.26
650.763	9297.16
651.115	9286.08
651.467	9348.23
651.819	9336.93
652.171	9313.2
652.523	9342.58
652.875	9405.18
653.227	9263.49
653.578	9376.48
653.93	9362.01
654.282	9312.52
654.633	9239.08
654.985	9317.72
655.337	9298.51
655.688	9259.42
656.039	9346.65
656.391	9284.95
656.742	9341
657.094	9333.54
657.445	9388.45
657.796	9320.66
658.147	9358.17
658.498	9311.39
658.849	9407.89
659.2	9419.64
659.551	9322.47
659.902	9345.97
660.253	9282.02
660.604	9362.24
660.955	9376.7
661.306	9338.74
661.656	9377.38
662.007	9371.51
662.358	9332.86
662.708	9362.69
663.059	9378.06
663.409	9308.46
663.76	9463.48
664.11	9411.96
664.461	9433.42
664.811	9362.24
665.161	9420.09
665.511	9371.73
665.862	9382.35
666.212	9400.88
666.562	9448.11
666.912	9435.91
667.262	9394.56
667.612	9409.7
667.962	9411.73
668.312	9401.11
668.662	9475.23
669.011	9425.74
669.361	9391.39
669.711	9423.93
670.06	9386.19
670.41	9402.69
670.76	9353.88
671.109	9391.17
671.459	9341.9
671.808	9358.62
672.157	9388.23
672.507	9308
672.856	9346.42
673.205	9319.98
673.554	9341.22
673.904	9308.68
674.253	9309.36
674.602	9252.64
674.951	9198.18
675.3	9095.58
675.649	9283.37
675.998	9319.98
676.346	9250.6
676.695	9246.99
677.044	9228.23
677.393	9219.19
677.741	9181.68
678.09	9198.63
678.438	9134.9
678.787	9259.64
679.135	9149.14
679.484	9177.16
679.832	9118.4
680.181	9140.78
680.529	9098.74
680.877	9048.12
681.225	9110.27
681.573	9126.09
681.922	9041.12
682.27	9024.62
682.618	8979.2
682.966	9030.5
683.314	9024.62
683.661	8918.64
684.009	8888.58
684.357	8865.3
684.705	8934.23
685.053	8829.6
685.4	8896.49
685.748	8821.46
686.095	8799.77
686.443	8775.81
686.79	8784.4
687.138	8768.13
687.485	8735.59
687.832	8761.8
688.18	8644.74
688.527	8736.49
688.874	8646.1
689.221	8570.17
689.568	8559.32
689.915	8631.64
690.262	8602.03
690.609	8579.21
690.956	8475.94
691.303	8480.45
691.65	8451.08
691.997	8478.87
692.344	8397.52
692.69	8350.97
693.037	8363.85
693.383	8294.92
693.73	8295.6
694.077	8183.97
694.423	8214.7
694.769	8143.74
695.116	8118.43
695.462	8169.05
695.808	8068.26
696.155	8169.05
696.501	8043.4
696.847	8037.53
697.193	7967.93
697.539	8037.98
697.885	7915.72
698.231	7931.77
698.577	7910.3
698.923	7851.77
699.269	7742.17
699.614	7747.59
699.96	7717.76
700.306	7732.23
700.651	7724.99
700.997	7644.77
701.342	7612.91
701.688	7559.35
702.033	7585.79
702.379	7554.38
702.724	7573.81
703.069	7597.31
703.415	7469.86
703.76	7473.48
704.105	7442.74
704.45	7445.91
704.795	7377.21
705.14	7378.11
705.485	7399.58
705.83	7310.32
706.175	7355.74
706.52	7325.46
706.865	7250.43
707.209	7232.13
707.554	7237.78
707.899	7261.96
708.243	7213.14
708.588	7114.39
708.932	7143.99
709.277	7064.67
709.621	7085.01
709.966	7084.56
710.31	7050.44
710.654	7014.05
710.998	7023.77
711.342	6935.64
711.687	7054.5
712.031	6932.47
712.375	6899.48
712.719	6892.25
713.063	6902.42
713.407	6866.03
713.75	6891.57
714.094	6896.32
714.438	6863.1
714.782	6857.67
715.125	6820.84
715.469	6811.57
715.812	6825.81
716.156	6729.99
716.499	6672.14
716.843	6759.6
717.186	6775.19
717.53	6784
717.873	6769.54
718.216	6753.49
718.559	6640.73
718.902	6651.8
719.246	6694.06
719.589	6668.98
719.932	6621.97
720.275	6687.96
720.617	6675.53
720.96	6677.11
721.303	6601.41
721.646	6647.51
721.989	6606.38
722.331	6606.15
722.674	6595.31
723.016	6610.22
723.359	6598.24
723.701	6558.7
724.044	6603.67
724.386	6510.56
724.729	6535.2
725.071	6582.88
725.413	6532.03
725.755	6557.79
726.097	6510.34
726.439	6511.47
726.782	6460.85
727.124	6473.5
727.465	6488.64
727.807	6473.5
728.149	6431.47
728.491	6535.65
728.833	6537.23
729.175	6503.11
729.516	6506.5
729.858	6515.99
730.199	6516.89
730.541	6511.92
730.882	6487.51
731.224	6491.81
731.565	6495.65
731.906	6501.3
732.248	6458.36
732.589	6453.84
732.93	6471.69
733.271	6501.75
733.612	6478.93
733.953	6522.31
734.294	6441.86
734.635	6412.49
734.976	6515.08
735.317	6464.24
735.658	6468.3
735.999	6443.9
736.339	6432.6
736.68	6518.7
737.021	6499.26
737.361	6513.05
737.702	6540.39
738.042	6511.69
738.383	6490.9
738.723	6547.17
739.063	6568.19
739.404	6539.94
739.744	6547.85
740.084	6500.17
740.424	6581.07
740.764	6608.41
741.104	6595.53
741.444	6568.19
741.784	6664.23
742.124	6682.54
742.464	6627.85
742.804	6674.17
743.143	6728.41
743.483	6690.9
743.823	6719.6
744.162	6734.74
744.502	6774.51
744.841	6792.82
745.181	6860.16
745.52	6809.31
745.86	6858.35
746.199	6972.7
746.538	6946.03
746.877	7005.01
747.216	7130.66
747.556	7047.5
747.895	7154.39
748.234	7163.88
748.573	7239.36
748.911	7279.81
749.25	7332.24
749.589	7367.94
749.928	7524.1
750.267	7512.34
750.605	7576.75
750.944	7663.53
751.283	7696.97
751.621	7836.86
751.96	7917.31
752.298	8027.59
752.636	8121.37
752.975	8168.15
753.313	8210.63
753.651	8309.16
753.989	8418.31
754.327	8586.89
754.666	8605.88
755.004	8759.09
755.342	8915.47
755.679	8989.59
756.017	9126.54
756.355	9211.06
756.693	9370.15
757.031	9515.23
757.368	9600.2
757.706	9833.87
758.044	9961.55
758.381	10028.21
758.719	10209.9
759.056	10446.73
759.394	10522.21
759.731	10655.09
760.068	10788.87
760.405	10980.73
760.743	10988.86
761.08	11277.9
761.417	11410.77
761.754	11555.4
762.091	11660.26
762.428	11867.94
762.765	11968.72
763.102	12324.87
763.438	12348.38
763.775	12464.98
764.112	12744.3
764.449	12822.04
764.785	12997.4
765.122	13119.88
765.458	13299.99
765.795	13409.59
766.131	13540.66
766.467	13619.53
766.804	13805.51
767.14	13905.4
767.476	14192.85
767.812	14161.89
768.148	14377.48
768.485	14401.2
768.821	14590.8
769.157	14712.83
769.492	14930
769.828	14918.93
770.164	15035.08
770.5	15163.9
770.836	15268.53
771.171	15442.53
771.507	15423.1
771.842	15471.01
772.178	15597.1
772.513	15799.58
772.849	15772.24
773.184	15884.1
773.519	15949.64
773.855	15989.86
774.19	16117.77
774.525	16073.02
774.86	16304.2
775.195	16380.13
775.53	16371.55
775.865	16419.68
776.2	16402.05
776.535	16341.04
776.87	16500.58
777.205	16542.62
777.539	16528.15
777.874	16635.49
778.209	16546.01
778.543	16637.75
778.878	16611.54
779.212	16718.43
779.547	16737.41
779.881	16769.95
780.215	16737.64
780.55	16871.65
780.884	16861.7
781.218	16837.52
781.552	16890.18
781.886	16817.86
782.22	16809.05
782.554	16785.1
782.888	16666.23
783.222	16769.28
783.556	16697.87
783.889	16716.85
784.223	16638.43
784.557	16653.35
784.89	16727.92
785.224	16688.83
785.557	16576.74
785.891	16649.05
786.224	16731.99
786.558	16720.92
786.891	16609.28
787.224	16596.17
787.557	16510.75
787.891	16583.29
788.224	16555.72
788.557	16619.9
788.89	16669.17
789.223	16608.15
789.556	16506.91
789.888	16551.43
790.221	16552.79
790.554	16351.89
790.887	16392.56
791.219	16410.64
791.552	16409.51
791.884	16330.87
792.217	16322.73
792.549	16303.3
792.882	16241.38
793.214	16152.34
793.546	16225.11
793.879	16105.57
794.211	16111.44
794.543	16108.95
794.875	16035.06
795.207	16098.11
795.539	16062.4
795.871	16070.09
796.203	15893.59
796.535	15814.5
796.867	15836.19
797.198	15804.33
797.53	15821.96
797.862	15730.43
798.193	15831.9
798.525	15657.89
798.856	15712.58
799.188	15610.89
799.519	15590.1
799.85	15440.27
800.182	15574.51
800.513	15539.7
800.844	15395.08
801.175	15478.01
801.506	15459.03
801.837	15358.47
802.168	15289.77
802.499	15205.93
802.83	15265.36
803.161	15188.3
803.491	15210.9
803.822	15198.7
804.153	15176.1
804.483	15032.83
804.814	14976.78
805.145	15037.12
805.475	14937.23
805.805	14920.06
806.136	14956.44
806.466	14897.46
806.796	14874.86
807.126	14802.77
807.457	14727.3
807.787	14723.23
808.117	14703.57
808.447	14640.97
808.777	14703.34
809.107	14624.02
809.436	14631.93
809.766	14516.45
810.096	14531.37
810.426	14482.78
810.755	14501.99
811.085	14491.82
811.414	14429.23
811.744	14405.27
812.073	14336.57
812.403	14379.28
812.732	14236.46
813.061	14264.48
813.39	14217.03
813.719	14133.64
814.049	14313.52
814.378	14195.11
814.707	14096.35
815.036	14130.7
815.365	14048.9
815.693	13932.52
816.022	13988.11
816.351	13902.69
816.68	13926.64
817.008	13935
817.337	13760.32
817.665	13875.12
817.994	13873.76
818.322	13821.56
818.651	13748.34
818.979	13669.47
819.307	13765.97
819.636	13739.75
819.964	13618.62
820.292	13712.63
820.62	13685.29
820.948	13549.47
821.276	13700.88
821.604	13689.58
821.932	13708.57
822.259	13761.9
822.587	13692.75
822.915	13742.92
823.243	13583.82
823.57	13596.48
823.898	13670.38
824.225	13533.66
824.553	13591.73
824.88	13647.32
825.207	13668.79
825.535	13591.96
825.862	13633.54
826.189	13620.66
826.516	13708.79
826.843	13712.41
827.17	13731.62
827.497	13712.86
827.824	13693.2
828.151	13664.5
828.478	13663.6
828.805	13687.32
829.131	13634.22
829.458	13687.55
829.785	13608.46
830.111	13611.62
830.438	13706.08
830.764	13618.85
831.09	13725.29
831.417	13587.21
831.743	13715.8
832.069	13563.26
832.395	13553.77
832.722	13608.68
833.048	13568.91
833.374	13619.98
833.7	13480.32
834.026	13508.35
834.351	13558.06
834.677	13522.58
835.003	13569.81
835.329	13507.89
835.654	13568.68
835.98	13411.4
836.306	13476.93
836.631	13415.92
836.956	13493.88
837.282	13476.48
837.607	13477.39
837.932	13286.2
838.258	13375.47
838.583	13354
838.908	13276.94
839.233	13320.33
839.558	13253.21
839.883	13188.58
840.208	13189.26
840.533	13216.83
840.858	13209.37
841.182	13213.44
841.507	13144.74
841.832	13088.47
842.156	12997.85
842.481	13099.09
842.805	13010.51
843.13	12948.36
843.454	12988.59
843.778	12897.97
844.103	12839.44
844.427	12800.34
844.751	12865.88
845.075	12824.07
845.399	12771.64
845.723	12687.35
846.047	12741.81
846.371	12654.36
846.695	12616.84
847.019	12594.92
847.343	12512.89
847.666	12373.01
847.99	12392.67
848.313	12410.97
848.637	12311.54
848.96	12265.89
849.284	12243.52
849.607	12202.84
849.931	12152.9
850.254	11992.45
850.577	12010.53
850.9	12005.33
851.223	11850.76
851.546	11822.51
851.869	11793.36
852.192	11809.18
852.515	11626.81
852.838	11654.61
853.161	11745
853.483	11663.87
853.806	11671.33
854.129	11560.6
854.451	11524.89
854.774	11459.13
855.096	11441.51
855.419	11389.53
855.741	11413.71
856.063	11278.35
856.385	11277.9
856.708	11196.09
857.03	11213.49
857.352	11206.49
857.674	11255.75
857.996	11072.7
858.318	11051.01
858.64	11098.24
858.961	11051.23
859.283	10991.12
859.605	10964.46
859.926	10954.51
860.248	10911.58
860.57	10854.18
860.891	10862.77
861.212	10822.09
861.534	10794.29
861.855	10817.79
862.176	10768.98
862.498	10723.33
862.819	10697.57
863.14	10681.98
863.461	10659.38
863.782	10646.05
864.103	10646.5
864.424	10610.57
864.745	10625.03
865.065	10571.93
865.386	10498.93
865.707	10558.82
866.027	10583.68
866.348	10470.69
866.668	10505.71
866.989	10436.11
867.309	10368.31
867.63	10389.56
867.95	10480.4
868.27	10335.77
868.59	10356.79
868.91	10382.55
869.23	10321.99
869.55	10286.06
869.87	10253.06
870.19	10278.6
870.51	10311.14
870.83	10258.49
871.15	10220.75
871.469	10143.69
871.789	10236.12
872.109	10220.07
872.428	10170.81
872.748	10143.91
873.067	10130.58
873.386	10194.08
873.706	10131.26
874.025	10098.72
874.344	10053.97
874.663	10106.17
874.982	10056.46
875.301	10035.22
875.62	10013.75
875.939	9988.89
876.258	10058.94
876.577	9956.35
876.896	9971.72
877.214	9955.22
877.533	10010.13
877.852	9938.95
878.17	9877.48
878.489	9840.65
878.807	9869.57
879.125	9870.02
879.444	9839.97
879.762	9843.13
880.08	9859.85
880.398	9735.79
880.716	9763.59
881.034	9784.15
881.352	9749.57
881.67	9690.14
881.988	9702.34
882.306	9679.29
882.624	9639.52
882.941	9571.27
883.259	9601.56
883.577	9558.84
883.894	9620.31
884.212	9606.08
884.529	9469.81
884.846	9459.64
885.164	9443.59
885.481	9431.39
885.798	9441.11
886.115	9421.22
886.432	9295.12
886.75	9376.93
887.067	9375.12
887.383	9368.79
887.7	9341.45
888.017	9264.84
888.334	9301
888.651	9227.33
888.967	9224.84
889.284	9159.08
889.6	9095.13
889.917	9090.61
890.233	9183.26
890.55	9083.15
890.866	9051.51
891.182	9055.81
891.498	9020.55
891.815	8991.4
892.131	8910.5
892.447	8902.14
892.763	8826.66
893.079	8863.95
893.395	8848.13
893.71	8804.51
894.026	8753.89
894.342	8767.91
894.657	8650.17
894.973	8661.24
895.289	8634.12
895.604	8604.52
895.92	8617.17
896.235	8555.48
896.55	8544.86
896.865	8527.46
897.181	8505.09
897.496	8507.35
897.811	8474.81
898.126	8451.08
898.441	8403.39
898.756	8385.99
899.071	8304.87
899.386	8318.65
899.7	8283.62
900.015	8219.67
900.33	8167.47
900.644	8198.88
900.959	8158.43
901.273	8093.35
901.588	8081.6
901.902	8066.45
902.216	7993.69
902.531	7966.57
902.845	7930.64
903.159	7947.14
903.473	7865.78
903.787	7859.68
904.101	7809.96
904.415	7847.7
904.729	7735.39
905.042	7715.96
905.356	7770.42
905.67	7673.47
905.984	7678.89
906.297	7635.05
906.611	7595.73
906.924	7627.82
907.237	7600.25
907.551	7524.32
907.864	7467.83
908.177	7469.86
908.491	7422.63
908.804	7351.22
909.117	7324.1
909.43	7373.37
909.743	7288.85
910.056	7217.66
910.368	7218.12
910.681	7194.61
910.994	7151.45
911.307	7187.38
911.619	7112.81
911.932	7091.11
912.244	7019.25
912.557	7045.46
912.869	7008.86
913.181	6926.82
913.494	6944.68
913.806	6847.05
914.118	6903.1
914.43	6822.65
914.742	6787.84
915.054	6778.58
915.366	6793.72
915.678	6708.3
915.99	6693.61
916.302	6697.9
916.613	6646.83
916.925	6654.74
917.236	6665.59
917.548	6571.13
917.859	6610
918.171	6513.95
918.482	6508.53
918.794	6468.08
919.105	6437.57
919.416	6370.23
919.727	6425.37
920.038	6432.83
920.349	6314.18
920.66	6327.74
920.971	6328.87
921.282	6342.66
921.593	6273.96
921.903	6247.07
922.214	6170.91
922.525	6215.66
922.835	6136.56
923.146	6086.39
923.456	6099.5
923.767	6037.13
924.077	6064.47
924.387	6035.55
924.697	6001.88
925.008	5992.61
925.318	5913.52
925.628	5911.48
925.938	5908.77
926.248	5841.88
926.558	5855.21
926.867	5846.17
927.177	5825.16
927.487	5772.73
927.796	5775.89
928.106	5793.97
928.416	5723.47
928.725	5685.5
929.034	5696.35
929.344	5647.54
929.653	5606.18
929.962	5565.28
930.271	5614.09
930.581	5577.03
930.89	5526.18
931.199	5472.85
931.508	5510.59
931.817	5476.24
932.125	5500.65
932.434	5445.96
932.743	5424.49
933.051	5379.75
933.36	5349.92
933.669	5305.17
933.977	5311.27
934.286	5278.05
934.594	5222.91
934.902	5224.5
935.21	5219.07
935.519	5197.38
935.827	5193.31
936.135	5137.27
936.443	5138.4
936.751	5054.56
937.059	5072.63
937.367	5051.17
937.674	5074.22
937.982	5065.18
938.29	5011.62
938.597	4953.54
938.905	4947.21
939.213	4928.91
939.52	4931.4
939.827	4936.37
940.135	4903.37
940.442	4879.65
940.749	4826.54
941.056	4793.77
941.363	4788.8
941.67	4782.47
941.977	4805.3
942.284	4717.62
942.591	4733.21
942.898	4684.4
943.205	4666.54
943.511	4644.17
943.818	4617.51
944.125	4596.26
944.431	4587
944.738	4558.52
945.044	4551.74
945.35	4543.38
945.657	4541.12
945.963	4476.94
946.269	4451.63
946.575	4439.88
946.881	4477.62
947.187	4444.18
947.493	4354.91
947.799	4361.92
948.105	4394.69
948.41	4344.74
948.716	4323.05
949.022	4315.37
949.327	4300.68
949.633	4202.38
949.938	4288.47
950.244	4224.3
950.549	4236.05
950.854	4200.12
951.16	4204.64
951.465	4157.18
951.77	4130.06
952.075	4160.79
952.38	4185.2
952.685	4096.62
952.99	4045.32
953.294	4054.81
953.599	4014.81
953.904	3995.83
954.209	4006.45
954.513	3997.86
954.818	4007.58
955.122	3954.25
955.426	3948.6
955.731	3942.95
956.035	3933
956.339	3931.87
956.643	3853.91
956.948	3875.83
957.252	3843.06
957.556	3816.85
957.86	3779.34
958.163	3808.71
958.467	3775.49
958.771	3773.23
959.075	3744.76
959.378	3738.43
959.682	3735.5
959.985	3730.07
960.289	3693.69
960.592	3684.87
960.896	3706.34
961.199	3682.62
961.502	3626.8
961.805	3624.76
962.108	3588.83
962.411	3572.11
962.714	3575.27
963.017	3580.7
963.32	3552.67
963.623	3481.04
963.926	3498.21
964.228	3490.3
964.531	3451.66
964.833	3472.68
965.136	3411.44
965.438	3431.77
965.741	3428.61
966.043	3394.94
966.345	3406.01
966.648	3374.83
966.95	3348.84
967.252	3297.31
967.554	3330.99
967.856	3311.1
968.158	3306.58
968.46	3280.82
968.761	3261.38
969.063	3265.22
969.365	3201.27
969.666	3228.16
969.968	3206.02
970.269	3199.01
970.571	3192.23
970.872	3163.08
971.174	3156.75
971.475	3171.44
971.776	3141.16
972.077	3132.8
972.378	3112.69
972.679	3091.44
972.98	3095.74
973.281	3065.91
973.582	3066.36
973.883	3029.98
974.183	2960.6
974.484	3051.22
974.785	2982.97
975.085	3015.74
975.386	2986.36
975.686	2968.96
975.986	2928.96
976.287	2948.17
976.587	2888.74
976.887	2881.96
977.187	2882.64
977.487	2923.09
977.787	2846.03
978.087	2864.33
978.387	2841.96
978.687	2870.66
978.987	2830.89
979.286	2808.74
979.586	2787.95
979.885	2810.32
980.185	2749.31
980.484	2780.04
980.784	2763.54
981.083	2770.55
981.382	2726.48
981.682	2714.28
981.981	2697.78
982.28	2718.8
982.579	2686.71
982.878	2697.33
983.177	2660.27
983.475	2665.47
983.774	2641.06
984.073	2632.47
984.372	2610.1
984.67	2599.71
984.969	2590.67
985.267	2606.03
985.566	2539.37
985.864	2577.11
986.162	2561.51
986.461	2507.96
986.759	2495.3
987.057	2454.62
987.355	2488.97
987.653	2469.31
987.951	2461.4
988.249	2440.39
988.547	2442.65
988.844	2417.34
989.142	2461.63
989.44	2425.02
989.737	2352.93
990.035	2390.67
990.332	2412.59
990.63	2351.12
990.927	2348.41
991.224	2348.41
991.521	2316.78
991.819	2333.72
992.116	2363.33
992.413	2301.63
992.71	2262.54
993.006	2286.04
993.303	2254.18
993.6	2273.84
993.897	2251.92
994.193	2256.66
994.49	2207.63
994.787	2225.03
995.083	2187.74
995.379	2193.39
995.676	2200.39
995.972	2224.35
996.268	2166.27
996.565	2180.06
996.861	2159.04
997.157	2142.99
997.453	2125.14
997.749	2107.74
998.044	2061.19
998.34	2043.79
998.636	2082.88
998.932	2070.91
999.227	2076.33
999.523	2034.97
999.818	2042.66
1000.114	2034.07
1000.409	2020.74
1000.704	2000.4
1001	1984.13
1001.295	2007.18
1001.59	1974.19
1001.885	1979.16
1002.18	1947.52
1002.475	1919.72
1002.77	1947.75
1003.065	1925.6
1003.359	1898.26
1003.654	1928.54
1003.949	1904.58
1004.243	1888.31
1004.538	1871.36
1004.832	1864.13
1005.127	1863.68
1005.421	1817.81
1005.715	1837.92
1006.009	1830.69
1006.304	1834.08
1006.598	1783
1006.892	1773.51
1007.186	1764.02
1007.48	1794.76
1007.773	1736.23
1008.067	1762.44
1008.361	1752.5
1008.655	1751.59
1008.948	1731.93
1009.242	1708.43
1009.535	1720.18
1009.829	1677.24
1010.122	1664.59
1010.415	1700.29
1010.708	1688.32
1011.001	1675.89
1011.295	1637.92
1011.588	1611.71
1011.881	1607.64
1012.173	1606.96
1012.466	1621.43
1012.759	1594.31
1013.052	1587.75
1013.344	1566.96
1013.637	1569.9
1013.93	1549.11
1014.222	1552.05
1014.514	1559.73
1014.807	1529.9
1015.099	1521.99
1015.391	1513.18
1015.683	1512.28
1015.976	1522.67
1016.268	1501.2
1016.56	1471.37
1016.851	1459.17
1017.143	1453.07
1017.435	1466.85
1017.727	1443.8
1018.018	1441.32
1018.31	1433.86
1018.602	1421.43
1018.893	1421.88
1019.185	1403.35
1019.476	1402
1019.767	1407.42
1020.058	1366.07
1020.35	1374.88
1020.641	1346.63
1020.932	1330.13
1021.223	1344.15
1021.514	1307.99
1021.804	1305.95
1022.095	1310.47
1022.386	1305.73
1022.677	1294.43
1022.967	1268.22
1023.258	1285.84
1023.548	1287.2
1023.839	1267.09
1024.129	1272.06
1024.419	1289.68
1024.709	1257.59
1025	1244.26
1025.29	1246.75
1025.58	1222.57
1025.87	1212.4
1026.16	1214.66
1026.449	1212.17
1026.739	1198.84
1027.029	1189.57
1027.319	1166.52
1027.608	1159.07
1027.898	1183.25
1028.187	1173.75
1028.477	1185.51
1028.766	1158.61
1029.055	1124.49
1029.344	1121.78
1029.634	1094.89
1029.923	1108.9
1030.212	1111.84
1030.501	1116.81
1030.79	1115
1031.078	1084.04
1031.367	1093.76
1031.656	1067.77
1031.945	1041.33
1032.233	1046.3
1032.522	1051.95
1032.81	1048.33
1033.099	1032.06
1033.387	1041.33
1033.675	1024.83
1033.963	1011.72
1034.251	1005.4
1034.54	1002.69
1034.828	991.61
1035.116	1009.24
1035.403	965.17
1035.691	980.54
1035.979	985.06
1036.267	946.87
1036.554	985.06
1036.842	946.87
1037.129	946.42
1037.417	954.1
1037.704	921.78
1037.992	945.06
1038.279	927.89
1038.566	935.34
1038.853	935.34
1039.14	935.34
