Data from hue_100_FLMS001491_00092.txt Node
Date: Tue Feb 07 17:03:53 GMT 2017
User: dcchb
Spectrometer: FLMS00149
Trigger mode: 0
Integration Time (sec): 2.000000E-2
Scans to average: 10
Electric dark correction enabled: true
Nonlinearity correction enabled: false
Boxcar width: 0
XAxis mode: Wavelengths
Number of Pixels in Spectrum: 2048
>>>>>Begin Spectral Data<<<<<
341.393	-6.19
341.776	-6.19
342.16	-6.19
342.543	-61.33
342.927	-87.77
343.31	-74.21
343.693	-55
344.077	-67.88
344.46	-65.39
344.843	-54.77
345.226	-40.99
345.61	-45.28
345.993	-11.16
346.376	-5.51
346.759	10.54
347.142	37.88
347.525	27.26
347.908	61.16
348.291	87.14
348.674	92.12
349.057	104.09
349.44	130.31
349.823	138.67
350.206	168.72
350.588	202.17
350.971	229.74
351.354	219.57
351.737	246.01
352.119	248.72
352.502	273.13
352.884	286.46
353.267	287.37
353.65	296.86
354.032	271.55
354.414	291.43
354.797	321.71
355.179	330.75
355.562	338.89
355.944	321.26
356.326	355.39
356.709	348.61
357.091	349.74
357.473	359
357.855	347.93
358.238	350.41
358.62	356.74
359.002	335.05
359.384	355.16
359.766	346.57
360.148	329.62
360.53	347.7
360.912	361.49
361.294	333.01
361.676	322.62
362.057	335.73
362.439	329.62
362.821	315.16
363.203	321.94
363.584	334.14
363.966	324.65
364.348	319.23
364.729	332.56
365.111	318.55
365.493	336.4
365.874	318.32
366.256	304.09
366.637	330.3
367.019	325.1
367.4	344.31
367.781	331.66
368.163	307.25
368.544	320.58
368.925	323.52
369.306	328.27
369.688	319.45
370.069	333.01
370.45	308.38
370.831	318.1
371.212	309.51
371.593	314.48
371.974	339.12
372.355	329.17
372.736	309.29
373.117	300.02
373.498	303.64
373.879	340.47
374.26	336.63
374.641	345.44
375.021	337.08
375.402	330.53
375.783	321.49
376.163	343.64
376.544	344.76
376.925	322.62
377.305	324.2
377.686	334.82
378.066	326.69
378.447	342.28
378.827	324.2
379.208	341.83
379.588	315.16
379.968	330.75
380.349	359.68
380.729	325.78
381.109	362.84
381.489	335.73
381.87	347.93
382.25	335.05
382.63	360.36
383.01	359.68
383.39	337.99
383.77	330.3
384.15	350.87
384.53	380.47
384.91	348.83
385.29	343.41
385.67	338.66
386.049	354.93
386.429	353.58
386.809	352.67
387.189	383.63
387.568	362.39
387.948	373.46
388.328	379.11
388.707	357.87
389.087	377.76
389.466	379.79
389.846	374.82
390.225	386.12
390.605	384.09
390.984	394.03
391.363	395.61
391.743	361.94
392.122	384.99
392.501	381.83
392.881	389.74
393.26	381.6
393.639	379.57
394.018	370.53
394.397	392.22
394.776	387.7
395.155	401.03
395.534	423.41
395.913	398.1
396.292	393.8
396.671	410.53
397.05	386.12
397.429	409.85
397.808	393.13
398.186	415.72
398.565	404.88
398.944	422.5
399.323	413.01
399.701	412.33
400.08	428.15
400.458	424.99
400.837	420.24
401.215	421.15
401.594	407.59
401.972	426.34
402.351	415.72
402.729	425.21
403.107	433.12
403.486	441.03
403.864	436.74
404.242	433.12
404.62	424.54
404.999	450.98
405.377	453.69
405.755	457.76
406.133	455.95
406.511	447.36
406.889	465.67
407.267	467.93
407.645	463.86
408.023	438.77
408.401	476.29
408.779	463.18
409.156	474.93
409.534	489.85
409.912	467.25
410.29	482.61
410.667	491.88
411.045	480.13
411.422	474.25
411.8	471.54
412.178	532.33
412.555	507.25
412.933	499.79
413.31	516.51
413.687	493.91
414.065	495.72
414.442	497.3
414.819	531.2
415.197	519.68
415.574	530.07
415.951	531.43
416.328	527.36
416.705	564.87
417.082	538.66
417.46	542.05
417.837	516.29
418.214	553.8
418.591	561.48
418.967	548.6
419.344	564.42
419.721	565.32
420.098	562.39
420.475	582.95
420.852	564.19
421.228	597.87
421.605	579.11
421.982	596.51
422.358	596.74
422.735	615.49
423.111	610.07
423.488	616.17
423.864	624.98
424.241	615.94
424.617	610.29
424.994	618.88
425.37	636.06
425.746	638.54
426.123	668.37
426.499	640.8
426.875	623.85
427.251	642.61
427.627	658.88
428.003	679.22
428.379	689.61
428.756	671.76
429.132	676.51
429.507	700.91
429.883	714.92
430.259	699.11
430.635	698.65
431.011	697.75
431.387	730.07
431.763	735.94
432.138	725.09
432.514	743.62
432.89	722.38
433.265	744.3
433.641	750.63
434.016	768.26
434.392	769.61
434.767	770.06
435.143	763.74
435.518	795.15
435.894	775.71
436.269	804.87
436.644	825.43
437.02	803.51
437.395	819.55
437.77	815.49
438.145	860.01
438.52	825.88
438.895	840.35
439.271	887.35
439.646	893.9
440.021	870.85
440.395	895.26
440.77	880.12
441.145	932.09
441.52	904.75
441.895	896.16
442.27	885.32
442.645	912.66
443.019	928.93
443.394	922.15
443.769	957.18
444.143	935.94
444.518	941.59
444.892	959.66
445.267	947.23
445.641	962.6
446.016	969.16
446.39	968.25
446.764	978.65
447.139	960.57
447.513	1006.44
447.887	994.69
448.262	1006.44
448.636	993.34
449.01	1006.89
449.384	1020
449.758	1022.94
450.132	1046.22
450.506	1036.72
450.88	1049.38
451.254	1024.07
451.628	1087.8
452.002	1086.89
452.376	1079.21
452.75	1066.78
453.123	1081.02
453.497	1094.8
453.871	1115.82
454.244	1163.95
454.618	1140.68
454.992	1161.01
455.365	1174.35
455.739	1181.35
456.112	1198.08
456.486	1202.14
456.859	1226.78
457.232	1248.92
457.606	1243.95
457.979	1279.88
458.352	1270.16
458.725	1326.66
459.099	1302.03
459.472	1341.12
459.845	1323.04
460.218	1373.66
460.591	1407.11
460.964	1384.74
461.337	1441.46
461.71	1432.65
462.083	1452.53
462.456	1476.94
462.829	1478.29
463.201	1516.03
463.574	1514.23
463.947	1550.83
464.32	1593.32
464.692	1565.07
465.065	1619.76
465.438	1656.37
465.81	1653.21
466.183	1659.08
466.555	1685.07
466.928	1710.38
467.3	1764.61
467.672	1748.34
468.045	1825.63
468.417	1842.13
468.789	1835.57
469.161	1875.57
469.534	1908.79
469.906	1976.81
470.278	1981.11
470.65	1998.05
471.022	2067.43
471.394	2094.78
471.766	2151.72
472.138	2183.36
472.51	2200.76
472.882	2267.43
473.253	2278.73
473.625	2347.42
473.997	2426.74
474.369	2450.7
474.74	2479.85
475.112	2544.48
475.484	2616.34
475.855	2692.5
476.227	2688.88
476.598	2806.17
476.97	2828.99
477.341	2878.03
477.713	2977.01
478.084	3044.35
478.455	3181.3
478.827	3203.9
479.198	3324.12
479.569	3311.47
479.94	3502.87
480.311	3549.65
480.682	3615.19
481.053	3760.04
481.424	3878.91
481.795	3927.5
482.166	4039.58
482.537	4147.15
482.908	4282.06
483.279	4340.59
483.65	4548.95
484.021	4695.39
484.391	4739.68
484.762	4802.27
485.133	4945.1
485.503	5062.83
485.874	5206.33
486.244	5305.99
486.615	5513.67
486.985	5610.39
487.356	5811.06
487.726	5884.28
488.097	6046.76
488.467	6112.07
488.837	6312.29
489.207	6470.48
489.578	6665.05
489.948	6751.15
490.318	6936.68
490.688	7034.31
491.058	7220.06
491.428	7333.28
491.798	7488.76
492.168	7720.39
492.538	7796.55
492.908	7984.34
493.278	8135.75
493.648	8238.57
494.017	8389.98
494.387	8575.51
494.757	8702.51
495.126	8820.7
495.496	8912.68
495.866	9078.32
496.235	9174.36
496.605	9401.48
496.974	9553.34
497.344	9620
497.713	9718.08
498.082	9914.91
498.452	10026.77
498.821	10125.07
499.19	10166.43
499.559	10387.44
499.928	10520.32
500.298	10604.61
500.667	10730.71
501.036	10775.23
501.405	10982
501.774	10998.72
502.143	11134.99
502.512	11303.35
502.88	11332.5
503.249	11407.75
503.618	11511.7
503.987	11586.96
504.356	11721.64
504.724	11842.32
505.093	11939.26
505.462	11869.66
505.83	12075.98
506.199	12169.76
506.567	12341.96
506.936	12351.23
507.304	12550.55
507.672	12554.39
508.041	12633.26
508.409	12712.35
508.777	12870.54
509.145	12921.84
509.514	12843.19
509.882	12983.3
510.25	13040.7
510.618	13086.8
510.986	13199.57
511.354	13275.5
511.722	13451.99
512.09	13407.7
512.458	13468.94
512.826	13514.59
513.193	13674.13
513.561	13704.41
513.929	13730.4
514.297	13849.72
514.664	13895.37
515.032	13965.42
515.4	14067.34
515.767	14091.07
516.135	14146.21
516.502	14066.21
516.869	14271.18
517.237	14271.63
517.604	14160.9
517.972	14348.92
518.339	14432.3
518.706	14351.4
519.073	14417.62
519.44	14514.79
519.808	14550.72
520.175	14561.34
520.542	14785.74
520.909	14716.82
521.276	14679.3
521.643	14818.73
522.009	14829.36
522.376	14874.1
522.743	14977.15
523.11	15048.79
523.477	15134.88
523.843	15180.76
524.21	15250.36
524.577	15307.08
524.943	15276.8
525.31	15417.81
525.676	15466.63
526.043	15486.29
526.409	15531.26
526.776	15557.47
527.142	15543.24
527.508	15586.4
527.874	15586.62
528.241	15698.26
528.607	15597.7
528.973	15708.88
529.339	15753.85
529.705	15770.12
530.071	15868.2
530.437	15827.07
530.803	15903.68
531.169	15852.61
531.535	15827.52
531.901	15743.68
532.267	15847.86
532.632	15835.21
532.998	15828.65
533.364	15916.78
533.73	15928.31
534.095	15958.82
534.461	15917.01
534.826	15935.99
535.192	15878.14
535.557	15888.09
535.923	15797.01
536.288	15840.63
536.653	15858.71
537.019	15802.44
537.384	15788.2
537.749	15855.77
538.114	15731.93
538.479	15773.74
538.845	15689.9
539.21	15694.87
539.575	15694.19
539.94	15645.38
540.305	15665.04
540.67	15730.8
541.034	15659.39
541.399	15631.14
541.764	15602.44
542.129	15533.74
542.494	15584.14
542.858	15606.51
543.223	15521.32
543.587	15470.47
543.952	15394.31
544.316	15495.33
544.681	15378.27
545.045	15381.43
545.41	15438.83
545.774	15407.42
546.138	15305.95
546.503	15257.59
546.867	15236.8
547.231	15307.76
547.595	15275.67
547.959	15175.11
548.324	15184.37
548.688	15078.61
549.052	15133.3
549.416	15143.25
549.779	15056.02
550.143	15032.06
550.507	15093.53
550.871	15048.33
551.235	15063.47
551.599	15078.39
551.962	14990.71
552.326	14982.57
552.689	14999.07
553.053	14874.55
553.417	14944.83
553.78	15075.68
554.143	14800.66
554.507	14843.14
554.87	14895.79
555.234	14905.06
555.597	14862.58
555.96	14766.53
556.323	14841.78
556.686	14823.71
557.05	14858.28
557.413	14817.38
557.776	14746.42
558.139	14864.38
558.502	14797.94
558.865	14797.94
559.228	14834.78
559.59	14778.28
559.953	14822.12
560.316	14936.25
560.679	14885.4
561.041	14773.99
561.404	14847.43
561.767	14898.05
562.129	14711.39
562.492	14971.05
562.854	14889.69
563.217	14874.78
563.579	14859.86
563.941	14981.44
564.304	15064.6
564.666	15031.61
565.028	15093.08
565.39	15055.56
565.753	15094.43
566.115	15115.9
566.477	15164.49
566.839	15116.13
567.201	15178.27
567.563	15192.74
567.925	15196.35
568.287	15216.69
568.648	15173.53
569.01	15279.06
569.372	15328.78
569.734	15206.07
570.095	15321.09
570.457	15401.09
570.819	15334.65
571.18	15279.97
571.542	15357.93
571.903	15374.65
572.265	15381.43
572.626	15462.79
572.987	15390.47
573.349	15408.55
573.71	15453.29
574.071	15468.44
574.432	15522.44
574.794	15573.52
575.155	15502.56
575.516	15393.41
575.877	15551.14
576.238	15497.59
576.599	15547.08
576.96	15546.4
577.32	15495.78
577.681	15540.98
578.042	15663.01
578.403	15598.38
578.763	15544.37
579.124	15630.92
579.485	15700.29
579.845	15625.27
580.206	15605.38
580.566	15521.99
580.927	15693.74
581.287	15568.55
581.648	15633.63
582.008	15666.85
582.368	15601.09
582.728	15622.33
583.089	15618.04
583.449	15522.67
583.809	15633.4
584.169	15610.13
584.529	15493.07
584.889	15693.51
585.249	15514.76
585.609	15503.69
585.969	15438.38
586.329	15550.92
586.688	15590.47
587.048	15488.55
587.408	15486.51
587.768	15472.73
588.127	15498.26
588.487	15408.78
588.846	15566.06
589.206	15366.74
589.565	15434.31
589.925	15492.84
590.284	15505.72
590.643	15445.16
591.003	15436.57
591.362	15436.8
591.721	15314.31
592.08	15426.85
592.44	15382.56
592.799	15471.82
593.158	15409
593.517	15425.05
593.876	15460.3
594.235	15372.84
594.593	15298.72
594.952	15338.49
595.311	15264.15
595.67	15312.51
596.029	15418.72
596.387	15315.44
596.746	15359.96
597.104	15357.93
597.463	15293.52
597.822	15335.78
598.18	15315.67
598.538	15231.83
598.897	15300.76
599.255	15233.41
599.613	15392.96
599.972	15373.52
600.33	15326.29
600.688	15362.22
601.046	15346.86
601.404	15392.28
601.762	15292.17
602.12	15506.17
602.478	15405.61
602.836	15362.68
603.194	15266.86
603.552	15317.93
603.91	15251.04
604.268	15380.3
604.625	15249.91
604.983	15306.18
605.341	15176.47
605.698	15353.64
606.056	15333.3
606.413	15260.08
606.771	15298.95
607.128	15438.83
607.485	15398.83
607.843	15376.46
608.2	15456.23
608.557	15407.19
608.914	15462.33
609.272	15524.25
609.629	15435.22
609.986	15586.85
610.343	15406.97
610.7	15547.3
611.057	15502.78
611.414	15479.51
611.771	15490.36
612.127	15484.48
612.484	15509.56
612.841	15531.03
613.198	15509.79
613.554	15584.14
613.911	15647.19
614.267	15611.03
614.624	15557.7
614.98	15624.36
615.337	15710.01
615.693	15675.44
616.05	15664.14
616.406	15727.41
616.762	15600.18
617.118	15642.44
617.475	15649.9
617.831	15731.93
618.187	15780.29
618.543	15696
618.899	15814.41
619.255	15836.79
619.611	15816.67
619.967	15809.67
620.323	15903.68
620.678	15835.21
621.034	15832.49
621.39	15793.17
621.746	15795.88
622.101	15924.69
622.457	15791.14
622.812	15883.34
623.168	15852.83
623.523	15732.38
623.879	15792.27
624.234	15790.69
624.589	15794.3
624.945	15715.89
625.3	15808.77
625.655	15802.89
626.01	15751.59
626.365	15834.3
626.72	15763.57
627.075	15764.25
627.43	15718.15
627.785	15703.46
628.14	15762.89
628.495	15825.26
628.85	15704.81
629.205	15694.87
629.559	15776.9
629.914	15770.12
630.269	15695.32
630.623	15675.89
630.978	15636.79
631.332	15653.06
631.687	15687.64
632.041	15534.42
632.396	15646.74
632.75	15639.96
633.104	15714.98
633.459	15542.33
633.813	15628.2
634.167	15487.42
634.521	15510.24
634.875	15564.48
635.229	15482.67
635.583	15481.77
635.937	15401.32
636.291	15418.49
636.645	15460.07
636.999	15353.18
637.352	15498.04
637.706	15327.42
638.06	15382.79
638.413	15331.04
638.767	15253.98
639.121	15265.95
639.474	15261.21
639.828	15236.58
640.181	15265.28
640.534	15243.36
640.888	15239.74
641.241	15051.5
641.594	15180.31
641.947	15150.7
642.301	15239.97
642.654	15107.54
643.007	15162.91
643.36	15070.03
643.713	15099.41
644.066	15168.1
644.419	15055.56
644.771	15027.32
645.124	14884.72
645.477	14835.68
645.83	14687.89
646.182	14722.69
646.535	14560.44
646.888	14631.39
647.24	14603.83
647.593	14614.22
647.945	14591.62
648.298	14561.34
648.65	14519.99
649.002	14520.44
649.355	14572.64
649.707	14578.74
650.059	14641.56
650.411	14820.54
650.763	14795.23
651.115	14966.08
651.467	14895.57
651.819	14927.43
652.171	14943.48
652.523	14846.53
652.875	14892.41
653.227	14780.09
653.578	14988.22
653.93	14978.05
654.282	14811.96
654.633	14825.97
654.985	14882.46
655.337	14852.18
655.688	14871.61
656.039	14941.67
656.391	14754.78
656.742	14871.84
657.094	14910.48
657.445	14882.91
657.796	14969.24
658.147	14844.72
658.498	14884.72
658.849	14911.84
659.2	14920.43
659.551	14917.04
659.902	14955.23
660.253	14895.79
660.604	14899.41
660.955	14855.12
661.306	14946.41
661.656	14871.84
662.007	14981.67
662.358	14955.68
662.708	14959.52
663.059	14971.5
663.409	14922.69
663.76	15026.64
664.11	14972.18
664.461	15030.93
664.811	15022.12
665.161	15007.43
665.511	14961.78
665.862	14893.99
666.212	14937.15
666.562	14995.91
666.912	14995.68
667.262	14886.76
667.612	15004.49
667.962	15042.68
668.312	14908.68
668.662	14971.27
669.011	15032.06
669.361	14952.52
669.711	14886.53
670.06	14786.42
670.41	14877.49
670.76	14917.49
671.109	14900.54
671.459	14909.81
671.808	14815.8
672.157	14928.34
672.507	14785.29
672.856	14823.25
673.205	14895.12
673.554	14830.71
673.904	14838.85
674.253	14841.56
674.602	14790.26
674.951	14573.09
675.3	14479.76
675.649	14698.51
675.998	14761.56
676.346	14796.36
676.695	14772.86
677.044	14691.28
677.393	14723.6
677.741	14660.77
678.09	14605.41
678.438	14624.16
678.787	14638.63
679.135	14588.46
679.484	14472.08
679.832	14505.3
680.181	14517.95
680.529	14551.4
680.877	14483.6
681.225	14524.73
681.573	14488.57
681.922	14427.56
682.27	14309.14
682.618	14409.71
682.966	14315.47
683.314	14320.22
683.661	14337.84
684.009	14260.78
684.357	14187.11
684.705	14128.36
685.053	14096.04
685.4	14078.42
685.748	14122.71
686.095	13998.87
686.443	13993.45
686.79	13916.39
687.138	14004.52
687.485	13964.52
687.832	13945.09
688.18	13971.07
688.527	13899.89
688.874	13870.51
689.221	13767.91
689.568	13757.97
689.915	13769.27
690.262	13686.79
690.609	13683.85
690.956	13598.2
691.303	13562.27
691.65	13510.29
691.997	13493.35
692.344	13396.17
692.69	13450.41
693.037	13426.91
693.383	13319.79
693.73	13348.04
694.077	13242.73
694.423	13177.87
694.769	13144.43
695.116	13094.49
695.462	12992.12
695.808	12976.52
696.155	13017.65
696.501	12864.89
696.847	12962.74
697.193	12742.86
697.539	12833.25
697.885	12695.17
698.231	12703.99
698.577	12634.61
698.923	12686.14
699.269	12563.43
699.614	12490.21
699.96	12428.06
700.306	12491.79
700.651	12332.47
700.997	12354.17
701.342	12320.04
701.688	12310.55
702.033	12269.65
702.379	12137.45
702.724	12175.19
703.069	12195.98
703.415	12026.27
703.76	12021.07
704.105	12075.98
704.45	11915.08
704.795	11887.74
705.14	11817.68
705.485	11824.01
705.83	11824.92
706.175	11789.89
706.52	11756.67
706.865	11743.56
707.209	11745.14
707.554	11577.24
707.899	11663.79
708.243	11556.45
708.588	11541.76
708.932	11464.7
709.277	11435.55
709.621	11393.74
709.966	11332.27
710.31	11364.59
710.654	11331.37
710.998	11299.73
711.342	11406.85
711.687	11209.56
712.031	11263.12
712.375	11165.95
712.719	11214.99
713.063	11173.86
713.407	11251.37
713.75	11139.06
714.094	11076.91
714.438	11048.44
714.782	11123.46
715.125	11045.27
715.469	11031.94
715.812	11005.28
716.156	10955.56
716.499	10940.19
716.843	10886.41
717.186	10896.8
717.53	10874.88
717.873	10869.01
718.216	10897.93
718.559	10825.62
718.902	10754.89
719.246	10777.03
719.589	10770.03
719.932	10730.71
720.275	10673.31
720.617	10654.55
720.96	10671.95
721.303	10702.23
721.646	10688
721.989	10604.16
722.331	10669.92
722.674	10630.82
723.016	10631.05
723.359	10648.67
723.701	10715.57
724.044	10604.61
724.386	10567.1
724.729	10631.73
725.071	10589.92
725.413	10565.06
725.755	10572.29
726.097	10481.22
726.439	10445.29
726.782	10505.4
727.124	10504.72
727.465	10419.08
727.807	10453.43
728.149	10388.79
728.491	10416.14
728.833	10476.7
729.175	10418.4
729.516	10432.41
729.858	10308.34
730.199	10366.65
730.541	10324.62
730.882	10323.94
731.224	10406.87
731.565	10351.28
731.906	10361.22
732.248	10363.94
732.589	10276.71
732.93	10256.82
733.271	10264.5
733.612	10355.35
733.953	10399.87
734.294	10349.25
734.635	10294.56
734.976	10391.28
735.317	10238.06
735.658	10289.81
735.999	10379.3
736.339	10339.53
736.68	10349.47
737.021	10363.26
737.361	10374.78
737.702	10367.1
738.042	10349.02
738.383	10316.03
738.723	10381.79
739.063	10431.96
739.404	10350.38
739.744	10389.92
740.084	10454.56
740.424	10393.54
740.764	10405.74
741.104	10447.78
741.444	10413.65
741.784	10400.09
742.124	10396.48
742.464	10470.83
742.804	10529.58
743.143	10456.14
743.483	10523.48
743.823	10508.11
744.162	10511.05
744.502	10639.64
744.841	10605.96
745.181	10678.28
745.52	10667.21
745.86	10767.77
746.199	10779.74
746.538	10899.97
746.877	10842.79
747.216	11013.18
747.556	10957.59
747.895	11045.05
748.234	11058.38
748.573	11140.19
748.911	11145.84
749.25	11219.96
749.589	11313.06
749.928	11416.56
750.267	11510.57
750.605	11511.25
750.944	11545.37
751.283	11576.56
751.621	11716.67
751.96	11767.97
752.298	11894.29
752.636	12031.92
752.975	12081.63
753.313	12061.29
753.651	12321.85
753.989	12451.34
754.327	12433.71
754.666	12537.44
755.004	12688.85
755.342	12854.72
755.679	13035.73
756.017	13090.87
756.355	13303.75
756.693	13358.21
757.031	13476.17
757.368	13572.67
757.706	13685.66
758.044	13882.04
758.381	14105.08
758.719	14186.89
759.056	14353.44
759.394	14568.12
759.731	14595.92
760.068	14768.34
760.405	14905.96
760.743	15075.23
761.08	15381.66
761.417	15413.52
761.754	15531.94
762.091	15754.76
762.428	15800.63
762.765	16072.26
763.102	16257.11
763.438	16336.66
763.775	16487.62
764.112	16678.35
764.449	16946.81
764.785	17009.86
765.122	17013.25
765.458	17148.16
765.795	17436.07
766.131	17582.5
766.467	17641.26
766.804	17796.51
767.14	17871.76
767.476	18010.06
767.812	18109.27
768.148	18276.95
768.485	18325.08
768.821	18408.7
769.157	18504.74
769.492	18664.74
769.828	18849.14
770.164	18760.1
770.5	18888.46
770.836	19019.3
771.171	19146.3
771.507	19242.57
771.842	19164.84
772.178	19289.35
772.513	19354.21
772.849	19480.98
773.184	19567.54
773.519	19680.75
773.855	19688.21
774.19	19651.83
774.525	19756.46
774.86	19851.37
775.195	19954.42
775.53	19970.01
775.865	19898.83
776.2	19895.44
776.535	19846.85
776.87	19993.51
777.205	20023.8
777.539	19930.46
777.874	20117.13
778.209	20058.14
778.543	20039.16
778.878	19960.07
779.212	20185.37
779.547	20100.18
779.881	20238.71
780.215	20110.57
780.55	20209.1
780.884	20106.96
781.218	20123.68
781.552	20236.22
781.886	20097.92
782.22	20194.41
782.554	20099.73
782.888	20074.87
783.222	19972.05
783.556	20007.07
783.889	20006.17
784.223	19845.27
784.557	19893.4
784.89	19929.11
785.224	19885.04
785.557	19736.57
785.891	19814.08
786.224	19803.24
786.558	19699.74
786.891	19676.91
787.224	19665.84
787.557	19630.13
787.891	19762.79
788.224	19617.03
788.557	19679.17
788.89	19655.22
789.223	19599.17
789.556	19551.49
789.888	19458.16
790.221	19420.2
790.554	19207.32
790.887	19344.72
791.219	19292.74
791.552	19334.55
791.884	19283.48
792.217	19222.01
792.549	19157.15
792.882	19079.87
793.214	19058.85
793.546	19022.92
793.879	18962.58
794.211	18776.82
794.543	19032.86
794.875	18836.26
795.207	18932.07
795.539	18864.73
795.871	18817.5
796.203	18660.89
796.535	18611.86
796.867	18623.15
797.198	18587.22
797.53	18594.91
797.862	18489.82
798.193	18467.45
798.525	18405.08
798.856	18358.3
799.188	18206.89
799.519	18203.73
799.85	18114.69
800.182	18129.61
800.513	18198.98
800.844	17969.84
801.175	17995.83
801.506	18024.07
801.837	17939.56
802.168	17846.23
802.499	17831.31
802.83	17768.71
803.161	17681.26
803.491	17723.07
803.822	17709.73
804.153	17682.84
804.483	17585.67
804.814	17518.1
805.145	17468.16
805.475	17508.83
805.805	17410.76
806.136	17389.97
806.466	17373.02
806.796	17316.52
807.126	17182.51
807.457	17140.93
807.787	17159.69
808.117	17095.06
808.447	17023.87
808.777	17097.54
809.107	17003.08
809.436	16842.18
809.766	16811.22
810.096	16861.17
810.426	16878.34
810.755	16872.24
811.085	16759.7
811.414	16801.73
811.744	16625.69
812.073	16584.11
812.403	16625.24
812.732	16625.69
813.061	16615.98
813.39	16439.48
813.719	16422.99
814.049	16608.29
814.378	16443.55
814.707	16375.53
815.036	16435.42
815.365	16270.22
815.693	16137.57
816.022	16234.06
816.351	16087.63
816.68	16033.62
817.008	16185.25
817.337	16024.13
817.665	16039.49
817.994	15978.48
818.322	15999.95
818.651	15890.12
818.979	15894.64
819.307	15949.78
819.636	15909.55
819.964	15787.75
820.292	15911.36
820.62	15829.33
820.948	15818.71
821.276	15845.15
821.604	15711.37
821.932	15786.39
822.259	15792.95
822.587	15805.15
822.915	15770.8
823.243	15751.37
823.57	15692.38
823.898	15739.84
824.225	15711.82
824.553	15672.27
824.88	15676.11
825.207	15741.42
825.535	15717.92
825.862	15810.57
826.189	15759.05
826.516	15793.17
826.843	15850.12
827.17	15749.11
827.497	15792.72
827.824	15755.89
828.151	15843.57
828.478	15731.93
828.805	15771.93
829.131	15780.74
829.458	15679.5
829.785	15734.64
830.111	15710.24
830.438	15755.66
830.764	15760.86
831.09	15762.21
831.417	15681.31
831.743	15772.16
832.069	15795.43
832.395	15693.06
832.722	15702.78
833.048	15635.66
833.374	15695.1
833.7	15564.7
834.026	15667.75
834.351	15729.9
834.677	15610.58
835.003	15634.31
835.329	15667.53
835.654	15614.42
835.98	15461.66
836.306	15570.35
836.631	15490.81
836.956	15503.69
837.282	15543.69
837.607	15477.02
837.932	15350.25
838.258	15412.62
838.583	15399.74
838.908	15310.02
839.233	15354.99
839.558	15323.58
839.883	15199.97
840.208	15205.39
840.533	15138.05
840.858	15181.89
841.182	15197.93
841.507	15161.32
841.832	15095.11
842.156	15072.74
842.481	15115.68
842.805	15021.89
843.13	15037.94
843.454	14946.64
843.778	14931.05
844.103	14908.68
844.427	14863.93
844.751	14823.03
845.075	14739.87
845.399	14714.33
845.723	14651.51
846.047	14651.96
846.371	14620.1
846.695	14531.51
847.019	14467.78
847.343	14442.7
847.666	14363.38
847.99	14288.13
848.313	14238.18
848.637	14180.33
848.96	14195.02
849.284	14100.11
849.607	14012.88
849.931	13939.66
850.254	13969.94
850.577	13830.29
850.9	13806.33
851.223	13720.01
851.546	13648.6
851.869	13587.58
852.192	13588.71
852.515	13484.08
852.838	13478.43
853.161	13388.49
853.483	13350.07
853.806	13336.51
854.129	13277.76
854.451	13225.33
854.774	13182.62
855.096	13218.55
855.419	13070.31
855.741	13161.83
856.063	12990.08
856.385	13016.52
856.708	12986.69
857.03	12894.72
857.352	12875.28
857.674	12859.46
857.996	12844.55
858.318	12704.44
858.64	12697.21
858.961	12661.96
859.283	12675.74
859.605	12594.16
859.926	12623.76
860.248	12521.39
860.57	12503.09
860.891	12491.11
861.212	12480.27
861.534	12399.36
861.855	12381.06
862.176	12343.32
862.498	12341.96
862.819	12374.05
863.14	12248.18
863.461	12292.25
863.782	12254.06
864.103	12315.75
864.424	12162.76
864.745	12252.7
865.065	12102.87
865.386	12134.51
865.707	12206.37
866.027	12088.86
866.348	12070.11
866.668	12123.21
866.989	12058.81
867.309	11969.77
867.63	11975.19
867.95	12080.05
868.27	11933.39
868.59	11875.76
868.91	11910.56
869.23	11941.07
869.55	11796.89
869.87	12005.02
870.19	11774.52
870.51	11780.17
870.83	11795.76
871.15	11804.35
871.469	11766.39
871.789	11774.29
872.109	11808.64
872.428	11668.31
872.748	11708.99
873.067	11625.6
873.386	11700.4
873.706	11580.4
874.025	11605.94
874.344	11592.15
874.663	11585.15
874.982	11571.81
875.301	11571.14
875.62	11529.33
875.939	11518.03
876.258	11536.11
876.577	11407.52
876.896	11407.3
877.214	11395.77
877.533	11364.36
877.852	11349.45
878.17	11345.38
878.489	11343.8
878.807	11313.52
879.125	11324.36
879.444	11396
879.762	11245.72
880.08	11325.95
880.398	11182.22
880.716	11211.82
881.034	11208.66
881.352	11180.19
881.67	11026.07
881.988	11083.01
882.306	11025.61
882.624	11027.42
882.941	10974.77
883.259	10955.11
883.577	10945.62
883.894	10987.42
884.212	10958.72
884.529	10972.73
884.846	10925.05
885.164	10856.58
885.481	10789.24
885.798	10806.41
886.115	10706.07
886.432	10705.62
886.75	10702.68
887.067	10681.22
887.383	10702.23
887.7	10702.23
888.017	10611.16
888.334	10645.51
888.651	10587.89
888.967	10553.54
889.284	10470.83
889.6	10500.66
889.917	10399.64
890.233	10425.63
890.55	10340.66
890.866	10365.52
891.182	10319.42
891.498	10291.4
891.815	10216.82
892.131	10207.33
892.447	10153.09
892.763	10159.65
893.079	10137.73
893.395	10058.63
893.71	10088.69
894.026	10040.1
894.342	10045.3
894.657	10008.47
894.973	9914.46
895.289	9911.07
895.604	9838.98
895.92	9837.4
896.235	9785.87
896.55	9778.42
896.865	9800.34
897.181	9684.86
897.496	9708.36
897.811	9648.48
898.126	9621.13
898.441	9603.05
898.756	9588.59
899.071	9548.36
899.386	9525.77
899.7	9425.2
900.015	9387.47
900.33	9381.14
900.644	9340.46
900.959	9328.26
901.273	9272.89
901.588	9248.49
901.902	9225.66
902.216	9173.23
902.531	9185.89
902.845	9057.76
903.159	9007.81
903.473	8999.68
903.787	9053.46
904.101	8982.73
904.415	8941.83
904.729	8873.13
905.042	8860.93
905.356	8825.67
905.67	8794.71
905.984	8831.1
906.297	8732.12
906.611	8660.03
906.924	8717.2
907.237	8652.57
907.551	8638.33
907.864	8606.02
908.177	8608.05
908.491	8536.64
908.804	8410.77
909.117	8407.38
909.43	8342.29
909.743	8372.12
910.056	8276.08
910.368	8328.06
910.681	8254.16
910.994	8264.56
911.307	8203.77
911.619	8157.21
911.932	8164.67
912.244	8099.82
912.557	8100.04
912.869	7994.96
913.181	8016.2
913.494	7951.12
913.806	7865.25
914.118	7919.48
914.43	7891.91
914.742	7847.62
915.054	7782.31
915.366	7699.37
915.678	7733.72
915.99	7683.56
916.302	7561.52
916.613	7650.79
916.925	7652.6
917.236	7562.65
917.548	7542.54
917.859	7522.43
918.171	7475.2
918.482	7484.46
918.794	7369.89
919.105	7392.49
919.416	7331.7
919.727	7367.86
920.038	7306.16
920.349	7248.09
920.66	7248.31
920.971	7284.02
921.282	7273.62
921.593	7152.04
921.903	7069.11
922.214	7100.52
922.525	7042.67
922.835	7011.26
923.146	6972.16
923.456	6971.94
923.767	6962.9
924.077	6924.48
924.387	6921.32
924.697	6843.8
925.008	6809.23
925.318	6783.01
925.628	6817.36
925.938	6673.41
926.248	6729.46
926.558	6625.28
926.867	6636.8
927.177	6632.74
927.487	6576.01
927.796	6508.9
928.106	6526.3
928.416	6492.63
928.725	6540.31
929.034	6444.72
929.344	6446.07
929.653	6469.12
929.962	6399.97
930.271	6300.77
930.581	6304.16
930.89	6322.01
931.199	6270.71
931.508	6251.05
931.817	6183.93
932.125	6247.21
932.434	6213.09
932.743	6129.47
933.051	6140.77
933.36	6060.55
933.669	6084.5
933.977	5999.98
934.286	6020.77
934.594	5993.66
934.902	5976.26
935.21	5941.45
935.519	5920.21
935.827	5867.78
936.135	5871.17
936.443	5825.3
936.751	5798.41
937.059	5798.18
937.367	5777.16
937.674	5764.74
937.982	5716.83
938.29	5693.78
938.597	5690.16
938.905	5604.97
939.213	5554.8
939.52	5608.36
939.827	5540.56
940.135	5603.38
940.442	5544.63
940.749	5517.51
941.056	5540.79
941.363	5414.69
941.67	5441.13
941.977	5415.82
942.284	5340.34
942.591	5358.64
942.898	5335.82
943.205	5282.71
943.511	5288.82
943.818	5258.08
944.125	5216.5
944.431	5234.58
944.738	5195.48
945.044	5182.6
945.35	5133.11
945.657	5147.35
945.963	5133.34
946.269	5090.18
946.575	5044.3
946.881	5046.56
947.187	4993.46
947.493	5021.93
947.799	5007.24
948.105	5013.57
948.41	4925.21
948.716	4971.99
949.022	4965.66
949.327	4919.11
949.633	4848.38
949.938	4805.66
950.244	4868.04
950.549	4765.67
950.854	4754.59
951.16	4776.06
951.465	4754.14
951.77	4710.07
952.075	4667.36
952.38	4656.97
952.685	4655.39
952.99	4618.32
953.294	4620.13
953.599	4583.98
953.904	4608.83
954.209	4498.78
954.513	4542.39
954.818	4492.45
955.122	4521.6
955.426	4478.67
955.731	4488.16
956.035	4402.51
956.339	4388.95
956.643	4406.35
956.948	4384.21
957.252	4388.73
957.556	4334.04
957.86	4301.72
958.163	4261.95
958.467	4322.51
958.771	4263.31
959.075	4226.92
959.378	4260.37
959.682	4214.04
959.985	4159.35
960.289	4186.25
960.592	4205.68
960.896	4159.35
961.199	4103.08
961.502	4116.42
961.805	4082.07
962.108	4084.1
962.411	4081.62
962.714	4027.83
963.017	4013.37
963.32	4009.08
963.623	3950.09
963.926	3977.66
964.228	3901.96
964.531	3932.92
964.833	3902.19
965.136	3892.69
965.438	3886.59
965.741	3875.52
966.043	3878.68
966.345	3791.23
966.648	3827.16
966.95	3812.92
967.252	3756.65
967.554	3779.48
967.856	3750.55
968.158	3741.74
968.46	3746.48
968.761	3696.77
969.063	3694.96
969.365	3641.18
969.666	3665.36
969.968	3603.44
970.269	3613.61
970.571	3563.89
970.872	3594.62
971.174	3553.04
971.475	3532.7
971.776	3533.38
972.077	3524.34
972.378	3513.72
972.679	3500.16
972.98	3507.85
973.281	3455.87
973.582	3466.04
973.883	3386.49
974.183	3422.65
974.484	3416.1
974.785	3386.27
975.085	3408.87
975.386	3381.75
975.686	3339.04
975.986	3367.74
976.287	3322.31
976.587	3281.64
976.887	3305.37
977.187	3297.91
977.487	3272.6
977.787	3213.62
978.087	3241.64
978.387	3215.65
978.687	3219.27
978.987	3209.1
979.286	3143.34
979.586	3174.07
979.885	3134.52
980.185	3138.36
980.484	3104.92
980.784	3096.33
981.083	3073.28
981.382	3081.87
981.682	3081.87
981.981	3084.35
982.28	3024.92
982.579	3017.46
982.878	3034.41
983.177	2962.32
983.475	2971.81
983.774	2975.43
984.073	2953.28
984.372	2941.98
984.67	2935.88
984.969	2911.25
985.267	2921.87
985.566	2931.59
985.864	2869.22
986.162	2852.5
986.461	2847.52
986.759	2813.17
987.057	2824.02
987.355	2793.51
987.653	2773.4
987.951	2753.06
988.249	2786.96
988.547	2772.72
988.844	2727.75
989.142	2742.89
989.44	2713.97
989.737	2715.32
990.035	2692.05
990.332	2670.13
990.63	2648.66
990.927	2646.85
991.224	2625.38
991.521	2632.84
991.819	2622.67
992.116	2620.41
992.413	2570.92
992.71	2579.28
993.006	2559.62
993.303	2551.03
993.6	2551.94
993.897	2539.06
994.193	2508.55
994.49	2476.46
994.787	2503.35
995.083	2490.25
995.379	2445.27
995.676	2464.48
995.972	2466.07
996.268	2452.28
996.565	2389.46
996.861	2410.47
997.157	2379.97
997.453	2394.2
997.749	2375.67
998.044	2341.32
998.34	2330.7
998.636	2334.54
998.932	2317.37
999.227	2335
999.523	2334.32
999.818	2265.39
1000.114	2267.43
1000.409	2285.05
1000.704	2266.75
1001	2228.78
1001.295	2205.73
1001.59	2237.14
1001.885	2226.52
1002.18	2167.32
1002.475	2182
1002.77	2173.87
1003.065	2158.28
1003.359	2130.25
1003.654	2162.34
1003.949	2132.74
1004.243	2112.63
1004.538	2092.52
1004.832	2080.31
1005.127	2107.2
1005.421	2057.49
1005.715	2030.6
1006.009	2083.48
1006.304	2031.27
1006.598	2048.67
1006.892	2010.94
1007.186	1978.39
1007.48	2000.31
1007.773	1978.17
1008.067	1981.33
1008.361	1972.07
1008.655	1925.51
1008.948	1944.5
1009.242	1901.79
1009.535	1901.11
1009.829	1893.2
1010.122	1905.85
1010.415	1876.93
1010.708	1859.08
1011.001	1844.39
1011.295	1801.22
1011.588	1824.73
1011.881	1798.74
1012.173	1804.84
1012.466	1805.52
1012.759	1793.09
1013.052	1801.68
1013.344	1759.42
1013.637	1779.98
1013.93	1743.37
1014.222	1744.95
1014.514	1712.86
1014.807	1725.52
1015.099	1720.1
1015.391	1693.43
1015.683	1688.46
1015.976	1675.13
1016.268	1659.98
1016.56	1647.1
1016.851	1646.43
1017.143	1654.56
1017.435	1639.42
1017.727	1620.66
1018.018	1626.31
1018.31	1570.27
1018.602	1583.38
1018.893	1584.51
1019.185	1539.31
1019.476	1553.55
1019.767	1524.17
1020.058	1540.44
1020.35	1510.61
1020.641	1472.64
1020.932	1489.59
1021.223	1502.7
1021.514	1488.46
1021.804	1457.73
1022.095	1446.88
1022.386	1454.79
1022.677	1438.3
1022.967	1448.46
1023.258	1437.62
1023.548	1412.08
1023.839	1407.56
1024.129	1427
1024.419	1391.07
1024.709	1375.02
1025	1355.36
1025.29	1360.33
1025.58	1360.33
1025.87	1342.93
1026.16	1318.3
1026.449	1329.6
1026.739	1343.38
1027.029	1314
1027.319	1309.26
1027.608	1278.53
1027.898	1276.49
1028.187	1241.46
1028.477	1259.54
1028.766	1243.72
1029.055	1220.9
1029.344	1244.18
1029.634	1237.62
1029.923	1255.25
1030.212	1227.91
1030.501	1200.34
1030.79	1224.29
1031.078	1195.14
1031.367	1204.86
1031.656	1199.66
1031.945	1180
1032.233	1184.06
1032.522	1169.83
1032.81	1139.09
1033.099	1135.93
1033.387	1119.43
1033.675	1111.98
1033.963	1123.5
1034.251	1135.93
1034.54	1111.52
1034.828	1098.42
1035.116	1069.27
1035.403	1079.66
1035.691	1077.63
1035.979	1084.63
1036.267	1056.84
1036.554	1056.38
1036.842	1061.58
1037.129	1039.44
1037.417	1034.92
1037.704	1031.98
1037.992	1017.74
1038.279	1010.51
1038.566	1010.74
1038.853	1010.74
1039.14	1010.74
