Data from hue_200_FLMS001491_00053.txt Node
Date: Tue Feb 07 16:43:37 GMT 2017
User: dcchb
Spectrometer: FLMS00149
Trigger mode: 0
Integration Time (sec): 2.000000E-2
Scans to average: 10
Electric dark correction enabled: true
Nonlinearity correction enabled: false
Boxcar width: 0
XAxis mode: Wavelengths
Number of Pixels in Spectrum: 2048
>>>>>Begin Spectral Data<<<<<
341.393	-3.95
341.776	-3.95
342.16	-3.95
342.543	-44.18
342.927	-60.45
343.31	-81.24
343.693	-66.1
344.077	-61.81
344.46	-80.56
344.843	-32.43
345.226	-42.15
345.61	-55.93
345.993	-34.01
346.376	-5.08
346.759	11.19
347.142	37.85
347.525	41.47
347.908	75.82
348.291	69.04
348.674	109.49
349.057	114.46
349.44	118.53
349.823	140.45
350.206	153.56
350.588	207.11
350.971	209.37
351.354	216.38
351.737	227.45
352.119	240.33
352.502	257.28
352.884	246.21
353.267	292.76
353.65	292.76
354.032	297.28
354.414	290.5
354.797	312.87
355.179	305.42
355.562	329.6
355.944	330.5
356.326	328.24
356.709	343.15
357.091	338.86
357.473	338.86
357.855	336.15
358.238	342.93
358.62	332.99
359.002	317.84
359.384	327.11
359.766	346.32
360.148	324.62
360.53	322.59
360.912	343.38
361.294	316.71
361.676	322.82
362.057	343.38
362.439	329.6
362.821	339.09
363.203	334.34
363.584	320.56
363.966	328.47
364.348	319.65
364.729	328.01
365.111	308.35
365.493	319.43
365.874	295.47
366.256	309.48
366.637	314.23
367.019	307.9
367.4	323.95
367.781	309.71
368.163	293.66
368.544	323.72
368.925	300.67
369.306	296.38
369.688	315.36
370.069	299.54
370.45	299.77
370.831	309.48
371.212	318.3
371.593	307.9
371.974	324.17
372.355	275.13
372.736	323.04
373.117	311.29
373.498	334.79
373.879	320.78
374.26	314.23
374.641	306.77
375.021	332.53
375.402	322.59
375.783	308.81
376.163	325.53
376.544	341.57
376.925	324.85
377.305	333.66
377.686	333.21
378.066	323.95
378.447	335.25
378.827	328.47
379.208	325.53
379.588	314
379.968	339.99
380.349	314.46
380.729	331.63
381.109	333.89
381.489	329.82
381.87	334.12
382.25	321.46
382.63	317.62
383.01	312.42
383.39	319.2
383.77	339.31
384.15	355.58
384.53	348.35
384.91	339.54
385.29	334.34
385.67	362.14
386.049	343.38
386.429	334.57
386.809	336.15
387.189	353.32
387.568	377.28
387.948	363.95
388.328	371.85
388.707	357.39
389.087	374.34
389.466	344.74
389.846	350.84
390.225	351.97
390.605	370.05
390.984	366.66
391.363	349.48
391.743	372.53
392.122	377.05
392.501	382.7
392.881	376.37
393.26	377.73
393.639	377.05
394.018	373.66
394.397	358.3
394.776	370.5
395.155	378.18
395.534	388.35
395.913	379.54
396.292	413.44
396.671	396.94
397.05	417.73
397.429	391.52
397.808	382.02
398.186	402.14
398.565	428.35
398.944	405.07
399.323	387
399.701	402.59
400.08	416.15
400.458	408.69
400.837	431.97
401.215	428.8
401.594	417.96
401.972	418.86
402.351	417.73
402.729	445.3
403.107	422.93
403.486	456.15
403.864	427.45
404.242	430.84
404.62	457.5
404.999	446.2
405.377	455.02
405.755	456.37
406.133	454.79
406.511	478.07
406.889	458.63
407.267	470.16
407.645	508.35
408.023	485.07
408.401	510.16
408.779	498.63
409.156	500.89
409.534	514
409.912	507.44
410.29	542.47
410.667	543.6
411.045	548.12
411.422	550.16
411.8	558.74
412.178	572.53
412.555	544.96
412.933	589.02
413.31	600.55
413.687	610.04
414.065	604.16
414.442	622.47
414.819	621.57
415.197	630.15
415.574	659.53
415.951	659.98
416.328	671.96
416.705	648.46
417.082	683.26
417.46	710.6
417.837	699.98
418.214	722.13
418.591	710.6
418.967	718.51
419.344	736.82
419.721	759.87
420.098	754.67
420.475	800.54
420.852	784.95
421.228	787.89
421.605	820.43
421.982	815.01
422.358	867.66
422.735	850.03
423.111	845.51
423.488	860.88
423.864	910.37
424.241	888.68
424.617	920.99
424.994	918.73
425.37	955.34
425.746	943.59
426.123	975
426.499	990.37
426.875	997.6
427.251	1027.43
427.627	1027.2
428.003	1044.61
428.379	1059.97
428.756	1078.5
429.132	1069.69
429.507	1095.45
429.883	1126.41
430.259	1106.75
430.635	1154.66
431.011	1152.85
431.387	1192.62
431.763	1181.55
432.138	1192.17
432.514	1220.65
432.89	1245.73
433.265	1271.72
433.641	1277.59
434.016	1317.59
434.392	1315.11
434.767	1368.44
435.143	1370.7
435.518	1400.75
435.894	1417.25
436.269	1451.83
436.644	1462.22
437.02	1506.29
437.395	1506.29
437.77	1529.79
438.145	1617.25
438.52	1629.45
438.895	1631.26
439.271	1648.66
439.646	1690.92
440.021	1709.22
440.395	1733.85
440.77	1746.06
441.145	1756.45
441.52	1818.37
441.895	1820.18
442.27	1882.1
442.645	1832.38
443.019	1877.58
443.394	1899.5
443.769	1895.88
444.143	1929.55
444.518	1972.72
444.892	1977.91
445.267	1982.89
445.641	2031.47
446.016	1983.56
446.39	2068.53
446.764	2092.94
447.139	2075.31
447.513	2089.32
447.887	2127.51
448.262	2138.14
448.636	2111.92
449.01	2169.55
449.384	2232.6
449.758	2198.47
450.132	2245.03
450.506	2228.3
450.88	2301.97
451.254	2275.76
451.628	2298.13
452.002	2335.19
452.376	2339.49
452.75	2361.63
453.123	2422.87
453.497	2408.19
453.871	2428.52
454.244	2511.01
454.618	2505.58
454.992	2511.23
455.365	2538.8
455.739	2629.2
456.112	2628.52
456.486	2655.41
456.859	2664
457.232	2746.26
457.606	2719.14
457.979	2735.63
458.352	2814.5
458.725	2853.6
459.099	2883.65
459.472	2900.38
459.845	2936.31
460.218	2955.74
460.591	3009.3
460.964	3036.64
461.337	3059.92
461.71	3084.33
462.083	3143.08
462.456	3153.02
462.829	3202.06
463.201	3236.19
463.574	3258.56
463.947	3300.59
464.32	3391.89
464.692	3411.1
465.065	3405.22
465.438	3450.19
465.81	3519.12
466.183	3528.83
466.555	3648.83
466.928	3647.7
467.3	3657.19
467.672	3696.29
468.045	3772.67
468.417	3814.93
468.789	3884.3
469.161	3891.99
469.534	3927.02
469.906	3998.2
470.278	4020.57
470.65	4075.03
471.022	4156.61
471.394	4245.43
471.766	4253.79
472.138	4317.74
472.51	4366.78
472.882	4401.58
473.253	4483.38
473.625	4566.32
473.997	4622.36
474.369	4653.32
474.74	4722.02
475.112	4779.87
475.484	4859.65
475.855	4978.51
476.227	4969.25
476.598	5077.95
476.97	5138.51
477.341	5248.79
477.713	5294.89
478.084	5295.79
478.455	5492.17
478.827	5526.97
479.198	5602.9
479.569	5652.62
479.94	5781.43
480.311	5814.88
480.682	5937.81
481.053	6013.51
481.424	6142.55
481.795	6145.26
482.166	6288.54
482.537	6353.84
482.908	6487.85
483.279	6575.99
483.65	6625.25
484.021	6759.94
484.391	6841.06
484.762	6863.21
485.133	6966.26
485.503	7010.32
485.874	7162.41
486.244	7225.69
486.615	7274.27
486.985	7385
487.356	7477.66
487.726	7511.78
488.097	7702.06
488.467	7665
488.837	7850.3
489.207	7861.38
489.578	8046
489.948	8079.9
490.318	8196.28
490.688	8243.29
491.058	8340.23
491.428	8394.92
491.798	8466.56
492.168	8667
492.538	8649.15
492.908	8702.94
493.278	8858.41
493.648	8766.66
494.017	8959.88
494.387	9005.07
494.757	9035.36
495.126	9088.46
495.496	9126.43
495.866	9202.81
496.235	9256.14
496.605	9331.17
496.974	9363.93
497.344	9448.68
497.713	9462.92
498.082	9512.18
498.452	9556.92
498.821	9611.39
499.19	9572.29
499.559	9662.91
499.928	9707.88
500.298	9757.6
500.667	9797.14
501.036	9839.85
501.405	9886.18
501.774	9810.48
502.143	9892.96
502.512	9925.95
502.88	10047.53
503.249	10044.37
503.618	9984.26
503.987	10067.42
504.356	10107.87
504.724	10111.49
505.093	10141.09
505.462	10214.99
505.83	10223.8
506.199	10288.2
506.567	10361.65
506.936	10352.61
507.304	10389.44
507.672	10428.99
508.041	10459.27
508.409	10431.03
508.777	10514.64
509.145	10539.95
509.514	10540.17
509.882	10590.34
510.25	10526.62
510.618	10621.3
510.986	10656.78
511.354	10667.86
511.722	10764.12
512.09	10788.53
512.458	10708.76
512.826	10732.26
513.193	10732.49
513.561	10770.9
513.929	10792.82
514.297	10848.87
514.664	10862.43
515.032	10858.58
515.4	10874.4
515.767	10930.45
516.135	10944.01
516.502	10792.15
516.869	11000.28
517.237	10949.2
517.604	10934.74
517.972	11009.32
518.339	10984
518.706	10984
519.073	10998.24
519.44	10966.83
519.808	11061.52
520.175	11028.3
520.542	11042.31
520.909	11092.93
521.276	11117.56
521.643	11076.66
522.009	11112.59
522.376	11149.88
522.743	11097.45
523.11	11181.51
523.477	11233.04
523.843	11200.5
524.21	11266.71
524.577	11263.09
524.943	11288.18
525.31	11275.07
525.676	11263.32
526.043	11286.6
526.409	11296.99
526.776	11315.52
527.142	11211.8
527.508	11305.58
527.874	11274.62
528.241	11293.6
528.607	11243.66
528.973	11322.08
529.339	11317.1
529.705	11317.33
530.071	11250.66
530.437	11285.01
530.803	11265.35
531.169	11285.47
531.535	11175.86
531.901	11178.58
532.267	11208.18
532.632	11208.18
532.998	11245.47
533.364	11188.75
533.73	11117.79
534.095	11153.04
534.461	11166.15
534.826	11072.59
535.192	11049.54
535.557	11130.22
535.923	10988.52
536.288	10984.23
536.653	10982.42
537.019	10867.17
537.384	10857.68
537.749	10882.09
538.114	10779.94
538.479	10825.59
538.845	10756.89
539.21	10702.66
539.575	10690.23
539.94	10597.8
540.305	10592.38
540.67	10581.3
541.034	10511.48
541.399	10544.92
541.764	10440.52
542.129	10450.69
542.494	10414.75
542.858	10392.61
543.223	10316.23
543.587	10339.95
543.952	10266.96
544.316	10218.83
544.681	10109.68
545.045	10166.85
545.41	10111.94
545.774	10091.15
546.138	10011.15
546.503	9963.69
546.867	9932.06
547.231	9963.24
547.595	9895.22
547.959	9824.49
548.324	9833.07
548.688	9773.87
549.052	9750.82
549.416	9721.89
549.779	9656.58
550.143	9610.48
550.507	9622.01
550.871	9584.04
551.235	9550.82
551.599	9491.61
551.962	9529.35
552.326	9474.89
552.689	9440.99
553.053	9366.42
553.417	9304.05
553.78	9397.83
554.143	9301.34
554.507	9280.32
554.87	9216.14
555.234	9299.3
555.597	9242.58
555.96	9269.93
556.323	9167.78
556.686	9083.94
557.05	9145.18
557.413	9081.91
557.776	9114.22
558.139	9065.41
558.502	9107.22
558.865	9008.46
559.228	9017.73
559.59	9050.5
559.953	8909.26
560.316	9046.2
560.679	9017.28
561.041	9018.41
561.404	9036.26
561.767	9007.56
562.129	8975.24
562.492	8992.64
562.854	8996.94
563.217	8868.35
563.579	8907.22
563.941	8962.59
564.304	8977.05
564.666	8986.54
565.028	8991.51
565.39	8930.05
565.753	8893.44
566.115	8917.17
566.477	8964.4
566.839	8933.21
567.201	8968.69
567.563	8929.37
567.925	8969.14
568.287	8939.09
568.648	8975.47
569.01	9004.85
569.372	9056.15
569.734	8950.16
570.095	8986.32
570.457	9005.3
570.819	8977.73
571.18	8970.05
571.542	9010.5
571.903	8999.65
572.265	9012.98
572.626	9070.38
572.987	9080.1
573.349	9048.01
573.71	9073.77
574.071	9018.41
574.432	9027.67
574.794	9043.49
575.155	9020.44
575.516	9037.84
575.877	9072.64
576.238	9143.15
576.599	9077.84
576.96	9063.38
577.32	9045.75
577.681	9083.72
578.042	9062.02
578.403	9072.19
578.763	9038.07
579.124	9074.68
579.485	9098.4
579.845	9130.04
580.206	9089.14
580.566	9086.65
580.927	9094.56
581.287	9119.65
581.648	9121
582.008	9122.36
582.368	9065.64
582.728	9059.76
583.089	9026.54
583.449	9027.45
583.809	9060.44
584.169	9026.54
584.529	9063.15
584.889	9050.04
585.249	9053.66
585.609	9059.76
585.969	9099.53
586.329	8993.55
586.688	8977.5
587.048	8987.9
587.408	8937.28
587.768	8991.74
588.127	8962.59
588.487	8899.77
588.846	9107.9
589.206	8991.74
589.565	8965.3
589.925	8958.3
590.284	8962.36
590.643	9011.63
591.003	8916.04
591.362	9054.56
591.721	9028.8
592.08	8981.57
592.44	8947.67
592.799	8991.97
593.158	8926.88
593.517	8920.78
593.876	8944.74
594.235	8864.51
594.593	8945.41
594.952	8937.73
595.311	8871.07
595.67	8953.78
596.029	8942.7
596.387	8950.39
596.746	8909.71
597.104	8864.74
597.463	8925.98
597.822	8885.76
598.18	8836.49
598.538	8857.06
598.897	8909.03
599.255	8832.42
599.613	8922.82
599.972	8822.93
600.33	8864.29
600.688	8877.85
601.046	8878.98
601.404	8926.66
601.762	8836.72
602.12	8917.39
602.478	8930.73
602.836	8864.29
603.194	8834.91
603.552	8861.12
603.91	8852.76
604.268	8829.03
604.625	8864.29
604.983	8884.63
605.341	8784.06
605.698	8868.13
606.056	8896.38
606.413	8869.26
606.771	8828.13
607.128	8891.18
607.485	8861.57
607.843	8881.91
608.2	8898.64
608.557	8961.01
608.914	8849.15
609.272	8911.97
609.629	8911.07
609.986	8955.36
610.343	8886.66
610.7	8935.02
611.057	8948.35
611.414	8873.1
611.771	8953.78
612.127	8947.67
612.484	8952.65
612.841	8968.24
613.198	9002.59
613.554	9006.2
613.911	8983.83
614.267	8945.64
614.624	8947.9
614.98	8970.95
615.337	8945.87
615.693	8995.58
616.05	8976.37
616.406	8986.54
616.762	8984.06
617.118	8996.26
617.475	9010.72
617.831	9056.6
618.187	9015.47
618.543	9022.25
618.899	9135.47
619.255	9038.52
619.611	9065.86
619.967	9042.81
620.323	9053.43
620.678	9108.12
621.034	9053.21
621.39	8999.88
621.746	9069.48
622.101	9118.97
622.457	9071.96
622.812	9018.86
623.168	9114.22
623.523	9036.03
623.879	9158.74
624.234	9019.99
624.589	9110.16
624.945	9051.63
625.3	9044.62
625.655	9056.37
626.01	9111.51
626.365	9003.04
626.72	9028.8
627.075	9053.89
627.43	9039.65
627.785	9010.95
628.14	9068.8
628.495	9041.01
628.85	9013.66
629.205	8981.35
629.559	8995.81
629.914	8933.89
630.269	8998.52
630.623	8935.92
630.978	8963.27
631.332	8947
631.687	8996.26
632.041	8947.45
632.396	8919.65
632.75	8884.85
633.104	8974.57
633.459	8902.03
633.813	8836.26
634.167	8869.03
634.521	8832.88
634.875	8845.76
635.229	8834.23
635.583	8864.74
635.937	8817.96
636.291	8823.84
636.645	8839.2
636.999	8730.5
637.352	8831.97
637.706	8751.75
638.06	8829.71
638.413	8797.85
638.767	8765.98
639.121	8749.71
639.474	8738.64
639.828	8726.66
640.181	8726.89
640.534	8733.67
640.888	8700.9
641.241	8682.37
641.594	8702.94
641.947	8714.23
642.301	8693.67
642.654	8657.06
643.007	8701.35
643.36	8666.33
643.713	8623.84
644.066	8635.37
644.419	8575.48
644.771	8547.01
645.124	8501.58
645.477	8497.29
645.83	8439.89
646.182	8405.99
646.535	8357.63
646.888	8392.21
647.24	8304.08
647.593	8314.02
647.945	8254.59
648.298	8337.52
648.65	8296.39
649.002	8349.05
649.355	8317.18
649.707	8265.88
650.059	8361.93
650.411	8453
650.763	8474.24
651.115	8523.05
651.467	8485.54
651.819	8543.62
652.171	8518.76
652.523	8499.78
652.875	8467.23
653.227	8494.8
653.578	8489.38
653.93	8520.79
654.282	8442.83
654.633	8457.97
654.985	8503.62
655.337	8494.13
655.688	8462.94
656.039	8568.02
656.391	8450.51
656.742	8494.35
657.094	8515.6
657.445	8509.95
657.796	8483.28
658.147	8458.42
658.498	8537.29
658.849	8514.01
659.2	8488.48
659.551	8461.59
659.902	8531.19
660.253	8547.46
660.604	8605.54
660.955	8534.58
661.306	8515.6
661.656	8484.64
662.007	8537.74
662.358	8518.99
662.708	8525.99
663.059	8565.99
663.409	8467.69
663.76	8604.86
664.11	8525.76
664.461	8509.95
664.811	8560.79
665.161	8565.54
665.511	8551.07
665.862	8517.18
666.212	8557.85
666.562	8590.17
666.912	8538.87
667.262	8524.41
667.612	8571.64
667.962	8515.37
668.312	8561.47
668.662	8544.3
669.011	8498.65
669.361	8565.99
669.711	8525.54
670.06	8517.18
670.41	8544.3
670.76	8431.3
671.109	8509.95
671.459	8555.14
671.808	8418.87
672.157	8521.24
672.507	8447.57
672.856	8426.11
673.205	8489.38
673.554	8469.27
673.904	8461.81
674.253	8532.54
674.602	8419.33
674.951	8339.33
675.3	8271.99
675.649	8446.9
675.998	8410.29
676.346	8354.47
676.695	8439.21
677.044	8380.46
677.393	8389.72
677.741	8362.83
678.09	8403.51
678.438	8358.99
678.787	8399.44
679.135	8356.5
679.484	8266.34
679.832	8311.76
680.181	8233.12
680.529	8254.81
680.877	8231.53
681.225	8234.92
681.573	8298.65
681.922	8218.43
682.27	8160.58
682.618	8224.08
682.966	8137.53
683.314	8173.91
683.661	8139.56
684.009	8107.24
684.357	8084.87
684.705	8137.75
685.053	8098.43
685.4	8123.29
685.748	8092.56
686.095	7963.29
686.443	8069.51
686.79	7984.08
687.138	7991.32
687.485	8012.11
687.832	7984.99
688.18	7913.35
688.527	7899.34
688.874	7860.7
689.221	7830.42
689.568	7815.5
689.915	7761.94
690.262	7849.4
690.609	7756.75
690.956	7726.24
691.303	7721.49
691.65	7681.27
691.997	7720.14
692.344	7662.28
692.69	7643.98
693.037	7575.06
693.383	7512.23
693.73	7562.4
694.077	7489.18
694.423	7514.49
694.769	7431.78
695.116	7413.7
695.462	7401.95
695.808	7356.53
696.155	7334.38
696.501	7339.58
696.847	7351.11
697.193	7255.74
697.539	7293.71
697.885	7281.28
698.231	7245.57
698.577	7150.21
698.923	7179.13
699.269	7113.15
699.614	7059.59
699.96	7031.79
700.306	7071.79
700.651	6993.38
700.997	6998.35
701.342	7015.3
701.688	7021.85
702.033	6897.56
702.379	6941.4
702.724	6915.19
703.069	6937.33
703.415	6834.51
703.76	6801.97
704.105	6844.68
704.45	6827.96
704.795	6779.6
705.14	6740.5
705.485	6708.41
705.83	6629.77
706.175	6646.94
706.52	6682.88
706.865	6646.72
707.209	6656.44
707.554	6652.14
707.899	6603.1
708.243	6534.4
708.588	6508.87
708.932	6543.22
709.277	6523.78
709.621	6534.63
709.966	6468.42
710.31	6437.01
710.654	6367.4
710.998	6419.15
711.342	6413.73
711.687	6394.52
712.031	6362.66
712.375	6338.7
712.719	6306.61
713.063	6363.56
713.407	6340.51
713.75	6299.61
714.094	6383.9
714.438	6273.17
714.782	6318.59
715.125	6269.33
715.469	6263.23
715.812	6187.07
716.156	6211.48
716.499	6164.7
716.843	6192.72
717.186	6216.9
717.53	6233.4
717.873	6202.44
718.216	6184.36
718.559	6152.27
718.902	6187.75
719.246	6136.45
719.589	6097.58
719.932	6105.26
720.275	6070.69
720.617	6073.17
720.96	6085.83
721.303	6044.93
721.646	6093.06
721.989	6065.49
722.331	6101.2
722.674	6039.95
723.016	6096.68
723.359	6022.55
723.701	6065.94
724.044	6027.98
724.386	5959.96
724.729	6003.57
725.071	5966.51
725.413	6014.19
725.755	5962.44
726.097	5969.9
726.439	5970.35
726.782	5967.41
727.124	6031.14
727.465	5963.12
727.807	5980.75
728.149	5947.98
728.491	5921.31
728.833	6003.57
729.175	5929
729.516	5943.01
729.858	5923.35
730.199	5919.73
730.541	5911.82
730.882	5989.11
731.224	6012.84
731.565	5953.85
731.906	5941.88
732.248	5967.41
732.589	5947.98
732.93	5940.75
733.271	5946.62
733.612	5958.6
733.953	5953.85
734.294	6014.42
734.635	5974.87
734.976	5913.18
735.317	5981.65
735.658	5909.11
735.999	5972.16
736.339	5934.65
736.68	5949.34
737.021	5950.69
737.361	5922.44
737.702	5981.2
738.042	5950.69
738.383	5994.76
738.723	6012.61
739.063	5966.96
739.404	6001.99
739.744	6001.99
740.084	5973.74
740.424	6018.26
740.764	6082.66
741.104	6086.96
741.444	6070.91
741.784	6095.77
742.124	6054.19
742.464	6086.73
742.804	6142.1
743.143	6162.89
743.483	6117.24
743.823	6091.25
744.162	6196.56
744.502	6198.14
744.841	6247.18
745.181	6236.11
745.52	6254.86
745.86	6311.36
746.199	6338.25
746.538	6338.48
746.877	6453.73
747.216	6432.71
747.556	6474.52
747.895	6512.94
748.234	6546.16
748.573	6593.61
748.911	6623.89
749.25	6702.31
749.589	6751.35
749.928	6789.99
750.267	6884.23
750.605	6984.11
750.944	6974.17
751.283	7058.23
751.621	7131
751.96	7226.14
752.298	7307.49
752.636	7366.47
752.975	7460.03
753.313	7576.86
753.651	7647.82
753.989	7776.63
754.327	7787.93
754.666	7931.2
755.004	8092.1
755.342	8180.24
755.679	8330.29
756.017	8384.3
756.355	8608.47
756.693	8660.45
757.031	8850.05
757.368	8933.89
757.706	9124.17
758.044	9177.72
758.381	9370.94
758.719	9537.04
759.056	9653.19
759.394	9822.45
759.731	9983.81
760.068	10137.25
760.405	10291.59
760.743	10437.8
761.08	10606.16
761.417	10744.01
761.754	10943.55
762.091	11117.11
762.428	11243.21
762.765	11369.76
763.102	11581.73
763.438	11761.39
763.775	11864.43
764.112	12085.9
764.449	12304.65
764.785	12420.13
765.122	12523.17
765.458	12667.8
765.795	12881.13
766.131	13029.6
766.467	13165.87
766.804	13419.87
767.14	13531.73
767.476	13701.45
767.812	13798.62
768.148	13951.16
768.485	14047.43
768.821	14256.91
769.157	14329.68
769.492	14549.11
769.828	14676.11
770.164	14747.75
770.5	14809.67
770.836	15014.63
771.171	14985.71
771.507	15141.64
771.842	15135.53
772.178	15342.76
772.513	15439.48
772.849	15479.71
773.184	15633.15
773.519	15773.48
773.855	15834.72
774.19	15937.77
774.525	15964.89
774.86	16027.71
775.195	16161.04
775.53	16193.13
775.865	16221.38
776.2	16169.63
776.535	16214.6
776.87	16356.75
777.205	16398.55
777.539	16460.7
777.874	16575.72
778.209	16470.19
778.543	16596.96
778.878	16518.32
779.212	16607.36
779.547	16646.91
779.881	16651.43
780.215	16733.01
780.55	16857.75
780.884	16690.75
781.218	16846.45
781.552	16839.44
781.886	16856.39
782.22	16833.12
782.554	16862.49
782.888	16762.61
783.222	16794.93
783.556	16783.85
783.889	16757.86
784.223	16709.5
784.557	16789.05
784.89	16812.55
785.224	16696.4
785.557	16711.76
785.891	16822.5
786.224	16711.99
786.558	16745.66
786.891	16632.22
787.224	16658.43
787.557	16695.72
787.891	16700.46
788.224	16688.49
788.557	16780.24
788.89	16693.23
789.223	16782.27
789.556	16694.14
789.888	16551.99
790.221	16653.46
790.554	16466.8
790.887	16554.25
791.219	16538.21
791.552	16447.14
791.884	16441.49
792.217	16506.8
792.549	16401.49
792.882	16335.95
793.214	16348.61
793.546	16364.65
793.879	16312
794.211	16149.29
794.543	16313.13
794.875	16291.44
795.207	16360.36
795.539	16185.22
795.871	16218.44
796.203	16054.38
796.535	16142.29
796.867	16047.37
797.198	16060.03
797.53	16029.97
797.862	15907.04
798.193	15933.25
798.525	15753.37
798.856	15839.92
799.188	15654.16
799.519	15786.14
799.85	15616.88
800.182	15599.93
800.513	15702.75
800.844	15582.75
801.175	15700.49
801.506	15615.52
801.837	15557.22
802.168	15528.97
802.499	15535.07
802.83	15352.93
803.161	15389.76
803.491	15404
803.822	15411.69
804.153	15369.43
804.483	15246.49
804.814	15159.71
805.145	15204.01
805.475	15208.53
805.805	15165.36
806.136	15124.46
806.466	15204.01
806.796	15142.09
807.126	14947.29
807.457	15016.67
807.787	15061.64
808.117	14959.95
808.447	14959.49
808.777	14902.77
809.107	14756.11
809.436	14751.59
809.766	14890.12
810.096	14760.4
810.426	14641.08
810.755	14764.02
811.085	14740.97
811.414	14713.4
811.744	14540.97
812.073	14554.98
812.403	14580.07
812.732	14500.97
813.061	14498.94
813.39	14433.18
813.719	14427.3
814.049	14478.15
814.378	14411.94
814.707	14322.22
815.036	14373.07
815.365	14418.72
815.693	14137.82
816.022	14269.79
816.351	14178.27
816.68	14190.47
817.008	14179.63
817.337	14034.32
817.665	14019.86
817.994	14005.62
818.322	14076.13
818.651	13987.54
818.979	13948.9
819.307	14046.98
819.636	13813.54
819.964	13935.34
820.292	13961.33
820.62	13915.68
820.948	13888.11
821.276	13837.04
821.604	13870.93
821.932	13872.97
822.259	13931.72
822.587	13872.29
822.915	13832.07
823.243	13910.03
823.57	13854.21
823.898	13799.3
824.225	13757.72
824.553	13830.94
824.88	13818.28
825.207	13903.93
825.535	13898.73
825.862	13892.86
826.189	13749.13
826.516	13850.37
826.843	13903.93
827.17	13883.14
827.497	13898.28
827.824	13967.66
828.151	13941.67
828.478	13932.85
828.805	13963.14
829.131	13960.2
829.458	14019.86
829.785	13804.04
830.111	13838.17
830.438	13965.4
830.764	13975.79
831.09	13961.1
831.417	13869.13
831.743	13920.88
832.069	13909.8
832.395	13896.47
832.722	13898.96
833.048	13884.95
833.374	13965.62
833.7	13806.76
834.026	13746.42
834.351	13815.57
834.677	13801.33
835.003	13811.73
835.329	13813.31
835.654	13788.45
835.98	13672.07
836.306	13735.8
836.631	13750.94
836.956	13714.1
837.282	13726.31
837.607	13622.58
837.932	13650.38
838.258	13641.34
838.583	13662.58
838.908	13571.96
839.233	13623.03
839.558	13557.95
839.883	13453.54
840.208	13466.43
840.533	13505.29
840.858	13536.93
841.182	13522.7
841.507	13468.23
841.832	13431.62
842.156	13398.86
842.481	13323.15
842.805	13330.16
843.13	13315.47
843.454	13253.78
843.778	13217.39
844.103	13248.13
844.427	13083.61
844.751	13136.49
845.075	13184.85
845.399	13136.49
845.723	13072.09
846.047	13054.01
846.371	12898.08
846.695	12900.79
847.019	12773.11
847.343	12760.23
847.666	12628.71
847.99	12572.66
848.313	12622.38
848.637	12571.08
848.96	12581.03
849.284	12524.08
849.607	12402.5
849.931	12362.5
850.254	12259.9
850.577	12284.31
850.9	12118.44
851.223	12191.88
851.546	12079.12
851.869	11952.34
852.192	12084.32
852.515	11991.66
852.838	11886.58
853.161	11910.53
853.483	11817.43
853.806	11821.27
854.129	11797.54
854.451	11710.99
854.774	11673.93
855.096	11612.24
855.419	11677.55
855.741	11554.84
856.063	11586.48
856.385	11478.46
856.708	11464.22
857.03	11376.76
857.352	11400.72
857.674	11311.23
857.996	11321.85
858.318	11241.17
858.64	11273.49
858.961	11255.64
859.283	11248.18
859.605	11176.99
859.926	11202.76
860.248	11102.87
860.57	11145.36
860.891	11170.21
861.212	11035.76
861.534	11010.22
861.855	11054.74
862.176	11020.39
862.498	10939.03
862.819	10954.63
863.14	10997.34
863.461	10876.89
863.782	10880.96
864.103	10841.41
864.424	10849.09
864.745	10824.46
865.065	10779.26
865.386	10760.96
865.707	10716.44
866.027	10791.47
866.348	10713.28
866.668	10649.1
866.989	10667.4
867.309	10617.91
867.63	10690.91
867.95	10658.36
868.27	10593.05
868.59	10626.73
868.91	10585.37
869.23	10515.54
869.55	10532.49
869.87	10522.55
870.19	10504.24
870.51	10588.08
870.83	10551.7
871.15	10494.75
871.469	10466.5
871.789	10444.58
872.109	10439.84
872.428	10353.29
872.748	10400.29
873.067	10361.42
873.386	10314.19
873.706	10359.16
874.025	10341.76
874.344	10309.9
874.663	10299.73
874.982	10270.58
875.301	10309.9
875.62	10160.3
875.939	10185.83
876.258	10250.46
876.577	10154.65
876.896	10182.44
877.214	10153.52
877.533	10151.71
877.852	10146.96
878.17	10132.73
878.489	10118.72
878.807	10059.06
879.125	10087.76
879.444	10079.62
879.762	10049.57
880.08	10006.4
880.398	10003.24
880.716	10000.75
881.034	9883.02
881.352	9971.6
881.67	9883.47
881.988	9883.92
882.306	9866.07
882.624	9842.79
882.941	9840.53
883.259	9719.86
883.577	9749.69
883.894	9770.93
884.212	9735.68
884.529	9786.75
884.846	9721.67
885.164	9701.1
885.481	9630.14
885.798	9661.1
886.115	9599.63
886.432	9551.73
886.75	9524.38
887.067	9533.42
887.383	9582.69
887.7	9491.84
888.017	9421.79
888.334	9498.62
888.651	9413.88
888.967	9370.71
889.284	9344.27
889.6	9309.7
889.917	9249.14
890.233	9296.37
890.55	9216.59
890.866	9280.32
891.182	9151.06
891.498	9186.76
891.815	9201.23
892.131	9108.35
892.447	9116.48
892.763	9017.73
893.079	8982.7
893.395	8980.44
893.71	8937.05
894.026	8994.45
894.342	8975.47
894.657	8839.65
894.973	8899.31
895.289	8836.94
895.604	8856.6
895.92	8736.15
896.235	8739.54
896.55	8666.33
896.865	8667.91
897.181	8676.95
897.496	8700
897.811	8615.48
898.126	8593.56
898.441	8596.05
898.756	8556.72
899.071	8442.6
899.386	8472.43
899.7	8448.7
900.015	8411.19
900.33	8298.65
900.644	8327.8
900.959	8302.72
901.273	8253.91
901.588	8222.95
901.902	8173.68
902.216	8183.63
902.531	8137.98
902.845	8102.5
903.159	8086.45
903.473	7993.58
903.787	8010.75
904.101	7920.58
904.415	7984.31
904.729	7901.37
905.042	7864.54
905.356	7863.86
905.67	7868.83
905.984	7863.41
906.297	7741.6
906.611	7706.58
906.924	7717.65
907.237	7727.14
907.551	7664.77
907.864	7601.27
908.177	7644.66
908.491	7571.44
908.804	7537.32
909.117	7453.7
909.43	7490.09
909.743	7361.5
910.056	7364.44
910.368	7380.03
910.681	7286.7
910.994	7260.49
911.307	7261.17
911.619	7199.47
911.932	7288.51
912.244	7178
912.557	7160.15
912.869	7087.61
913.181	7062.75
913.494	7100.94
913.806	6995.86
914.118	7040.38
914.43	6978.23
914.742	6956.09
915.054	6913.15
915.366	6926.71
915.678	6888.75
915.99	6848.52
916.302	6791.35
916.613	6744.34
916.925	6731.91
917.236	6686.72
917.548	6707.51
917.859	6720.84
918.171	6636.32
918.482	6623.67
918.794	6627.28
919.105	6610.56
919.416	6497.12
919.727	6500.96
920.038	6470.9
920.349	6452.37
920.66	6448.76
920.971	6414.18
921.282	6448.08
921.593	6340.29
921.903	6335.09
922.214	6311.81
922.525	6301.42
922.835	6273.85
923.146	6243.34
923.456	6219.84
923.767	6196.56
924.077	6139.39
924.387	6139.39
924.697	6079.28
925.008	6086.05
925.318	6052.16
925.628	6047.86
925.938	6029.78
926.248	5936.68
926.558	5927.41
926.867	5976.45
927.177	5948.88
927.487	5932.84
927.796	5823.46
928.106	5838.83
928.416	5856.68
928.725	5798.83
929.034	5723.13
929.344	5796.57
929.653	5740.75
929.962	5711.38
930.271	5680.19
930.581	5656.91
930.89	5607.2
931.199	5627.54
931.508	5587.08
931.817	5612.17
932.125	5520.87
932.434	5520.65
932.743	5488.1
933.051	5491.27
933.36	5458.27
933.669	5480.65
933.977	5420.54
934.286	5393.42
934.594	5361.1
934.902	5312.29
935.21	5310.93
935.519	5346.19
935.827	5262.8
936.135	5225.74
936.443	5209.69
936.751	5212.63
937.059	5239.07
937.367	5163.14
937.674	5127.44
937.982	5122.92
938.29	5135.12
938.597	5079.75
938.905	5054.9
939.213	5023.26
939.52	4954.78
939.827	5020.32
940.135	4965.86
940.442	4920.89
940.749	4980.1
941.056	4923.15
941.363	4909.14
941.67	4864.84
941.977	4859.87
942.284	4803.6
942.591	4812.42
942.898	4756.37
943.205	4779.65
943.511	4751.17
943.818	4788.46
944.125	4727.67
944.431	4687.22
944.738	4696.03
945.044	4654.91
945.35	4644.74
945.657	4586.89
945.963	4613.55
946.269	4562.48
946.575	4603.61
946.881	4503.95
947.187	4514.34
947.493	4531.52
947.799	4469.37
948.105	4474.57
948.41	4404.97
948.716	4447.45
949.022	4409.26
949.327	4396.38
949.633	4369.72
949.938	4368.36
950.244	4336.95
950.549	4306.89
950.854	4308.25
951.16	4280
951.465	4237.06
951.77	4215.14
952.075	4209.27
952.38	4205.43
952.685	4194.13
952.99	4167.24
953.294	4148.7
953.599	4128.59
953.904	4137.63
954.209	4074.81
954.513	4077.97
954.818	4092.21
955.122	4066.45
955.426	4032.78
955.731	4009.27
956.035	3978.31
956.339	3952.55
956.643	3984.87
956.948	3931.54
957.252	3946.68
957.556	3875.27
957.86	3880.24
958.163	3903.51
958.467	3854.47
958.771	3854.25
959.075	3832.78
959.378	3824.87
959.682	3823.74
959.985	3778.32
960.289	3796.62
960.592	3743.07
960.896	3743.97
961.199	3715.72
961.502	3722.73
961.805	3644.54
962.108	3651.54
962.411	3647.7
962.714	3609.51
963.017	3644.54
963.32	3592.33
963.623	3552.34
963.926	3607.25
964.228	3558.66
964.531	3494.94
964.833	3522.51
965.136	3483.41
965.438	3497.2
965.741	3457.42
966.043	3494.48
966.345	3454.26
966.648	3422.17
966.95	3428.05
967.252	3409.06
967.554	3388.95
967.856	3368.16
968.158	3339.69
968.46	3343.3
968.761	3311.66
969.063	3310.76
969.365	3300.14
969.666	3313.7
969.968	3269.41
970.269	3229.18
970.571	3266.69
970.872	3263.08
971.174	3225.34
971.475	3219.69
971.776	3216.98
972.077	3193.7
972.378	3190.99
972.679	3140.6
972.98	3113.25
973.281	3153.48
973.582	3108.28
973.883	3075.29
974.183	3075.06
974.484	3066.47
974.785	3049.3
975.085	3026.47
975.386	3047.26
975.686	3031.45
975.986	3007.27
976.287	2996.87
976.587	2968.4
976.887	2983.54
977.187	2991.67
977.487	2937.44
977.787	2961.62
978.087	2898.57
978.387	2898.12
978.687	2902.18
978.987	2865.35
979.286	2846.14
979.586	2833.03
979.885	2850.66
980.185	2788.51
980.484	2813.15
980.784	2830.1
981.083	2797.55
981.382	2757.33
981.682	2774.5
981.981	2744.67
982.28	2748.29
982.579	2696.77
982.878	2706.71
983.177	2694.96
983.475	2683.66
983.774	2692.25
984.073	2670.1
984.372	2635.3
984.67	2665.81
984.969	2634.17
985.267	2578.35
985.566	2597.78
985.864	2578.58
986.162	2585.81
986.461	2547.62
986.759	2525.47
987.057	2529.31
987.355	2558.01
987.653	2541.06
987.951	2533.15
988.249	2503.1
988.547	2544.23
988.844	2498.13
989.142	2480.05
989.44	2468.75
989.737	2410.9
990.035	2437.11
990.332	2417.22
990.63	2386.49
990.927	2397.79
991.224	2392.59
991.521	2381.75
991.819	2348.53
992.116	2357.34
992.413	2367.51
992.71	2321.18
993.006	2318.7
993.303	2340.62
993.6	2325.93
993.897	2294.74
994.193	2279.6
994.49	2275.53
994.787	2262.43
995.083	2207.51
995.379	2268.3
995.676	2215.2
995.972	2233.73
996.268	2202.54
996.565	2212.48
996.861	2162.32
997.157	2175.42
997.453	2173.62
997.749	2175.65
998.044	2121.41
998.34	2118.02
998.636	2100.85
998.932	2104.24
999.227	2096.56
999.523	2074.41
999.818	2067.18
1000.114	2056.78
1000.409	2057.01
1000.704	2065.14
1001	2041.87
1001.295	2017.46
1001.59	2005.26
1001.885	2023.56
1002.18	1987.18
1002.475	1990.57
1002.77	1972.72
1003.065	1937.69
1003.359	1935.43
1003.654	1937.69
1003.949	1944.92
1004.243	1926.16
1004.538	1915.77
1004.832	1901.53
1005.127	1887.75
1005.421	1868.99
1005.715	1840.29
1006.009	1832.16
1006.304	1841.42
1006.598	1838.26
1006.892	1805.49
1007.186	1819.05
1007.48	1816.11
1007.773	1764.81
1008.067	1785.15
1008.361	1744.47
1008.655	1745.6
1008.948	1731.37
1009.242	1764.81
1009.535	1742.67
1009.829	1727.53
1010.122	1741.76
1010.415	1731.14
1010.708	1665.83
1011.001	1682.55
1011.295	1670.13
1011.588	1662.44
1011.881	1648.66
1012.173	1668.54
1012.466	1651.59
1012.759	1641.2
1013.052	1633.74
1013.344	1622.67
1013.637	1598.49
1013.93	1586.06
1014.222	1551.26
1014.514	1569.79
1014.807	1567.76
1015.099	1553.74
1015.391	1537.25
1015.683	1546.29
1015.976	1521.2
1016.268	1521.65
1016.56	1504.71
1016.851	1500.41
1017.143	1488.66
1017.435	1488.89
1017.727	1460.87
1018.018	1446.18
1018.31	1469.45
1018.602	1438.49
1018.893	1458.61
1019.185	1447.08
1019.476	1415.22
1019.767	1382.22
1020.058	1373.86
1020.35	1386.07
1020.641	1383.58
1020.932	1379.29
1021.223	1359.85
1021.514	1369.34
1021.804	1355.56
1022.095	1317.37
1022.386	1316.69
1022.677	1327.76
1022.967	1310.81
1023.258	1295.9
1023.548	1301.77
1023.839	1280.53
1024.129	1317.37
1024.419	1303.13
1024.709	1238.95
1025	1267.2
1025.29	1237.82
1025.58	1240.08
1025.87	1226.07
1026.16	1215
1026.449	1214.54
1026.739	1208.44
1027.029	1201.44
1027.319	1184.71
1027.608	1185.62
1027.898	1163.7
1028.187	1172.29
1028.477	1152.63
1028.766	1142
1029.055	1148.33
1029.344	1161.44
1029.634	1145.39
1029.923	1114.43
1030.212	1110.14
1030.501	1102.23
1030.79	1081.67
1031.078	1081.67
1031.367	1077.15
1031.656	1074.21
1031.945	1080.99
1032.233	1084.83
1032.522	1068.33
1032.81	1057.94
1033.099	1056.36
1033.387	1036.02
1033.675	1030.14
1033.963	1009.13
1034.251	1017.71
1034.54	1030.37
1034.828	993.53
1035.116	999.41
1035.403	1030.14
1035.691	1009.58
1035.979	1015.45
1036.267	996.7
1036.554	964.83
1036.842	963.03
1037.129	972.06
1037.417	958.28
1037.704	939.07
1037.992	942.69
1038.279	923.7
1038.566	899.07
1038.853	899.07
1039.14	899.07
