Data from hue_260_FLMS001491_00011.txt Node
Date: Tue Feb 07 15:58:38 GMT 2017
User: dcchb
Spectrometer: FLMS00149
Trigger mode: 0
Integration Time (sec): 2.000000E-2
Scans to average: 10
Electric dark correction enabled: true
Nonlinearity correction enabled: false
Boxcar width: 0
XAxis mode: Wavelengths
Number of Pixels in Spectrum: 2048
>>>>>Begin Spectral Data<<<<<
341.393	-4.52
341.776	-4.52
342.16	-4.52
342.543	-62.82
342.927	-46.33
343.31	-57.4
343.693	-74.8
344.077	-74.12
344.46	-43.84
344.843	-60.11
345.226	-31.86
345.61	-36.38
345.993	-39.55
346.376	-22.15
346.759	26.89
347.142	26.89
347.525	56.5
347.908	49.49
348.291	92.2
348.674	86.78
349.057	101.47
349.44	136.72
349.823	136.49
350.206	168.13
350.588	198.19
350.971	210.84
351.354	210.62
351.737	244.29
352.119	216.49
352.502	258.07
352.884	279.99
353.267	272.99
353.65	292.87
354.032	277.51
354.414	296.94
354.797	288.81
355.179	315.7
355.562	301.69
355.944	327.9
356.326	327.9
356.709	324.96
357.091	308.01
357.473	327.45
357.855	321.35
358.238	331.52
358.62	325.42
359.002	338.75
359.384	334.91
359.766	344.62
360.148	321.12
360.53	343.49
360.912	344.62
361.294	314.34
361.676	327.9
362.057	338.3
362.439	315.02
362.821	328.35
363.203	307.11
363.584	318.64
363.966	337.17
364.348	304.62
364.729	311.63
365.111	305.08
365.493	307.11
365.874	303.49
366.256	288.13
366.637	299.88
367.019	313.21
367.4	317.73
367.781	313.66
368.163	297.85
368.544	336.49
368.925	317.05
369.306	312.99
369.688	302.14
370.069	304.17
370.45	322.03
370.831	302.82
371.212	294
371.593	313.44
371.974	306.21
372.355	279.31
372.736	302.82
373.117	295.13
373.498	293.55
373.879	315.02
374.26	319.31
374.641	299.2
375.021	308.92
375.402	322.25
375.783	294.68
376.163	319.54
376.544	327.45
376.925	319.09
377.305	319.54
377.686	313.21
378.066	327.9
378.447	321.35
378.827	336.04
379.208	316.83
379.588	305.98
379.968	337.39
380.349	311.4
380.729	319.54
381.109	331.29
381.489	340.78
381.87	313.21
382.25	360.44
382.63	338.07
383.01	339.43
383.39	332.19
383.77	324.06
384.15	342.82
384.53	322.25
384.91	321.35
385.29	345.53
385.67	330.16
386.049	335.36
386.429	326.77
386.809	347.34
387.189	344.4
387.568	348.92
387.948	330.16
388.328	357.73
388.707	368.58
389.087	366.77
389.466	356.6
389.846	335.58
390.225	341.46
390.605	376.49
390.984	352.76
391.363	370.84
391.743	348.47
392.122	374
392.501	372.87
392.881	389.37
393.26	388.46
393.639	390.27
394.018	371.06
394.397	372.19
394.776	394.11
395.155	381.68
395.534	391.63
395.913	380.78
396.292	372.19
396.671	401.8
397.05	390.5
397.429	389.82
397.808	393.21
398.186	377.62
398.565	390.72
398.944	407.45
399.323	404.74
399.701	387.11
400.08	398.41
400.458	409.71
400.837	402.7
401.215	423.94
401.594	414.68
401.972	432.08
402.351	426.66
402.729	423.27
403.107	414.9
403.486	426.66
403.864	435.47
404.242	425.75
404.62	446.32
404.999	445.19
405.377	416.26
405.755	443.6
406.133	436.82
406.511	466.43
406.889	476.6
407.267	463.26
407.645	482.47
408.023	485.18
408.401	497.39
408.779	496.94
409.156	506.65
409.534	490.38
409.912	502.36
410.29	517.27
410.667	520.44
411.045	504.17
411.422	560.21
411.8	527.22
412.178	535.81
412.555	558.86
412.933	547.78
413.31	562.25
413.687	546.2
414.065	552.98
414.442	576.71
414.819	601.34
415.197	619.87
415.574	611.96
415.951	587.1
416.328	601.79
416.705	621.9
417.082	631.17
417.46	616.48
417.837	661.68
418.214	651.51
418.591	659.42
418.967	664.39
419.344	660.55
419.721	662.36
420.098	677.27
420.475	688.12
420.852	708.91
421.228	710.49
421.605	719.98
421.982	707.55
422.358	721.34
422.735	743.26
423.111	753.2
423.488	770.38
423.864	752.75
424.241	789.13
424.617	790.26
424.994	780.32
425.37	815.8
425.746	818.96
426.123	816.02
426.499	847.66
426.875	858.96
427.251	866.64
427.627	863.93
428.003	893.54
428.379	905.74
428.756	897.83
429.132	906.42
429.507	944.16
429.883	915.68
430.259	921.78
430.635	947.55
431.011	966.3
431.387	986.87
431.763	994.78
432.138	1020.76
432.514	1017.83
432.89	1040.2
433.265	1050.59
433.641	1064.15
434.016	1080.2
434.392	1110.25
434.767	1113.64
435.143	1143.92
435.518	1165.39
435.894	1161.33
436.269	1153.87
436.644	1195.9
437.02	1198.84
437.395	1235.67
437.77	1270.25
438.145	1265.5
438.52	1264.83
438.895	1288.55
439.271	1286.07
439.646	1340.76
440.021	1340.53
440.395	1373.52
440.77	1362.22
441.145	1377.59
441.52	1415.33
441.895	1380.75
442.27	1439.51
442.645	1411.26
443.019	1452.62
443.394	1442.45
443.769	1463.69
444.143	1490.58
444.518	1500.75
444.892	1486.97
445.267	1513.86
445.641	1526.97
446.016	1518.15
446.39	1550.24
446.764	1536.68
447.139	1567.42
447.513	1581.43
447.887	1565.38
448.262	1642.22
448.636	1601.77
449.01	1635.21
449.384	1647.19
449.758	1653.74
450.132	1662.1
450.506	1686.06
450.88	1708.66
451.254	1688.32
451.628	1711.14
452.002	1737.13
452.376	1718.15
452.75	1768.77
453.123	1748.65
453.497	1783.46
453.871	1826.17
454.244	1841.99
454.618	1832.72
454.992	1901.42
455.365	1878.14
455.739	1918.37
456.112	1937.58
456.486	1923.57
456.859	1982.09
457.232	2011.25
457.606	2011.92
457.979	1993.39
458.352	2055.54
458.725	2058.48
459.099	2106.16
459.472	2120.85
459.845	2158.14
460.218	2147.97
460.591	2136.67
460.964	2168.53
461.337	2205.59
461.71	2262.54
462.083	2256.89
462.456	2277.45
462.829	2302.54
463.201	2342.54
463.574	2304.8
463.947	2366.94
464.32	2420.95
464.692	2446.04
465.065	2426.38
465.438	2471.57
465.81	2485.36
466.183	2562.87
466.555	2591.34
466.928	2573.72
467.3	2620.04
467.672	2617.78
468.045	2671.57
468.417	2681.06
468.789	2693.94
469.161	2715.18
469.534	2770.1
469.906	2822.98
470.278	2832.92
470.65	2895.52
471.022	2916.53
471.394	2960.37
471.766	2984.78
472.138	3033.14
472.51	3089.18
472.882	3103.2
473.253	3100.94
473.625	3215.96
473.997	3243.98
474.369	3231.33
474.74	3271.55
475.112	3301.16
475.484	3403.3
475.855	3421.83
476.227	3460.25
476.598	3522.85
476.97	3582.73
477.341	3642.39
477.713	3666.12
478.084	3676.74
478.455	3750.86
478.827	3838.09
479.198	3885.77
479.569	3882.16
479.94	4013
480.311	4017.3
480.682	4060.23
481.053	4169.61
481.424	4208.93
481.795	4276.5
482.166	4293.67
482.537	4325.31
482.908	4445.76
483.279	4458.19
483.65	4560.78
484.021	4598.3
484.391	4652.76
484.762	4698.63
485.133	4733.21
485.503	4796.03
485.874	4888.23
486.244	4866.99
486.615	5004.84
486.985	5017.72
487.356	5128.9
487.726	5108.11
488.097	5230.82
488.467	5224.5
488.837	5319.86
489.207	5343.14
489.578	5436.47
489.948	5504.49
490.318	5489.12
490.688	5538.84
491.058	5598.5
491.428	5657.93
491.798	5731.15
492.168	5827.64
492.538	5889.11
492.908	5920.97
493.278	5959.62
493.648	5946.74
494.017	6031.93
494.387	6071.93
494.757	6123
495.126	6152.61
495.496	6142.66
495.866	6255.65
496.235	6285.94
496.605	6313.51
496.974	6347.4
497.344	6389.44
497.713	6436.67
498.082	6445.48
498.452	6521.64
498.821	6473.5
499.19	6523.44
499.559	6558.92
499.928	6568.41
500.298	6664.46
500.667	6667.4
501.036	6628.75
501.405	6735.42
501.774	6700.84
502.143	6760.05
502.512	6807.5
502.88	6817.67
503.249	6875.53
503.618	6872.59
503.987	6851.35
504.356	6920.72
504.724	6961.4
505.093	6904.45
505.462	6939.25
505.83	7049.31
506.199	7057.67
506.567	7052.02
506.936	7101.28
507.304	7131.56
507.672	7133.82
508.041	7133.15
508.409	7172.47
508.777	7223.09
509.145	7287.04
509.514	7250.2
509.882	7311.22
510.25	7318.23
510.618	7373.37
510.986	7365.68
511.354	7392.8
511.722	7425.57
512.09	7438.45
512.458	7463.98
512.826	7478.22
513.193	7470.54
513.561	7497.43
513.929	7541.04
514.297	7599.12
514.664	7625.11
515.032	7586.47
515.4	7624.21
515.767	7668.72
516.135	7655.84
516.502	7629.18
516.869	7708.72
517.237	7692.91
517.604	7639.8
517.972	7788.5
518.339	7768.16
518.706	7784.2
519.073	7731.32
519.44	7799.79
519.808	7834.82
520.175	7780.36
520.542	7930.64
520.909	7840.25
521.276	7863.52
521.643	7934.93
522.009	7920.47
522.376	7990.75
522.743	7948.72
523.11	8035.49
523.477	8038.66
523.843	8077.53
524.21	8175.15
524.577	8127.47
524.943	8175.6
525.31	8185.77
525.676	8259.22
526.043	8186
526.409	8237.52
526.776	8268.26
527.142	8235.26
527.508	8292.89
527.874	8287.92
528.241	8385.77
528.607	8355.94
528.973	8463.28
529.339	8336.73
529.705	8393
530.071	8443.62
530.437	8433.68
530.803	8454.92
531.169	8463.96
531.535	8427.58
531.901	8409.04
532.267	8433.9
532.632	8449.95
532.998	8431.64
533.364	8501.02
533.73	8428.25
534.095	8496.73
534.461	8481.13
534.826	8548.7
535.192	8505.77
535.557	8554.8
535.923	8533.56
536.288	8548.7
536.653	8528.59
537.019	8461.92
537.384	8445.43
537.749	8523.84
538.114	8496.05
538.479	8503.73
538.845	8563.62
539.21	8486.33
539.575	8470.29
539.94	8470.29
540.305	8585.08
540.67	8468.48
541.034	8438.42
541.399	8538.08
541.764	8501.7
542.129	8515.26
542.494	8528.82
542.858	8510.06
543.223	8501.25
543.587	8495.82
543.952	8448.14
544.316	8462.83
544.681	8446.56
545.045	8452.66
545.41	8437.29
545.774	8476.61
546.138	8468.93
546.503	8461.47
546.867	8411.76
547.231	8483.39
547.595	8445.65
547.959	8455.82
548.324	8430.51
548.688	8452.89
549.052	8474.35
549.416	8488.59
549.779	8394.36
550.143	8422.6
550.507	8439.55
550.871	8441.36
551.235	8434.35
551.599	8442.04
551.962	8456.05
552.326	8320.91
552.689	8429.83
553.053	8360.23
553.417	8376.28
553.78	8449.95
554.143	8395.49
554.507	8377.63
554.87	8428.25
555.234	8396.84
555.597	8361.14
555.96	8417.41
556.323	8404.07
556.686	8458.31
557.05	8470.51
557.413	8397.52
557.776	8457.63
558.139	8506.44
558.502	8458.99
558.865	8565.88
559.228	8530.62
559.59	8538.08
559.953	8507.8
560.316	8573.11
560.679	8559.1
561.041	8515.71
561.404	8616.72
561.767	8611.3
562.129	8582.15
562.492	8689.26
562.854	8595.25
563.217	8624.63
563.579	8643.84
563.941	8598.42
564.304	8655.37
564.666	8739.88
565.028	8715.7
565.39	8759.54
565.753	8817.4
566.115	8801.58
566.477	8798.64
566.839	8859.88
567.201	8811.07
567.563	8907.56
567.925	8901.91
568.287	8909.82
568.648	8917.28
569.01	8931.74
569.372	8960.67
569.734	9022.59
570.095	9052.64
570.457	9042.47
570.819	9029.82
571.18	9030.05
571.542	9113.88
571.903	9108.24
572.265	9181
572.626	9167.22
572.987	9161.34
573.349	9197.95
573.71	9246.76
574.071	9266.42
574.432	9256.71
574.794	9302.13
575.155	9286.31
575.516	9291.73
575.877	9449.47
576.238	9361.11
576.599	9446.08
576.96	9397.49
577.32	9386.42
577.681	9428.68
578.042	9490.37
578.403	9436.81
578.763	9474.78
579.124	9557.49
579.485	9551.61
579.845	9544.16
580.206	9583.25
580.566	9488.79
580.927	9605.17
581.287	9668.9
581.648	9595.91
582.008	9689.69
582.368	9614.44
582.728	9766.52
583.089	9669.12
583.449	9696.02
583.809	9704.38
584.169	9723.13
584.529	9700.08
584.889	9886.07
585.249	9737.82
585.609	9784.6
585.969	9847.42
586.329	9843.36
586.688	9948.44
587.048	9858.27
587.408	9832.28
587.768	9895.33
588.127	9888.78
588.487	9860.31
588.846	9942.11
589.206	9906.18
589.565	9945.73
589.925	9953.41
590.284	9956.8
590.643	9959.96
591.003	9989.34
591.362	9989.34
591.721	10053.97
592.08	10039.06
592.44	10037.93
592.799	9945.73
593.158	10046.29
593.517	10005.84
593.876	10108.21
594.235	10006.52
594.593	10056.68
594.952	10135.55
595.311	10110.47
595.67	10121.32
596.029	10105.95
596.387	10238.15
596.746	10162.9
597.104	10091.03
597.463	10070.02
597.822	10253.97
598.18	10159.96
598.538	10136.68
598.897	10259.17
599.255	10088.1
599.613	10311.37
599.972	10210.58
600.33	10290.8
600.688	10247.87
601.046	10313.63
601.404	10294.19
601.762	10253.29
602.12	10307.75
602.478	10293.51
602.836	10336.45
603.194	10271.14
603.552	10252.16
603.91	10273.63
604.268	10274.98
604.625	10257.58
604.983	10312.27
605.341	10274.76
605.698	10268.2
606.056	10397.47
606.413	10309.79
606.771	10354.98
607.128	10386.39
607.485	10343.68
607.843	10316.11
608.2	10394.3
608.557	10383.46
608.914	10395.88
609.272	10408.77
609.629	10446.05
609.986	10462.32
610.343	10446.28
610.7	10557.24
611.057	10489.89
611.414	10435.43
611.771	10493.06
612.127	10525.37
612.484	10517.92
612.841	10598.59
613.198	10489.67
613.554	10566.5
613.911	10618.48
614.267	10558.82
614.624	10586.16
614.98	10580.06
615.337	10603.34
615.693	10553.17
616.05	10563.79
616.406	10627.29
616.762	10567.41
617.118	10655.31
617.475	10618.93
617.831	10650.34
618.187	10656.22
618.543	10621.42
618.899	10726.72
619.255	10723.11
619.611	10645.82
619.967	10731.47
620.323	10692.15
620.678	10716.55
621.034	10583.9
621.39	10674.07
621.746	10673.84
622.101	10811.69
622.457	10692.15
622.812	10683.33
623.168	10756.78
623.523	10731.7
623.879	10775.54
624.234	10712.71
624.589	10792.03
624.945	10693.5
625.3	10735.08
625.655	10666.84
626.01	10696.89
626.365	10679.49
626.72	10733.5
627.075	10672.04
627.43	10738.47
627.785	10633.84
628.14	10687.63
628.495	10678.59
628.85	10633.39
629.205	10623.68
629.559	10715.2
629.914	10660.28
630.269	10644.92
630.623	10580.29
630.978	10619.83
631.332	10625.71
631.687	10657.12
632.041	10535.32
632.396	10608.53
632.75	10531.25
633.104	10485.15
633.459	10441.08
633.813	10451.25
634.167	10494.41
634.521	10469.33
634.875	10438.37
635.229	10510.46
635.583	10426.39
635.937	10399.27
636.291	10323.34
636.645	10353.85
636.999	10356.79
637.352	10443.34
637.706	10289
638.06	10358.82
638.413	10295.32
638.767	10302.1
639.121	10302.1
639.474	10310.01
639.828	10278.37
640.181	10348.88
640.534	10278.6
640.888	10322.67
641.241	10246.51
641.594	10214.19
641.947	10209.9
642.301	10293.06
642.654	10226.62
643.007	10289.45
643.36	10174.87
643.713	10204.48
644.066	10273.4
644.419	10209.45
644.771	10125.61
645.124	10044.93
645.477	10044.48
645.83	9926.97
646.182	9932.85
646.535	9883.36
646.888	9867.31
647.24	9832.96
647.593	9861.89
647.945	9827.54
648.298	9788.22
648.65	9830.02
649.002	9787.77
649.355	9827.54
649.707	9868.67
650.059	9894.2
650.411	9977.14
650.763	9952.51
651.115	10086.51
651.467	10083.12
651.819	10110.92
652.171	10033.18
652.523	9996.12
652.875	10011.04
653.227	9928.1
653.578	10077.93
653.93	10058.27
654.282	10023.24
654.633	9934.88
654.985	9942.56
655.337	10067.08
655.688	9976.46
656.039	10042.9
656.391	9956.8
656.742	9956.12
657.094	9986.86
657.445	10086.97
657.796	10004.71
658.147	9960.64
658.498	9964.48
658.849	9966.29
659.2	9987.99
659.551	10006.97
659.902	9959.74
660.253	10027.76
660.604	10028.44
660.955	9982.56
661.306	10049.23
661.656	9982.56
662.007	10050.81
662.358	9975.33
662.708	10015.33
663.059	10080.41
663.409	9973.3
663.76	10036.57
664.11	10095.33
664.461	9991.38
664.811	10073.63
665.161	10052.39
665.511	10049.45
665.862	9999.96
666.212	10096.68
666.562	10086.74
666.912	9983.01
667.262	10052.84
667.612	10014.2
667.962	10037.93
668.312	9996.12
668.662	10044.93
669.011	10080.19
669.361	9975.33
669.711	9976.46
670.06	9984.82
670.41	9975.33
670.76	9880.87
671.109	9997.48
671.459	9975.1
671.808	9907.31
672.157	9945.28
672.507	9934.88
672.856	9914.09
673.205	9916.12
673.554	9943.02
673.904	9933.98
674.253	9999.29
674.602	9850.59
674.951	9837.26
675.3	9717.26
675.649	9826.63
675.998	9832.06
676.346	9821.89
676.695	9933.75
677.044	9757.26
677.393	9803.58
677.741	9838.16
678.09	9761.78
678.438	9818.05
678.787	9725.17
679.135	9780.99
679.484	9735.34
679.832	9827.54
680.181	9762.68
680.529	9710.71
680.877	9674.32
681.225	9670.03
681.573	9668.22
681.922	9628
682.27	9606.98
682.618	9605.4
682.966	9569.69
683.314	9604.04
683.661	9571.73
684.009	9484.5
684.357	9465.29
684.705	9541.44
685.053	9530.6
685.4	9489.47
685.748	9399.3
686.095	9425.06
686.443	9377.15
686.79	9351.17
687.138	9402.92
687.485	9305.52
687.832	9369.7
688.18	9320.88
688.527	9287.21
688.874	9245.18
689.221	9259.64
689.568	9191.62
689.915	9131.06
690.262	9116.82
690.609	9156.14
690.956	9136.48
691.303	9056.94
691.65	9009.48
691.997	9001.57
692.344	8926.54
692.69	8961.35
693.037	8976.04
693.383	8864.85
693.73	8877.96
694.077	8845.42
694.423	8756.83
694.769	8809.94
695.116	8793.44
695.462	8655.37
695.808	8686.33
696.155	8721.13
696.501	8630.73
696.847	8619.89
697.193	8510.06
697.539	8581.02
697.885	8522.49
698.231	8520.45
698.577	8499.89
698.923	8500.57
699.269	8416.95
699.614	8413.34
699.96	8357.75
700.306	8313
700.651	8266
700.997	8298.99
701.342	8302.15
701.688	8175.38
702.033	8189.39
702.379	8214.47
702.724	8141.93
703.069	8162.95
703.415	8062.61
703.76	8068.26
704.105	8030.52
704.45	8086.79
704.795	7947.14
705.14	8014.03
705.485	7996.63
705.83	7901.49
706.175	7908.94
706.52	7870.08
706.865	7868.95
707.209	7932.9
707.554	7853.58
707.899	7840.47
708.243	7747.37
708.588	7713.92
708.932	7653.81
709.277	7627.37
709.621	7711.89
709.966	7629.86
710.31	7710.76
710.654	7581.27
710.998	7601.38
711.342	7589.18
711.687	7576.98
712.031	7511.67
712.375	7537.2
712.719	7533.81
713.063	7491.33
713.407	7478.45
713.75	7436.19
714.094	7441.39
714.438	7429.64
714.782	7434.15
715.125	7377.43
715.469	7449.52
715.812	7432.12
716.156	7323.42
716.499	7334.27
716.843	7372.01
717.186	7285.68
717.53	7341.05
717.873	7328.17
718.216	7332.91
718.559	7275.51
718.902	7267.83
719.246	7285.23
719.589	7224.67
719.932	7185.57
720.275	7193.94
720.617	7180.15
720.96	7167.95
721.303	7185.12
721.646	7213.82
721.989	7152.13
722.331	7162.3
722.674	7097.67
723.016	7163.88
723.359	7158.68
723.701	7153.26
724.044	7180.15
724.386	7086.59
724.729	7123.43
725.071	7098.8
725.413	7080.27
725.755	7122.98
726.097	7095.63
726.439	7050.66
726.782	7060.15
727.124	7048.4
727.465	7020.15
727.807	7071.23
728.149	7075.52
728.491	7059.02
728.833	7020.38
729.175	7034.39
729.516	6977.67
729.858	7013.6
730.199	6998.01
730.541	6961.85
730.882	6974.96
731.224	7002.98
731.565	6984
731.906	6975.18
732.248	7008.86
732.589	6942.42
732.93	6952.36
733.271	6941.51
733.612	6990.32
733.953	6988.74
734.294	6946.03
734.635	6940.83
734.976	6925.92
735.317	6923.66
735.658	6974.05
735.999	6940.16
736.339	6870.78
736.68	6964.11
737.021	6940.61
737.361	6961.4
737.702	6931.8
738.042	6968.63
738.383	6976.09
738.723	6944.22
739.063	6982.64
739.404	6981.06
739.744	7000.27
740.084	7001.17
740.424	7042.07
740.764	6978.12
741.104	7007.05
741.444	7030.78
741.784	7017.44
742.124	7050.66
742.464	6976.31
742.804	7070.55
743.143	7066.48
743.483	7086.37
743.823	7061.28
744.162	7086.14
744.502	7106.48
744.841	7124.78
745.181	7143.32
745.52	7158.46
745.86	7207.49
746.199	7158.68
746.538	7249.3
746.877	7283.2
747.216	7305.34
747.556	7402.07
747.895	7375.85
748.234	7370.88
748.573	7452.69
748.911	7480.26
749.25	7494.72
749.589	7554.15
749.928	7635.96
750.267	7715.5
750.605	7677.76
750.944	7844.31
751.283	7822.62
751.621	7908.49
751.96	7907.59
752.298	8028.26
752.636	8102.39
752.975	8210.18
753.313	8188.94
753.651	8294.7
753.989	8402.72
754.327	8441.81
754.666	8527.69
755.004	8598.87
755.342	8720
755.679	8828.47
756.017	8876.83
756.355	9008.35
756.693	9109.59
757.031	9190.72
757.368	9307.78
757.706	9433.42
758.044	9473.65
758.381	9613.98
758.719	9751.83
759.056	9898.04
759.394	9950.7
759.731	10048.32
760.068	10136.91
760.405	10348.65
760.743	10343.68
761.08	10578.25
761.417	10700.06
761.754	10750.45
762.091	10915.87
762.428	11001.52
762.765	11108.41
763.102	11345.69
763.438	11413.26
763.775	11508.17
764.112	11619.36
764.449	11797.2
764.785	11909.29
765.122	11973.47
765.458	12041.49
765.795	12152.45
766.131	12395.61
766.467	12423.4
766.804	12585.66
767.14	12614.13
767.476	12707.46
767.812	12740.91
768.148	12926.67
768.485	12970.05
768.821	13075.36
769.157	13153.78
769.492	13271.74
769.828	13365.3
770.164	13244.62
770.5	13423.6
770.836	13488.68
771.171	13596.48
771.507	13634.9
771.842	13675.57
772.178	13806.64
772.513	13811.61
772.849	13841.9
773.184	13899.97
773.519	14048.22
773.855	13981.33
774.19	14146.52
774.525	14123.92
774.86	14232.39
775.195	14273.52
775.53	14323.69
775.865	14359.62
776.2	14232.62
776.535	14260.87
776.87	14370.24
777.205	14301.54
777.539	14395.33
777.874	14433.29
778.209	14351.04
778.543	14331.37
778.878	14280.3
779.212	14436.68
779.547	14379.06
779.881	14451.37
780.215	14491.14
780.55	14482.78
780.884	14463.35
781.218	14460.18
781.552	14490.92
781.886	14417.7
782.22	14401.88
782.554	14486.17
782.888	14380.86
783.222	14438.94
783.556	14412.28
783.889	14391.71
784.223	14310.58
784.557	14384.25
784.89	14315.56
785.224	14274.43
785.557	14330.92
785.891	14307.87
786.224	14233.3
786.558	14264.03
786.891	14182.23
787.224	14167.31
787.557	14173.19
787.891	14208.89
788.224	14156.01
788.557	14203.02
788.89	14171.6
789.223	14180.64
789.556	14138.61
789.888	14053.87
790.221	14119.85
790.554	13888.22
790.887	13994.21
791.219	13979.07
791.552	13940.2
791.884	13846.19
792.217	13802.12
792.549	13859.3
792.882	13809.13
793.214	13696.14
793.546	13738.62
793.879	13703.82
794.211	13702.46
794.543	13713.31
794.875	13657.72
795.207	13690.71
795.539	13646.87
795.871	13648.68
796.203	13535.92
796.535	13546.31
796.867	13409.36
797.198	13391.74
797.53	13373.66
797.862	13306.54
798.193	13316.49
798.525	13264.28
798.856	13350.84
799.188	13164.85
799.519	13206.88
799.85	13153.78
800.182	13161.01
800.513	13132.76
800.844	13052.54
801.175	13148.81
801.506	13128.02
801.837	13089.6
802.168	13042.14
802.499	13033.1
802.83	12984.29
803.161	12916.95
803.491	12913.56
803.822	12969.6
804.153	12882.83
804.483	12780.45
804.814	12728.48
805.145	12659.55
805.475	12649.16
805.805	12708.59
806.136	12627.24
806.466	12616.17
806.796	12613.68
807.126	12524.19
807.457	12550.18
807.787	12532.78
808.117	12488.94
808.447	12412.55
808.777	12426.79
809.107	12380.01
809.436	12355.61
809.766	12336.62
810.096	12390.86
810.426	12339.34
810.755	12304.31
811.085	12269.51
811.414	12183.63
811.744	12106.8
812.073	12130.3
812.403	12147.7
812.732	12061.15
813.061	12045.56
813.39	12018.67
813.719	12069.06
814.049	12080.81
814.378	12022.06
814.707	11994.49
815.036	11946.13
815.365	11947.48
815.693	11779.13
816.022	11784.1
816.351	11816.41
816.68	11775.74
817.008	11854.6
817.337	11656.87
817.665	11642.41
817.994	11757.43
818.322	11635.4
818.651	11601.5
818.979	11545.23
819.307	11639.69
819.636	11594.72
819.964	11524.44
820.292	11555.85
820.62	11589.3
820.948	11484.9
821.276	11519.47
821.604	11559.92
821.932	11538
822.259	11525.8
822.587	11500.94
822.915	11502.07
823.243	11505.69
823.57	11479.7
823.898	11513.37
824.225	11487.83
824.553	11553.82
824.88	11528.06
825.207	11538
825.535	11533.71
825.862	11525.12
826.189	11518.79
826.516	11479.47
826.843	11627.94
827.17	11541.62
827.497	11591.56
827.824	11557.89
828.151	11572.13
828.478	11573.48
828.805	11611.22
829.131	11529.64
829.458	11495.97
829.785	11402.19
830.111	11466.82
830.438	11522.86
830.764	11608.96
831.09	11556.53
831.417	11439.25
831.743	11579.58
832.069	11581.62
832.395	11447.16
832.722	11515.63
833.048	11384.56
833.374	11488.96
833.7	11419.13
834.026	11433.82
834.351	11482.64
834.677	11386.14
835.003	11468.85
835.329	11449.64
835.654	11443.09
835.98	11349.53
836.306	11406.93
836.631	11380.49
836.956	11383.66
837.282	11283.09
837.607	11269.76
837.932	11325.8
838.258	11264.34
838.583	11270.44
838.908	11227.5
839.233	11262.08
839.558	11229.99
839.883	11145.02
840.208	11133.94
840.533	11153.61
840.858	11111.57
841.182	11135.3
841.507	11202.19
841.832	11049.43
842.156	11046.94
842.481	11017.79
842.805	11037.68
843.13	10996.1
843.454	11004
843.778	10952.93
844.103	10996.77
844.427	10902.99
844.751	10914.29
845.075	10870.9
845.399	10841.3
845.723	10777.57
846.047	10708.87
846.371	10710
846.695	10694.86
847.019	10639.72
847.343	10626.16
847.666	10554.52
847.99	10448.76
848.313	10424.36
848.637	10431.82
848.96	10357.24
849.284	10380.74
849.607	10265.72
849.931	10254.87
850.254	10199.05
850.577	10196.79
850.9	10121.32
851.223	10057.59
851.546	9978.04
851.869	10035.44
852.192	10067.53
852.515	9909.8
852.838	9847.42
853.161	9851.94
853.483	9873.64
853.806	9796.13
854.129	9797.93
854.451	9715.45
854.774	9716.81
855.096	9655.79
855.419	9652.63
855.741	9604.72
856.063	9557.71
856.385	9612.4
856.708	9537.38
857.03	9500.32
857.352	9454.44
857.674	9443.82
857.996	9411.28
858.318	9374.44
858.64	9291.73
858.961	9348.68
859.283	9285.86
859.605	9294.44
859.926	9273.65
860.248	9278.63
860.57	9170.61
860.891	9145.52
861.212	9200.66
861.534	9064.39
861.855	9098.52
862.176	9091.74
862.498	9133.55
862.819	9068.91
863.14	9030.05
863.461	9069.82
863.782	9076.6
864.103	9006.54
864.424	8976.04
864.745	9049.03
865.065	8934.68
865.386	8901.69
865.707	8930.84
866.027	8911.86
866.348	8939.65
866.668	8914.34
866.989	8868.69
867.309	8836.6
867.63	8856.94
867.95	8829.15
868.27	8793.44
868.59	8829.82
868.91	8751.18
869.23	8769.26
869.55	8753.89
869.87	8827.34
870.19	8718.87
870.51	8704.18
870.83	8727.23
871.15	8654.46
871.469	8700.79
871.789	8699.66
872.109	8691.97
872.428	8645.2
872.748	8619.43
873.067	8608.59
873.386	8618.76
873.706	8608.14
874.025	8569.72
874.344	8574.01
874.663	8578.53
874.982	8496.5
875.301	8540.34
875.62	8460.57
875.939	8464.86
876.258	8492.88
876.577	8492.21
876.896	8499.66
877.214	8417.41
877.533	8416.73
877.852	8408.82
878.17	8448.59
878.489	8402.94
878.807	8371.53
879.125	8343.96
879.444	8342.15
879.762	8315.71
880.08	8280.91
880.398	8299.44
880.716	8307.8
881.034	8239.11
881.352	8334.02
881.67	8222.16
881.988	8232.78
882.306	8215.83
882.624	8242.27
882.941	8202.5
883.259	8139.22
883.577	8125.21
883.894	8087.24
884.212	8050.64
884.529	8106.68
884.846	8023.97
885.164	8050.18
885.481	8023.29
885.798	8002.05
886.115	7916.18
886.432	7952.79
886.75	7893.58
887.067	7894.93
887.383	7933.8
887.7	7893.13
888.017	7824.88
888.334	7810.42
888.651	7762.96
888.967	7819.23
889.284	7750.76
889.6	7721.38
889.917	7679.57
890.233	7652.68
890.55	7644.77
890.866	7626.24
891.182	7622.62
891.498	7618.1
891.815	7614.49
892.131	7579.69
892.447	7501.72
892.763	7564.09
893.079	7479.58
893.395	7466.7
893.71	7550.76
894.026	7442.29
894.342	7461.27
894.657	7374.5
894.973	7382.63
895.289	7360.94
895.604	7338.79
895.92	7247.27
896.235	7232.58
896.55	7304.44
896.865	7201.84
897.181	7172.92
897.496	7138.8
897.811	7170.21
898.126	7129.3
898.441	7158.91
898.756	7038.68
899.071	7027.39
899.386	7060.15
899.7	6995.97
900.015	6977.9
900.33	6882.98
900.644	6876.66
900.959	6936.31
901.273	6885.92
901.588	6790.56
901.902	6795.98
902.216	6746.26
902.531	6747.62
902.845	6746.49
903.159	6732.7
903.473	6708.75
903.787	6610
904.101	6663.1
904.415	6622.65
904.729	6564.57
905.042	6558.02
905.356	6506.04
905.67	6557.34
905.984	6523.67
906.297	6429.66
906.611	6455.88
906.924	6464.91
907.237	6384.24
907.551	6412.26
907.864	6392.37
908.177	6310.79
908.491	6402.54
908.804	6289.55
909.117	6252.26
909.43	6186.73
909.743	6168.43
910.056	6201.19
910.368	6148.76
910.681	6119.39
910.994	6076.9
911.307	6086.62
911.619	6097.92
911.932	6063.12
912.244	6018.6
912.557	5993.74
912.869	5995.1
913.181	5958.49
913.494	5941.54
913.806	5917.81
914.118	5850.69
914.43	5832.62
914.742	5808.21
915.054	5827.64
915.366	5819.96
915.678	5739.51
915.99	5692.51
916.302	5664.03
916.613	5681.43
916.925	5634.43
917.236	5704.03
917.548	5644.6
917.859	5644.37
918.171	5567.76
918.482	5557.37
918.794	5518.95
919.105	5519.85
919.416	5476.47
919.727	5473.75
920.038	5431.95
920.349	5429.91
920.66	5424.72
920.971	5383.81
921.282	5373.64
921.593	5309.69
921.903	5318.5
922.214	5341.55
922.525	5286.41
922.835	5258.84
923.146	5246.19
923.456	5156.93
923.767	5189.02
924.077	5167.77
924.387	5120.32
924.697	5116.93
925.008	5087.78
925.318	5062.69
925.628	5027.21
925.938	5013.88
926.248	5052.75
926.558	5035.57
926.867	5018.17
927.177	4957.84
927.487	4947.67
927.796	4886.65
928.106	4886.65
928.416	4930.04
928.725	4858.18
929.034	4848.91
929.344	4817.5
929.653	4849.82
929.962	4786.54
930.271	4734.34
930.581	4743.38
930.89	4751.51
931.199	4721.91
931.508	4690.5
931.817	4691.18
932.125	4639.43
932.434	4687.79
932.743	4597.85
933.051	4586.77
933.36	4553.1
933.669	4530.05
933.977	4556.04
934.286	4554
934.594	4552.42
934.902	4520.11
935.21	4453.44
935.519	4441.24
935.827	4435.59
936.135	4413.67
936.443	4370.51
936.751	4398.3
937.059	4352.65
937.367	4341.58
937.674	4331.64
937.982	4337.06
938.29	4302.94
938.597	4304.52
938.905	4252.54
939.213	4230.17
939.52	4224.97
939.827	4219.1
940.135	4172.32
940.442	4162.83
940.749	4171.42
941.056	4159.21
941.363	4135.94
941.67	4127.35
941.977	4079.89
942.284	4034.02
942.591	4034.02
942.898	3962.16
943.205	4006.67
943.511	3993.57
943.818	3993.79
944.125	3936.39
944.431	3922.61
944.738	3941.59
945.044	3885.1
945.35	3883.51
945.657	3856.4
945.963	3826.11
946.269	3862.72
946.575	3832.89
946.881	3799.45
947.187	3787.02
947.493	3811.43
947.799	3744.31
948.105	3722.39
948.41	3699.79
948.716	3751.31
949.022	3684.87
949.327	3689.39
949.633	3622.05
949.938	3665.89
950.244	3668.15
950.549	3610.07
950.854	3596.74
951.16	3608.72
951.465	3561.04
951.77	3596.29
952.075	3570.98
952.38	3519.91
952.685	3506.35
952.99	3466.35
953.294	3510.19
953.599	3454.6
953.904	3435.84
954.209	3454.37
954.513	3395.84
954.818	3413.92
955.122	3409.85
955.426	3371.66
955.731	3343.87
956.035	3370.08
956.339	3341.61
956.643	3342.96
956.948	3285.11
957.252	3303.42
957.556	3280.14
957.86	3283.08
958.163	3286.24
958.467	3215.06
958.771	3224.32
959.075	3225
959.378	3202.4
959.682	3226.13
959.985	3161.5
960.289	3175.06
960.592	3174.15
960.896	3175.51
961.199	3172.12
961.502	3165.11
961.805	3096.42
962.108	3095.96
962.411	3066.36
962.714	3056.42
963.017	3069.3
963.32	3068.62
963.623	3022.07
963.926	3019.13
964.228	2999.02
964.531	2977.55
964.833	3019.81
965.136	2968.28
965.438	2955.63
965.741	2951.79
966.043	2932.13
966.345	2880.15
966.648	2889.42
966.95	2873.6
967.252	2870.66
967.554	2884.67
967.856	2855.52
968.158	2853.48
968.46	2826.82
968.761	2803.99
969.063	2793.6
969.365	2769.64
969.666	2782.98
969.968	2750.44
970.269	2749.08
970.571	2713.83
970.872	2735.97
971.174	2705.92
971.475	2692.36
971.776	2698.91
972.077	2687.39
972.378	2657.56
972.679	2622.98
972.98	2647.84
973.281	2621.17
973.582	2660.27
973.883	2649.65
974.183	2598.35
974.484	2608.07
974.785	2604
975.085	2558.35
975.386	2604.9
975.686	2569.42
975.986	2555.41
976.287	2567.16
976.587	2524.68
976.887	2504.34
977.187	2532.59
977.487	2509.99
977.787	2460.95
978.087	2441.07
978.387	2463.89
978.687	2439.03
978.987	2418.24
979.286	2417.34
979.586	2416.21
979.885	2405.36
980.185	2390.45
980.484	2365.81
980.784	2374.17
981.083	2370.56
981.382	2327.85
981.682	2342.54
981.981	2341.41
982.28	2304.12
982.579	2305.93
982.878	2316.32
983.177	2340.5
983.475	2293.5
983.774	2278.36
984.073	2275.65
984.372	2236.55
984.67	2235.42
984.969	2227.06
985.267	2262.54
985.566	2217.34
985.864	2207.17
986.162	2195.2
986.461	2204.24
986.759	2190.22
987.057	2112.03
987.355	2175.99
987.653	2163.78
987.951	2115.42
988.249	2119.49
988.547	2100.74
988.844	2087.18
989.142	2120.85
989.44	2090.34
989.737	2088.98
990.035	2079.49
990.332	2100.51
990.63	2064.58
990.927	2039.04
991.224	2027.29
991.521	2017.57
991.819	2038.36
992.116	2006.05
992.413	2000.63
992.71	1997.91
993.006	1964.02
993.303	1981.42
993.6	1959.04
993.897	1939.38
994.193	1938.03
994.49	1927.18
994.787	1897.58
995.083	1930.8
995.379	1926.28
995.676	1939.61
995.972	1898.48
996.268	1915.2
996.565	1881.08
996.861	1850.35
997.157	1878.14
997.453	1829.1
997.749	1823
998.044	1822.1
998.34	1851.25
998.636	1803.57
998.932	1813.74
999.227	1800.63
999.523	1795.88
999.818	1792.04
1000.114	1756.56
1000.409	1740.07
1000.704	1754.3
1001	1757.69
1001.295	1745.04
1001.59	1744.81
1001.885	1740.29
1002.18	1695.55
1002.475	1700.75
1002.77	1682.22
1003.065	1671.37
1003.359	1669.11
1003.654	1651.71
1003.949	1661.2
1004.243	1619.39
1004.538	1656.23
1004.832	1620.97
1005.127	1629.11
1005.421	1613.06
1005.715	1596.57
1006.009	1601.54
1006.304	1590.69
1006.598	1578.72
1006.892	1576.46
1007.186	1555.21
1007.48	1566.06
1007.773	1541.43
1008.067	1521.99
1008.361	1518.6
1008.655	1530.81
1008.948	1527.64
1009.242	1500.53
1009.535	1468.44
1009.829	1504.37
1010.122	1473.41
1010.415	1439.06
1010.708	1443.8
1011.001	1423.47
1011.295	1431.6
1011.588	1436.35
1011.881	1415.56
1012.173	1399.96
1012.466	1430.7
1012.759	1413.75
1013.052	1367.2
1013.344	1381.66
1013.637	1387.99
1013.93	1371.94
1014.222	1361.32
1014.514	1348.67
1014.807	1362
1015.099	1329.68
1015.391	1337.37
1015.683	1305.05
1015.976	1329.91
1016.268	1315.22
1016.56	1306.41
1016.851	1307.76
1017.143	1302.79
1017.435	1280.42
1017.727	1259.63
1018.018	1259.18
1018.31	1262.34
1018.602	1248.55
1018.893	1262.79
1019.185	1229.12
1019.476	1219.85
1019.767	1239.74
1020.058	1198.39
1020.35	1229.8
1020.641	1192.96
1020.932	1194.32
1021.223	1153.19
1021.514	1176.69
1021.804	1175.79
1022.095	1158.16
1022.386	1150.25
1022.677	1154.55
1022.967	1155.9
1023.258	1142.34
1023.548	1114.1
1023.839	1133.53
1024.129	1105.96
1024.419	1111.38
1024.709	1098.05
1025	1109.58
1025.29	1072.74
1025.58	1109.58
1025.87	1053.53
1026.16	1061.44
1026.449	1072.29
1026.739	1052.4
1027.029	1052.63
1027.319	1052.85
1027.608	1028.22
1027.898	1043.36
1028.187	1021.22
1028.477	997.26
1028.766	1027.77
1029.055	1007.21
1029.344	980.09
1029.634	992.97
1029.923	991.16
1030.212	990.71
1030.501	963.14
1030.79	953.87
1031.078	971.27
1031.367	942.12
1031.656	957.26
1031.945	946.87
1032.233	929.02
1032.522	934.44
1032.81	934.66
1033.099	945.96
1033.387	917.94
1033.675	914.55
1033.963	918.39
1034.251	912.97
1034.54	896.93
1034.828	888.11
1035.116	900.77
1035.403	887.89
1035.691	868
1035.979	865.74
1036.267	868.68
1036.554	867.77
1036.842	862.58
1037.129	861.45
1037.417	858.06
1037.704	832.97
1037.992	824.39
1038.279	848.11
1038.566	825.52
1038.853	825.52
1039.14	825.52
