Data from hue_130_FLMS001491_00068.txt Node
Date: Tue Feb 07 16:57:56 GMT 2017
User: dcchb
Spectrometer: FLMS00149
Trigger mode: 0
Integration Time (sec): 2.000000E-2
Scans to average: 10
Electric dark correction enabled: true
Nonlinearity correction enabled: false
Boxcar width: 0
XAxis mode: Wavelengths
Number of Pixels in Spectrum: 2048
>>>>>Begin Spectral Data<<<<<
341.393	-40.65
341.776	-40.65
342.16	-40.65
342.543	-76.13
342.927	-64.83
343.31	-66.18
343.693	-84.04
344.077	-90.14
344.46	-58.73
344.843	-64.83
345.226	-55.11
345.61	-17.82
345.993	-26.64
346.376	4.55
346.759	19.69
347.142	18.33
347.525	61.27
347.908	50.87
348.291	83.87
348.674	101.04
349.057	123.87
349.44	115.51
349.823	142.17
350.206	158.44
350.588	184.43
350.971	227.59
351.354	232.79
351.737	247.48
352.119	242.51
352.502	253.13
352.884	281.83
353.267	285.44
353.65	289.51
354.032	287.7
354.414	307.59
354.797	306.91
355.179	312.34
355.562	336.52
355.944	313.47
356.326	334.03
356.709	334.93
357.091	336.29
357.473	335.61
357.855	343.07
358.238	349.85
358.62	345.1
359.002	352.34
359.384	324.09
359.766	322.96
360.148	335.16
360.53	337.19
360.912	339
361.294	332.22
361.676	338.1
362.057	327.48
362.439	344.88
362.821	301.49
363.203	320.7
363.584	329.74
363.966	330.42
364.348	333.8
364.729	333.58
365.111	321.6
365.493	297.2
365.874	331.54
366.256	313.69
366.637	310.98
367.019	324.09
367.4	333.8
367.781	313.24
368.163	328.61
368.544	330.42
368.925	326.8
369.306	314.82
369.688	297.2
370.069	308.27
370.45	317.53
370.831	307.36
371.212	325.9
371.593	326.8
371.974	303.52
372.355	318.66
372.736	329.51
373.117	317.99
373.498	330.64
373.879	313.24
374.26	316.18
374.641	320.25
375.021	313.47
375.402	314.37
375.783	313.47
376.163	321.38
376.544	327.25
376.925	325.67
377.305	314.14
377.686	323.86
378.066	354.14
378.447	341.71
378.827	332.22
379.208	344.2
379.588	324.99
379.968	333.8
380.349	336.52
380.729	327.25
381.109	339.45
381.489	341.26
381.87	367.25
382.25	346.23
382.63	363.86
383.01	334.03
383.39	338.78
383.77	332.22
384.15	341.71
384.53	342.39
384.91	345.1
385.29	344.88
385.67	348.49
386.049	366.8
386.429	336.29
386.809	371.54
387.189	378.1
387.568	376.52
387.948	360.7
388.328	365.89
388.707	358.89
389.087	346.23
389.466	377.65
389.846	361.83
390.225	355.5
390.605	370.19
390.984	371.54
391.363	379.45
391.743	381.71
392.122	381.94
392.501	386.46
392.881	396.4
393.26	398.44
393.639	394.14
394.018	385.78
394.397	405.44
394.776	389.17
395.155	389.62
395.534	371.54
395.913	393.24
396.292	404.09
396.671	398.21
397.05	415.84
397.429	410.41
397.808	384.65
398.186	406.57
398.565	393.01
398.944	393.01
399.323	413.35
399.701	400.47
400.08	413.8
400.458	383.3
400.837	407.93
401.215	414.71
401.594	408.83
401.972	443.41
402.351	419.68
402.729	418.77
403.107	422.16
403.486	433.69
403.864	434.37
404.242	419.9
404.62	421.71
404.999	445.21
405.377	430.75
405.755	437.08
406.133	458.32
406.511	462.61
406.889	445.44
407.267	453.12
407.645	429.4
408.023	458.55
408.401	451.09
408.779	458.1
409.156	450.86
409.534	449.73
409.912	469.85
410.29	479.79
410.667	460.13
411.045	496.74
411.422	489.96
411.8	490.86
412.178	474.37
412.555	486.34
412.933	495.16
413.31	510.75
413.687	497.64
414.065	491.31
414.442	498.09
414.819	508.26
415.197	519.11
415.574	539.9
415.951	524.53
416.328	526.57
416.705	539.45
417.082	535.38
417.46	549.17
417.837	543.29
418.214	554.59
418.591	533.35
418.967	568.6
419.344	537.64
419.721	561.6
420.098	529.73
420.475	554.82
420.852	592.1
421.228	557.98
421.605	581.93
421.982	578.54
422.358	586
422.735	565.89
423.111	571.54
423.488	576.06
423.864	589.17
424.241	585.32
424.617	609.5
424.994	608.83
425.37	616.06
425.746	604.31
426.123	625.32
426.499	625.77
426.875	610.63
427.251	624.64
427.627	656.96
428.003	646.11
428.379	666.23
428.756	638.66
429.132	646.11
429.507	681.37
429.883	675.72
430.259	698.31
430.635	688.37
431.011	699.44
431.387	704.42
431.763	696.96
432.138	683.63
432.514	729.27
432.89	738.54
433.265	750.97
433.641	720.46
434.016	744.19
434.392	739.22
434.767	760.91
435.143	744.87
435.518	762.27
435.894	775.15
436.269	769.95
436.644	777.86
437.02	805.2
437.395	797.3
437.77	821.93
438.145	811.31
438.52	807.01
438.895	821.48
439.271	837.29
439.646	855.37
440.021	835.26
440.395	822.15
440.77	849.72
441.145	847.01
441.52	835.71
441.895	860.34
442.27	869.38
442.645	881.36
443.019	902.38
443.394	900.57
443.769	880.91
444.143	891.98
444.518	883.85
444.892	898.76
445.267	934.01
445.641	943.05
446.016	927.24
446.39	939.44
446.764	953
447.139	936.05
447.513	964.3
447.887	961.36
448.262	957.07
448.636	962.04
449.01	980.12
449.384	992.09
449.758	1000.68
450.132	1002.71
450.506	981.47
450.88	1017.85
451.254	993
451.628	1025.99
452.002	1050.85
452.376	1016.5
452.75	1053.11
453.123	1059.21
453.497	1073.9
453.871	1080.68
454.244	1100.56
454.618	1101.47
454.992	1122.26
455.365	1131.07
455.739	1163.39
456.112	1166.33
456.486	1160.45
456.859	1176.04
457.232	1183.95
457.606	1217.85
457.979	1221.47
458.352	1235.25
458.725	1262.14
459.099	1259.66
459.472	1308.69
459.845	1306.89
460.218	1290.39
460.591	1303.04
460.964	1343.27
461.337	1358.41
461.71	1374.46
462.083	1367.22
462.456	1412.19
462.829	1421.01
463.201	1426.88
463.574	1426.66
463.947	1437.28
464.32	1490.38
464.692	1491.06
465.065	1525.86
465.438	1541.23
465.81	1585.07
466.183	1590.72
466.555	1621.45
466.928	1629.36
467.3	1638.18
467.672	1684.28
468.045	1735.12
468.417	1717.05
468.789	1757.95
469.161	1774.22
469.534	1798.63
469.906	1865.74
470.278	1862.58
470.65	1891.5
471.022	1943.48
471.394	2006.3
471.766	2009.47
472.138	2031.16
472.51	2098.28
472.882	2141.67
473.253	2170.82
473.625	2197.26
473.997	2260.76
474.369	2287.2
474.74	2354.54
475.112	2442
475.484	2467.76
475.855	2531.94
476.227	2545.5
476.598	2663.24
476.97	2710.92
477.341	2752.27
477.713	2818.26
478.084	2865.72
478.455	2996.33
478.827	3059.61
479.198	3117.69
479.569	3173.28
479.94	3311.13
480.311	3351.8
480.682	3455.08
481.053	3587.5
481.424	3688.07
481.795	3751.34
482.166	3831.11
482.537	3911.56
482.908	4077.66
483.279	4131.45
483.65	4217.54
484.021	4349.07
484.391	4462.28
484.762	4592.68
485.133	4674.26
485.503	4788.38
485.874	4924.64
486.244	5032.44
486.615	5203.51
486.985	5293.9
487.356	5473.56
487.726	5545.87
488.097	5743.38
488.467	5810.04
488.837	5985.18
489.207	6128.91
489.578	6267.89
489.948	6409.58
490.318	6558.5
490.688	6626.07
491.058	6782.67
491.428	6940.18
491.798	7106.73
492.168	7298.59
492.538	7353.51
492.908	7495.42
493.278	7781.74
493.648	7783.55
494.017	7994.17
494.387	8073.71
494.757	8251.34
495.126	8402.97
495.496	8485.68
495.866	8544.21
496.235	8761.15
496.605	8936.52
496.974	8996.85
497.344	9127.02
497.713	9244.08
498.082	9365.21
498.452	9482.94
498.821	9648.81
499.19	9715.25
499.559	9832.76
499.928	9896.04
500.298	10040.22
500.667	10237.27
501.036	10206.31
501.405	10350.49
501.774	10403.14
502.143	10585.74
502.512	10635.23
502.88	10828.67
503.249	10785.51
503.618	10873.64
503.987	10998.61
504.356	11131.26
504.724	11181.88
505.093	11225.72
505.462	11373.06
505.83	11449.44
506.199	11482.66
506.567	11740.06
506.936	11740.96
507.304	11873.39
507.672	11842.88
508.041	11995.19
508.409	12038.13
508.777	12179.6
509.145	12301.85
509.514	12232.25
509.882	12346.37
510.25	12372.36
510.618	12498.68
510.986	12493.49
511.354	12637.44
511.722	12714.95
512.09	12769.86
512.458	12770.77
512.826	12977.31
513.193	12943.64
513.561	13008.5
513.929	13038.33
514.297	13090.53
514.664	13201.49
515.032	13215.95
515.4	13365.78
515.767	13364.87
516.135	13368.49
516.502	13302.5
516.869	13490.75
517.237	13490.07
517.604	13524.42
517.972	13597.86
518.339	13668.82
518.706	13644.19
519.073	13673.57
519.44	13844.86
519.808	13810.51
520.175	13823.17
520.542	14013.67
520.909	14039.21
521.276	13920.79
521.643	14114.91
522.009	14073.33
522.376	14082.82
522.743	14179.99
523.11	14296.15
523.477	14304.28
523.843	14347
524.21	14349.71
524.577	14513.54
524.943	14516.93
525.31	14481
525.676	14621.56
526.043	14640.1
526.409	14626.31
526.776	14724.16
527.142	14695.91
527.508	14770.94
527.874	14786.53
528.241	14843.93
528.607	14765.06
528.973	14890.03
529.339	14782.46
529.705	14840.77
530.071	14906.98
530.437	14955.79
530.803	14993.53
531.169	14862.91
531.535	14888.68
531.901	14959.86
532.267	14918.73
532.632	14947.43
532.998	14934.32
533.364	14923.25
533.73	14939.75
534.095	14983.36
534.461	14979.3
534.826	14974.1
535.192	14948.56
535.557	15028.79
535.923	14951.95
536.288	14906.53
536.653	14891.84
537.019	14819.07
537.384	14856.13
537.749	14859.52
538.114	14763.71
538.479	14933.65
538.845	14858.39
539.21	14725.29
539.575	14787.21
539.94	14778.62
540.305	14721.68
540.67	14649.59
541.034	14666.99
541.399	14658.17
541.764	14574.11
542.129	14544.96
542.494	14583.15
542.858	14604.39
543.223	14539.31
543.587	14463.6
543.952	14434.9
544.316	14435.35
544.681	14320.56
545.045	14469.7
545.41	14379.54
545.774	14356.03
546.138	14291.4
546.503	14309.48
546.867	14322.14
547.231	14302.93
547.595	14243.27
547.959	14219.09
548.324	14146.1
548.688	14115.59
549.052	14114.01
549.416	14164.4
549.779	14038.53
550.143	13972.09
550.507	14093.22
550.871	14022.71
551.235	13923.96
551.599	14023.39
551.962	13955.82
552.326	13908.36
552.689	13932.54
553.053	13858.65
553.417	13788.82
553.78	13906.33
554.143	13819.55
554.507	13804.41
554.87	13845.54
555.234	13874.24
555.597	13829.95
555.96	13750.18
556.323	13771.87
556.686	13773
557.05	13790.17
557.413	13753.11
557.776	13703.4
558.139	13800.8
558.502	13720.12
558.865	13773.68
559.228	13773.45
559.59	13810.51
559.953	13717.63
560.316	13941.58
560.679	13840.57
561.041	13845.99
561.404	13822.26
561.767	13895.26
562.129	13802.38
562.492	13862.04
562.854	13842.6
563.217	13787.69
563.579	13855.71
563.941	13868.59
564.304	13870.17
564.666	13933.22
565.028	13903.17
565.39	13944.29
565.753	13961.7
566.115	13991.75
566.477	14015.03
566.839	13935.26
567.201	14013.9
567.563	13999.21
567.925	14089.6
568.287	14067.45
568.648	14073.1
569.01	14106.78
569.372	14191.75
569.734	14108.13
570.095	14276.49
570.457	14239.65
570.819	14229.94
571.18	14155.36
571.542	14228.35
571.903	14229.94
572.265	14358.75
572.626	14300.44
572.987	14188.36
573.349	14309.26
573.71	14386.99
574.071	14341.35
574.432	14369.59
574.794	14490.72
575.155	14463.38
575.516	14379.31
575.877	14465.86
576.238	14501.57
576.599	14463.6
576.96	14447.56
577.32	14478.29
577.681	14497.05
578.042	14406.66
578.403	14444.39
578.763	14398.97
579.124	14444.39
579.485	14560.55
579.845	14472.87
580.206	14495.47
580.566	14460.89
580.927	14452.53
581.287	14555.8
581.648	14509.25
582.008	14500.66
582.368	14513.32
582.728	14521.45
583.089	14505.41
583.449	14540.89
583.809	14531.62
584.169	14486.65
584.529	14471.74
584.889	14584.28
585.249	14456.82
585.609	14359.88
585.969	14449.59
586.329	14446.65
586.688	14463.83
587.048	14356.94
587.408	14324.62
587.768	14337.96
588.127	14380.22
588.487	14320.78
588.846	14451.63
589.206	14381.8
589.565	14334.57
589.925	14363.72
590.284	14321.46
590.643	14316.94
591.003	14334.79
591.362	14379.31
591.721	14356.94
592.08	14301.8
592.44	14318.75
592.799	14291.4
593.158	14304.28
593.517	14263.83
593.876	14288.47
594.235	14306.32
594.593	14274.46
594.952	14262.25
595.311	14163.27
595.67	14245.76
596.029	14307.22
596.387	14272.42
596.746	14294.12
597.104	14102.03
597.463	14278.75
597.822	14284.62
598.18	14259.77
598.538	14147
598.897	14205.76
599.255	14150.16
599.613	14295.47
599.972	14204.4
600.33	14223.84
600.688	14213.44
601.046	14283.27
601.404	14278.3
601.762	14224.96
602.12	14354.68
602.478	14290.95
602.836	14344.06
603.194	14238.07
603.552	14299.09
603.91	14225.87
604.268	14299.54
604.625	14214.8
604.983	14231.07
605.341	14194.91
605.698	14244.63
606.056	14269.03
606.413	14363.72
606.771	14450.95
607.128	14479.87
607.485	14294.12
607.843	14321.46
608.2	14399.2
608.557	14328.01
608.914	14308.13
609.272	14458.63
609.629	14367.33
609.986	14481.46
610.343	14345.41
610.7	14464.05
611.057	14438.52
611.414	14410.5
611.771	14444.17
612.127	14540.21
612.484	14521.91
612.841	14519.65
613.198	14442.36
613.554	14501.34
613.911	14571.85
614.267	14471.74
614.624	14492.53
614.98	14544.05
615.337	14622.47
615.693	14608.23
616.05	14553.54
616.406	14636.48
616.762	14619.08
617.118	14679.64
617.475	14608.91
617.831	14698.17
618.187	14670.6
618.543	14671.73
618.899	14754.44
619.255	14659.08
619.611	14619.76
619.967	14802.35
620.323	14743.37
620.678	14814.55
621.034	14633.54
621.39	14690.94
621.746	14715.8
622.101	14709.25
622.457	14659.76
622.812	14672.41
623.168	14779.07
623.523	14718.74
623.879	14782.01
624.234	14676.25
624.589	14705.18
624.945	14719.64
625.3	14739.08
625.655	14756.7
626.01	14727.32
626.365	14748.57
626.72	14753.76
627.075	14705.86
627.43	14723.71
627.785	14660.89
628.14	14701.79
628.495	14669.93
628.85	14614.56
629.205	14591.73
629.559	14762.35
629.914	14522.36
630.269	14662.69
630.623	14628.34
630.978	14605.07
631.332	14663.82
631.687	14630.38
632.041	14544.96
632.396	14577.27
632.75	14505.41
633.104	14626.08
633.459	14505.41
633.813	14519.87
634.167	14536.6
634.521	14407.11
634.875	14506.54
635.229	14429.93
635.583	14391.29
635.937	14422.25
636.291	14344.51
636.645	14318.52
636.999	14340.67
637.352	14362.81
637.706	14296.15
638.06	14384.73
638.413	14355.13
638.767	14267.68
639.121	14316.71
639.474	14184.74
639.828	14150.16
640.181	14256.6
640.534	14241.69
640.888	14181.58
641.241	14140.22
641.594	14240.56
641.947	14180.45
642.301	14099.77
642.654	14140.45
643.007	14125.31
643.36	14136.15
643.713	14134.12
644.066	14069.71
644.419	14100.9
644.771	13997.63
645.124	13824.52
645.477	13862.04
645.83	13795.15
646.182	13692.32
646.535	13601.03
646.888	13672.21
647.24	13579.78
647.593	13742.49
647.945	13659.78
648.298	13534.59
648.65	13528.94
649.002	13541.14
649.355	13620.24
649.707	13580.01
650.059	13622.04
650.411	13791.53
650.763	13822.49
651.115	13956.05
651.467	13920.57
651.819	13938.64
652.171	13896.61
652.523	13841.47
652.875	13909.04
653.227	13758.08
653.578	13907.46
653.93	13882.83
654.282	13835.37
654.633	13826.56
654.985	13859.55
655.337	13869.95
655.688	13849.38
656.039	13980.68
656.391	13772.1
656.742	13819.55
657.094	13859.32
657.445	13877.63
657.796	13895.26
658.147	13854.58
658.498	13906.78
658.849	13936.38
659.2	13862.04
659.551	13872.66
659.902	13943.84
660.253	13874.92
660.604	13886.89
660.955	13779.78
661.306	13992.88
661.656	13904.75
662.007	13948.59
662.358	13827.46
662.708	13841.7
663.059	13831.75
663.409	13838.53
663.76	13931.87
664.11	13827.24
664.461	13930.06
664.811	13929.38
665.161	13991.75
665.511	13843.51
665.862	13855.26
666.212	13939.32
666.562	13945.88
666.912	13988.14
667.262	13927.57
667.612	13923.5
667.962	13894.13
668.312	13866.1
668.662	13928.7
669.011	13918.76
669.361	13881.92
669.711	13872.88
670.06	13839.66
670.41	13808.25
670.76	13787.46
671.109	13984.52
671.459	13866.1
671.808	13902.94
672.157	13860.68
672.507	13860.23
672.856	13790.4
673.205	13807.35
673.554	13845.99
673.904	13820.68
674.253	13904.97
674.602	13819.33
674.951	13615.04
675.3	13491.88
675.649	13744.3
675.998	13701.36
676.346	13763.96
676.695	13844.41
677.044	13644.87
677.393	13738.2
677.741	13676.96
678.09	13655.71
678.438	13650.74
678.787	13695.26
679.135	13654.81
679.484	13562.38
679.832	13521.03
680.181	13517.41
680.529	13513.35
680.877	13422.05
681.225	13516.73
681.573	13504.76
681.922	13467.7
682.27	13429.73
682.618	13391.31
682.966	13294.59
683.314	13356.97
683.661	13326.23
684.009	13205.56
684.357	13140.25
684.705	13194.26
685.053	13209.62
685.4	13261.83
685.748	13145.9
686.095	13021.38
686.443	13136.18
686.79	13003.98
687.138	13114.94
687.485	12975.73
687.832	12962.4
688.18	12926.92
688.527	12945.68
688.874	12969.4
689.221	12834.95
689.568	12832.23
689.915	12776.87
690.262	12797.88
690.609	12735.96
690.956	12736.87
691.303	12660.49
691.65	12545.69
691.997	12599.7
692.344	12472.47
692.69	12484.22
693.037	12500.49
693.383	12357.67
693.73	12327.16
694.077	12373.94
694.423	12342.3
694.769	12326.03
695.116	12257.79
695.462	12201.29
695.808	12092.82
696.155	12153.61
696.501	11988.64
696.847	12062.76
697.193	11944.12
697.539	12031.8
697.885	11883.56
698.231	11881.3
698.577	11847.63
698.923	11815.31
699.269	11761.53
699.614	11757.69
699.96	11726.27
700.306	11680.63
700.651	11547.97
700.997	11514.75
701.342	11584.58
701.688	11481.76
702.033	11409.45
702.379	11524.47
702.724	11357.02
703.069	11395.89
703.415	11242.67
703.76	11289.9
704.105	11185.04
704.45	11207.64
704.795	11164.71
705.14	11179.62
705.485	11091.04
705.83	11048.33
706.175	11076.57
706.52	10941.21
706.865	10950.7
707.209	10979.17
707.554	10892.85
707.899	10965.62
708.243	10884.26
708.588	10786.19
708.932	10875
709.277	10763.81
709.621	10806.07
709.966	10705.74
710.31	10725.17
710.654	10602.24
710.998	10629.13
711.342	10620.54
711.687	10596.13
712.031	10571.28
712.375	10516.81
712.719	10564.27
713.063	10472.07
713.407	10506.64
713.75	10406.53
714.094	10455.57
714.438	10399.75
714.782	10430.26
715.125	10370.38
715.469	10376.25
715.812	10338.74
716.156	10257.84
716.499	10214.22
716.843	10214.67
717.186	10134.9
717.53	10316.37
717.873	10288.8
718.216	10231.17
718.559	10179.42
718.902	10102.59
719.246	10182.13
719.589	10121.34
719.932	10017.62
720.275	10113.89
720.617	10109.37
720.96	10042.48
721.303	10035.92
721.646	10053.78
721.989	9952.99
722.331	10053.78
722.674	10008.13
723.016	10012.42
723.359	9957.51
723.701	9954.57
724.044	9932.65
724.386	9896.94
724.729	9924.74
725.071	9888.13
725.413	9930.16
725.755	9964.96
726.097	9832.54
726.439	9807.23
726.782	9736.95
727.124	9904.63
727.465	9770.17
727.807	9829.37
728.149	9802.93
728.491	9814.01
728.833	9822.37
729.175	9857.4
729.516	9798.64
729.858	9759.55
730.199	9788.25
730.541	9716.16
730.882	9709.6
731.224	9794.35
731.565	9678.19
731.906	9741.69
732.248	9827.11
732.589	9739.21
732.93	9726.1
733.271	9736.27
733.612	9727.23
733.953	9725.87
734.294	9750.51
734.635	9677.29
734.976	9788.25
735.317	9683.62
735.658	9611.98
735.999	9695.14
736.339	9712.54
736.68	9670.96
737.021	9722.26
737.361	9660.34
737.702	9704.18
738.042	9741.02
738.383	9734.69
738.723	9692.65
739.063	9732.65
739.404	9739.43
739.744	9722.03
740.084	9775.14
740.424	9710.73
740.764	9781.01
741.104	9801.13
741.444	9801.58
741.784	9734.69
742.124	9862.14
742.464	9831.18
742.804	9792.77
743.143	9870.28
743.483	9798.64
743.823	9820.34
744.162	9902.37
744.502	10021.46
744.841	9972.42
745.181	10010.39
745.52	10032.98
745.86	10037.5
746.199	10090.38
746.538	10171.74
746.877	10215.58
747.216	10187.33
747.556	10267.78
747.895	10321.79
748.234	10321.79
748.573	10367.44
748.911	10357.27
749.25	10512.52
749.589	10500.09
749.928	10592.07
750.267	10680.2
750.605	10754.1
750.944	10833.19
751.283	10865.73
751.621	10955.22
751.96	10967.42
752.298	11138.94
752.636	11201.54
752.975	11255.55
753.313	11362.44
753.651	11537.8
753.989	11595.66
754.327	11718.14
754.666	11803.33
755.004	11894.63
755.342	12042.2
755.679	12112.93
756.017	12340.27
756.355	12448.74
756.693	12539.36
757.031	12636.76
757.368	12837.88
757.706	12970.53
758.044	13026.13
758.381	13192.68
758.719	13343.63
759.056	13602.83
759.394	13596.05
759.731	13837.63
760.068	13935.48
760.405	14070.39
760.743	14202.82
761.08	14432.19
761.417	14579.76
761.754	14758.06
762.091	14912.4
762.428	15027.66
762.765	15153.08
763.102	15357.36
763.438	15460.41
763.775	15520.75
764.112	15792.83
764.449	15979.27
764.785	16186.27
765.122	16163.67
765.458	16218.13
765.795	16515.3
766.131	16693.15
766.467	16819.02
766.804	16881.62
767.14	17031.9
767.476	17178.33
767.812	17236.41
768.148	17342.85
768.485	17498.33
768.821	17675.5
769.157	17825.32
769.492	17892.21
769.828	18010.85
770.164	17941.7
770.5	18211.75
770.836	18374.01
771.171	18396.15
771.507	18545.76
771.842	18437.06
772.178	18639.31
772.513	18655.58
772.849	18772.19
773.184	18862.81
773.519	18977.38
773.855	19023.93
774.19	19023.48
774.525	19065.06
774.86	19188.68
775.195	19304.83
775.53	19132.18
775.865	19216.7
776.2	19338.95
776.535	19273.87
776.87	19308.22
777.205	19380.76
777.539	19380.99
777.874	19459.86
778.209	19399.97
778.543	19535.11
778.878	19510.02
779.212	19451.95
779.547	19414.21
779.881	19609.46
780.215	19515.22
780.55	19674.31
780.884	19551.15
781.218	19517.71
781.552	19641.77
781.886	19585.05
782.22	19525.16
782.554	19447.43
782.888	19389.57
783.222	19469.8
783.556	19343.47
783.889	19355.23
784.223	19299.63
784.557	19304.61
784.89	19340.54
785.224	19237.26
785.557	19208.34
785.891	19249.69
786.224	19223.03
786.558	19295.34
786.891	19083.14
787.224	19166.53
787.557	19119.53
787.891	19129.24
788.224	19097.38
788.557	19149.13
788.89	19078.85
789.223	19024.61
789.556	18994.56
789.888	18973.99
790.221	18913.2
790.554	18795.24
790.887	18850.61
791.219	18825.75
791.552	18674.57
791.884	18726.77
792.217	18681.34
792.549	18668.01
792.882	18591.63
793.214	18579.43
793.546	18592.76
793.879	18479.77
794.211	18483.38
794.543	18491.29
794.875	18430.28
795.207	18523.83
795.539	18399.54
795.871	18411.52
796.203	18180.57
796.535	18158.65
796.867	18197.97
797.198	18076.39
797.53	18117.74
797.862	17930.86
798.193	17988.26
798.525	17891.76
798.856	18021.25
799.188	17864.42
799.519	17782.84
799.85	17658.55
800.182	17751.88
800.513	17828.49
800.844	17624.2
801.175	17710.52
801.506	17633.69
801.837	17535.61
802.168	17508.04
802.499	17499
802.83	17446.35
803.161	17381.04
803.491	17381.04
803.822	17312.12
804.153	17226.92
804.483	17182.18
804.814	17222.4
805.145	17063.08
805.475	17075.74
805.805	17027.83
806.136	17014.27
806.466	17016.98
806.796	17019.24
807.126	16854.05
807.457	16832.58
807.787	16871.45
808.117	16742.19
808.447	16647.5
808.777	16754.84
809.107	16537.9
809.436	16672.13
809.766	16582.64
810.096	16581.97
810.426	16505.36
810.755	16533.38
811.085	16472.36
811.414	16424
811.744	16254.97
812.073	16276.89
812.403	16329.32
812.732	16134.07
813.061	16233.95
813.39	16123.45
813.719	15995.54
814.049	16134.75
814.378	16116.89
814.707	16065.14
815.036	16018.14
815.365	15912.15
815.693	15817.69
816.022	15849.56
816.351	15814.75
816.68	15747.18
817.008	15785.83
817.337	15667.64
817.665	15657.02
817.994	15756.9
818.322	15661.31
818.651	15626.74
818.979	15631.26
819.307	15704.7
819.636	15672.16
819.964	15452.05
820.292	15592.84
820.62	15604.36
820.948	15471.49
821.276	15601.2
821.604	15500.41
821.932	15536.79
822.259	15559.39
822.587	15414.31
822.915	15417.25
823.243	15510.13
823.57	15471.94
823.898	15406.18
824.225	15480.3
824.553	15501.77
824.88	15460.19
825.207	15481.2
825.535	15418.83
825.862	15460.86
826.189	15465.38
826.516	15496.12
826.843	15558.72
827.17	15507.19
827.497	15506.74
827.824	15485.27
828.151	15543.57
828.478	15500.41
828.805	15465.38
829.131	15453.86
829.458	15573.18
829.785	15459.28
830.111	15392.39
830.438	15484.37
830.764	15502.22
831.09	15458.38
831.417	15442.79
831.743	15430.58
832.069	15476.91
832.395	15384.93
832.722	15377.03
833.048	15443.01
833.374	15422.45
833.7	15311.72
834.026	15347.2
834.351	15379.28
834.677	15339.51
835.003	15347.65
835.329	15370.7
835.654	15304.48
835.98	15326.63
836.306	15281.21
836.631	15181.55
836.956	15253.64
837.282	15282.34
837.607	15164.6
837.932	15204.6
838.258	15163.92
838.583	15224.94
838.908	15046.19
839.233	15085.28
839.558	15027.88
839.883	14993.31
840.208	14931.16
840.533	14913.08
840.858	14892.52
841.182	15000.31
841.507	14925.51
841.832	14754.67
842.156	14835.34
842.481	14876.93
842.805	14735.23
843.13	14710.83
843.454	14724.61
843.778	14668.12
844.103	14608.68
844.427	14587.44
844.751	14607.33
845.075	14495.24
845.399	14444.39
845.723	14439.2
846.047	14373.66
846.371	14360.78
846.695	14274
847.019	14242.82
847.343	14145.19
847.666	14118.98
847.99	14043.05
848.313	14070.62
848.637	13946.1
848.96	13908.36
849.284	13910.62
849.607	13798.31
849.931	13796.73
850.254	13678.09
850.577	13478.54
850.9	13514.02
851.223	13526.45
851.546	13504.98
851.869	13262.73
852.192	13440.13
852.515	13303.86
852.838	13239
853.161	13210.08
853.483	13128.27
853.806	13048.5
854.129	13069.29
854.451	13013.47
854.774	12977.31
855.096	12985.9
855.419	12893.7
855.741	12876.75
856.063	12819.58
856.385	12802.4
856.708	12676.76
857.03	12713.37
857.352	12549.98
857.674	12601.5
857.996	12601.5
858.318	12483.54
858.64	12539.13
858.961	12439.93
859.283	12409.65
859.605	12327.39
859.926	12357.9
860.248	12376.2
860.57	12306.82
860.891	12325.81
861.212	12245.81
861.534	12214.4
861.855	12175.75
862.176	12216.88
862.498	12145.7
862.819	12114.74
863.14	12139.37
863.461	12054.85
863.782	12014.85
864.103	12058.02
864.424	12018.02
864.745	11961.97
865.065	11944.8
865.386	11953.61
865.707	11937.79
866.027	11879.26
866.348	11987.28
866.668	11809.66
866.989	11877
867.309	11756.1
867.63	11872.03
867.95	11785.48
868.27	11636.11
868.59	11722.88
868.91	11715.88
869.23	11683.34
869.55	11633.62
869.87	11662.09
870.19	11595.88
870.51	11686.05
870.83	11564.92
871.15	11573.06
871.469	11602.21
871.789	11638.59
872.109	11550.68
872.428	11442.21
872.748	11501.42
873.067	11431.14
873.386	11419.61
873.706	11422.33
874.025	11425.72
874.344	11342.78
874.663	11389.11
874.982	11318.83
875.301	11360.41
875.62	11329.9
875.939	11248.09
876.258	11263.69
876.577	11247.87
876.896	11314.98
877.214	11234.76
877.533	11242.22
877.852	11188.89
878.17	11139.4
878.489	11165.61
878.807	11188.89
879.125	11070.25
879.444	11120.19
879.762	11073.86
880.08	11060.3
880.398	10974.65
880.716	11068.66
881.034	10964.71
881.352	11012.62
881.67	10918.84
881.988	10947.31
882.306	10938.05
882.624	10848.1
882.941	10849.23
883.259	10783.47
883.577	10818.95
883.894	10758.16
884.212	10722.91
884.529	10751.16
884.846	10731.5
885.164	10699.41
885.481	10666.64
885.798	10705.28
886.115	10530.37
886.432	10550.03
886.75	10492.18
887.067	10594.55
887.383	10451.28
887.7	10525.18
888.017	10510.71
888.334	10454.44
888.651	10450.6
888.967	10353.43
889.284	10356.37
889.6	10325.86
889.917	10233.88
890.233	10253.77
890.55	10248.12
890.866	10219.19
891.182	10217.16
891.498	10219.87
891.815	10112.3
892.131	10082.48
892.447	10045.87
892.763	9967.22
893.079	9979.43
893.395	9922.03
893.71	10010.84
894.026	9921.58
894.342	9861.69
894.657	9842.93
894.973	9851.29
895.289	9793.67
895.604	9777.4
895.92	9677.97
896.235	9573.56
896.55	9613.79
896.865	9580.12
897.181	9531.53
897.496	9572.66
897.811	9506.44
898.126	9455.6
898.441	9509.61
898.756	9409.72
899.071	9422.15
899.386	9351.65
899.7	9315.94
900.015	9301.93
900.33	9139.67
900.644	9181.48
900.959	9221.93
901.273	9124.53
901.588	9068.49
901.902	9088.83
902.216	9056.74
902.531	8996.4
902.845	8973.58
903.159	8920.92
903.473	8924.54
903.787	8903.07
904.101	8784.43
904.415	8807.48
904.729	8765.9
905.042	8751.44
905.356	8710.99
905.67	8687.71
905.984	8670.53
906.297	8612.46
906.611	8601.16
906.924	8590.99
907.237	8550.31
907.551	8502.18
907.864	8405.68
908.177	8456.53
908.491	8370.88
908.804	8282.52
909.117	8346.02
909.43	8200.26
909.743	8185.58
910.056	8187.16
910.368	8148.97
910.681	8124.56
910.994	8086.14
911.307	8109.65
911.619	8087.27
911.932	8036.43
912.244	7946.26
912.557	7979.48
912.869	7917.11
913.181	7891.8
913.494	7872.59
913.806	7886.83
914.118	7767.73
914.43	7726.83
914.742	7697
915.054	7682.31
915.366	7652.48
915.678	7628.08
915.99	7579.72
916.302	7573.84
916.613	7495.2
916.925	7489.32
917.236	7492.03
917.548	7479.15
917.859	7454.07
918.171	7390.12
918.482	7291.81
918.794	7309.21
919.105	7259.72
919.416	7203.68
919.727	7199.39
920.038	7221.76
920.349	7115.55
920.66	7096.79
920.971	7170.24
921.282	7087.07
921.593	6986.06
921.903	7035.78
922.214	6981.77
922.525	7000.75
922.835	6911.03
923.146	6853.63
923.456	6836.01
923.767	6835.55
924.077	6870.81
924.387	6782.45
924.697	6732.96
925.008	6739.06
925.318	6717.82
925.628	6718.72
925.938	6682.56
926.248	6581.55
926.558	6606.86
926.867	6510.59
927.177	6556.24
927.487	6496.13
927.796	6426.53
928.106	6484.38
928.416	6388.11
928.725	6416.81
929.034	6352.4
929.344	6378.39
929.653	6330.26
929.962	6260.43
930.271	6227.89
930.581	6251.16
930.89	6192.86
931.199	6168.68
931.508	6170.71
931.817	6159.64
932.125	6146.31
932.434	6128.91
932.743	6077.16
933.051	6030.38
933.36	6021.34
933.669	5983.83
933.977	5925.3
934.286	5943.37
934.594	5937.05
934.902	5871.06
935.21	5833.1
935.519	5897.95
935.827	5865.64
936.135	5762.36
936.443	5735.7
936.751	5737.5
937.059	5734.11
937.367	5680.33
937.674	5699.99
937.982	5683.95
938.29	5607.11
938.597	5634.91
938.905	5515.14
939.213	5525.53
939.52	5505.19
939.827	5501.13
940.135	5474.23
940.442	5428.36
940.749	5443.27
941.056	5435.14
941.363	5347.91
941.67	5359.89
941.977	5368.47
942.284	5281.02
942.591	5283.51
942.898	5267.46
943.205	5277.63
943.511	5224.98
943.818	5224.52
944.125	5202.83
944.431	5187.69
944.738	5126.22
945.044	5136.62
945.35	5078.76
945.657	5057.75
945.963	5012.55
946.269	4984.76
946.575	5017.75
946.881	4973.68
947.187	4977.98
947.493	4970.75
947.799	4920.35
948.105	4904.31
948.41	4820.47
948.716	4888.71
949.022	4844.65
949.327	4836.06
949.633	4813.24
949.938	4806
950.244	4747.25
950.549	4707.7
950.854	4715.16
951.16	4726.46
951.465	4697.08
951.77	4666.8
952.075	4596.97
952.38	4581.38
952.685	4622.05
952.99	4587.93
953.294	4522.62
953.599	4528.72
953.904	4477.2
954.209	4459.12
954.513	4444.66
954.818	4442.4
955.122	4468.39
955.426	4417.99
955.731	4363.76
956.035	4360.37
956.339	4376.41
956.643	4380.7
956.948	4310.2
957.252	4275.4
957.556	4302.29
957.86	4259.35
958.163	4237.43
958.467	4199.24
958.771	4198.11
959.075	4191.56
959.378	4154.04
959.682	4179.81
959.985	4154.95
960.289	4081.05
960.592	4104.78
960.896	4121.28
961.199	4079.47
961.502	4028.4
961.805	4011.9
962.108	4004.89
962.411	3979.58
962.714	4008.51
963.017	3967.83
963.32	3960.83
963.623	3909.98
963.926	3885.35
964.228	3903.88
964.531	3865.92
964.833	3865.24
965.136	3836.31
965.438	3819.81
965.741	3833.83
966.043	3786.14
966.345	3758.8
966.648	3749.08
966.95	3742.98
967.252	3703.89
967.554	3718.12
967.856	3672.47
968.158	3649.2
968.46	3667.73
968.761	3605.36
969.063	3598.13
969.365	3612.81
969.666	3579.6
969.968	3574.85
970.269	3580.5
970.571	3551.8
970.872	3511.35
971.174	3522.87
971.475	3464.12
971.776	3488.07
972.077	3474.74
972.378	3493.04
972.679	3449.88
972.98	3448.53
973.281	3429.77
973.582	3411.69
973.883	3400.39
974.183	3385.48
974.484	3392.03
974.785	3364.01
975.085	3328.98
975.386	3338.47
975.686	3325.59
975.986	3233.62
976.287	3285.37
976.587	3214.18
976.887	3227.74
977.187	3239.94
977.487	3229.55
977.787	3178.02
978.087	3168.31
978.387	3177.12
978.687	3153.62
978.987	3117.69
979.286	3134.64
979.586	3138.93
979.885	3136.22
980.185	3115.2
980.484	3070.46
980.784	3040.4
981.083	3051.47
981.382	3037.91
981.682	2979.38
981.981	3037.01
982.28	2978.93
982.579	2976.22
982.878	2983.68
983.177	2951.59
983.475	2907.07
983.774	2937.58
984.073	2897.58
984.372	2888.99
984.67	2891.48
984.969	2867.75
985.267	2843.8
985.566	2878.6
985.864	2874.98
986.162	2811.93
986.461	2836.56
986.759	2785.04
987.057	2761.31
987.355	2808.99
987.653	2747.98
987.951	2742.1
988.249	2734.42
988.547	2721.31
988.844	2674.99
989.142	2713.63
989.44	2658.49
989.737	2690.35
990.035	2660.75
990.332	2617.36
990.63	2642.9
990.927	2629.56
991.224	2559.96
991.521	2583.92
991.819	2574.42
992.116	2564.71
992.413	2549.57
992.71	2535.78
993.006	2542.79
993.303	2552.28
993.6	2516.57
993.897	2520.64
994.193	2485.84
994.49	2471.6
994.787	2454.2
995.083	2460.53
995.379	2446.29
995.676	2431.15
995.972	2440.64
996.268	2405.84
996.565	2358.38
996.861	2397.25
997.157	2378.72
997.453	2332.17
997.749	2356.12
998.044	2339.63
998.34	2338.95
998.636	2290.82
998.932	2290.59
999.227	2279.06
999.523	2274.09
999.818	2273.87
1000.114	2252.85
1000.409	2266.18
1000.704	2202.46
1001	2195.9
1001.295	2187.09
1001.59	2154.55
1001.885	2206.98
1002.18	2143.25
1002.475	2143.7
1002.77	2129.46
1003.065	2135.57
1003.359	2126.07
1003.654	2148.22
1003.949	2101.22
1004.243	2086.3
1004.538	2102.35
1004.832	2070.48
1005.127	2054.89
1005.421	2039.97
1005.715	2030.94
1006.009	2002.24
1006.304	2014.44
1006.598	2004.95
1006.892	1994.78
1007.186	1971.95
1007.48	1973.76
1007.773	1943.48
1008.067	1929.02
1008.361	1913.88
1008.655	1917.27
1008.948	1915.91
1009.242	1895.35
1009.535	1887.44
1009.829	1847.66
1010.122	1877.72
1010.415	1841.79
1010.708	1839.53
1011.001	1813.99
1011.295	1822.35
1011.588	1787.33
1011.881	1758.63
1012.173	1795.01
1012.466	1751.62
1012.759	1764.73
1013.052	1758.4
1013.344	1726.76
1013.637	1716.14
1013.93	1737.84
1014.222	1724.95
1014.514	1714.33
1014.807	1687.89
1015.099	1667.78
1015.391	1682.24
1015.683	1692.19
1015.976	1665.52
1016.268	1641.12
1016.56	1599.53
1016.851	1603.6
1017.143	1633.88
1017.435	1611.29
1017.727	1600.89
1018.018	1578.07
1018.31	1562.7
1018.602	1557.73
1018.893	1546.2
1019.185	1538.29
1019.476	1544.39
1019.767	1516.82
1020.058	1495.81
1020.35	1485.86
1020.641	1507.79
1020.932	1469.37
1021.223	1475.02
1021.514	1480.44
1021.804	1443.15
1022.095	1450.61
1022.386	1450.39
1022.677	1434.11
1022.967	1419.65
1023.258	1404.74
1023.548	1377.17
1023.839	1394.34
1024.129	1385.3
1024.419	1380.56
1024.709	1364.74
1025	1357.96
1025.29	1345.3
1025.58	1338.3
1025.87	1300.56
1026.16	1310.28
1026.449	1302.14
1026.739	1301.46
1027.029	1306.66
1027.319	1300.11
1027.608	1257.85
1027.898	1258.53
1028.187	1266.89
1028.477	1236.61
1028.766	1230.05
1029.055	1232.54
1029.344	1233.22
1029.634	1219.43
1029.923	1201.8
1030.212	1189.6
1030.501	1217.62
1030.79	1205.19
1031.078	1169.94
1031.367	1192.09
1031.656	1159.77
1031.945	1132.88
1032.233	1140.34
1032.522	1149.15
1032.81	1123.61
1033.099	1132.65
1033.387	1108.25
1033.675	1112.09
1033.963	1066.44
1034.251	1084.97
1034.54	1080
1034.828	1087.91
1035.116	1060.34
1035.403	1064.86
1035.691	1050.62
1035.979	1064.18
1036.267	1049.49
1036.554	1047.46
1036.842	1027.8
1037.129	995.93
1037.417	1021.24
1037.704	1033
1037.992	1004.52
1038.279	996.61
1038.566	1006.33
1038.853	1006.33
1039.14	1006.33
