Data from hue_110_FLMS001491_00013.txt Node
Date: Tue Feb 07 17:00:57 GMT 2017
User: dcchb
Spectrometer: FLMS00149
Trigger mode: 0
Integration Time (sec): 2.000000E-2
Scans to average: 10
Electric dark correction enabled: true
Nonlinearity correction enabled: false
Boxcar width: 0
XAxis mode: Wavelengths
Number of Pixels in Spectrum: 2048
>>>>>Begin Spectral Data<<<<<
341.393	0.95
341.776	0.95
342.16	0.95
342.543	-57.36
342.927	-70.92
343.31	-91.48
343.693	-75.89
344.077	-75.66
344.46	-71.37
344.843	-50.58
345.226	-29.34
345.61	-17.81
345.993	-17.13
346.376	3.88
346.759	-1.99
347.142	19.25
347.525	45.24
347.908	67.61
348.291	85.01
348.674	100.38
349.057	109.87
349.44	125.46
349.823	133.82
350.206	166.59
350.588	182.18
350.971	215.63
351.354	228.06
351.737	209.75
352.119	263.09
352.502	267.83
352.884	258.34
353.267	276.19
353.65	302.63
354.032	295.4
354.414	296.08
354.797	307.15
355.179	310.09
355.562	335.63
355.944	318.45
356.326	336.3
356.709	324.33
357.091	339.47
357.473	323.42
357.855	330.2
358.238	334.95
358.62	345.57
359.002	324.78
359.384	334.04
359.766	331.79
360.148	343.99
360.53	343.54
360.912	337.66
361.294	343.76
361.676	351.67
362.057	325.91
362.439	329.53
362.821	317.32
363.203	305.12
363.584	342.41
363.966	335.17
364.348	324.55
364.729	311.9
365.111	322.29
365.493	323.42
365.874	301.73
366.256	327.27
366.637	314.16
367.019	300.15
367.4	300.15
367.781	301.96
368.163	303.54
368.544	309.86
368.925	322.75
369.306	326.36
369.688	306.7
370.069	308.73
370.45	329.07
370.831	304.89
371.212	309.64
371.593	305.57
371.974	291.33
372.355	321.62
372.736	333.14
373.117	296.31
373.498	315.74
373.879	314.84
374.26	305.8
374.641	317.77
375.021	322.07
375.402	330.66
375.783	320.49
376.163	320.03
376.544	341.05
376.925	331.56
377.305	322.29
377.686	325.23
378.066	308.28
378.447	341.73
378.827	324.55
379.208	309.64
379.588	347.6
379.968	334.04
380.349	320.94
380.729	325.68
381.109	329.07
381.489	342.63
381.87	323.2
382.25	333.82
382.63	354.38
383.01	347.38
383.39	336.3
383.77	334.5
384.15	342.63
384.53	332.46
384.91	315.97
385.29	340.15
385.67	343.08
386.049	366.13
386.429	367.26
386.809	325.91
387.189	361.39
387.568	359.81
387.948	348.51
388.328	368.85
388.707	356.19
389.087	360.48
389.466	368.85
389.846	334.5
390.225	360.03
390.605	349.64
390.984	358.45
391.363	366.36
391.743	348.73
392.122	374.27
392.501	381.73
392.881	377.21
393.26	381.05
393.639	378.11
394.018	382.63
394.397	394.61
394.776	380.15
395.155	372.46
395.534	386.25
395.913	393.93
396.292	405.91
396.671	383.99
397.05	398.68
397.429	388.05
397.808	391.44
398.186	393.25
398.565	381.95
398.944	415.62
399.323	372.91
399.701	414.49
400.08	397.32
400.458	403.65
400.837	417.66
401.215	402.29
401.594	414.49
401.972	410.43
402.351	404.1
402.729	424.89
403.107	412.01
403.486	414.27
403.864	408.39
404.242	409.75
404.62	413.14
404.999	399.13
405.377	397.09
405.755	425.12
406.133	420.6
406.511	426.7
406.889	435.06
407.267	435.96
407.645	428.51
408.023	456.98
408.401	439.58
408.779	423.08
409.156	430.77
409.534	428.96
409.912	459.69
410.29	443.87
410.667	453.82
411.045	471.44
411.422	464.44
411.8	464.44
412.178	474.38
412.555	456.98
412.933	445
413.31	476.19
413.687	493.14
414.065	482.52
414.442	488.39
414.819	488.84
415.197	481.84
415.574	498.56
415.951	488.62
416.328	499.24
416.705	508.96
417.082	494.49
417.46	511.67
417.837	513.25
418.214	506.24
418.591	519.8
418.967	512.12
419.344	493.14
419.721	520.48
420.098	519.58
420.475	526.36
420.852	538.11
421.228	523.87
421.605	534.72
421.982	530.65
422.358	531.1
422.735	549.63
423.111	558.9
423.488	543.53
423.864	550.76
424.241	563.42
424.617	565.68
424.994	569.07
425.37	572.23
425.746	568.39
426.123	584.66
426.499	580.37
426.875	606.13
427.251	605.9
427.627	612.46
428.003	595.51
428.379	597.31
428.756	619.01
429.132	593.47
429.507	615.39
429.883	624.43
430.259	635.73
430.635	644.55
431.011	630.08
431.387	657.88
431.763	673.25
432.138	650.65
432.514	663.08
432.89	656.75
433.265	661.04
433.641	687.71
434.016	677.09
434.392	680.02
434.767	699.23
435.143	694.04
435.518	721.83
435.894	701.49
436.269	703.07
436.644	715.96
437.02	707.14
437.395	718.44
437.77	746.24
438.145	738.55
438.52	754.6
438.895	746.01
439.271	750.08
439.646	776.97
440.021	781.72
440.395	759.57
440.77	788.95
441.145	785.78
441.52	798.67
441.895	809.29
442.27	810.42
442.645	802.73
443.019	811.55
443.394	811.55
443.769	816.52
444.143	799.57
444.518	816.74
444.892	848.38
445.267	833.24
445.641	841.15
446.016	844.31
446.39	835.95
446.764	856.97
447.139	874.82
447.513	867.59
447.887	876.18
448.262	882.28
448.636	895.39
449.01	866.23
449.384	886.8
449.758	907.82
450.132	935.61
450.506	909.17
450.88	919.34
451.254	930.19
451.628	917.31
452.002	947.14
452.376	930.87
452.75	965.67
453.123	948.49
453.497	977.87
453.871	982.62
454.244	994.37
454.618	1009.73
454.992	1021.48
455.365	1010.41
455.739	1018.77
456.112	1028.94
456.486	1070.97
456.859	1067.81
457.232	1096.51
457.606	1089.73
457.979	1122.5
458.352	1111.2
458.725	1135.15
459.099	1138.77
459.472	1152.55
459.845	1133.12
460.218	1178.54
460.591	1186.68
460.964	1211.31
461.337	1240.69
461.71	1252.44
462.083	1243.17
462.456	1231.87
462.829	1282.04
463.201	1257.41
463.574	1266.22
463.947	1327.47
464.32	1371.98
464.692	1346
465.065	1375.6
465.438	1395.49
465.81	1427.58
466.183	1434.58
466.555	1472.77
466.928	1477.74
467.3	1498.31
467.672	1504.86
468.045	1534.24
468.417	1569.27
468.789	1599.77
469.161	1572.43
469.534	1635.93
469.906	1639.1
470.278	1687
470.65	1696.04
471.022	1740.34
471.394	1786.89
471.766	1811.52
472.138	1818.07
472.51	1887.22
472.882	1929.26
473.253	1942.82
473.625	2015.36
473.997	2047.22
474.369	2076.15
474.74	2122.02
475.112	2159.08
475.484	2214.22
475.855	2267.55
476.227	2313.65
476.598	2358.4
476.97	2432.07
477.341	2526.76
477.713	2584.16
478.084	2588.45
478.455	2665.51
478.827	2743.93
479.198	2875.9
479.569	2870.02
479.94	3007.19
480.311	3064.82
480.682	3177.81
481.053	3281.54
481.424	3350.01
481.795	3395.89
482.166	3529.89
482.537	3591.36
482.908	3698.02
483.279	3771.02
483.65	3884.91
484.021	4032.93
484.391	4103.89
484.762	4173.49
485.133	4278.35
485.503	4382.98
485.874	4559.7
486.244	4619.13
486.615	4764.21
486.985	4872.91
487.356	5082.85
487.726	5112
488.097	5267.47
488.467	5337.3
488.837	5518.99
489.207	5655.03
489.578	5741.81
489.948	5909.72
490.318	6059.77
490.688	6144.97
491.058	6320.1
491.428	6429.03
491.798	6570.49
492.168	6740.66
492.538	6806.42
492.908	7045.05
493.278	7178.61
493.648	7248.89
494.017	7351.04
494.387	7533.4
494.757	7646.17
495.126	7821.76
495.496	7847.52
495.866	8026.72
496.235	8160.28
496.605	8256.1
496.974	8382.42
497.344	8536.09
497.713	8607.27
498.082	8737.67
498.452	8950.99
498.821	9015.4
499.19	9071.89
499.559	9150.99
499.928	9356.41
500.298	9403.86
500.667	9529.28
501.036	9588.94
501.405	9790.52
501.774	9847.02
502.143	9872.78
502.512	9921.14
502.88	10069.38
503.249	10092.21
503.618	10319.32
503.987	10336.04
504.356	10484.29
504.724	10539.43
505.093	10618.97
505.462	10639.99
505.83	10718.4
506.199	10883.82
506.567	10994.56
506.936	10924.05
507.304	11166.08
507.672	11230.71
508.041	11273.64
508.409	11386.18
508.777	11396.8
509.145	11551.15
509.514	11583.24
509.882	11569.46
510.25	11683.35
510.618	11725.38
510.986	11681.54
511.354	11903.68
511.722	11922.89
512.09	12066.62
512.458	12000.86
512.826	12129.44
513.193	12171.93
513.561	12234.97
513.929	12202.66
514.297	12337.8
514.664	12395.42
515.032	12345.48
515.4	12565.36
515.767	12461.41
516.135	12582.08
516.502	12552.93
516.869	12761.51
517.237	12711.12
517.604	12673.16
517.972	12800.16
518.339	12905.69
518.706	12883.09
519.073	12909.08
519.44	12882.64
519.808	13085.35
520.175	13017.1
520.542	13177.1
520.909	13153.14
521.276	13139.58
521.643	13295.96
522.009	13157.21
522.376	13282.86
522.743	13339.35
523.11	13330.31
523.477	13449.41
523.843	13483.98
524.21	13528.95
524.577	13573.24
524.943	13559.91
525.31	13657.76
525.676	13728.04
526.043	13802.84
526.409	13739.12
526.776	13904.54
527.142	13813.01
527.508	13855.5
527.874	13824.54
528.241	14027.7
528.607	13912.22
528.973	14030.86
529.339	14042.61
529.705	14032.67
530.071	14014.14
530.437	14081.03
530.803	14043.06
531.169	14084.19
531.535	14008.04
531.901	14064.31
532.267	14063.18
532.632	14076.96
532.998	14061.14
533.364	14139.78
533.73	14102.95
534.095	14084.87
534.461	14057.07
534.826	14065.89
535.192	14036.51
535.557	14082.16
535.923	14020.92
536.288	14057.07
536.653	13993.12
537.019	13981.37
537.384	14024.98
537.749	14002.16
538.114	13932.33
538.479	13957.19
538.845	13945.89
539.21	13864.08
539.575	13848.49
539.94	13846.46
540.305	13913.57
540.67	13798.32
541.034	13798.1
541.399	13827.7
541.764	13634.71
542.129	13706.57
542.494	13625.9
542.858	13706.8
543.223	13698.21
543.587	13643.75
543.952	13552
544.316	13547.03
544.681	13551.78
545.045	13574.15
545.41	13555.39
545.774	13530.99
546.138	13393.36
546.503	13434.72
546.867	13387.49
547.231	13427.03
547.595	13372.12
547.959	13363.76
548.324	13225.23
548.688	13246.7
549.052	13245.34
549.416	13271.56
549.779	13219.13
550.143	13125.8
550.507	13256.42
550.871	13227.04
551.235	13207.15
551.599	13162.41
551.962	13178.23
552.326	12997.89
552.689	13137.1
553.053	13036.54
553.417	13027.72
553.78	13140.04
554.143	12962.41
554.507	12996.31
554.87	12996.54
555.234	13058.91
555.597	13039.47
555.96	12898.46
556.323	12902.98
556.686	12915.63
557.05	12932.58
557.413	12931.45
557.776	12972.36
558.139	12963.54
558.502	12927.84
558.865	12884
559.228	12891
559.59	12989.08
559.953	12895.52
560.316	13014.39
560.679	12963.77
561.041	12928.74
561.404	13027.95
561.767	12996.08
562.129	12908.18
562.492	13034.5
562.854	13017.33
563.217	12918.8
563.579	12960.38
563.941	13027.04
564.304	12942.53
564.666	13054.61
565.028	13028.63
565.39	13050.55
565.753	13051.22
566.115	13160.6
566.477	13184.33
566.839	13145.23
567.201	13247.83
567.563	13185.91
567.925	13221.16
568.287	13231.33
568.648	13201.05
569.01	13186.81
569.372	13290.09
569.734	13167.83
570.095	13266.81
570.457	13329.18
570.819	13289.18
571.18	13267.72
571.542	13275.63
571.903	13293.93
572.265	13377.09
572.626	13355.4
572.987	13374.83
573.349	13390.88
573.71	13374.83
574.071	13373.7
574.432	13451.44
574.794	13485.34
575.155	13489.41
575.516	13433.14
575.877	13535.51
576.238	13528.5
576.599	13483.76
576.96	13538.22
577.32	13482.17
577.681	13554.26
578.042	13496.64
578.403	13540.25
578.763	13526.24
579.124	13462.74
579.485	13449.86
579.845	13564.21
580.206	13558.1
580.566	13542.96
580.927	13493.92
581.287	13533.92
581.648	13505.22
582.008	13534.83
582.368	13522.4
582.728	13567.37
583.089	13470.87
583.449	13465.68
583.809	13535.05
584.169	13500.48
584.529	13462.74
584.889	13528.27
585.249	13395.17
585.609	13417.09
585.969	13419.35
586.329	13441.27
586.688	13459.12
587.048	13482.17
587.408	13375.51
587.768	13458.67
588.127	13349.3
588.487	13359.69
588.846	13475.17
589.206	13318.34
589.565	13398.33
589.925	13350.43
590.284	13316.98
590.643	13400.59
591.003	13435.4
591.362	13352.23
591.721	13348.62
592.08	13363.08
592.44	13378.45
592.799	13341.61
593.158	13310.88
593.517	13253.93
593.876	13352.91
594.235	13282.4
594.593	13287.38
594.952	13359.24
595.311	13276.3
595.67	13326.25
596.029	13348.84
596.387	13307.26
596.746	13343.19
597.104	13278.11
597.463	13252.35
597.822	13329.41
598.18	13170.77
598.538	13140.49
598.897	13289.64
599.255	13147.72
599.613	13300.94
599.972	13266.13
600.33	13197.44
600.688	13225.23
601.046	13183.65
601.404	13283.53
601.762	13273.37
602.12	13305.46
602.478	13296.42
602.836	13298.22
603.194	13303.87
603.552	13233.14
603.91	13155.85
604.268	13280.37
604.625	13288.05
604.983	13280.82
605.341	13265.46
605.698	13322.4
606.056	13342.29
606.413	13274.04
606.771	13284.21
607.128	13294.61
607.485	13288.73
607.843	13232.24
608.2	13255.29
608.557	13349.52
608.914	13321.5
609.272	13290.31
609.629	13356.3
609.986	13432.68
610.343	13300.26
610.7	13402.63
611.057	13425
611.414	13343.42
611.771	13475.39
612.127	13480.37
612.484	13468.39
612.841	13539.8
613.198	13459.12
613.554	13459.12
613.911	13474.94
614.267	13504.32
614.624	13432.23
614.98	13541.16
615.337	13544.32
615.693	13474.94
616.05	13534.6
616.406	13523.53
616.762	13562.4
617.118	13567.37
617.475	13572.11
617.831	13662.96
618.187	13616.86
618.543	13582.74
618.899	13701.83
619.255	13658.21
619.611	13637.65
619.967	13676.29
620.323	13640.14
620.678	13706.12
621.034	13597.88
621.39	13613.92
621.746	13613.02
622.101	13710.87
622.457	13672.23
622.812	13665.9
623.168	13618.89
623.523	13618.44
623.879	13728.72
624.234	13643.53
624.589	13663.64
624.945	13610.76
625.3	13640.59
625.655	13713.35
626.01	13608.5
626.365	13614.37
626.72	13694.15
627.075	13534.83
627.43	13607.14
627.785	13552.91
628.14	13639.91
628.495	13683.07
628.85	13679.46
629.205	13614.6
629.559	13660.7
629.914	13541.83
630.269	13530.08
630.623	13520.59
630.978	13522.62
631.332	13641.27
631.687	13571.21
632.041	13519.01
632.396	13533.7
632.75	13470.42
633.104	13551.1
633.459	13515.17
633.813	13554.04
634.167	13474.94
634.521	13459.35
634.875	13456.86
635.229	13428.39
635.583	13400.59
635.937	13409.63
636.291	13321.27
636.645	13348.84
636.999	13253.93
637.352	13375.74
637.706	13217.55
638.06	13335.74
638.413	13296.42
638.767	13277.66
639.121	13272.91
639.474	13172.58
639.828	13175.74
640.181	13180.71
640.534	13186.59
640.888	13158.11
641.241	13107.49
641.594	13142.3
641.947	13127.61
642.301	13116.76
642.654	13163.54
643.007	13185.68
643.36	13148.62
643.713	13132.13
644.066	13156.31
644.419	13027.72
644.771	13006.93
645.124	12834.28
645.477	12838.8
645.83	12815.07
646.182	12697.79
646.535	12637.45
646.888	12703.44
647.24	12675.87
647.593	12700.05
647.945	12748.63
648.298	12576.89
648.65	12596.77
649.002	12477
649.355	12599.49
649.707	12621.86
650.059	12665.7
650.411	12814.17
650.763	12775.07
651.115	12995.63
651.467	12926.03
651.819	12949.31
652.171	12928.29
652.523	12943.88
652.875	12941.85
653.227	12914.96
653.578	12938.23
653.93	12927.16
654.282	12894.84
654.633	12813.26
654.985	12924.67
655.337	12891.23
655.688	12951.11
656.039	12991.79
656.391	12904.34
656.742	12961.06
657.094	12930.78
657.445	12886.26
657.796	12911.12
658.147	12872.47
658.498	12998.57
658.849	12949.76
659.2	12934.17
659.551	12853.26
659.902	12879.25
660.253	12890.32
660.604	12941.85
660.955	12836.54
661.306	12957.67
661.656	12906.14
662.007	12925.13
662.358	12984.33
662.708	12962.64
663.059	12911.34
663.409	12917.67
663.76	12928.29
664.11	12990.89
664.461	13043.32
664.811	13040.15
665.161	13027.95
665.511	13007.84
665.862	13015.29
666.212	12950.89
666.562	13034.95
666.912	12945.46
667.262	12901.17
667.612	13012.58
667.962	12954.73
668.312	12933.49
668.662	13041.28
669.011	13066.82
669.361	12947.05
669.711	12954.73
670.06	12883.77
670.41	12936.65
670.76	12950.44
671.109	13017.78
671.459	12957.89
671.808	12944.33
672.157	12884.22
672.507	12832.47
672.856	12895.97
673.205	12804.9
673.554	12849.42
673.904	12814.39
674.253	12830.44
674.602	12750.22
674.951	12617.56
675.3	12573.5
675.649	12741.63
675.998	12747.5
676.346	12766.03
676.695	12726.49
677.044	12740.05
677.393	12721.29
677.741	12782.53
678.09	12668.64
678.438	12654.85
678.787	12620.05
679.135	12624.8
679.484	12662.08
679.832	12617.79
680.181	12591.58
680.529	12551.12
680.877	12516.1
681.225	12565.36
681.573	12589.77
681.922	12592.48
682.27	12451.92
682.618	12463.22
682.966	12431.13
683.314	12424.57
683.661	12435.2
684.009	12318.81
684.357	12328.53
684.705	12324.46
685.053	12301.19
685.4	12244.24
685.748	12194.07
686.095	12137.58
686.443	12206.95
686.79	12111.81
687.138	12178.71
687.485	12161.08
687.832	12051.93
688.18	12108.42
688.527	12055.32
688.874	12058.03
689.221	11928.09
689.568	11959.05
689.915	11928.32
690.262	11896.68
690.609	11927.41
690.956	11800.64
691.303	11746.63
691.65	11712.05
691.997	11729.23
692.344	11629.57
692.69	11659.85
693.037	11643.8
693.383	11493.75
693.73	11498.5
694.077	11453.07
694.423	11448.78
694.769	11415.79
695.116	11415.11
695.462	11364.49
695.808	11275
696.155	11258.96
696.501	11301.21
696.847	11224.15
697.193	11155
697.539	11179.86
697.885	11021.9
698.231	11043.37
698.577	10973.09
698.923	10949.81
699.269	10895.8
699.614	10924.05
699.96	10854.45
700.306	10894.45
700.651	10857.16
700.997	10702.81
701.342	10682.25
701.688	10669.59
702.033	10641.34
702.379	10584.62
702.724	10523.61
703.069	10621.46
703.415	10501.69
703.76	10470.5
704.105	10539.43
704.45	10403.61
704.795	10328.81
705.14	10314.12
705.485	10277.06
705.83	10280.9
706.175	10217.85
706.52	10185.31
706.865	10157.74
707.209	10175.82
707.554	10090.62
707.899	10109.61
708.243	10046.33
708.588	10024.86
708.932	10004.98
709.277	9947.35
709.621	9937.86
709.966	9899.9
710.31	9905.77
710.654	9781.48
710.998	9828.26
711.342	9801.14
711.687	9806.11
712.031	9753.91
712.375	9749.62
712.719	9815.6
713.063	9706.45
713.407	9738.09
713.75	9660.81
714.094	9607.47
714.438	9662.39
714.782	9623.74
715.125	9607.7
715.469	9586.01
715.812	9623.97
716.156	9558.44
716.499	9559.34
716.843	9470.08
717.186	9435.95
717.53	9459.45
717.873	9442.05
718.216	9486.35
718.559	9372.68
718.902	9400.7
719.246	9354.6
719.589	9318.89
719.932	9308.27
720.275	9268.5
720.617	9321.83
720.96	9334.26
721.303	9340.14
721.646	9321.83
721.989	9328.84
722.331	9258.56
722.674	9298.55
723.016	9249.06
723.359	9236.18
723.701	9265.34
724.044	9235.96
724.386	9191.89
724.729	9289.74
725.071	9152.8
725.413	9220.59
725.755	9223.98
726.097	9114.38
726.439	9086.13
726.782	9124.1
727.124	9211.1
727.465	9134.94
727.807	9127.26
728.149	9090.65
728.491	9091.55
728.833	9160.25
729.175	9046.58
729.516	9046.13
729.858	9005.23
730.199	9075.74
730.541	9043.65
730.882	9018.79
731.224	9043.19
731.565	8994.16
731.906	9046.13
732.248	9061.95
732.589	9018.11
732.93	9011.1
733.271	9032.35
733.612	9086.36
733.953	9127.26
734.294	9017.66
734.635	9047.04
734.976	9069.63
735.317	9051.1
735.658	9034.16
735.999	9053.82
736.339	9048.84
736.68	9130.88
737.021	9036.87
737.361	9060.6
737.702	9067.15
738.042	9037.32
738.383	9066.02
738.723	9147.82
739.063	9041.84
739.404	9114.6
739.744	9128.16
740.084	9122.97
740.424	9137.2
740.764	9126.36
741.104	9220.59
741.444	9083.19
741.784	9114.15
742.124	9221.04
742.464	9154.38
742.804	9173.59
743.143	9279.57
743.483	9301.94
743.823	9235.51
744.162	9209.74
744.502	9334.71
744.841	9288.39
745.181	9348.5
745.52	9375.16
745.86	9426.24
746.199	9422.39
746.538	9461.04
746.877	9519.57
747.216	9547.59
747.556	9602.73
747.895	9696.96
748.234	9675.72
748.573	9667.58
748.911	9753.68
749.25	9839.78
749.589	9902.15
749.928	9957.07
750.267	10065.99
750.605	10073.22
750.944	10224.18
751.283	10217.17
751.621	10282.03
751.96	10396.83
752.298	10497.85
752.636	10607.67
752.975	10636.82
753.313	10693.55
753.651	10844.73
753.989	10900.55
754.327	11024.16
754.666	11012.63
755.004	11308.9
755.342	11378.05
755.679	11514.09
756.017	11586.86
756.355	11761.77
756.693	11813.97
757.031	11974.42
757.368	12098.71
757.706	12266.61
758.044	12337.12
758.381	12492.82
758.719	12671.57
759.056	12788.41
759.394	12958.35
759.731	13060.49
760.068	13240.15
760.405	13328.96
760.743	13454.15
761.08	13675.84
761.417	13756.74
761.754	13904.08
762.091	14126.9
762.428	14278.31
762.765	14314.24
763.102	14469.04
763.438	14719.2
763.775	14804.17
764.112	14977.5
764.449	15148.8
764.785	15224.73
765.122	15306.98
765.458	15487.32
765.795	15621.78
766.131	15762.79
766.467	15919.85
766.804	16028.1
767.14	16185.61
767.476	16208.2
767.812	16294.3
768.148	16478.25
768.485	16635.99
768.821	16666.5
769.157	16769.09
769.492	16893.61
769.828	16994.4
770.164	16972.48
770.5	17063.55
770.836	17297.89
771.171	17327.5
771.507	17373.14
771.842	17448.4
772.178	17509.41
772.513	17641.61
772.849	17590.99
773.184	17703.31
773.519	17834.38
773.855	17689.52
774.19	17843.64
774.525	17866.92
774.86	18011.32
775.195	18066.91
775.53	18087.93
775.865	18126.35
776.2	17969.06
776.535	18064.43
776.87	18157.76
777.205	18189.17
777.539	18076.86
777.874	18197.53
778.209	18119.57
778.543	18182.39
778.878	18261.26
779.212	18251.77
779.547	18240.69
779.881	18352.1
780.215	18249.28
780.55	18351.65
780.884	18175.16
781.218	18310.52
781.552	18343.29
781.886	18246.34
782.22	18222.84
782.554	18240.01
782.888	18113.01
783.222	18214.48
783.556	18146.23
783.889	18120.7
784.223	18070.3
784.557	18042.96
784.89	18114.14
785.224	18112.11
785.557	17973.81
785.891	18013.35
786.224	17906.46
786.558	17992.11
786.891	17865.79
787.224	17824.21
787.557	17863.3
787.891	17855.17
788.224	17894.49
788.557	17823.08
788.89	17922.06
789.223	17872.34
789.556	17638
789.888	17658.56
790.221	17601.39
790.554	17479.13
790.887	17582.18
791.219	17586.92
791.552	17520.03
791.884	17431.22
792.217	17428.06
792.549	17405.91
792.882	17328.85
793.214	17283.66
793.546	17340.6
793.879	17223.77
794.211	17060.16
794.543	17201.85
794.875	17118.69
795.207	17191.23
795.539	17074.17
795.871	17069.88
796.203	17080.27
796.535	16947.39
796.867	16786.72
797.198	16973.61
797.53	16805.25
797.862	16748.3
798.193	16849.77
798.525	16702.43
798.856	16731.58
799.188	16533.84
799.519	16526.39
799.85	16479.38
800.182	16454.07
800.513	16553.96
800.844	16415.66
801.175	16436.9
801.506	16395.77
801.837	16304.7
802.168	16312.16
802.499	16278.48
802.83	16189.67
803.161	16060.19
803.491	16043.69
803.822	16189.67
804.153	16001.2
804.483	15934.54
804.814	15918.49
805.145	15921.88
805.475	15908.32
805.805	15802.79
806.136	15874.43
806.466	15789.91
806.796	15749.91
807.126	15673.75
807.457	15655.9
807.787	15613.64
808.117	15599.18
808.447	15482.12
808.777	15506.53
809.107	15379.3
809.436	15387.21
809.766	15461.1
810.096	15367.55
810.426	15334.55
810.755	15320.54
811.085	15303.14
811.414	15236.48
811.744	15110.38
812.073	15158.97
812.403	15095.01
812.732	15012.08
813.061	15064.05
813.39	14913.55
813.719	14931.18
814.049	15001.23
814.378	15040.1
814.707	14929.14
815.036	14925.07
815.365	14855.7
815.693	14697.28
816.022	14870.16
816.351	14714.91
816.68	14567.34
817.008	14668.81
817.337	14495.48
817.665	14508.81
817.994	14634.23
818.322	14556.27
818.651	14449.38
818.979	14467.01
819.307	14466.55
819.636	14418.65
819.964	14401.25
820.292	14411.41
820.62	14448.7
820.948	14344.07
821.276	14393.34
821.604	14409.16
821.932	14398.53
822.259	14334.35
822.587	14424.07
822.915	14263.62
823.243	14418.42
823.57	14285.09
823.898	14282.83
824.225	14315.82
824.553	14237.18
824.88	14303.17
825.207	14352.89
825.535	14374.58
825.862	14449.61
826.189	14319.67
826.516	14393.56
826.843	14382.49
827.17	14376.39
827.497	14451.64
827.824	14408.03
828.151	14469.04
828.478	14288.48
828.805	14408.03
829.131	14480.34
829.458	14323.51
829.785	14308.37
830.111	14340.23
830.438	14465.65
830.764	14368.7
831.09	14355.15
831.417	14226.11
831.743	14348.59
832.069	14238.76
832.395	14283.96
832.722	14302.94
833.048	14334.58
833.374	14252.1
833.7	14342.26
834.026	14318.99
834.351	14282.83
834.677	14234.47
835.003	14338.42
835.329	14263.62
835.654	14236.5
835.98	14204.87
836.306	14230.63
836.631	14189.73
836.956	14241.7
837.282	14121.25
837.607	14163.51
837.932	14075.83
838.258	14008.26
838.583	14055.72
838.908	13952.9
839.233	13989.05
839.558	13932.33
839.883	13824.31
840.208	13811.2
840.533	13868.38
840.858	13804.88
841.182	13877.42
841.507	13877.19
841.832	13758.1
842.156	13747.48
842.481	13743.18
842.805	13706.57
843.13	13629.29
843.454	13656.18
843.778	13665.45
844.103	13490.08
844.427	13545
844.751	13526.47
845.075	13493.02
845.399	13439.24
845.723	13378.45
846.047	13412.57
846.371	13263.65
846.695	13314.04
847.019	13185.46
847.343	13062.07
847.666	13010.1
847.99	13116.99
848.313	13014.16
848.637	12961.28
848.96	12902.98
849.284	12851
849.607	12777.33
849.931	12782.08
850.254	12718.58
850.577	12566.27
850.9	12499.6
851.223	12524.91
851.546	12399.72
851.869	12358.36
852.192	12465.93
852.515	12241.53
852.838	12322.2
853.161	12313.84
853.483	12198.37
853.806	12077.24
854.129	12144.58
854.451	12030.91
854.774	12002.21
855.096	11936.23
855.419	11921.99
855.741	11893.06
856.063	11848.09
856.385	11857.36
856.708	11756.57
857.03	11759.51
857.352	11757.02
857.674	11690.13
857.996	11706.85
858.318	11611.26
858.64	11544.82
858.961	11586.4
859.283	11551.15
859.605	11532.85
859.926	11488.55
860.248	11461.66
860.57	11407.88
860.891	11472.28
861.212	11362.23
861.534	11338.73
861.855	11273.87
862.176	11278.84
862.498	11306.86
862.819	11316.58
863.14	11290.14
863.461	11214.21
863.782	11145.51
864.103	11194.78
864.424	11154.55
864.745	11120.65
865.065	11152.07
865.386	11051.73
865.707	11018.74
866.027	11110.94
866.348	11001.34
866.668	10999.3
866.989	10973.99
867.309	10804.28
867.63	11009.7
867.95	11037.94
868.27	10893.32
868.59	10820.55
868.91	10877.95
869.23	10850.6
869.55	10724.51
869.87	10893.99
870.19	10744.62
870.51	10743.26
870.83	10794.11
871.15	10712.08
871.469	10659.65
871.789	10766.76
872.109	10749.36
872.428	10644.06
872.748	10652.64
873.067	10629.37
873.386	10611.97
873.706	10651.97
874.025	10518.18
874.344	10511.86
874.663	10598.63
874.982	10572.19
875.301	10533.55
875.62	10502.14
875.939	10471.63
876.258	10465.98
876.577	10476.83
876.896	10430.73
877.214	10396.83
877.533	10397.28
877.852	10380.33
878.17	10370.84
878.489	10461.24
878.807	10341.69
879.125	10371.97
879.444	10272.09
879.762	10282.48
880.08	10279.77
880.398	10263.28
880.716	10248.59
881.034	10217.63
881.352	10189.83
881.67	10162.94
881.988	10145.09
882.306	10105.99
882.624	10118.87
882.941	10061.47
883.259	10001.81
883.577	10033.68
883.894	10028.48
884.212	9914.36
884.529	10000.68
884.846	9934.02
885.164	9903.74
885.481	9913.68
885.798	9854.02
886.115	9821.93
886.432	9811.54
886.75	9757.98
887.067	9798.2
887.383	9685.89
887.7	9687.02
888.017	9744.19
888.334	9750.52
888.651	9665.1
888.967	9627.13
889.284	9600.92
889.6	9611.32
889.917	9525.22
890.233	9542.16
890.55	9472.11
890.866	9480.47
891.182	9469.4
891.498	9422.17
891.815	9385.11
892.131	9258.78
892.447	9307.59
892.763	9304.66
893.079	9236.41
893.395	9284.77
893.71	9223.98
894.026	9242.06
894.342	9221.49
894.657	9053.82
894.973	9091.55
895.289	9058.79
895.604	9098.33
895.92	9015.85
896.235	8968.39
896.55	8927.27
896.865	8932.01
897.181	8889.3
897.496	8891.11
897.811	8845.91
898.126	8843.65
898.441	8826.25
898.756	8775.4
899.071	8655.63
899.386	8687.95
899.7	8704.9
900.015	8558.69
900.33	8527.05
900.644	8556.43
900.959	8612.92
901.273	8484.79
901.588	8467.39
901.902	8402.99
902.216	8384
902.531	8345.81
902.845	8345.36
903.159	8265.14
903.473	8275.31
903.787	8194.86
904.101	8145.82
904.415	8167.96
904.729	8207.51
905.042	8118.7
905.356	8074.63
905.67	8063.56
905.984	8021.07
906.297	7971.36
906.611	7915.77
906.924	7979.27
907.237	7936.56
907.551	7878.03
907.864	7861.08
908.177	7798.03
908.491	7764.81
908.804	7770.01
909.117	7687.52
909.43	7672.16
909.743	7611.82
910.056	7627.86
910.368	7544.7
910.681	7509.9
910.994	7490.01
911.307	7525.49
911.619	7432.62
911.932	7452.05
912.244	7441.43
912.557	7398.49
912.869	7316.46
913.181	7276.01
913.494	7285.27
913.806	7139.97
914.118	7188.1
914.43	7177.03
914.742	7179.74
915.054	7119.63
915.366	7119.63
915.678	7079.4
915.99	7065.85
916.302	6940.42
916.613	6944.04
916.925	6934.1
917.236	6932.74
917.548	6951.05
917.859	6896.13
918.171	6834.89
918.482	6850.94
918.794	6745.18
919.105	6768.68
919.416	6779.3
919.727	6719.41
920.038	6723.93
920.349	6650.04
920.66	6589.02
920.971	6654.1
921.282	6589.47
921.593	6550.83
921.903	6515.35
922.214	6516.03
922.525	6499.76
922.835	6446.88
923.146	6403.72
923.456	6386.99
923.767	6369.82
924.077	6361.91
924.387	6357.62
924.697	6339.76
925.008	6265.87
925.318	6227
925.628	6167.11
925.938	6187.22
926.248	6151.52
926.558	6106.55
926.867	6081.24
927.177	6082.14
927.487	6051.63
927.796	5991.07
928.106	6027
928.416	5932.32
928.725	5983.61
929.034	5915.59
929.344	5869.27
929.653	5907.01
929.962	5893.9
930.271	5832.88
930.581	5734.81
930.89	5781.81
931.199	5738.65
931.508	5726.22
931.817	5723.51
932.125	5707.01
932.434	5720.57
932.743	5634.24
933.051	5597.18
933.36	5560.12
933.669	5587.47
933.977	5541.82
934.286	5587.92
934.594	5499.78
934.902	5446.68
935.21	5465.21
935.519	5421.14
935.827	5446.9
936.135	5388.15
936.443	5361.03
936.751	5326
937.059	5345.21
937.367	5254.14
937.674	5307.93
937.982	5267.47
938.29	5211.66
938.597	5225.22
938.905	5169.62
939.213	5194.26
939.52	5121.49
939.827	5156.97
940.135	5119
940.442	5074.03
940.749	5069.06
941.056	5079.91
941.363	5015.96
941.67	5035.16
941.977	4998.1
942.284	4933.25
942.591	4925.79
942.898	4918.11
943.205	4915.17
943.511	4851.21
943.818	4891.21
944.125	4849.86
944.431	4827.49
944.738	4827.49
945.044	4770.54
945.35	4761.95
945.657	4715.17
945.963	4730.09
946.269	4661.84
946.575	4671.11
946.881	4585.91
947.187	4606.02
947.493	4649.64
947.799	4624.33
948.105	4587.72
948.41	4519.7
948.716	4577.55
949.022	4508.85
949.327	4514.73
949.633	4437.44
949.938	4427.5
950.244	4384.56
950.549	4341.4
950.854	4368.06
951.16	4368.52
951.465	4288.29
951.77	4340.04
952.075	4288.29
952.38	4267.73
952.685	4308.86
952.99	4230.21
953.294	4249.65
953.599	4225.47
953.904	4219.37
954.209	4151.57
954.513	4164
954.818	4154.28
955.122	4135.3
955.426	4160.16
955.731	4090.1
956.035	4084
956.339	4077.68
956.643	4041.52
956.948	4045.13
957.252	4034.06
957.556	4001.52
957.86	3946.83
958.163	3986.15
958.467	3949.77
958.771	3946.38
959.075	3913.39
959.378	3909.54
959.682	3898.02
959.985	3857.12
960.289	3859.15
960.592	3858.47
960.896	3814.63
961.199	3794.74
961.502	3796.55
961.805	3795.65
962.108	3758.81
962.411	3795.65
962.714	3739.38
963.017	3729.44
963.32	3708.65
963.623	3683.56
963.926	3648.53
964.228	3645.37
964.531	3661.64
964.833	3616.22
965.136	3575.77
965.438	3585.03
965.741	3530.35
966.043	3537.12
966.345	3544.81
966.648	3549.55
966.95	3511.14
967.252	3461.87
967.554	3508.2
967.856	3447.41
968.158	3439.5
968.46	3425.94
968.761	3391.82
969.063	3404.25
969.365	3374.64
969.666	3380.29
969.968	3326.73
970.269	3329.45
970.571	3315.21
970.872	3326.51
971.174	3289.22
971.475	3260.75
971.776	3258.26
972.077	3263.01
972.378	3259.62
972.679	3226.4
972.98	3204.48
973.281	3190.24
973.582	3178.94
973.883	3201.99
974.183	3136.91
974.484	3097.36
974.785	3127.87
975.085	3126.29
975.386	3105.05
975.686	3080.64
975.986	3090.36
976.287	3075.44
976.587	3015.33
976.887	3047.19
977.187	2976.69
977.487	2973.75
977.787	3008.78
978.087	2993.18
978.387	2927.87
978.687	2922
978.987	2911.83
979.286	2919.97
979.586	2905.05
979.885	2875.67
980.185	2884.03
980.484	2854.43
980.784	2867.31
981.083	2833.64
981.382	2852.85
981.682	2843.13
981.981	2811.72
982.28	2784.83
982.579	2806.52
982.878	2777.6
983.177	2742.8
983.475	2782.12
983.774	2741.89
984.073	2694.66
984.372	2694.66
984.67	2705.28
984.969	2680.88
985.267	2701.44
985.566	2647.66
985.864	2646.07
986.162	2630.26
986.461	2646.75
986.759	2608.11
987.057	2597.49
987.355	2574.21
987.653	2587.77
987.951	2578.28
988.249	2568.79
988.547	2559.75
988.844	2548
989.142	2524.72
989.44	2520.43
989.737	2511.61
990.035	2505.29
990.332	2497.6
990.63	2496.02
990.927	2467.55
991.224	2419.41
991.521	2434.55
991.819	2444.72
992.116	2405.63
992.413	2403.59
992.71	2377.16
993.006	2355.69
993.303	2386.87
993.6	2370.38
993.897	2342.81
994.193	2339.87
994.49	2323.82
994.787	2319.08
995.083	2303.26
995.379	2262.13
995.676	2272.3
995.972	2246.76
996.268	2241.57
996.565	2230.04
996.861	2236.59
997.157	2251.06
997.453	2205.41
997.749	2186.65
998.044	2154.11
998.34	2190.95
998.636	2151.17
998.932	2149.36
999.227	2152.08
999.523	2139.42
999.818	2116.6
1000.114	2100.33
1000.409	2115.47
1000.704	2100.78
1001	2087.22
1001.295	2058.97
1001.59	2067.78
1001.885	2055.81
1002.18	2021.46
1002.475	2038.86
1002.77	2008.35
1003.065	2014.23
1003.359	2005.19
1003.654	1971.52
1003.949	1990.27
1004.243	1952.31
1004.538	1972.19
1004.832	1952.99
1005.127	1949.6
1005.421	1942.36
1005.715	1923.16
1006.009	1921.35
1006.304	1906.66
1006.598	1903.5
1006.892	1865.3
1007.186	1835.47
1007.48	1846.77
1007.773	1831.86
1008.067	1825.08
1008.361	1814.91
1008.655	1790.28
1008.948	1801.12
1009.242	1768.13
1009.535	1776.72
1009.829	1755.25
1010.122	1746.21
1010.415	1764.52
1010.708	1738.75
1011.001	1726.32
1011.295	1712.77
1011.588	1684.97
1011.881	1714.35
1012.173	1697.17
1012.466	1647.68
1012.759	1668.7
1013.052	1644.52
1013.344	1661.47
1013.637	1626.44
1013.93	1648.59
1014.222	1623.5
1014.514	1623.05
1014.807	1584.41
1015.099	1588.7
1015.391	1575.59
1015.683	1553.67
1015.976	1560.68
1016.268	1538.76
1016.56	1559.1
1016.851	1520
1017.143	1534.24
1017.435	1505.09
1017.727	1492.21
1018.018	1492.43
1018.31	1479.55
1018.602	1474.58
1018.893	1495.37
1019.185	1473.45
1019.476	1439.78
1019.767	1453.79
1020.058	1423.06
1020.35	1412.89
1020.641	1381.7
1020.932	1380.12
1021.223	1391.19
1021.514	1379.89
1021.804	1398.88
1022.095	1363.62
1022.386	1353.23
1022.677	1340.8
1022.967	1359.1
1023.258	1345.09
1023.548	1333.79
1023.839	1334.02
1024.129	1283.4
1024.419	1316.84
1024.709	1296.51
1025	1275.94
1025.29	1260.8
1025.58	1260.8
1025.87	1254.25
1026.16	1235.72
1026.449	1235.94
1026.739	1235.94
1027.029	1226.45
1027.319	1206.34
1027.608	1201.82
1027.898	1209.5
1028.187	1175.38
1028.477	1193.68
1028.766	1188.26
1029.055	1181.25
1029.344	1184.64
1029.634	1163.85
1029.923	1144.19
1030.212	1144.19
1030.501	1117.08
1030.79	1131.54
1031.078	1128.6
1031.367	1110.75
1031.656	1105.1
1031.945	1093.35
1032.233	1079.79
1032.522	1101.71
1032.81	1079.79
1033.099	1048.38
1033.387	1073.69
1033.675	1087.7
1033.963	1045.66
1034.251	1031.65
1034.54	1034.37
1034.828	1031.88
1035.116	1032.78
1035.403	1002.5
1035.691	1001.15
1035.979	1009.73
1036.267	1027.36
1036.554	985.1
1036.842	995.5
1037.129	983.52
1037.417	976.06
1037.704	954.14
1037.992	935.84
1038.279	963.18
1038.566	959.79
1038.853	959.79
1039.14	959.79
