Data from hue_90_FLMS001491_62.txt Node
Date: Mon Feb 06 15:25:27 GMT 2017
User: dcchb
Spectrometer: FLMS00149
Trigger mode: 0
Integration Time (sec): 2.000000E-2
Scans to average: 10
Electric dark correction enabled: true
Nonlinearity correction enabled: false
Boxcar width: 0
XAxis mode: Wavelengths
Number of Pixels in Spectrum: 2048
>>>>>Begin Spectral Data<<<<<
341.393	7.25
341.776	7.25
342.16	7.25
342.543	-64.16
342.927	-66.42
343.31	-61.23
343.693	-66.42
344.077	-47.22
344.46	-68.91
344.843	-72.98
345.226	-43.83
345.61	-24.39
345.993	-9.93
346.376	0.01
346.759	-6.09
347.142	27.13
347.525	33.91
347.908	74.59
348.291	60.58
348.674	101.93
349.057	102.84
349.44	121.82
349.823	141.03
350.206	146.22
350.588	195.26
350.971	231.19
351.354	232.1
351.737	239.1
352.119	258.31
352.502	267.58
352.884	280.91
353.267	280.68
353.65	309.61
354.032	279.78
354.414	291.08
354.797	303.96
355.179	337.63
355.562	317.52
355.944	320.23
356.326	319.55
356.709	348.71
357.091	348.48
357.473	347.12
357.855	343.51
358.238	356.61
358.62	326.11
359.002	362.94
359.384	341.7
359.766	352.32
360.148	348.71
360.53	345.09
360.912	344.41
361.294	350.74
361.676	356.16
362.057	339.21
362.439	348.03
362.821	316.62
363.203	343.06
363.584	333.34
363.966	327.69
364.348	334.69
364.729	326.56
365.111	324.75
365.493	322.72
365.874	322.49
366.256	320.01
366.637	334.69
367.019	317.29
367.4	324.3
367.781	332.89
368.163	322.49
368.544	305.99
368.925	317.75
369.306	303.73
369.688	310.06
370.069	333.56
370.45	312.32
370.831	308.03
371.212	312.77
371.593	320.46
371.974	309.61
372.355	331.3
372.736	311.87
373.117	334.24
373.498	309.16
373.879	309.61
374.26	313.9
374.641	333.56
375.021	315.03
375.402	352.55
375.783	320.01
376.163	328.37
376.544	337.18
376.925	346.22
377.305	340.34
377.686	334.02
378.066	348.25
378.447	332.43
378.827	339.21
379.208	331.3
379.588	342.83
379.968	349.61
380.349	341.25
380.729	345.99
381.109	321.14
381.489	352.1
381.87	354.58
382.25	350.51
382.63	343.73
383.01	350.51
383.39	353.68
383.77	337.18
384.15	347.8
384.53	345.32
384.91	362.26
385.29	350.97
385.67	365.65
386.049	345.99
386.429	356.61
386.809	348.93
387.189	386.9
387.568	352.1
387.948	362.72
388.328	358.65
388.707	370.85
389.087	373.11
389.466	372.21
389.846	377.63
390.225	394.35
390.605	367.24
390.984	357.52
391.363	394.35
391.743	392.09
392.122	370.17
392.501	370.4
392.881	406.78
393.26	382.38
393.639	403.39
394.018	386.67
394.397	393.45
394.776	376.5
395.155	374.47
395.534	385.99
395.913	398.42
396.292	400.46
396.671	406.33
397.05	410.4
397.429	413.34
397.808	390.74
398.186	405.2
398.565	399.33
398.944	411.08
399.323	395.94
399.701	402.94
400.08	406.56
400.458	406.11
400.837	404.75
401.215	406.33
401.594	414.24
401.972	427.8
402.351	414.92
402.729	420.79
403.107	413.56
403.486	438.19
403.864	428.93
404.242	424.41
404.62	435.26
404.999	434.13
405.377	427.12
405.755	438.87
406.133	452.88
406.511	441.13
406.889	438.19
407.267	463.05
407.645	453.34
408.023	462.15
408.401	456.73
408.779	463.28
409.156	487.01
409.534	470.96
409.912	463.05
410.29	479.78
410.667	450.85
411.045	470.96
411.422	457.86
411.8	461.47
412.178	497.4
412.555	488.36
412.933	503.5
413.31	490.85
413.687	494.24
414.065	506.44
414.442	505.76
414.819	503.28
415.197	512.09
415.574	522.03
415.951	497.4
416.328	517.29
416.705	534.92
417.082	538.98
417.46	551.19
417.837	541.92
418.214	533.33
418.591	520.9
418.967	545.54
419.344	556.38
419.721	555.48
420.098	552.32
420.475	540.11
420.852	575.37
421.228	568.81
421.605	536.05
421.982	556.16
422.358	554.58
422.735	571.07
423.111	582.82
423.488	594.35
423.864	596.83
424.241	599.09
424.617	614.24
424.994	584.86
425.37	608.13
425.746	577.4
426.123	615.59
426.499	603.84
426.875	614.91
427.251	622.14
427.627	638.42
428.003	613.33
428.379	639.32
428.756	632.09
429.132	650.62
429.507	644.52
429.883	661.01
430.259	668.02
430.635	670.73
431.011	671.63
431.387	660.11
431.763	698.53
432.138	696.72
432.514	704.85
432.89	712.09
433.265	703.27
433.641	727.45
434.016	722.26
434.392	736.04
434.767	717.74
435.143	736.94
435.518	745.31
435.894	762.03
436.269	772.88
436.644	758.64
437.02	768.13
437.395	761.58
437.77	750.28
438.145	811.97
438.52	795.93
438.895	822.82
439.271	767.45
439.646	812.2
440.021	796.38
440.395	840.67
440.77	841.8
441.145	829.6
441.52	850.16
441.895	842.25
442.27	864.17
442.645	845.64
443.019	850.61
443.394	877.73
443.769	877.73
444.143	862.59
444.518	879.99
444.892	875.47
445.267	880.89
445.641	887
446.016	904.85
446.39	905.98
446.764	909.14
447.139	907.11
447.513	927.45
447.887	922.25
448.262	931.52
448.636	932.19
449.01	915.24
449.384	936.94
449.758	963.83
450.132	945.75
450.506	976.26
450.88	962.47
451.254	965.41
451.628	974.68
452.002	997.28
452.376	1005.64
452.75	1017.61
453.123	1033.89
453.497	1057.61
453.871	1055.81
454.244	1067.33
454.618	1050.83
454.992	1077.27
455.365	1086.77
455.739	1097.39
456.112	1126.54
456.486	1118.85
456.859	1134.9
457.232	1162.47
457.606	1167.67
457.979	1171.28
458.352	1216.25
458.725	1225.97
459.099	1221.9
459.472	1261
459.845	1245.63
460.218	1243.15
460.591	1261.68
460.964	1263.03
461.337	1262.58
461.71	1319.08
462.083	1320.66
462.456	1311.39
462.829	1329.47
463.201	1384.84
463.574	1377.83
463.947	1347.55
464.32	1424.38
464.692	1452.86
465.065	1467.77
465.438	1478.85
465.81	1493.08
466.183	1527.66
466.555	1516.58
466.928	1573.08
467.3	1567.66
467.672	1646.75
468.045	1634.77
468.417	1672.51
468.789	1661.44
469.161	1718.39
469.534	1751.61
469.906	1801.77
470.278	1811.49
470.65	1814.88
471.022	1909.79
471.394	1915.67
471.766	1919.74
472.138	1970.36
472.51	2048.32
472.882	2077.93
473.253	2096.46
473.625	2141.88
473.997	2219.84
474.369	2230.01
474.74	2284.25
475.112	2312.95
475.484	2388.2
475.855	2448.54
476.227	2456.9
476.598	2581.87
476.97	2642.66
477.341	2704.35
477.713	2749.09
478.084	2802.2
478.455	2888.3
478.827	2954.29
479.198	3071.35
479.569	3108.18
479.94	3188.86
480.311	3294.16
480.682	3418.68
481.053	3488.51
481.424	3617.32
481.795	3719.46
482.166	3789.52
482.537	3843.08
482.908	3972.11
483.279	4091.88
483.65	4171.88
484.021	4325.32
484.391	4446.45
484.762	4456.39
485.133	4629.04
485.503	4696.84
485.874	4852.09
486.244	4989.04
486.615	5113.33
486.985	5225.87
487.356	5446.65
487.726	5535.24
488.097	5714.44
488.467	5765.51
488.837	5955.34
489.207	6059.74
489.578	6236.01
489.948	6337.93
490.318	6516.23
490.688	6610.01
491.058	6793.73
491.428	6958.7
491.798	7108.53
492.168	7273.95
492.538	7390.55
492.908	7552.36
493.278	7771.34
493.648	7785.35
494.017	8001.61
494.387	8117.77
494.757	8244.32
495.126	8448.83
495.496	8539
495.866	8581.03
496.235	8756.62
496.605	8972.43
496.974	9077.74
497.344	9227.57
497.713	9296.72
498.082	9452.87
498.452	9629.82
498.821	9682.47
499.19	9757.5
499.559	9966.98
499.928	10039.75
500.298	10138.5
500.667	10306.18
501.036	10354.77
501.405	10537.59
501.774	10557.93
502.143	10647.64
502.512	10812.84
502.88	10830.92
503.249	10974.64
503.618	11093.73
503.987	11140.29
504.356	11260.51
504.724	11364.01
505.093	11458.92
505.462	11557.45
505.83	11538.24
506.199	11740.95
506.567	12019.36
506.936	11872.24
507.304	12019.36
507.672	12166.25
508.041	12159.69
508.409	12271.56
508.777	12387.03
509.145	12463.19
509.514	12438.78
509.882	12546.8
510.25	12678.32
510.618	12732.11
510.986	12781.82
511.354	12904.99
511.722	12964.64
512.09	12965.1
512.458	13015.72
512.826	13155.15
513.193	13244.19
513.561	13270.4
513.929	13333.45
514.297	13354.92
514.664	13454.35
515.032	13506.78
515.4	13451.64
515.767	13614.35
516.135	13628.36
516.502	13574.57
516.869	13740.67
517.237	13771.86
517.604	13761.69
517.972	13932.3
518.339	14026.09
518.706	13917.16
519.073	14017.05
519.44	14052.98
519.808	14082.36
520.175	14065.18
520.542	14230.37
520.909	14296.14
521.276	14258.17
521.643	14312.86
522.009	14439.41
522.376	14416.58
522.743	14483.93
523.11	14584.94
523.477	14670.14
523.843	14621.78
524.21	14789
524.577	14811.15
524.943	14779.74
525.31	14735.45
525.676	14832.84
526.043	14945.84
526.409	14851.6
526.776	14937.7
527.142	14980.86
527.508	14970.47
527.874	14969.56
528.241	15053.18
528.607	15066.74
528.973	15135.21
529.339	15090.46
529.705	15264.25
530.071	15297.47
530.437	15191.48
530.803	15233.51
531.169	15285.71
531.535	15203
531.901	15189.9
532.267	15125.04
532.632	15251.82
532.998	15269.22
533.364	15247.52
533.73	15112.16
534.095	15261.08
534.461	15148.77
534.826	15308.31
535.192	15134.53
535.557	15262.21
535.923	15173.4
536.288	15115.77
536.653	15180.41
537.019	15101.54
537.384	15112.39
537.749	15145.15
538.114	15081.43
538.479	15096.11
538.845	15047.08
539.21	14896.57
539.575	14955.55
539.94	14945.61
540.305	14877.36
540.67	14815.67
541.034	14850.25
541.399	14793.07
541.764	14794.43
542.129	14748.78
542.494	14794.65
542.858	14750.13
543.223	14737.93
543.587	14633.53
543.952	14599.86
544.316	14639.63
544.681	14560.76
545.045	14586.52
545.41	14631.04
545.774	14575.68
546.138	14489.12
546.503	14448.22
546.867	14322.12
547.231	14404.38
547.595	14426.08
547.959	14382.01
548.324	14333.2
548.688	14273.54
549.052	14318.96
549.416	14140.66
549.779	14151.73
550.143	14132.07
550.507	14176.82
550.871	14158.51
551.235	14077.16
551.599	14048.91
551.962	14082.81
552.326	14054.79
552.689	14107.89
553.053	13937.73
553.417	13927.56
553.78	14148.12
554.143	13866.32
554.507	13936.82
554.87	13923.49
555.234	13910.16
555.597	13891.85
555.96	13865.41
556.323	13838.75
556.686	13747.9
557.05	13817.05
557.413	13761.69
557.776	13764.17
558.139	13765.98
558.502	13834.9
558.865	13710.16
559.228	13844.62
559.59	13830.84
559.953	13814.34
560.316	13841.01
560.679	13811.18
561.041	13895.92
561.404	13755.13
561.767	13899.54
562.129	13728.69
562.492	13902.47
562.854	13822.7
563.217	13721.46
563.579	13810.27
563.941	13857.28
564.304	13829.48
564.666	13904.73
565.028	13849.37
565.39	13845.98
565.753	13895.92
566.115	13806.43
566.477	13910.38
566.839	13884.85
567.201	14016.59
567.563	13989.48
567.925	14028.12
568.287	13954.68
568.648	13984.73
569.01	14010.04
569.372	14037.84
569.734	14017.72
570.095	14089.36
570.457	14088.01
570.819	14095.69
571.18	14033.32
571.542	14096.14
571.903	13996.93
572.265	14105.18
572.626	14084.39
572.987	14107.67
573.349	14114.9
573.71	14143.37
574.071	14153.54
574.432	14240.09
574.794	14376.59
575.155	14246.65
575.516	14150.38
575.877	14211.84
576.238	14254.33
576.599	14302.91
576.96	14275.12
577.32	14217.72
577.681	14281.45
578.042	14276.7
578.403	14252.97
578.763	14288
579.124	14252.97
579.485	14298.62
579.845	14318.28
580.206	14333.87
580.566	14272.86
580.927	14220.88
581.287	14361.67
581.648	14217.04
582.008	14250.49
582.368	14220.43
582.728	14276.93
583.089	14237.61
583.449	14250.49
583.809	14221.56
584.169	14224.05
584.529	14215.69
584.889	14248.91
585.249	14183.37
585.609	14209.81
585.969	14213.43
586.329	14143.6
586.688	14146.08
587.048	14239.19
587.408	14119.64
587.768	14070.38
588.127	14152.64
588.487	13999.87
588.846	14114.9
589.206	14095.46
589.565	14039.42
589.925	14110.38
590.284	14093.2
590.643	14146.99
591.003	14039.87
591.362	14070.15
591.721	13983.83
592.08	14025.18
592.44	14015.24
592.799	14032.64
593.158	13943.83
593.517	14014.79
593.876	14044.84
594.235	13919.87
594.593	14029.7
594.952	14012.08
595.311	13959.65
595.67	13935.01
596.029	14001.91
596.387	14109.7
596.746	14094.56
597.104	13996.03
597.463	14014.11
597.822	13993.09
598.18	13880.1
598.538	13918.97
598.897	14057.27
599.255	13813.66
599.613	14055.01
599.972	13928.24
600.33	13977.05
600.688	13861.12
601.046	13943.83
601.404	14012.98
601.762	13945.64
602.12	13908.57
602.478	13975.47
602.836	13952.19
603.194	13923.94
603.552	13914.22
603.91	13803.94
604.268	13957.84
604.625	13903.6
604.983	13809.59
605.341	13841.91
605.698	13906.09
606.056	13883.49
606.413	13874
606.771	13976.82
607.128	13940.21
607.485	13882.36
607.843	13844.62
608.2	13884.85
608.557	13941.12
608.914	13977.95
609.272	13973.88
609.629	14005.3
609.986	14121.9
610.343	13981.34
610.7	14037.61
611.057	14018.85
611.414	14045.75
611.771	14092.07
612.127	14041.9
612.484	14064.73
612.841	14052.98
613.198	14016.37
613.554	14105.41
613.911	14129.81
614.267	14148.57
614.624	14170.94
614.98	14186.31
615.337	14219.75
615.693	14097.27
616.05	14119.87
616.406	14212.3
616.762	14180.21
617.118	14163.03
617.475	14164.84
617.831	14235.12
618.187	14212.07
618.543	14147.89
618.899	14393.08
619.255	14259.07
619.611	14303.37
619.967	14285.06
620.323	14301.78
620.678	14267.21
621.034	14330.94
621.39	14281.9
621.746	14260.66
622.101	14406.87
622.457	14330.71
622.812	14347.43
623.168	14380.65
623.523	14368.68
623.879	14355.57
624.234	14157.83
624.589	14450.71
624.945	14434.44
625.3	14352.41
625.655	14302.46
626.01	14357.6
626.365	14358.51
626.72	14232.86
627.075	14250.26
627.43	14317.6
627.785	14235.8
628.14	14373.42
628.495	14286.87
628.85	14182.69
629.205	14139.98
629.559	14306.98
629.914	14090.27
630.269	14275.57
630.623	14137.27
630.978	14151.73
631.332	14290.49
631.687	14201.9
632.041	14154.44
632.396	14229.7
632.75	14094.11
633.104	14044.39
633.459	14111.96
633.813	14110.15
634.167	14053.88
634.521	13996.71
634.875	14076.48
635.229	13985.64
635.583	13950.83
635.937	13929.14
636.291	13952.42
636.645	13980.66
636.999	13911.06
637.352	13986.09
637.706	13915.13
638.06	13934.79
638.413	13878.07
638.767	13850.27
639.121	13876.49
639.474	13776.6
639.828	13816.83
640.181	13832.42
640.534	13826.09
640.888	13705.87
641.241	13720.33
641.594	13752.87
641.947	13758.97
642.301	13664.51
642.654	13703.16
643.007	13731.86
643.36	13700.44
643.713	13657.73
644.066	13725.3
644.419	13682.59
644.771	13529.83
645.124	13455.93
645.477	13470.17
645.83	13347.46
646.182	13288.93
646.535	13197.86
646.888	13253.68
647.24	13185.66
647.593	13315.14
647.945	13278.76
648.298	13168.03
648.65	13200.12
649.002	13187.24
649.355	13208.93
649.707	13187.92
650.059	13178.42
650.411	13334.13
650.763	13409.15
651.115	13594.68
651.467	13500.68
651.819	13484.41
652.171	13537.74
652.523	13447.12
652.875	13447.57
653.227	13470.62
653.578	13515.14
653.93	13513.33
654.282	13419.77
654.633	13501.13
654.985	13488.02
655.337	13451.86
655.688	13463.16
656.039	13518.53
656.391	13400.79
656.742	13470.85
657.094	13465.87
657.445	13486.44
657.796	13500.22
658.147	13478.76
658.498	13474.01
658.849	13438.53
659.2	13503.39
659.551	13465.87
659.902	13463.39
660.253	13484.86
660.604	13451.86
660.955	13464.97
661.306	13540.9
661.656	13464.52
662.007	13403.5
662.358	13534.35
662.708	13504.07
663.059	13499.55
663.409	13447.57
663.76	13592.88
664.11	13545.65
664.461	13562.37
664.811	13585.19
665.161	13577.96
665.511	13557.4
665.862	13615.02
666.212	13589.26
666.562	13625.42
666.912	13565.76
667.262	13631.97
667.612	13551.52
667.962	13571.86
668.312	13518.98
668.662	13592.88
669.011	13627.9
669.361	13608.47
669.711	13503.16
670.06	13565.31
670.41	13587.45
670.76	13532.77
671.109	13521.24
671.459	13530.05
671.808	13607.57
672.157	13482.82
672.507	13495.48
672.856	13436.95
673.205	13489.15
673.554	13499.09
673.904	13462.03
674.253	13532.77
674.602	13455.25
674.951	13247.12
675.3	13183.4
675.649	13399.44
675.998	13364.86
676.346	13439.21
676.695	13410.96
677.044	13365.76
677.393	13353.34
677.741	13392.66
678.09	13333.9
678.438	13284.18
678.787	13296.39
679.135	13281.25
679.484	13200.12
679.832	13194.47
680.181	13230.85
680.529	13177.52
680.877	13112.66
681.225	13095.04
681.573	13234.47
681.922	13060.46
682.27	13078.77
682.618	13131.87
682.966	13032.67
683.314	13005.32
683.661	12940.69
684.009	12844.65
684.357	12903.18
684.705	12863.18
685.053	12849.62
685.4	12808.26
685.748	12727.36
686.095	12832.45
686.443	12771.43
686.79	12672.68
687.138	12779.57
687.485	12744.99
687.832	12664.54
688.18	12626.8
688.527	12596.52
688.874	12535.28
689.221	12550.87
689.568	12529.85
689.915	12489.86
690.262	12428.84
690.609	12346.81
690.956	12269.07
691.303	12324.89
691.65	12265.68
691.997	12258
692.344	12183.65
692.69	12115.18
693.037	12120.15
693.383	12018.23
693.73	12065.01
694.077	11905.69
694.423	11989.53
694.769	11924.9
695.116	11939.59
695.462	11828.18
695.808	11845.8
696.155	11812.13
696.501	11794.73
696.847	11750.89
697.193	11615.53
697.539	11517.45
697.885	11576.43
698.231	11522.2
698.577	11501.18
698.923	11476.1
699.269	11351.13
699.614	11336.67
699.96	11298.25
700.306	11282.66
700.651	11163.34
700.997	11234.3
701.342	11126.73
701.688	11124.24
702.033	11050.57
702.379	11063.45
702.724	10972.16
703.069	10983
703.415	10873.17
703.76	10860.97
704.105	10805.38
704.45	10825.27
704.795	10811.71
705.14	10750.47
705.485	10703.69
705.83	10689.45
706.175	10655.33
706.52	10598.38
706.865	10586.4
707.209	10492.17
707.554	10527.65
707.899	10570.58
708.243	10439.06
708.588	10465.28
708.932	10448.33
709.277	10444.03
709.621	10394.77
709.966	10319.97
710.31	10303.92
710.654	10206.3
710.998	10297.82
711.342	10213.3
711.687	10255.79
712.031	10119.75
712.375	10065.51
712.719	10173.76
713.063	10091.27
713.407	10131.27
713.75	10010.15
714.094	10097.6
714.438	10012.18
714.782	9977.38
715.125	9950.03
715.469	10071.39
715.812	9901.22
716.156	9886.08
716.499	9851.96
716.843	9848.57
717.186	9839.08
717.53	9871.62
717.873	9882.01
718.216	9866.65
718.559	9817.84
718.902	9710.95
719.246	9737.16
719.589	9752.3
719.932	9722.47
720.275	9677.5
720.617	9726.99
720.96	9659.87
721.303	9715.24
721.646	9729.25
721.989	9576.26
722.331	9709.59
722.674	9658.52
723.016	9609.03
723.359	9591.63
723.701	9621
724.044	9579.42
724.386	9511.63
724.729	9587.78
725.071	9516.15
725.413	9530.84
725.755	9576.94
726.097	9550.72
726.439	9435.7
726.782	9509.37
727.124	9573.32
727.465	9509.82
727.807	9469.82
728.149	9516.37
728.491	9428.47
728.833	9439.77
729.175	9424.17
729.516	9455.36
729.858	9430.73
730.199	9432.08
730.541	9390.05
730.882	9480.22
731.224	9466.21
731.565	9383.72
731.906	9364.97
732.248	9451.52
732.589	9314.35
732.93	9312.31
733.271	9329.26
733.612	9371.52
733.953	9418.52
734.294	9350.73
734.635	9339.66
734.976	9437.73
735.317	9269.37
735.658	9386.66
735.999	9385.3
736.339	9399.99
736.68	9391.18
737.021	9390.05
737.361	9366.32
737.702	9427.11
738.042	9415.36
738.383	9443.38
738.723	9431.18
739.063	9472.08
739.404	9527.22
739.744	9419.43
740.084	9483.15
740.424	9536.03
740.764	9488.13
741.104	9583.49
741.444	9483.38
741.784	9552.31
742.124	9547.79
742.464	9575.81
742.804	9552.98
743.143	9621.68
743.483	9681.34
743.823	9657.39
744.162	9653.32
744.502	9711.4
744.841	9738.97
745.181	9716.37
745.52	9702.58
745.86	9858.29
746.199	9863.48
746.538	9925.63
746.877	10052.18
747.216	10033.42
747.556	10042.69
747.895	10116.36
748.234	10088.11
748.573	10113.87
748.911	10293.53
749.25	10268.9
749.589	10364.71
749.928	10418.72
750.267	10554.31
750.605	10631.15
750.944	10639.73
751.283	10698.72
751.621	10807.64
751.96	10872.04
752.298	11035.66
752.636	11110.68
752.975	11194.75
753.313	11276.33
753.651	11480.39
753.989	11508.86
754.327	11639.71
754.666	11764.9
755.004	11985.46
755.342	12027.04
755.679	12157.21
756.017	12281.27
756.355	12464.55
756.693	12542.28
757.031	12728.49
757.368	12818.89
757.706	12991.76
758.044	13155.37
758.381	13331.42
758.719	13485.31
759.056	13701.8
759.394	13762.59
759.731	13842.36
760.068	14076.03
760.405	14217.72
760.743	14392.4
761.08	14542.68
761.417	14692.28
761.754	14891.15
762.091	15051.82
762.428	15172.5
762.765	15268.99
763.102	15612.03
763.438	15638.92
763.775	15804.57
764.112	16079.37
764.449	16148.29
764.785	16289.98
765.122	16427.6
765.458	16582.63
765.795	16733.81
766.131	16841.38
766.467	17007.25
766.804	17101.26
767.14	17342.61
767.476	17466.45
767.812	17538.76
768.148	17700.57
768.485	17712.54
768.821	17791.41
769.157	17997.73
769.492	18127.9
769.828	18216.48
770.164	18195.02
770.5	18441.11
770.836	18505.52
771.171	18599.07
771.507	18691.27
771.842	18756.36
772.178	18842.23
772.513	18842.91
772.849	19002.23
773.184	19020.76
773.519	19193.18
773.855	19143.01
774.19	19318.15
774.525	19294.2
774.86	19343.46
775.195	19467.3
775.53	19416.23
775.865	19464.36
776.2	19404.93
776.535	19499.16
776.87	19515.21
777.205	19491.93
777.539	19571.02
777.874	19625.49
778.209	19633.4
778.543	19648.54
778.878	19517.69
779.212	19739.38
779.547	19626.39
779.881	19722.89
780.215	19663
780.55	19679.72
780.884	19751.13
781.218	19711.13
781.552	19865.03
781.886	19830.91
782.22	19716.56
782.554	19647.18
782.888	19537.81
783.222	19549.78
783.556	19580.74
783.889	19521.76
784.223	19466.62
784.557	19498.71
784.89	19568.09
785.224	19482.67
785.557	19404.02
785.891	19378.04
786.224	19349.56
786.558	19360.86
786.891	19281.09
787.224	19292.39
787.557	19177.59
787.891	19270.69
788.224	19303.46
788.557	19318.83
788.89	19266.63
789.223	19240.64
789.556	19165.39
789.888	19080.87
790.221	19120.42
790.554	18933.08
790.887	19028.89
791.219	18922.91
791.552	18906.41
791.884	18873.19
792.217	18797.71
792.549	18915.67
792.882	18617.38
793.214	18720.43
793.546	18641.33
793.879	18679.75
794.211	18566.76
794.543	18528.79
794.875	18507.55
795.207	18517.27
795.539	18488.57
795.871	18439.76
796.203	18279.08
796.535	18269.14
796.867	18235.47
797.198	18260.55
797.53	18239.76
797.862	18121.8
798.193	18089.26
798.525	18045.87
798.856	18164.73
799.188	17878.87
799.519	17945.08
799.85	17799.77
800.182	17828.47
800.513	17818.98
800.844	17746.67
801.175	17811.3
801.506	17699.66
801.837	17599.78
802.168	17495.83
802.499	17574.69
802.83	17471.87
803.161	17461.93
803.491	17473.68
803.822	17495.15
804.153	17401.82
804.483	17273.01
804.814	17210.18
805.145	17212.22
805.475	17144.2
805.805	17087.25
806.136	17059.68
806.466	17051.77
806.796	17023.97
807.126	16923.41
807.457	16851.1
807.787	16929.96
808.117	16812.23
808.447	16742.4
808.777	16720.25
809.107	16663.3
809.436	16701.27
809.766	16717.77
810.096	16525.46
810.426	16602.29
810.755	16551.9
811.085	16544.21
811.414	16547.15
811.744	16400.26
812.073	16478.68
812.403	16421.73
812.732	16243.43
813.061	16357.78
813.39	16178.12
813.719	16276.65
814.049	16238.46
814.378	16155.07
814.707	16123.21
815.036	16179.25
815.365	16082.08
815.693	15943.55
816.022	16064.9
816.351	15868.52
816.68	15909.88
817.008	15861.29
817.337	15896.77
817.665	15748.53
817.994	15728.19
818.322	15706.72
818.651	15738.58
818.979	15642.09
819.307	15713.27
819.636	15602.77
819.964	15552.37
820.292	15612.26
820.62	15623.33
820.948	15487.06
821.276	15589.43
821.604	15503.11
821.932	15625.82
822.259	15601.19
822.587	15567.97
822.915	15478.48
823.243	15579.94
823.57	15561.64
823.898	15540.4
824.225	15452.72
824.553	15578.36
824.88	15497.23
825.207	15513.28
825.535	15473.05
825.862	15438.93
826.189	15437.35
826.516	15569.77
826.843	15565.71
827.17	15536.78
827.497	15542.66
827.824	15550.79
828.151	15599.15
828.478	15492.94
828.805	15612.94
829.131	15491.81
829.458	15485.93
829.785	15430.12
830.111	15553.28
830.438	15571.81
830.764	15498.59
831.09	15595.76
831.417	15434.18
831.743	15457.01
832.069	15480.29
832.395	15473.28
832.722	15525.71
833.048	15401.42
833.374	15414.98
833.7	15379.72
834.026	15408.42
834.351	15424.47
834.677	15394.64
835.003	15447.52
835.329	15326.84
835.654	15324.13
835.98	15233.96
836.306	15237.58
836.631	15242.1
836.956	15263.79
837.282	15253.17
837.607	15156.9
837.932	15152.16
838.258	15122.55
838.583	15078.94
838.908	15104.93
839.233	15068.54
839.558	15037.36
839.883	14989.22
840.208	14962.78
840.533	14956.68
840.858	14964.82
841.182	14938.83
841.507	14879.4
841.832	14856.35
842.156	14852.96
842.481	14910.13
842.805	14780.87
843.13	14821.77
843.454	14684.37
843.778	14680.76
844.103	14758.27
844.427	14670.36
844.751	14683.02
845.075	14601.44
845.399	14477.15
845.723	14451.61
846.047	14467.88
846.371	14324.16
846.695	14243.48
847.019	14186.53
847.343	14199.64
847.666	14127.55
847.99	14030.15
848.313	14033.77
848.637	13975.47
848.96	13916.26
849.284	13918.97
849.607	13816.83
849.931	13742.7
850.254	13661.35
850.577	13645.31
850.9	13498.42
851.223	13574.8
851.546	13427.23
851.869	13358.53
852.192	13462.49
852.515	13252.1
852.838	13239.67
853.161	13242.6
853.483	13189.72
853.806	13145.88
854.129	13107.92
854.451	13064.53
854.774	12996.28
855.096	12935.04
855.419	12862.27
855.741	12824.99
856.063	12809.85
856.385	12745.22
856.708	12731.66
857.03	12660.25
857.352	12674.26
857.674	12630.19
857.996	12532.57
858.318	12554.71
858.64	12536.63
858.961	12511.32
859.283	12466.58
859.605	12360.82
859.926	12380.48
860.248	12348.62
860.57	12386.81
860.891	12392.91
861.212	12251.67
861.534	12277.88
861.855	12236.3
862.176	12213.93
862.498	12142.07
862.819	12200.15
863.14	12099.81
863.461	12101.62
863.782	12084.22
864.103	12048.74
864.424	12032.47
864.745	12069.3
865.065	11962.64
865.386	11929.64
865.707	11980.04
866.027	11882.87
866.348	11842.19
866.668	11920.38
866.989	11822.08
867.309	11795.64
867.63	11751.57
867.95	11823.88
868.27	11778.69
868.59	11727.84
868.91	11686.49
869.23	11741.17
869.55	11632.7
869.87	11711.57
870.19	11657.11
870.51	11654.4
870.83	11612.36
871.15	11530.33
871.469	11512.25
871.789	11653.27
872.109	11531.46
872.428	11479.49
872.748	11503.89
873.067	11526.49
873.386	11509.32
873.706	11510.45
874.025	11403.56
874.344	11408.3
874.663	11456.89
874.982	11359.49
875.301	11369.66
875.62	11289.66
875.939	11223.45
876.258	11312.03
876.577	11253.05
876.896	11211.92
877.214	11218.48
877.533	11234.75
877.852	11228.19
878.17	11201.53
878.489	11157.69
878.807	11165.37
879.125	11138.25
879.444	11148.2
879.762	11079.95
880.08	11068.88
880.398	11022.32
880.716	11028.88
881.034	11005.15
881.352	10965.15
881.67	10903.23
881.988	10957.92
882.306	10905.49
882.624	10852.38
882.941	10825.27
883.259	10814.19
883.577	10804.48
883.894	10735.1
884.212	10719.05
884.529	10677.25
884.846	10721.77
885.164	10691.26
885.481	10688.55
885.798	10615.1
886.115	10619.17
886.432	10602
886.75	10571.26
887.067	10604.48
887.383	10451.26
887.7	10518.38
888.017	10370.59
888.334	10405.16
888.651	10357.48
888.967	10400.64
889.284	10334.88
889.6	10298.05
889.917	10260.08
890.233	10265.28
890.55	10253.53
890.866	10195
891.182	10154.32
891.498	10102.8
891.815	10100.99
892.131	10034.55
892.447	10089.92
892.763	9999.98
893.079	10052.18
893.395	10002.46
893.71	9928.11
894.026	9880.88
894.342	9865.97
894.657	9810.6
894.973	9724.5
895.289	9734.22
895.604	9767.67
895.92	9665.3
896.235	9629.59
896.55	9628.24
896.865	9606.32
897.181	9584.62
897.496	9609.7
897.811	9531.29
898.126	9499.88
898.441	9431.18
898.756	9441.35
899.071	9382.14
899.386	9431.63
899.7	9283.84
900.015	9235.7
900.33	9223.73
900.644	9161.58
900.959	9233.9
901.273	9135.37
901.588	9110.51
901.902	9036.39
902.216	9027.12
902.531	9009.27
902.845	8966.78
903.159	8867.58
903.473	8885.66
903.787	8868.93
904.101	8780.8
904.415	8805.43
904.729	8779.67
905.042	8719.78
905.356	8690.63
905.67	8674.36
905.984	8628.49
906.297	8593.01
906.611	8549.85
906.924	8523.86
907.237	8580.35
907.551	8522.28
907.864	8386.01
908.177	8425.56
908.491	8447.02
908.804	8301.49
909.117	8312.11
909.43	8292.45
909.743	8219.69
910.056	8223.3
910.368	8145.79
910.681	8154.38
910.994	8052.91
911.307	8018.33
911.619	8034.15
911.932	7972.01
912.244	7948.05
912.557	7886.13
912.869	7937.66
913.181	7868.06
913.494	7847.94
913.806	7724.1
914.118	7767.72
914.43	7717.1
914.742	7661.06
915.054	7632.36
915.366	7632.81
915.678	7581.06
915.99	7549.42
916.302	7480.27
916.613	7467.16
916.925	7514.39
917.236	7434.39
917.548	7408.63
917.859	7463.09
918.171	7359.14
918.482	7397.11
918.794	7322.99
919.105	7312.36
919.416	7238.69
919.727	7185.14
920.038	7176.55
920.349	7125.25
920.66	7060.62
920.971	7055.87
921.282	7084.12
921.593	7027.63
921.903	6976.55
922.214	6953.05
922.525	6960.96
922.835	6932.71
923.146	6857.23
923.456	6843.45
923.767	6779.04
924.077	6800.74
924.387	6816.56
924.697	6792.6
925.008	6733.85
925.318	6666.51
925.628	6645.04
925.938	6629.9
926.248	6631.7
926.558	6571.82
926.867	6534.98
927.177	6506.74
927.487	6448.66
927.796	6411.37
928.106	6459.28
928.416	6424.93
928.725	6409.79
929.034	6348.55
929.344	6374.54
929.653	6314.65
929.962	6319.17
930.271	6260.41
930.581	6235.56
930.89	6223.81
931.199	6114.2
931.508	6132.51
931.817	6163.24
932.125	6118.95
932.434	6065.39
932.743	6006.41
933.051	6058.84
933.36	5965.28
933.669	5999.63
933.977	5954.66
934.286	5899.97
934.594	5921.21
934.902	5869.92
935.21	5811.39
935.519	5868.79
935.827	5814.32
936.135	5806.87
936.443	5697.49
936.751	5727.55
937.059	5716.93
937.367	5674.67
937.674	5647.55
937.982	5666.31
938.29	5634.44
938.597	5605.06
938.905	5548.34
939.213	5501.79
939.52	5545.86
939.827	5505.18
940.135	5438.52
940.442	5409.36
940.749	5423.15
941.056	5403.26
941.363	5375.69
941.67	5325.98
941.977	5244.4
942.284	5273.32
942.591	5238.97
942.898	5251.18
943.205	5238.07
943.511	5194.23
943.818	5190.16
944.125	5123.95
944.431	5088.02
944.738	5120.11
945.044	5098.86
945.35	5041.01
945.657	5021.13
945.963	5067.45
946.269	4980.45
946.575	4963.5
946.881	4945.65
947.187	4968.7
947.493	4923.27
947.799	4930.73
948.105	4878.53
948.41	4838.53
948.716	4859.55
949.022	4823.84
949.327	4842.37
949.633	4775.26
949.938	4740
950.244	4740.45
950.549	4702.94
950.854	4657.97
951.16	4638.76
951.465	4672.21
951.77	4612.32
952.075	4660.46
952.38	4598.99
952.685	4604.19
952.99	4557.86
953.294	4547.24
953.599	4519.67
953.904	4556.5
954.209	4452.55
954.513	4465.21
954.818	4450.07
955.122	4433.8
955.426	4407.13
955.731	4406.45
956.035	4328.49
956.339	4373.23
956.643	4349.28
956.948	4328.49
957.252	4345.44
957.556	4274.7
957.86	4283.52
958.163	4258.21
958.467	4218.43
958.771	4217.08
959.075	4228.83
959.378	4137.98
959.682	4172.33
959.985	4119.68
960.289	4103.64
960.592	4109.06
960.896	4116.52
961.199	4075.39
961.502	4052.79
961.805	4066.35
962.108	3960.59
962.411	4023.86
962.714	3973.02
963.017	3968.5
963.32	3969.18
963.623	4004.2
963.926	3928.95
964.228	3919.23
964.531	3882.4
964.833	3842.4
965.136	3844.88
965.438	3791.33
965.741	3799.01
966.043	3766.92
966.345	3756.53
966.648	3761.72
966.95	3733.48
967.252	3701.39
967.554	3715.85
967.856	3683.99
968.158	3667.26
968.46	3639.92
968.761	3643.99
969.063	3679.24
969.365	3592.24
969.666	3581.39
969.968	3572.12
970.269	3558.56
970.571	3578.23
970.872	3538.9
971.174	3550.2
971.475	3505.46
971.776	3480.6
972.077	3472.01
972.378	3474.5
972.679	3457.55
972.98	3430.21
973.281	3400.15
973.582	3386.37
973.883	3384.56
974.183	3368.06
974.484	3345.46
974.785	3351.79
975.085	3355.63
975.386	3332.36
975.686	3293.03
975.986	3312.47
976.287	3255.97
976.587	3226.37
976.887	3214.39
977.187	3245.8
977.487	3192.25
977.787	3187.27
978.087	3160.38
978.387	3160.38
978.687	3135.98
978.987	3127.62
979.286	3085.36
979.586	3083.32
979.885	3100.95
980.185	3077.9
980.484	3075.87
980.784	3050.1
981.083	3083.77
981.382	3050.78
981.682	3005.13
981.981	3036.54
982.28	2972.37
982.579	2949.09
982.878	2945.25
983.177	2911.12
983.475	2914.51
983.774	2919.71
984.073	2893.5
984.372	2904.12
984.67	2897.34
984.969	2855.53
985.267	2870
985.566	2846.04
985.864	2814.63
986.162	2850.56
986.461	2820.96
986.759	2783.22
987.057	2808.08
987.355	2752.94
987.653	2741.41
987.951	2752.03
988.249	2692.82
988.547	2747.06
988.844	2713.62
989.142	2698.02
989.44	2657.8
989.737	2658.93
990.035	2637.68
990.332	2651.7
990.63	2607.18
990.927	2632.94
991.224	2610.57
991.521	2565.14
991.819	2605.14
992.116	2600.62
992.413	2568.08
992.71	2536.22
993.006	2545.94
993.303	2529.21
993.6	2533.96
993.897	2486.28
994.193	2462.77
994.49	2458.03
994.787	2427.29
995.083	2460.97
995.379	2444.47
995.676	2414.41
995.972	2421.19
996.268	2399.27
996.565	2379.61
996.861	2373.29
997.157	2392.72
997.453	2336.68
997.749	2304.81
998.044	2322.44
998.34	2313.17
998.636	2307.52
998.932	2252.61
999.227	2274.76
999.523	2254.64
999.818	2224.36
1000.114	2227.07
1000.409	2230.69
1000.704	2222.55
1001	2213.97
1001.295	2169.9
1001.59	2176
1001.885	2155.21
1002.18	2147.3
1002.475	2150.69
1002.77	2127.19
1003.065	2134.87
1003.359	2111.82
1003.654	2117.47
1003.949	2084.71
1004.243	2093.52
1004.538	2081.32
1004.832	2065.72
1005.127	2040.41
1005.421	2047.42
1005.715	2022.79
1006.009	2063.46
1006.304	2021.66
1006.598	1993.63
1006.892	1933.75
1007.186	1954.54
1007.48	1964.93
1007.773	1960.64
1008.067	1934.65
1008.361	1905.27
1008.655	1894.88
1008.948	1892.62
1009.242	1873.64
1009.535	1831.83
1009.829	1903.92
1010.122	1846.75
1010.415	1835.67
1010.708	1820.08
1011.001	1838.84
1011.295	1812.62
1011.588	1783.47
1011.881	1785.96
1012.173	1768.33
1012.466	1784.15
1012.759	1765.17
1013.052	1759.97
1013.344	1738.05
1013.637	1744.15
1013.93	1733.3
1014.222	1740.08
1014.514	1686.52
1014.807	1708.67
1015.099	1671.83
1015.391	1655.34
1015.683	1648.56
1015.976	1664.15
1016.268	1625.51
1016.56	1621.67
1016.851	1627.99
1017.143	1612.18
1017.435	1580.54
1017.727	1555.45
1018.018	1588.9
1018.31	1598.39
1018.602	1556.81
1018.893	1566.53
1019.185	1527.43
1019.476	1547.09
1019.767	1515.68
1020.058	1535.79
1020.35	1522.01
1020.641	1498.28
1020.932	1482.91
1021.223	1470.26
1021.514	1461.9
1021.804	1434.33
1022.095	1433.42
1022.386	1419.41
1022.677	1405.85
1022.967	1399.75
1023.258	1404.5
1023.548	1405.17
1023.839	1391.39
1024.129	1396.59
1024.419	1362.24
1024.709	1350.94
1025	1360.66
1025.29	1338.28
1025.58	1348
1025.87	1303.03
1026.16	1307.1
1026.449	1308.45
1026.739	1328.79
1027.029	1299.87
1027.319	1268
1027.608	1272.3
1027.898	1293.54
1028.187	1261
1028.477	1258.74
1028.766	1230.04
1029.055	1243.15
1029.344	1229.36
1029.634	1208.8
1029.923	1214.45
1030.212	1220.77
1030.501	1190.94
1030.79	1184.39
1031.078	1191.85
1031.367	1145.75
1031.656	1128.8
1031.945	1148.01
1032.233	1155.24
1032.522	1148.68
1032.81	1138.06
1033.099	1112.08
1033.387	1111.62
1033.675	1121.79
1033.963	1110.72
1034.251	1097.61
1034.54	1073.88
1034.828	1069.14
1035.116	1061.68
1035.403	1056.26
1035.691	1062.36
1035.979	1059.2
1036.267	1058.52
1036.554	1069.59
1036.842	1040.44
1037.129	1025.52
1037.417	1015.81
1037.704	1015.81
1037.992	995.02
1038.279	991.85
1038.566	1001.8
1038.853	1001.8
1039.14	1001.8
