Data from hue_280_FLMS001491_00008.txt Node
Date: Tue Feb 07 15:54:44 GMT 2017
User: dcchb
Spectrometer: FLMS00149
Trigger mode: 0
Integration Time (sec): 2.000000E-2
Scans to average: 10
Electric dark correction enabled: true
Nonlinearity correction enabled: false
Boxcar width: 0
XAxis mode: Wavelengths
Number of Pixels in Spectrum: 2048
>>>>>Begin Spectral Data<<<<<
341.393	-23.59
341.776	-23.59
342.16	-23.59
342.543	-55.68
342.927	-66.75
343.31	-59.52
343.693	-68.11
344.077	-73.3
344.46	-87.54
344.843	-58.16
345.226	-42.12
345.61	-16.36
345.993	-1.44
346.376	-17.71
346.759	-7.54
347.142	39.91
347.525	41.27
347.908	55.06
348.291	93.25
348.674	103.64
349.057	98.67
349.44	133.92
349.823	154.04
350.206	166.01
350.588	227.93
350.971	211.44
351.354	199.68
351.737	218.21
352.119	255.05
352.502	263.64
352.884	277.42
353.267	298.66
353.65	283.3
354.032	287.59
354.414	310.19
354.797	314.03
355.179	297.99
355.562	294.37
355.944	315.61
356.326	313.81
356.709	324.88
357.091	345.22
357.473	336.86
357.855	353.35
358.238	320.58
358.62	328.04
359.002	344.76
359.384	337.99
359.766	336.4
360.148	324.65
360.53	337.31
360.912	331.88
361.294	333.92
361.676	316.07
362.057	363.52
362.439	345.89
362.821	320.13
363.203	334.82
363.584	321.71
363.966	338.89
364.348	317.87
364.729	326.69
365.111	348.15
365.493	335.05
365.874	300.47
366.256	316.74
366.637	316.07
367.019	333.24
367.4	309.96
367.781	316.52
368.163	307.48
368.544	321.04
368.925	306.12
369.306	314.03
369.688	311.09
370.069	293.69
370.45	301.83
370.831	305.67
371.212	303.18
371.593	302.05
371.974	332.79
372.355	337.31
372.736	323.3
373.117	330.3
373.498	333.24
373.879	310.42
374.26	321.26
374.641	321.49
375.021	325.33
375.402	308.38
375.783	323.52
376.163	319.91
376.544	311.32
376.925	330.98
377.305	331.21
377.686	340.92
378.066	312.22
378.447	331.88
378.827	323.07
379.208	334.82
379.588	335.27
379.968	325.56
380.349	341.15
380.729	356.74
381.109	354.71
381.489	307.93
381.87	333.47
382.25	341.38
382.63	360.13
383.01	338.89
383.39	341.6
383.77	365.33
384.15	353.58
384.53	356.97
384.91	365.78
385.29	353.58
385.67	363.75
386.049	350.41
386.429	364.88
386.809	341.83
387.189	335.5
387.568	367.36
387.948	387.02
388.328	359
388.707	366.01
389.087	375.72
389.466	361.26
389.846	353.13
390.225	367.14
390.605	372.56
390.984	384.31
391.363	402.62
391.743	387.48
392.122	377.53
392.501	384.31
392.881	392.67
393.26	394.03
393.639	388.61
394.018	376.85
394.397	400.81
394.776	396.74
395.155	401.03
395.534	404.42
395.913	395.61
396.292	394.93
396.671	395.39
397.05	399.9
397.429	408.94
397.808	415.72
398.186	391.09
398.565	408.04
398.944	407.14
399.323	417.98
399.701	420.02
400.08	426.12
400.458	424.76
400.837	426.8
401.215	429.96
401.594	416.4
401.972	434.03
402.351	441.03
402.729	436.06
403.107	436.06
403.486	449.39
403.864	458.21
404.242	451.65
404.62	463.41
404.999	458.66
405.377	448.49
405.755	469.51
406.133	487.13
406.511	473.35
406.889	500.69
407.267	485.33
407.645	481.03
408.023	509.51
408.401	507.02
408.779	491.2
409.156	501.15
409.534	515.38
409.912	527.13
410.29	517.42
410.667	522.61
411.045	547.47
411.422	519
411.8	563.74
412.178	567.58
412.555	550.18
412.933	566.68
413.31	595.61
413.687	580.24
414.065	602.61
414.442	566.23
414.819	603.74
415.197	604.19
415.574	631.31
415.951	636.28
416.328	654.14
416.705	643.97
417.082	655.49
417.46	647.81
417.837	675.83
418.214	670.86
418.591	681.48
418.967	708.15
419.344	714.02
419.721	707.02
420.098	716.28
420.475	702.95
420.852	723.06
421.228	749.95
421.605	741.59
421.982	738.65
422.358	768.48
422.735	763.74
423.111	770.52
423.488	805.09
423.864	794.47
424.241	813.45
424.617	829.95
424.994	807.13
425.37	835.37
425.746	859.55
426.123	857.07
426.499	854.58
426.875	880.12
427.251	890.06
427.627	904.98
428.003	921.7
428.379	907.01
428.756	922.6
429.132	940.68
429.507	966.9
429.883	976.39
430.259	983.62
430.635	978.42
431.011	1015.03
431.387	1009.38
431.763	1020.45
432.138	1038.08
432.514	1047.12
432.89	1053.9
433.265	1091.41
433.641	1108.36
434.016	1101.13
434.392	1135.03
434.767	1167.12
435.143	1149.94
435.518	1161.47
435.894	1188.36
436.269	1210.28
436.644	1215.93
437.02	1219.77
437.395	1266.32
437.77	1298.64
438.145	1278.53
438.52	1308.36
438.895	1299.54
439.271	1310.84
439.646	1349.94
440.021	1332.31
440.395	1342.25
440.77	1355.59
441.145	1346.77
441.52	1382.48
441.895	1390.84
442.27	1423.38
442.645	1411.63
443.019	1407.34
443.394	1411.86
443.769	1423.38
444.143	1423.15
444.518	1456.37
444.892	1455.92
445.267	1463.15
445.641	1498.63
446.016	1494.57
446.39	1488.24
446.764	1516.71
447.139	1490.5
447.513	1511.51
447.887	1537.95
448.262	1525.98
448.636	1561.23
449.01	1559.42
449.384	1561.46
449.758	1555.58
450.132	1598.97
450.506	1615.01
450.88	1573.43
451.254	1615.47
451.628	1613.66
452.002	1650.04
452.376	1664.5
452.75	1657.5
453.123	1637.39
453.497	1670.61
453.871	1700.89
454.244	1722.58
454.618	1742.47
454.992	1756.25
455.365	1755.8
455.739	1771.39
456.112	1773.43
456.486	1802.58
456.859	1823.6
457.232	1824.27
457.606	1836.48
457.979	1846.87
458.352	1895.68
458.725	1894.33
459.099	1896.14
459.472	1953.54
459.845	1947.89
460.218	1967.1
460.591	1956.25
460.964	1981.33
461.337	2017.94
461.71	2062.01
462.083	2080.31
462.456	2070.14
462.829	2063.59
463.201	2133.87
463.574	2118.96
463.947	2145.85
464.32	2172.06
464.692	2226.98
465.065	2218.84
465.438	2205.28
465.81	2250.7
466.183	2243.25
466.555	2276.01
466.928	2310.36
467.3	2301.32
467.672	2353.3
468.045	2406.86
468.417	2380.42
468.789	2427.87
469.161	2447.76
469.534	2447.99
469.906	2518.72
470.278	2491.15
470.65	2552.84
471.022	2592.16
471.394	2595.78
471.766	2629.9
472.138	2640.75
472.51	2683.01
472.882	2710.35
473.253	2745.83
473.625	2770.69
473.997	2847.52
474.369	2803.01
474.74	2876.45
475.112	2901.53
475.484	2930.23
475.855	2969.78
476.227	2951.93
476.598	3025.82
476.97	3059.72
477.341	3115.09
477.713	3158.93
478.084	3146.05
478.455	3202.54
478.827	3240.06
479.198	3299.49
479.569	3319.38
479.94	3404.35
480.311	3453.16
480.682	3467.85
481.053	3548.75
481.424	3543.1
481.795	3568.63
482.166	3624
482.537	3672.36
482.908	3685.69
483.279	3737.9
483.65	3816.99
484.021	3850.44
484.391	3878.91
484.762	3932.24
485.133	3936.99
485.503	4001.62
485.874	4051.11
486.244	4077.55
486.615	4119.81
486.985	4197.54
487.356	4221.95
487.726	4248.62
488.097	4284.77
488.467	4302.18
488.837	4365.22
489.207	4466.46
489.578	4519.57
489.948	4543.98
490.318	4620.58
490.688	4539
491.058	4617.65
491.428	4668.72
491.798	4691.77
492.168	4800.02
492.538	4816.51
492.908	4880.24
493.278	4903.52
493.648	4892.67
494.017	4952.1
494.387	4982.38
494.757	5021.48
495.126	5073.68
495.496	5037.3
495.866	5103.06
496.235	5086.79
496.605	5133.57
496.974	5153.23
497.344	5193.9
497.713	5212.89
498.082	5252.43
498.452	5277.52
498.821	5320.45
499.19	5348.48
499.559	5316.61
499.928	5374.24
500.298	5343.28
500.667	5467.79
501.036	5418.53
501.405	5489.49
501.774	5502.82
502.143	5520.67
502.512	5503.27
502.88	5539.2
503.249	5582.59
503.618	5589.15
503.987	5609.94
504.356	5652.65
504.724	5652.2
505.093	5660.78
505.462	5702.82
505.83	5787.56
506.199	5769.93
506.567	5774.68
506.936	5753.44
507.304	5884.73
507.672	5841.8
508.041	5863.72
508.409	5920.44
508.777	5912.75
509.145	5941.45
509.514	5904.17
509.882	6029.81
510.25	6005.18
510.618	5991.85
510.986	6037.95
511.354	6064.39
511.722	6107.78
512.09	6133.77
512.458	6149.36
512.826	6169.02
513.193	6175.35
513.561	6203.14
513.929	6183.48
514.297	6248.11
514.664	6196.81
515.032	6255.8
515.4	6252.41
515.767	6268.45
516.135	6314.78
516.502	6287.66
516.869	6381.22
517.237	6383.93
517.604	6372.63
517.972	6383.48
518.339	6384.83
518.706	6439.97
519.073	6414.66
519.44	6500.08
519.808	6442.91
520.175	6453.98
520.542	6530.37
520.909	6573.53
521.276	6558.84
521.643	6598.61
522.009	6608.56
522.376	6638.38
522.743	6670.02
523.11	6665.05
523.477	6755.67
523.843	6740.75
524.21	6822.11
524.577	6802.9
524.943	6887.19
525.31	6854.42
525.676	6958.38
526.043	6933.97
526.409	6994.08
526.776	7014.87
527.142	7005.38
527.508	7073.63
527.874	7072.95
528.241	7095.32
528.607	7061.42
528.973	7215.54
529.339	7185.72
529.705	7194.75
530.071	7279.95
530.437	7271.14
530.803	7308.65
531.169	7289.67
531.535	7292.6
531.901	7324.69
532.267	7358.59
532.632	7359.5
532.998	7403.11
533.364	7484.69
533.73	7481.75
534.095	7542.99
534.461	7516.1
534.826	7511.13
535.192	7566.72
535.557	7594.29
535.923	7549.32
536.288	7713.61
536.653	7662.09
537.019	7556.1
537.384	7690.56
537.749	7665.7
538.114	7623.9
538.479	7707.28
538.845	7724.46
539.21	7704.35
539.575	7759.49
539.94	7723.78
540.305	7806.04
540.67	7767.85
541.034	7808.75
541.399	7777.34
541.764	7893.72
542.129	7856.21
542.494	7917.67
542.858	7894.4
543.223	7941.18
543.587	7978.01
543.952	7894.17
544.316	7938.24
544.681	7955.86
545.045	8016.88
545.41	8053.04
545.774	8085.58
546.138	8047.61
546.503	8106.82
546.867	8051.68
547.231	8113.6
547.595	8159.47
547.959	8087.16
548.324	8135.75
548.688	8137.33
549.052	8159.25
549.416	8175.29
549.779	8187.95
550.143	8181.4
550.507	8200.15
550.871	8256.2
551.235	8231.11
551.599	8245.8
551.962	8249.87
552.326	8278.34
552.689	8363.54
553.053	8345.23
553.417	8312.01
553.78	8481.5
554.143	8374.38
554.507	8396.53
554.87	8363.54
555.234	8466.59
555.597	8469.52
555.96	8418.9
556.323	8441.28
556.686	8511.78
557.05	8599.69
557.413	8545.91
557.776	8530.31
558.139	8613.47
558.502	8630.65
558.865	8601.72
559.228	8720.59
559.59	8712.45
559.953	8685.79
560.316	8752
560.679	8775.5
561.041	8780.7
561.404	8786.35
561.767	8894.6
562.129	8905.67
562.492	8948.83
562.854	8930.3
563.217	8862.06
563.579	8971.2
563.941	9019.57
564.304	8993.58
564.666	9087.36
565.028	9084.87
565.39	9137.08
565.753	9145.89
566.115	9241.03
566.477	9222.95
566.839	9262.04
567.201	9324.87
567.563	9317.64
567.925	9375.94
568.287	9310.18
568.648	9336.39
569.01	9434.7
569.372	9471.3
569.734	9482.38
570.095	9485.54
570.457	9542.49
570.819	9615.48
571.18	9599.44
571.542	9708.81
571.903	9643.73
572.265	9757.4
572.626	9699.1
572.987	9826.32
573.349	9783.39
573.71	9891.41
574.071	9832.65
574.432	9958.07
574.794	9980.67
575.155	9956.49
575.516	9920.33
575.877	10013.21
576.238	10056.83
576.599	10112.42
576.96	10158.74
577.32	10227.67
577.681	10214.34
578.042	10293.2
578.403	10318.97
578.763	10287.33
579.124	10416.36
579.485	10467.89
579.845	10457.72
580.206	10557.15
580.566	10537.27
580.927	10572.29
581.287	10659.75
581.648	10695.45
582.008	10774.77
582.368	10772.29
582.728	10855
583.089	10843.02
583.449	10903.36
583.809	10948.33
584.169	11049.12
584.529	11012.06
584.889	11186.97
585.249	11144.48
585.609	11193.97
585.969	11379.28
586.329	11307.64
586.688	11416.34
587.048	11502.66
587.408	11489.56
587.768	11522.78
588.127	11619.27
588.487	11744.92
588.846	11847.06
589.206	11834.63
589.565	11940.84
589.925	11985.59
590.284	12042.99
590.643	12112.59
591.003	12183.1
591.362	12336.31
591.721	12294.06
592.08	12390.1
592.44	12504.67
592.799	12577.66
593.158	12594.39
593.517	12618.57
593.876	12730.65
594.235	12678
594.593	12847.49
594.952	12924.32
595.311	12859.01
595.67	13033.47
596.029	13156.63
596.387	13219.91
596.746	13234.6
597.104	13233.24
597.463	13285.67
597.822	13397.76
598.18	13386.23
598.538	13424.2
598.897	13570.18
599.255	13509.16
599.613	13711.87
599.972	13731.98
600.33	13735.83
600.688	13774.24
601.046	13875.26
601.404	14024.86
601.762	13942.83
602.12	14079.55
602.478	14090.17
602.836	14157.06
603.194	14006.1
603.552	14065.76
603.91	14219.65
604.268	14322.48
604.625	14214.23
604.983	14404.73
605.341	14389.82
605.698	14389.59
606.056	14465.3
606.413	14449.48
606.771	14665.07
607.128	14602.92
607.485	14631.17
607.843	14689.7
608.2	14690.83
608.557	14707.78
608.914	14826.64
609.272	14878.85
609.629	14883.59
609.986	14966.3
610.343	14896.92
610.7	15077.94
611.057	15032.97
611.414	15071.61
611.771	15115.22
612.127	15152.06
612.484	15162.68
612.841	15139.63
613.198	15162.91
613.554	15209.46
613.911	15284.49
614.267	15324.71
614.624	15297.37
614.98	15413.52
615.337	15428.66
615.693	15382.79
616.05	15437.93
616.406	15549.56
616.762	15509.56
617.118	15505.5
617.475	15517.7
617.831	15514.99
618.187	15687.64
618.543	15571.48
618.899	15654.42
619.255	15739.84
619.611	15616.45
619.967	15775.09
620.323	15728.09
620.678	15721.99
621.034	15712.95
621.39	15733.96
621.746	15737.13
622.101	15863
622.457	15669.79
622.812	15786.39
623.168	15814.19
623.523	15842.21
623.879	15962.43
624.234	15814.41
624.589	15856.45
624.945	15924.24
625.3	15896.67
625.655	15824.58
626.01	15890.57
626.365	15799.27
626.72	15845.15
627.075	15893.51
627.43	15981.64
627.785	15834.98
628.14	15958.82
628.495	15868.65
628.85	15945.48
629.205	15869.78
629.559	15929.67
629.914	15829.1
630.269	15891.02
630.623	15845.83
630.978	15900.06
631.332	15884.92
631.687	15838.82
632.041	15872.27
632.396	15787.3
632.75	15688.32
633.104	15833.62
633.459	15741.65
633.813	15807.18
634.167	15853.74
634.521	15752.04
634.875	15760.18
635.229	15812.15
635.583	15647.19
635.937	15702.78
636.291	15681.76
636.645	15737.58
636.999	15637.02
637.352	15707.07
637.706	15509.79
638.06	15610.8
638.413	15551.82
638.767	15586.4
639.121	15557.7
639.474	15572.61
639.828	15539.62
640.181	15471.6
640.534	15550.24
640.888	15398.15
641.241	15420.53
641.594	15448.55
641.947	15521.99
642.301	15428.66
642.654	15451.71
643.007	15449.45
643.36	15411.94
643.713	15368.1
644.066	15515.21
644.419	15345.95
644.771	15275.67
645.124	15165.62
645.477	15162.91
645.83	15092.85
646.182	14957.49
646.535	14917.26
646.888	14915.46
647.24	14898.96
647.593	14952.06
647.945	14888.34
648.298	14785.74
648.65	14797.72
649.002	14745.74
649.355	14861.45
649.707	14842.01
650.059	15011.95
650.411	15128.56
650.763	15119.29
651.115	15341.88
651.467	15200.42
651.819	15223.24
652.171	15210.36
652.523	15198.39
652.875	15239.06
653.227	15228.89
653.578	15277.93
653.93	15229.12
654.282	15291.49
654.633	15183.92
654.985	15195.67
655.337	15266.86
655.688	15186.86
656.039	15283.36
656.391	15183.02
656.742	15152.74
657.094	15235.9
657.445	15251.49
657.796	15254.2
658.147	15179.18
658.498	15290.13
658.849	15194.54
659.2	15322
659.551	15243.36
659.902	15295.33
660.253	15341.21
660.604	15331.49
660.955	15240.64
661.306	15297.14
661.656	15237.48
662.007	15260.76
662.358	15346.86
662.708	15340.98
663.059	15321.77
663.409	15214.66
663.76	15353.18
664.11	15360.19
664.461	15382.34
664.811	15355.9
665.161	15465.95
665.511	15265.28
665.862	15340.3
666.212	15350.25
666.562	15395.67
666.912	15428.66
667.262	15358.83
667.612	15290.36
667.962	15334.88
668.312	15288.55
668.662	15396.12
669.011	15366.52
669.361	15375.33
669.711	15274.32
670.06	15301.66
670.41	15252.85
670.76	15248.33
671.109	15354.77
671.459	15248.78
671.808	15248.33
672.157	15249.68
672.507	15120.42
672.856	15110.03
673.205	15245.62
673.554	15244.94
673.904	15178.27
674.253	15269.34
674.602	15280.19
674.951	14952.74
675.3	14934.66
675.649	15136.01
675.998	15154.09
676.346	15086.07
676.695	15203.13
677.044	15058.95
677.393	15134.66
677.741	15098.05
678.09	14991.16
678.438	15040.2
678.787	15004.04
679.135	15020.54
679.484	14951.84
679.832	15024.38
680.181	14873.65
680.529	14930.6
680.877	14848.34
681.225	14896.92
681.573	14879.07
681.922	14825.97
682.27	14779.19
682.618	14768.34
682.966	14666.42
683.314	14813.54
683.661	14758.62
684.009	14605.18
684.357	14690.83
684.705	14530.38
685.053	14633.43
685.4	14559.76
685.748	14418.52
686.095	14512.53
686.443	14406.32
686.79	14354.79
687.138	14453.09
687.485	14427.11
687.832	14279.77
688.18	14318.18
688.527	14251.52
688.874	14297.17
689.221	14179.88
689.568	14110.96
689.915	14019.66
690.262	14022.6
690.609	14079.55
690.956	13908.25
691.303	13844.75
691.65	13870.06
691.997	13761.59
692.344	13665.09
692.69	13627.81
693.037	13749.16
693.383	13571.76
693.73	13686.11
694.077	13540.58
694.423	13495.61
694.769	13518.43
695.116	13514.59
695.462	13407.02
695.808	13407.7
696.155	13448.83
696.501	13295.16
696.847	13304.42
697.193	13200.02
697.539	13237.99
697.885	13029.18
698.231	13026.69
698.577	13032.11
698.923	12961.16
699.269	12954.83
699.614	12934.04
699.96	12844.55
700.306	12810.88
700.651	12703.54
700.997	12676.42
701.342	12682.52
701.688	12642.52
702.033	12580.6
702.379	12582.64
702.724	12610.88
703.069	12583.54
703.415	12425.35
703.76	12378.57
704.105	12419.7
704.45	12366.37
704.795	12255.19
705.14	12252.47
705.485	12141.97
705.83	12166.15
706.175	12206.37
706.52	12181.52
706.865	12112.59
707.209	12075.53
707.554	11991.46
707.899	12020.16
708.243	11927.29
708.588	11812.94
708.932	11834.63
709.277	11812.03
709.621	11735.65
709.966	11728.42
710.31	11802.99
710.654	11592.15
710.998	11653.39
711.342	11639.84
711.687	11695.65
712.031	11586.73
712.375	11511.93
712.719	11463.12
713.063	11514.41
713.407	11509.22
713.75	11478.48
714.094	11444.36
714.438	11439.39
714.782	11450.24
715.125	11323.69
715.469	11319.62
715.812	11294.53
716.156	11189.23
716.499	11219.73
716.843	11242.56
717.186	11225.38
717.53	11230.81
717.873	11203.69
718.216	11215.67
718.559	11178.83
718.902	11094.31
719.246	11060.42
719.589	11076.46
719.932	11095.67
720.275	11010.93
720.617	11021.55
720.96	10995.33
721.303	10984.94
721.646	11010.7
721.989	10960.76
722.331	10964.37
722.674	11013.86
723.016	10998.95
723.359	10991.04
723.701	11019.96
724.044	10825.85
724.386	10868.33
724.729	10950.14
725.071	10925.5
725.413	10842.57
725.755	10833.3
726.097	10857.93
726.439	10788.33
726.782	10823.81
727.124	10822
727.465	10813.64
727.807	10769.12
728.149	10749.24
728.491	10794.21
728.833	10813.42
729.175	10739.07
729.516	10731.61
729.858	10714.89
730.199	10647.77
730.541	10720.31
730.882	10723.25
731.224	10754.21
731.565	10660.88
731.906	10723.93
732.248	10811.16
732.589	10679.63
732.93	10636.02
733.271	10656.13
733.612	10645.29
733.953	10683.93
734.294	10673.53
734.635	10659.3
734.976	10703.81
735.317	10671.73
735.658	10712.4
735.999	10668.11
736.339	10647.77
736.68	10743.81
737.021	10720.76
737.361	10656.81
737.702	10709.24
738.042	10671.73
738.383	10667.43
738.723	10706.75
739.063	10717.15
739.404	10731.61
739.744	10739.07
740.084	10678.73
740.424	10700.42
740.764	10692.52
741.104	10773.42
741.444	10725.51
741.784	10743.36
742.124	10794.21
742.464	10776.58
742.804	10808.22
743.143	10805.73
743.483	10866.52
743.823	10880.08
744.162	10854.55
744.502	10904.71
744.841	10944.26
745.181	11011.38
745.52	11016.8
745.86	11113.97
746.199	11041.66
746.538	11105.39
746.877	11186.06
747.216	11266.29
747.556	11268.32
747.895	11327.53
748.234	11371.37
748.573	11363.46
748.911	11389.67
749.25	11490.91
749.589	11583.34
749.928	11647.07
750.267	11747.18
750.605	11772.04
750.944	11900.62
751.283	11887.51
751.621	12082.31
751.96	12093.83
752.298	12208.41
752.636	12300.61
752.975	12339.93
753.313	12488.85
753.651	12615.63
753.989	12727.72
754.327	12820.14
754.666	12836.19
755.004	13005
755.342	13162.51
755.679	13207.03
756.017	13330.41
756.355	13472.33
756.693	13614.7
757.031	13758.88
757.368	13851.08
757.706	14064.18
758.044	14117.28
758.381	14338.07
758.719	14337.84
759.056	14507.78
759.394	14656.03
759.731	14719.53
760.068	14859.19
760.405	15049.24
760.743	15200.19
761.08	15447.19
761.417	15421.88
761.754	15646.96
762.091	15826.84
762.428	16002.43
762.765	16027.74
763.102	16240.62
763.438	16385.93
763.775	16444
764.112	16574.39
764.449	16852.35
764.785	16924.67
765.122	17020.71
765.458	17088.28
765.795	17227.71
766.131	17420.25
766.467	17480.59
766.804	17497.08
767.14	17674.7
767.476	17845.55
767.812	17897.75
768.148	18126.22
768.485	18099.33
768.821	18123.96
769.157	18296.16
769.492	18439.2
769.828	18483.27
770.164	18396.49
770.5	18526.66
770.836	18672.19
771.171	18738.41
771.507	18780.21
771.842	18728.01
772.178	18851.62
772.513	18919.87
772.849	18934.11
773.184	19053.2
773.519	19039.87
773.855	19030.83
774.19	19102.69
774.525	19084.61
774.86	19193.31
775.195	19190.15
775.53	19273.08
775.865	19176.13
776.2	19157.6
776.535	19098.62
776.87	19305.17
777.205	19264.95
777.539	19200.77
777.874	19264.27
778.209	19283.93
778.543	19260.65
778.878	19165.06
779.212	19331.61
779.547	19148.11
779.881	19354.89
780.215	19167.32
780.55	19315.57
780.884	19294.55
781.218	19267.21
781.552	19318.96
781.886	19264.49
782.22	19136.36
782.554	19235.79
782.888	19043.93
783.222	19123.03
783.556	19051.17
783.889	19155.57
784.223	19048.23
784.557	18968.68
784.89	19055.69
785.224	19010.71
785.557	18970.26
785.891	18993.54
786.224	18906.76
786.558	18869.25
786.891	18766.43
787.224	18765.98
787.557	18736.37
787.891	18673.1
788.224	18710.61
788.557	18692.76
788.89	18745.86
789.223	18675.81
789.556	18500.45
789.888	18497.96
790.221	18550.84
790.554	18382.03
790.887	18345.87
791.219	18389.04
791.552	18252.77
791.884	18253.67
792.217	18207.8
792.549	18097.52
792.882	18062.49
793.214	17991.08
793.546	18092.09
793.879	17996.05
794.211	17871.31
794.543	17907.92
794.875	17813.68
795.207	17813.91
795.539	17762.39
795.871	17902.04
796.203	17684.42
796.535	17496.4
796.867	17571.66
797.198	17566.23
797.53	17502.05
797.862	17377.54
798.193	17453.24
798.525	17347.71
798.856	17407.82
799.188	17155.62
799.519	17234.72
799.85	17132.35
800.182	17161.05
800.513	17142.74
800.844	16921.5
801.175	17002.86
801.506	16998.79
801.837	16909.98
802.168	16913.14
802.499	16851
802.83	16853.71
803.161	16773.94
803.491	16865.23
803.822	16693.94
804.153	16712.7
804.483	16523.1
804.814	16535.75
805.145	16491.46
805.475	16508.86
805.805	16459.37
806.136	16469.54
806.466	16458.47
806.796	16357.9
807.126	16250.56
807.457	16163.11
807.787	16183.67
808.117	16197.68
808.447	16139.6
808.777	16119.94
809.107	16073.39
809.436	16041.3
809.766	16107.97
810.096	15912.49
810.426	15949.78
810.755	15893.06
811.085	15839.27
811.414	15823
811.744	15726.96
812.073	15656
812.403	15752.95
812.732	15593.86
813.061	15653.29
813.39	15550.01
813.719	15537.81
814.049	15597.47
814.378	15511.6
814.707	15473.63
815.036	15401.77
815.365	15403.35
815.693	15256.01
816.022	15273.64
816.351	15236.58
816.68	15195.22
817.008	15241.77
817.337	15120.87
817.665	15019.86
817.994	15107.99
818.322	15123.13
818.651	14996.81
818.979	14877.04
819.307	15070.48
819.636	14974.44
819.964	14952.06
820.292	14914.78
820.62	14917.94
820.948	14950.93
821.276	14887.43
821.604	14821.22
821.932	14880.43
822.259	14945.06
822.587	14833.65
822.915	14809.24
823.243	14905.06
823.57	14721.79
823.898	14798.4
824.225	14783.48
824.553	14793.2
824.88	14851.05
825.207	14882.24
825.535	14784.16
825.862	14858.28
826.189	14799.98
826.516	14903.7
826.843	14817.83
827.17	14809.02
827.497	14912.29
827.824	14970.37
828.151	14806.53
828.478	14856.25
828.805	14910.71
829.131	14835.23
829.458	14838.17
829.785	14750.04
830.111	14810.6
830.438	14898.28
830.764	14822.8
831.09	14853.31
831.417	14749.36
831.743	14899.86
832.069	14882.46
832.395	14756.82
832.722	14755.69
833.048	14741.22
833.374	14753.43
833.7	14743.71
834.026	14658.29
834.351	14702.81
834.677	14730.83
835.003	14678.63
835.329	14576.93
835.654	14646.76
835.98	14572.19
836.306	14669.13
836.631	14554.11
836.956	14550.27
837.282	14613.09
837.607	14555.01
837.932	14482.7
838.258	14513.66
838.583	14431.85
838.908	14424.17
839.233	14482.02
839.558	14375.81
839.883	14298.3
840.208	14318.41
840.533	14322.93
840.858	14277.28
841.182	14360.89
841.507	14287.45
841.832	14155.25
842.156	14236.38
842.481	14209.94
842.805	14151.86
843.13	14083.39
843.454	14078.19
843.778	14008.13
844.103	13988.93
844.427	13953.45
844.751	13973.79
845.075	13938.76
845.399	13827.35
845.723	13799.1
846.047	13781.93
846.371	13666.45
846.695	13571.99
847.019	13535.6
847.343	13534.93
847.666	13470.75
847.99	13432.1
848.313	13466.68
848.637	13325.44
848.96	13240.25
849.284	13181.26
849.607	13122.96
849.931	13153.24
850.254	13002.29
850.577	12934.94
850.9	12900.37
851.223	12960.03
851.546	12829.41
851.869	12837.09
852.192	12849.29
852.515	12723.2
852.838	12678.68
853.161	12597.55
853.483	12626.93
853.806	12482.98
854.129	12485.91
854.451	12474.16
854.774	12409.98
855.096	12349.42
855.419	12384.67
855.741	12399.36
856.063	12309.42
856.385	12224.9
856.708	12222.87
857.03	12213.15
857.352	12123.89
857.674	12123.44
857.996	12073.5
858.318	12048.64
858.64	11954.63
858.961	12006.83
859.283	11968.87
859.605	11786.27
859.926	11875.08
860.248	11833.73
860.57	11714.41
860.891	11741.08
861.212	11643
861.534	11709.44
861.855	11638.25
862.176	11702.21
862.498	11579.72
862.819	11556
863.14	11597.58
863.461	11524.81
863.782	11478.26
864.103	11543.57
864.424	11483.23
864.745	11458.6
865.065	11483
865.386	11343.57
865.707	11445.72
866.027	11458.82
866.348	11391.03
866.668	11417.24
866.989	11300.64
867.309	11266.06
867.63	11276.45
867.95	11308.32
868.27	11197.36
868.59	11143.13
868.91	11214.76
869.23	11192.39
869.55	11195.55
869.87	11160.3
870.19	11109.91
870.51	11161.88
870.83	11119.62
871.15	11118.04
871.469	11055.9
871.789	11051.15
872.109	11054.09
872.428	10979.51
872.748	10982.9
873.067	10959.85
873.386	11040.53
873.706	10924.37
874.025	10819.97
874.344	10828.78
874.663	10897.93
874.982	10813.19
875.301	10830.82
875.62	10817.71
875.939	10772.06
876.258	10791.5
876.577	10706.07
876.896	10770.93
877.214	10743.81
877.533	10754.66
877.852	10747.2
878.17	10648.67
878.489	10602.35
878.807	10657.49
879.125	10612.29
879.444	10579.98
879.762	10509.92
880.08	10582.01
880.398	10515.8
880.716	10548.11
881.034	10503.82
881.352	10455.01
881.67	10502.46
881.988	10453.43
882.306	10403.03
882.624	10411.17
882.941	10336.37
883.259	10319.64
883.577	10350.38
883.894	10272.87
884.212	10317.61
884.529	10226.76
884.846	10203.26
885.164	10226.76
885.481	10099.08
885.798	10191.06
886.115	10095.69
886.432	10128.69
886.75	10046.43
887.067	10020.89
887.383	10076.03
887.7	10065.87
888.017	9937.73
888.334	10005.3
888.651	9888.92
888.967	9930.73
889.284	9870.39
889.6	9827.91
889.917	9799.88
890.233	9844.85
890.55	9793.33
890.866	9765.31
891.182	9716.5
891.498	9647.8
891.815	9643.5
892.131	9612.32
892.447	9621.13
892.763	9526.9
893.079	9447.8
893.395	9525.31
893.71	9518.31
894.026	9488.25
894.342	9397.41
894.657	9424.75
894.973	9343.4
895.289	9356.28
895.604	9349.95
895.92	9207.58
896.235	9204.42
896.55	9189.73
896.865	9188.15
897.181	9239.22
897.496	9161.03
897.811	9136.62
898.126	9097.08
898.441	9074.03
898.756	8988.83
899.071	8925.1
899.386	8961.49
899.7	8923.07
900.015	8849.85
900.33	8735.5
900.644	8833.13
900.959	8773.24
901.273	8690.76
901.588	8754.94
901.902	8657.54
902.216	8631.1
902.531	8572.57
902.845	8535.96
903.159	8534.83
903.473	8465.91
903.787	8503.65
904.101	8387.04
904.415	8442.41
904.729	8352.24
905.042	8321.28
905.356	8344.78
905.67	8317.44
905.984	8305.46
906.297	8257.78
906.611	8157.67
906.924	8172.13
907.237	8117.67
907.551	8136.65
907.864	8065.01
908.177	8018.69
908.491	8008.74
908.804	7944.11
909.117	7878.13
909.43	7912.25
909.743	7867.28
910.056	7891.23
910.368	7788.64
910.681	7746.83
910.994	7783.67
911.307	7732.14
911.619	7648.08
911.932	7659.15
912.244	7613.73
912.557	7595.65
912.869	7547.74
913.181	7444.92
913.494	7487.4
913.806	7424.35
914.118	7427.97
914.43	7375.77
914.742	7377.35
915.054	7323.56
915.366	7332.6
915.678	7268.65
915.99	7279.27
916.302	7189.1
916.613	7226.84
916.925	7120.18
917.236	7164.7
917.548	7061.2
917.859	7058.71
918.171	7013.97
918.482	7020.97
918.794	6959.51
919.105	6978.26
919.416	6837.25
919.727	6903.01
920.038	6854.65
920.349	6801.77
920.66	6789.34
920.971	6761.09
921.282	6707.08
921.593	6689.46
921.903	6665.5
922.214	6633.19
922.525	6622.34
922.835	6634.32
923.146	6586.18
923.456	6537.82
923.767	6505.96
924.077	6544.38
924.387	6488.56
924.697	6509.57
925.008	6385.96
925.318	6398.84
925.628	6404.94
925.938	6376.24
926.248	6319.98
926.558	6260.54
926.867	6298.73
927.177	6227.32
927.487	6234.1
927.796	6144.84
928.106	6192.07
928.416	6082.92
928.725	6140.09
929.034	6075.01
929.344	6111.62
929.653	6028.68
929.962	6024.16
930.271	5958.18
930.581	5939.19
930.89	5989.59
931.199	5901.23
931.508	5905.75
931.817	5851.74
932.125	5877.95
932.434	5800.67
932.743	5751.4
933.051	5752.76
933.36	5752.76
933.669	5708.92
933.977	5720.89
934.286	5698.97
934.594	5614
934.902	5616.94
935.21	5599.54
935.519	5605.87
935.827	5558.64
936.135	5553.44
936.443	5458.53
936.751	5480.22
937.059	5456.72
937.367	5454.24
937.674	5400.23
937.982	5457.85
938.29	5350.28
938.597	5355.71
938.905	5319.78
939.213	5283.62
939.52	5255.37
939.827	5274.35
940.135	5202.94
940.442	5260.79
940.749	5189.61
941.056	5196.16
941.363	5105.32
941.67	5165.43
941.977	5117.52
942.284	5087.24
942.591	4995.49
942.898	5042.49
943.205	5010.86
943.511	5041.36
943.818	4973.34
944.125	4918.43
944.431	4888.83
944.738	4935.6
945.044	4898.77
945.35	4823.07
945.657	4839.34
945.963	4810.86
946.269	4800.24
946.575	4757.53
946.881	4734.48
947.187	4765.89
947.493	4683.86
947.799	4736.06
948.105	4644.31
948.41	4624.65
948.716	4652.9
949.022	4645.67
949.327	4639.79
949.633	4615.84
949.938	4568.83
950.244	4571.32
950.549	4509.18
950.854	4508.5
951.16	4472.34
951.465	4475.96
951.77	4382.4
952.075	4409.97
952.38	4405.22
952.685	4412.68
952.99	4288.84
953.294	4284.55
953.599	4322.51
953.904	4284.1
954.209	4258.33
954.513	4279.35
954.818	4202.74
955.122	4199.58
955.426	4244.32
955.731	4244.32
956.035	4134.72
956.339	4137.21
956.643	4153.03
956.948	4115.74
957.252	4094.72
957.556	4089.53
957.86	4050.43
958.163	4084.1
958.467	4066.7
958.771	3992.13
959.075	4032.58
959.378	3975.86
959.682	3986.7
959.985	3939.25
960.289	3926.82
960.592	3880.72
960.896	3885.01
961.199	3919.13
961.502	3885.01
961.805	3820.38
962.108	3835.07
962.411	3809.53
962.714	3792.58
963.017	3773.83
963.32	3798.69
963.623	3737.22
963.926	3767.5
964.228	3713.04
964.531	3699.48
964.833	3692.25
965.136	3658.8
965.438	3635.53
965.741	3662.64
966.043	3603.89
966.345	3574.96
966.648	3588.75
966.95	3566.15
967.252	3510.11
967.554	3553.27
967.856	3554.62
968.158	3494.74
968.46	3511.24
968.761	3498.58
969.063	3465.59
969.365	3474.85
969.666	3383.56
969.968	3425.36
970.269	3461.75
970.571	3387.4
970.872	3377.23
971.174	3343.78
971.475	3337
971.776	3287.51
972.077	3306.72
972.378	3298.59
972.679	3275.54
972.98	3287.96
973.281	3253.84
973.582	3213.16
973.883	3242.09
974.183	3224.92
974.484	3196.89
974.785	3177.23
975.085	3218.81
975.386	3177.68
975.686	3130.91
975.986	3139.95
976.287	3142.21
976.587	3091.36
976.887	3094.07
977.187	3080.29
977.487	3062.66
977.787	3029.89
978.087	3057.24
978.387	3031.02
978.687	3014.53
978.987	2989.67
979.286	2972.27
979.586	2967.75
979.885	2961.19
980.185	2942.66
980.484	2927.97
980.784	2886.62
981.083	2908.77
981.382	2894.53
981.682	2873.74
981.981	2862.89
982.28	2845.26
982.579	2814.53
982.878	2858.37
983.177	2825.38
983.475	2772.95
983.774	2772.72
984.073	2762.55
984.372	2731.59
984.67	2769.56
984.969	2752.39
985.267	2749.67
985.566	2714.19
985.864	2690.47
986.162	2687.53
986.461	2680.97
986.759	2680.3
987.057	2644.37
987.355	2603.69
987.653	2635.78
987.951	2630.35
988.249	2598.49
988.547	2590.81
988.844	2576.12
989.142	2549.45
989.44	2549.9
989.737	2543.13
990.035	2521.43
990.332	2524.37
990.63	2543.58
990.927	2485.05
991.224	2472.17
991.521	2477.82
991.819	2442.79
992.116	2452.05
992.413	2450.02
992.71	2422.68
993.006	2425.39
993.303	2459.74
993.6	2417.25
993.897	2374.99
994.193	2391.94
994.49	2365.95
994.787	2362.56
995.083	2377.93
995.379	2274.21
995.676	2322.34
995.972	2289.35
996.268	2309.01
996.565	2246.18
996.861	2273.98
997.157	2251.16
997.453	2274.43
997.749	2196.24
998.044	2203.47
998.34	2197.15
998.636	2168.22
998.932	2153.76
999.227	2178.62
999.523	2149.46
999.818	2152.4
1000.114	2142.68
1000.409	2139.75
1000.704	2105.17
1001	2112.63
1001.295	2083.25
1001.59	2069.47
1001.885	2109.69
1002.18	2067.66
1002.475	2043.7
1002.77	2022.91
1003.065	2047.55
1003.359	2005.29
1003.654	2039.64
1003.949	1971.61
1004.243	2000.31
1004.538	1931.39
1004.832	1964.16
1005.127	1933.88
1005.421	1951.05
1005.715	1965.97
1006.009	1906.98
1006.304	1941.56
1006.598	1909.24
1006.892	1902.46
1007.186	1887.1
1007.48	1836.93
1007.773	1857.49
1008.067	1844.39
1008.361	1819.75
1008.655	1812.97
1008.948	1817.72
1009.242	1837.16
1009.535	1783.6
1009.829	1782.02
1010.122	1773.88
1010.415	1761.22
1010.708	1755.8
1011.001	1725.75
1011.295	1720.32
1011.588	1732.3
1011.881	1698.18
1012.173	1698.85
1012.466	1680.55
1012.759	1692.07
1013.052	1672.41
1013.344	1661.34
1013.637	1624.96
1013.93	1635.58
1014.222	1608.69
1014.514	1638.52
1014.807	1606.65
1015.099	1577.95
1015.391	1620.66
1015.683	1593.77
1015.976	1565.98
1016.268	1571.85
1016.56	1538.41
1016.851	1527.78
1017.143	1551.96
1017.435	1535.47
1017.727	1484.85
1018.018	1511.74
1018.31	1506.77
1018.602	1506.09
1018.893	1479.88
1019.185	1480.78
1019.476	1437.84
1019.767	1426.54
1020.058	1465.87
1020.35	1438.75
1020.641	1440.56
1020.932	1439.43
1021.223	1406.88
1021.514	1416.83
1021.804	1402.14
1022.095	1374.57
1022.386	1356.94
1022.677	1367.11
1022.967	1375.02
1023.258	1343.83
1023.548	1313.33
1023.839	1331.18
1024.129	1347.22
1024.419	1317.85
1024.709	1306.77
1025	1301.58
1025.29	1278.3
1025.58	1295.93
1025.87	1286.21
1026.16	1268.13
1026.449	1255.02
1026.739	1239.66
1027.029	1230.17
1027.319	1205.08
1027.608	1191.97
1027.898	1205.99
1028.187	1194.23
1028.477	1197.85
1028.766	1163.5
1029.055	1200.11
1029.344	1188.13
1029.634	1158.3
1029.923	1141.13
1030.212	1153.78
1030.501	1158.53
1030.79	1118.98
1031.078	1123.95
1031.367	1133.44
1031.656	1102.49
1031.945	1114.91
1032.233	1112.65
1032.522	1131.41
1032.81	1080.79
1033.099	1068.36
1033.387	1050.28
1033.675	1053.67
1033.963	1029.27
1034.251	1059.55
1034.54	1045.76
1034.828	1049.38
1035.116	1003.73
1035.403	1026.33
1035.691	1009.83
1035.979	1030.62
1036.267	993.56
1036.554	1020.91
1036.842	984.07
1037.129	973.45
1037.417	982.04
1037.704	979.55
1037.992	985.43
1038.279	956.27
1038.566	924.18
1038.853	924.18
1039.14	924.18
