Data from hue_34_FLMS001491_00058.txt Node
Date: Tue Feb 07 17:25:50 GMT 2017
User: dcchb
Spectrometer: FLMS00149
Trigger mode: 0
Integration Time (sec): 2.000000E-2
Scans to average: 10
Electric dark correction enabled: true
Nonlinearity correction enabled: false
Boxcar width: 0
XAxis mode: Wavelengths
Number of Pixels in Spectrum: 2048
>>>>>Begin Spectral Data<<<<<
341.393	2.18
341.776	2.18
342.16	2.18
342.543	-53.64
342.927	-62.23
343.31	-68.56
343.693	-78.27
344.077	-72.4
344.46	-40.31
344.843	-41.89
345.226	-38.5
345.61	-25.85
345.993	-17.71
346.376	-9.35
346.759	0.37
347.142	12.8
347.525	43.3
347.908	36.98
348.291	93.92
348.674	100.25
349.057	105.22
349.44	121.95
349.823	148.16
350.206	161.72
350.588	201.04
350.971	230.87
351.354	241.04
351.737	251.21
352.119	266.57
352.502	272.9
352.884	256.18
353.267	286.91
353.65	297.53
354.032	292.11
354.414	303.64
354.797	319.91
355.179	305.67
355.562	312.68
355.944	357.42
356.326	318.32
356.709	360.58
357.091	354.48
357.473	345.44
357.855	349.06
358.238	350.41
358.62	353.13
359.002	354.03
359.384	340.92
359.766	337.99
360.148	351.77
360.53	343.64
360.912	331.21
361.294	328.72
361.676	341.38
362.057	337.99
362.439	336.18
362.821	341.38
363.203	323.07
363.584	322.84
363.966	330.98
364.348	318.78
364.729	326.91
365.111	307.48
365.493	324.88
365.874	309.74
366.256	324.43
366.637	315.61
367.019	317.87
367.4	322.84
367.781	320.58
368.163	301.38
368.544	312.45
368.925	321.94
369.306	318.78
369.688	314.26
370.069	326.91
370.45	317.87
370.831	320.36
371.212	309.74
371.593	326.91
371.974	313.58
372.355	323.75
372.736	313.58
373.117	305.67
373.498	334.14
373.879	322.62
374.26	315.61
374.641	314.94
375.021	333.01
375.402	318.32
375.783	319
376.163	344.09
376.544	307.25
376.925	332.34
377.305	332.34
377.686	337.53
378.066	320.13
378.447	336.86
378.827	329.62
379.208	336.63
379.588	325.1
379.968	337.31
380.349	326.46
380.729	339.57
381.109	349.74
381.489	341.6
381.87	336.4
382.25	316.52
382.63	341.38
383.01	358.32
383.39	352.67
383.77	348.15
384.15	337.76
384.53	334.82
384.91	356.06
385.29	372.33
385.67	375.72
386.049	342.73
386.429	363.52
386.809	337.31
387.189	347.02
387.568	373.69
387.948	372.11
388.328	359.45
388.707	335.27
389.087	361.71
389.466	362.39
389.846	373.24
390.225	357.65
390.605	371.43
390.984	381.83
391.363	360.58
391.743	368.95
392.122	357.19
392.501	368.72
392.881	354.71
393.26	383.18
393.639	395.84
394.018	360.13
394.397	365.1
394.776	379.11
395.155	386.57
395.534	370.08
395.913	386.8
396.292	409.17
396.671	412.11
397.05	405.1
397.429	380.7
397.808	392.67
398.186	390.19
398.565	386.12
398.944	394.71
399.323	378.89
399.701	416.18
400.08	448.27
400.458	419.34
400.837	401.49
401.215	406.23
401.594	401.71
401.972	414.59
402.351	381.15
402.729	388.38
403.107	404.65
403.486	414.37
403.864	411.43
404.242	415.05
404.62	410.53
404.999	412.79
405.377	409.85
405.755	429.51
406.133	418.66
406.511	428.6
406.889	410.98
407.267	437.42
407.645	432.22
408.023	435.16
408.401	419.34
408.779	424.76
409.156	444.65
409.534	429.96
409.912	443.97
410.29	474.71
410.667	479
411.045	452.33
411.422	455.27
411.8	465.44
412.178	445.78
412.555	481.03
412.933	452.78
413.31	471.54
413.687	490.3
414.065	478.32
414.442	468.38
414.819	505.21
415.197	479.68
415.574	493.01
415.951	475.16
416.328	503.86
416.705	510.86
417.082	502.95
417.46	504.53
417.837	506.57
418.214	511.09
418.591	504.31
418.967	506.12
419.344	524.2
419.721	510.86
420.098	520.81
420.475	511.54
420.852	517.64
421.228	533.01
421.605	553.8
421.982	523.29
422.358	522.39
422.735	554.25
423.111	541.14
423.488	563.74
423.864	548.6
424.241	573.91
424.617	554.93
424.994	572.1
425.37	566.23
425.746	528.71
426.123	580.69
426.499	557.41
426.875	591.54
427.251	594.02
427.627	609.39
428.003	592.89
428.379	571.65
428.756	582.27
429.132	613.91
429.507	607.13
429.883	612.33
430.259	630.41
430.635	606
431.011	616.62
431.387	634.02
431.763	662.04
432.138	660.24
432.514	654.36
432.89	643.97
433.265	646
433.641	647.36
434.016	690.29
434.392	678.09
434.767	655.27
435.143	694.81
435.518	679.67
435.894	685.32
436.269	695.26
436.644	702.72
437.02	721.48
437.395	695.94
437.77	721.25
438.145	714.92
438.52	714.47
438.895	716.73
439.271	729.39
439.646	781.14
440.021	763.96
440.395	748.82
440.77	755.38
441.145	758.09
441.52	758.31
441.895	761.03
442.27	776.39
442.645	767.13
443.019	769.61
443.394	767.58
443.769	785.43
444.143	778.2
444.518	797.41
444.892	777.52
445.267	787.47
445.641	798.54
446.016	829.5
446.39	818.42
446.764	829.5
447.139	813.23
447.513	812.78
447.887	861.36
448.262	832.44
448.636	827.24
449.01	837.63
449.384	837.63
449.758	850.74
450.132	865.43
450.506	881.25
450.88	873.11
451.254	889.16
451.628	871.76
452.002	876.73
452.376	905.88
452.75	912.66
453.123	900.68
453.497	925.99
453.871	907.46
454.244	946.56
454.618	937.74
454.992	956.73
455.365	984.07
455.739	979.32
456.112	963.96
456.486	977.97
456.859	997.18
457.232	1016.84
457.606	996.05
457.979	1021.58
458.352	1020.45
458.725	1043.05
459.099	1043.05
459.472	1071.98
459.845	1089.83
460.218	1092.54
460.591	1101.58
460.964	1123.5
461.337	1113.33
461.71	1137.06
462.083	1127.57
462.456	1146.1
462.829	1163.95
463.201	1177.06
463.574	1172.09
463.947	1220
464.32	1236.72
464.692	1215.7
465.065	1226.55
465.438	1272.88
465.81	1284.63
466.183	1293.67
466.555	1330.73
466.928	1303.61
467.3	1334.12
467.672	1343.38
468.045	1396.94
468.417	1399.65
468.789	1423.15
469.161	1423.15
469.534	1433.32
469.906	1481.01
470.278	1483.94
470.65	1513.1
471.022	1545.64
471.394	1567.78
471.766	1591.29
472.138	1605.52
472.51	1634
472.882	1673.54
473.253	1695.24
473.625	1744.73
473.997	1796.48
474.369	1788.34
474.74	1841.45
475.112	1876.7
475.484	1912.63
475.855	1903.82
476.227	1956.47
476.598	2013.2
476.97	2055.91
477.341	2110.82
477.713	2135.45
478.084	2157.82
478.455	2238.95
478.827	2286.86
479.198	2373.41
479.569	2374.99
479.94	2470.13
480.311	2483.92
480.682	2611.37
481.053	2640.52
481.424	2709.45
481.795	2770.69
482.166	2806.4
482.537	2866.05
482.908	2963.23
483.279	3008.65
483.65	3069.44
484.021	3219.49
484.391	3248.19
484.762	3320.05
485.133	3307.85
485.503	3463.78
485.874	3584
486.244	3625.58
486.615	3657.22
486.985	3769.53
487.356	3863.54
487.726	3955.29
488.097	4044.55
488.467	4105.12
488.837	4177.21
489.207	4293.36
489.578	4411.32
489.948	4489.74
490.318	4539.68
490.688	4645.22
491.058	4748.04
491.428	4807.02
491.798	4847.47
492.168	5013.79
492.538	5111.87
492.908	5142.38
493.278	5322.71
493.648	5262.83
494.017	5440
494.387	5515.02
494.757	5622.59
495.126	5705.53
495.496	5710.05
495.866	5793.66
496.235	5920.66
496.605	5996.14
496.974	6062.35
497.344	6129.47
497.713	6198.62
498.082	6284.95
498.452	6359.75
498.821	6431.84
499.19	6464.83
499.559	6557.48
499.928	6689.91
500.298	6686.07
500.667	6829.57
501.036	6791.6
501.405	6905.04
501.774	6936
502.143	7045.61
502.512	7108.88
502.88	7199.5
503.249	7245.83
503.618	7300.06
503.987	7286.5
504.356	7409.21
504.724	7451.24
505.093	7507.06
505.462	7571.02
505.83	7724.68
506.199	7756.1
506.567	7726.72
506.936	7821.4
507.304	7901.4
507.672	7963.1
508.041	8004.9
508.409	8062.08
508.777	8178.46
509.145	8229.98
509.514	8178.23
509.882	8312.92
510.25	8340.26
510.618	8370.99
510.986	8500.71
511.354	8536.41
511.722	8610.99
512.09	8627.94
512.458	8688.5
512.826	8686.69
513.193	8818.44
513.561	8790.87
513.929	8888.5
514.297	8988.83
514.664	9024.76
515.032	9104.99
515.4	9182.05
515.767	9147.92
516.135	9222.5
516.502	9262.5
516.869	9334.81
517.237	9388.82
517.604	9348.14
517.972	9459.55
518.339	9462.94
518.706	9596.05
519.073	9556.27
519.44	9601.7
519.808	9687.12
520.175	9717.63
520.542	9849.15
520.909	9915.13
521.276	9911.97
521.643	9961.69
522.009	10041.69
522.376	10095.24
522.743	10107.67
523.11	10276.03
523.477	10333.65
523.843	10360.77
524.21	10453.2
524.577	10526.42
524.943	10497.72
525.31	10619.07
525.676	10735
526.043	10741.55
526.409	10820.2
526.776	10855.68
527.142	10831.04
527.508	11053.41
527.874	11077.59
528.241	11122.56
528.607	11171.15
528.973	11271.94
529.339	11265.38
529.705	11400.52
530.071	11529.33
530.437	11547.63
530.803	11631.47
531.169	11585.6
531.535	11655.65
531.901	11712.83
532.267	11703.79
532.632	11787.63
532.998	11843.9
533.364	11970.9
533.73	12020.39
534.095	12094.06
534.461	12103.78
534.826	12180.16
535.192	12190.56
535.557	12367.73
535.923	12322.98
536.288	12418.8
536.653	12375.64
537.019	12316.2
537.384	12478.91
537.749	12532.92
538.114	12575.86
538.479	12598.91
538.845	12730.65
539.21	12714.61
539.575	12736.98
539.94	12821.5
540.305	12915.28
540.67	12819.69
541.034	12896.98
541.399	12983.3
541.764	13026.69
542.129	13108.27
542.494	13146.46
542.858	13171.09
543.223	13240.7
543.587	13256.29
543.952	13289.28
544.316	13433.46
544.681	13399.34
545.045	13514.36
545.41	13503.97
545.774	13551.42
546.138	13626.68
546.503	13728.37
546.867	13728.82
547.231	13773.79
547.595	13789.84
547.959	13940.57
548.324	13909.38
548.688	13939.21
549.052	14059.43
549.416	13993.67
549.779	14074.35
550.143	14116.15
550.507	14208.58
550.871	14293.78
551.235	14294
551.599	14430.95
551.962	14408.58
552.326	14471.4
552.689	14526.99
553.053	14473.43
553.417	14522.7
553.78	14722.69
554.143	14714.56
554.507	14684.73
554.87	14729.47
555.234	14880.88
555.597	14905.06
555.96	14853.31
556.323	14936.25
556.686	15004.72
557.05	15137.82
557.413	15110.93
557.776	15169.91
558.139	15274.54
558.502	15259.63
558.865	15330.13
559.228	15433.63
559.59	15513.86
559.953	15445.16
560.316	15571.48
560.679	15652.84
561.041	15712.95
561.404	15862.55
561.767	15815.32
562.129	15812.38
562.492	15917.69
562.854	15923.34
563.217	15939.61
563.579	15968.31
563.941	16144.8
564.304	16219.6
564.666	16224.57
565.028	16332.14
565.39	16373.72
565.753	16463.21
566.115	16446.04
566.477	16533.49
566.839	16622.76
567.201	16681.28
567.563	16681.06
567.925	16782.3
568.287	16786.59
568.648	16888.06
569.01	16937.32
569.372	17196.98
569.734	16983.88
570.095	17168.96
570.457	17265.22
570.819	17362.85
571.18	17354.94
571.542	17432
571.903	17550.87
572.265	17546.12
572.626	17628.6
572.987	17728.71
573.349	17806.23
573.71	17846.9
574.071	17947.69
574.432	18041.93
574.794	18217.97
575.155	18307.23
575.516	18300.9
575.877	18357.17
576.238	18492.76
576.599	18638.3
576.96	18737.73
577.32	18812.75
577.681	18948.34
578.042	19117.15
578.403	19238.51
578.763	19248.22
579.124	19470.59
579.485	19557.59
579.845	19784.03
580.206	19819.28
580.566	20046.62
580.927	20219.5
581.287	20371.81
581.648	20511.24
582.008	20754.17
582.368	20752.36
582.728	20986.26
583.089	21130.66
583.449	21218.11
583.809	21551.66
584.169	21795.5
584.529	21877.76
584.889	22285.2
585.249	22323.62
585.609	22411.76
585.969	22824.17
586.329	22984.4
586.688	23163.6
587.048	23360.88
587.408	23434.55
587.768	23696.02
588.127	24045.84
588.487	24097.59
588.846	24554.75
589.206	24533.96
589.565	24850.11
589.925	25102.31
590.284	25344.56
590.643	25628.85
591.003	25848.5
591.362	26189.51
591.721	26419.79
592.08	26554.02
592.44	26981.35
592.799	27187.67
593.158	27363.72
593.517	27629.02
593.876	27938.62
594.235	27928.45
594.593	28278.49
594.952	28645.49
595.311	28845.48
595.67	29008.19
596.029	29612.7
596.387	29753.48
596.746	29987.15
597.104	30012.46
597.463	30333.81
597.822	30608.83
598.18	30787.81
598.538	30989.16
598.897	31391.41
599.255	31281.8
599.613	31844.28
599.972	31912.07
600.33	32311.16
600.688	32413.3
601.046	32638.15
601.404	32876.56
601.762	32976.68
602.12	33265.03
602.478	33502.99
602.836	33763.32
603.194	33623.66
603.552	33992.24
603.91	34030.43
604.268	34371.67
604.625	34445.79
604.983	34782.73
605.341	34917.19
605.698	35163.28
606.056	35317.4
606.413	35493.45
606.771	35682.14
607.128	35811.18
607.485	35890.72
607.843	36215.69
608.2	36432.86
608.557	36473.31
608.914	36725.73
609.272	36959.62
609.629	37088.66
609.986	37400.74
610.343	37294.98
610.7	37662.65
611.057	37793.27
611.414	37864.23
611.771	38075.98
612.127	38138.35
612.484	38428.74
612.841	38555.74
613.198	38560.94
613.554	38688.16
613.911	38919.34
614.267	38984.43
614.624	39189.62
614.98	39353.46
615.337	39452.66
615.693	39539.21
616.05	39550.97
616.406	39918.19
616.762	39892.2
617.118	39954.12
617.475	39915.25
617.831	40219.87
618.187	40179.88
618.543	40405.86
618.899	40685.4
619.255	40669.13
619.611	40537.61
619.967	40897.37
620.323	41075.67
620.678	40863.02
621.034	40889.01
621.39	41007.42
621.746	40968.33
622.101	41439.96
622.457	41234.09
622.812	41450.12
623.168	41486.51
623.523	41556.79
623.879	41787.52
624.234	41508.65
624.589	41758.59
624.945	41797.46
625.3	41889.89
625.655	41828.65
626.01	41990.68
626.365	42012.82
626.72	41993.61
627.075	41947.29
627.43	41964.91
627.785	42024.35
628.14	42047.62
628.495	42263.44
628.85	42200.39
629.205	42112.93
629.559	42399.48
629.914	42022.99
630.269	42393.38
630.623	42180.73
630.978	42083.55
631.332	42286.04
631.687	42375.3
632.041	42412.59
632.396	42400.61
632.75	42220.05
633.104	42288.07
633.459	42159.94
633.813	42227.96
634.167	42150.9
634.521	42204.23
634.875	42253.49
635.229	42274.28
635.583	42211.01
635.937	42153.61
636.291	42237.9
636.645	42116.77
636.999	42256.43
637.352	42309.54
637.706	42060.28
638.06	42214.4
638.413	42055.08
638.767	42013.95
639.121	42194.06
639.474	41912.49
639.828	42002.65
640.181	42080.62
640.534	41973.5
640.888	41916.55
641.241	41809.44
641.594	41936.44
641.947	41993.84
642.301	41923.56
642.654	41994.29
643.007	41914.52
643.36	41947.51
643.713	41806.5
644.066	41942.32
644.419	41681.53
644.771	41537.81
645.124	41101.66
645.477	40996.58
645.83	40819.41
646.182	40705.96
646.535	40659.64
646.888	40779.63
647.24	40479.75
647.593	40666.64
647.945	40788.67
648.298	40559.98
648.65	40444.05
649.002	40283.38
649.355	40513.88
649.707	40486.31
650.059	40599.98
650.411	41113.18
650.763	41085.84
651.115	41468.88
651.467	41380.07
651.819	41422.55
652.171	41265.27
652.523	41253.52
652.875	41305.72
653.227	41023.47
653.578	41288.32
653.93	41321.77
654.282	41152.73
654.633	40939.18
654.985	41074.99
655.337	41281.09
655.688	41206.29
656.039	41196.12
656.391	41051.04
656.742	41022.79
657.094	41082
657.445	41152.73
657.796	41085.84
658.147	41020.53
658.498	40866.64
658.849	40993.64
659.2	40892.4
659.551	40807.66
659.902	40998.61
660.253	40831.61
660.604	40984.15
660.955	40783.25
661.306	40985.73
661.656	40840.42
662.007	40902.12
662.358	40919.97
662.708	40856.92
663.059	40694.66
663.409	40580.77
663.76	40804.04
664.11	40771.05
664.461	40809.92
664.811	40849.46
665.161	40915.68
665.511	40770.82
665.862	40733.08
666.212	40780.54
666.562	40996.13
666.912	40595.46
667.262	40585.51
667.612	40622.35
667.962	40762.23
668.312	40720.65
668.662	40994.54
669.011	40797.26
669.361	40723.59
669.711	40811.27
670.06	40645.17
670.41	40561.56
670.76	40528.34
671.109	40729.69
671.459	40631.39
671.808	40506.19
672.157	40745.74
672.507	40364.5
672.856	40508.45
673.205	40510.04
673.554	40589.13
673.904	40472.75
674.253	40740.09
674.602	40521.79
674.951	39942.82
675.3	39795.71
675.649	40316.82
675.998	40379.19
676.346	40221.68
676.695	40386.2
677.044	40159.76
677.393	40215.81
677.741	40346.43
678.09	40168.35
678.438	40065.08
678.787	40098.52
679.135	40249.7
679.484	39821.92
679.832	40076.15
680.181	39952.76
680.529	40036.15
680.877	39805.87
681.225	39826.89
681.573	40229.59
681.922	39777.63
682.27	39837.74
682.618	39631.87
682.966	39626.9
683.314	39701.02
683.661	39544.64
684.009	39404.53
684.357	39320.01
684.705	39245.89
685.053	39486.56
685.4	39378.99
685.748	39003.41
686.095	39112.11
686.443	39014.03
686.79	38935.16
687.138	39119.11
687.485	38806.13
687.832	38857.42
688.18	38862.85
688.527	38500.37
688.874	38727.03
689.221	38527.49
689.568	38407.04
689.915	38475.06
690.262	38399.36
690.609	38229.87
690.956	38139.48
691.303	38038.46
691.65	37999.59
691.997	37935.41
692.344	37686.83
692.69	37612.49
693.037	37624.24
693.383	37295.21
693.73	37453.85
694.077	37253.62
694.423	37267.86
694.769	37131.59
695.116	37155.77
695.462	37081.2
695.808	36914.88
696.155	37129.79
696.501	36727.54
696.847	36781.55
697.193	36523.25
697.539	36828.78
697.885	36302.24
698.231	36374.33
698.577	36341.11
698.923	36259.75
699.269	36139.53
699.614	35860.67
699.96	35816.6
700.306	35923.49
700.651	35720.11
700.997	35650.05
701.342	35678.75
701.688	35485.76
702.033	35460.23
702.379	35547.23
702.724	35312.43
703.069	35269.27
703.415	34779.11
703.76	34926.45
704.105	34991.99
704.45	34788.83
704.795	34740.92
705.14	34610.3
705.485	34674.26
705.83	34509.29
706.175	34473.81
706.52	34446.24
706.865	34314.49
707.209	34194.95
707.554	34003.54
707.899	34175.06
708.243	34018.68
708.588	33894.17
708.932	33714.73
709.277	33784.34
709.621	33831.57
709.966	33562.65
710.31	33680.39
710.654	33196.33
710.998	33344.58
711.342	33330.79
711.687	33263.22
712.031	33117.69
712.375	33036.33
712.719	33090.57
713.063	32912.04
713.407	32988.88
713.75	32867.07
714.094	32916.56
714.438	32586.4
714.782	32684.03
715.125	32562.22
715.469	32638.15
715.812	32551.15
716.156	32373.53
716.499	32332.17
716.843	32350.25
717.186	32083.59
717.53	32445.62
717.873	32335.11
718.216	32045.63
718.559	32030.71
718.902	31939.41
719.246	32070.71
719.589	31879.08
719.932	31792.53
720.275	31727.22
720.617	31610.16
720.96	31624.62
721.303	31479.31
721.646	31591.63
721.989	31301.69
722.331	31453.78
722.674	31343.05
723.016	31460.33
723.359	31368.36
723.701	31391.18
724.044	31193.45
724.386	30901.7
724.729	31257.85
725.071	31119.77
725.413	31137.18
725.755	30971.98
726.097	30955.71
726.439	30638.21
726.782	30849.73
727.124	30898.09
727.465	30757.3
727.807	30687.24
728.149	30589.17
728.491	30618.77
728.833	30731.31
729.175	30417.42
729.516	30444.76
729.858	30428.04
730.199	30426.46
730.541	30325.67
730.882	30141.27
731.224	30255.84
731.565	30122.06
731.906	30216.97
732.248	30158.44
732.589	30138.56
732.93	29895.4
733.271	29873.03
733.612	30021.05
733.953	29942.86
734.294	29814.27
734.635	29736.99
734.976	29938.11
735.317	29685.91
735.658	29528.63
735.999	29606.82
736.339	29569.31
736.68	29627.84
737.021	29474.62
737.361	29334.51
737.702	29438.92
738.042	29267.85
738.383	29421.97
738.723	29450.44
739.063	29266.94
739.404	29344.68
739.744	29111.01
740.084	29162.54
740.424	29172.48
740.764	29083.9
741.104	29234.17
741.444	28984.69
741.784	28912.83
742.124	28987.18
742.464	28924.8
742.804	28858.59
743.143	28831.47
743.483	28860.4
743.823	28655.21
744.162	28734.53
744.502	28708.76
744.841	28543.8
745.181	28696.34
745.52	28540.18
745.86	28656.79
746.199	28525.27
746.538	28537.7
746.877	28487.08
747.216	28384.03
747.556	28336.57
747.895	28348.32
748.234	28200.98
748.573	28160.08
748.911	28135.67
749.25	28050.25
749.589	27984.72
749.928	27947.65
750.267	27914.89
750.605	27775.46
750.944	27756.47
751.283	27739.98
751.621	27786.3
751.96	27644.39
752.298	27623.6
752.636	27637.15
752.975	27398.29
753.313	27360.33
753.651	27603.26
753.989	27301.8
754.327	27309.03
754.666	27184.74
755.004	27283.94
755.342	27275.81
755.679	27192.19
756.017	27069.49
756.355	27114.23
756.693	26950.62
757.031	26952.65
757.368	26810.74
757.706	26687.58
758.044	26765.99
758.381	26754.24
758.719	26581.14
759.056	26645.77
759.394	26491.65
759.731	26280.81
760.068	26215.95
760.405	26298.88
760.743	26180.47
761.08	26175.27
761.417	25947.71
761.754	26078.78
762.091	26029.29
762.428	25846.02
762.765	25615.96
763.102	25849.18
763.438	25597.89
763.775	25628.17
764.112	25593.82
764.449	25550.88
764.785	25409.42
765.122	25317.89
765.458	25090.1
765.795	25163.77
766.131	25112.93
766.467	24984.34
766.804	24873.61
767.14	24790.22
767.476	24768.76
767.812	24605.37
768.148	24673.84
768.485	24464.58
768.821	24409.44
769.157	24254.42
769.492	24320.41
769.828	24279.73
770.164	24029.34
770.5	23917.03
770.836	23984.6
771.171	23906.86
771.507	23773.08
771.842	23539.86
772.178	23568.79
772.513	23505.29
772.849	23493.99
773.184	23319.53
773.519	23331.28
773.855	23256.48
774.19	23294.9
774.525	23050.83
774.86	22989.82
775.195	22905.08
775.53	22838.64
775.865	22716.83
776.2	22639.77
776.535	22515.71
776.87	22420.79
777.205	22330.85
777.539	22414.02
777.874	22423.73
778.209	22155.49
778.543	21996.4
778.878	21898.55
779.212	21984.65
779.547	21789.4
779.881	21932.45
780.215	21598.44
780.55	21781.94
780.884	21612.68
781.218	21527.48
781.552	21607.48
781.886	21352.12
782.22	21229.41
782.554	21136.99
782.888	20868.97
783.222	20828.52
783.556	20874.17
783.889	20783.55
784.223	20690.67
784.557	20634.85
784.89	20643.21
785.224	20607.73
785.557	20387.4
785.891	20307.4
786.224	20363
786.558	20253.17
786.891	20139.72
787.224	20079.16
787.557	20009.78
787.891	19981.76
788.224	19931.59
788.557	19941.76
788.89	19777.25
789.223	19886.85
789.556	19674.88
789.888	19524.15
790.221	19547.2
790.554	19420.65
790.887	19363.47
791.219	19276.92
791.552	19250.71
791.884	19176.81
792.217	19085.52
792.549	19059.75
792.882	18902.47
793.214	18814.11
793.546	18865.86
793.879	18760.33
794.211	18624.74
794.543	18740.89
794.875	18617.28
795.207	18714
795.539	18519.2
795.871	18519.2
796.203	18353.78
796.535	18214.35
796.867	18184.3
797.198	18262.71
797.53	18059.55
797.862	17963.74
798.193	18041.02
798.525	17909.27
798.856	17986.11
799.188	17715.38
799.519	17813.23
799.85	17581.83
800.182	17634.48
800.513	17607.14
800.844	17477.65
801.175	17567.81
801.506	17598.32
801.837	17378.44
802.168	17413.69
802.499	17266.35
802.83	17205.34
803.161	17189.29
803.491	17143.19
803.822	17156.07
804.153	17067.72
804.483	16916.53
804.814	16912.92
805.145	16791.11
805.475	16809.87
805.805	16797.21
806.136	16778.23
806.466	16692.36
806.796	16576.65
807.126	16530.1
807.457	16492.81
807.787	16475.64
808.117	16373.72
808.447	16425.7
808.777	16363.78
809.107	16287.4
809.436	16256.44
809.766	16176.67
810.096	16157.46
810.426	16087.18
810.755	16137.34
811.085	16055.76
811.414	16010.12
811.744	15875.66
812.073	15853.28
812.403	15885.37
812.732	15814.41
813.061	15813.06
813.39	15712.95
813.719	15678.83
814.049	15738.94
814.378	15669.79
814.707	15547.53
815.036	15498.26
815.365	15542.78
815.693	15324.71
816.022	15359.06
816.351	15330.81
816.68	15276.35
817.008	15245.84
817.337	15242.45
817.665	15206.75
817.994	15099.41
818.322	15136.92
818.651	15092.4
818.979	15010.37
819.307	15079.52
819.636	14917.72
819.964	14958.17
820.292	14943.93
820.62	14893.53
820.948	14934.89
821.276	14971.95
821.604	14821.67
821.932	14938.73
822.259	14777.83
822.587	14847.66
822.915	14821.9
823.243	14920.88
823.57	14861.22
823.898	14869.35
824.225	14795.91
824.553	14778.28
824.88	14821.45
825.207	14835.91
825.535	14779.19
825.862	14886.08
826.189	14797.04
826.516	14848.56
826.843	14813.99
827.17	14770.15
827.497	14801.11
827.824	14845.17
828.151	14840.65
828.478	14782.58
828.805	14856.25
829.131	14737.15
829.458	14719.53
829.785	14697.83
830.111	14755.69
830.438	14796.36
830.764	14715.69
831.09	14676.82
831.417	14612.41
831.743	14786.87
832.069	14763.14
832.395	14612.86
832.722	14642.47
833.048	14655.12
833.374	14692.18
833.7	14532.41
834.026	14706.87
834.351	14639.53
834.677	14596.37
835.003	14598.63
835.329	14620.77
835.654	14623.94
835.98	14489.48
836.306	14512.3
836.631	14457.39
836.956	14467.33
837.282	14497.84
837.607	14476.6
837.932	14417.62
838.258	14307.79
838.583	14355.02
838.908	14314.12
839.233	14284.96
839.558	14266.88
839.883	14255.36
840.208	14141.24
840.533	14065.53
840.858	14159.54
841.182	14286.55
841.507	14127.45
841.832	14076.38
842.156	14024.86
842.481	14009.49
842.805	14031.86
843.13	13953.45
843.454	13916.16
843.778	13840.91
844.103	13831.64
844.427	13776.5
844.751	13802.04
845.075	13759.33
845.399	13717.97
845.723	13628.71
846.047	13634.13
846.371	13491.99
846.695	13491.31
847.019	13372.9
847.343	13422.16
847.666	13349.62
847.99	13288.83
848.313	13233.01
848.637	13164.09
848.96	13105.79
849.284	13110.76
849.607	12946.69
849.931	12985.34
850.254	12847.26
850.577	12839.8
850.9	12729.52
851.223	12774.72
851.546	12715.74
851.869	12633.48
852.192	12599.58
852.515	12574.95
852.838	12495.86
853.161	12413.37
853.483	12422.41
853.806	12321.17
854.129	12292.25
854.451	12264.9
854.774	12360.72
855.096	12172.48
855.419	12172.7
855.741	12172.25
856.063	12012.93
856.385	12042.99
856.708	11952.82
857.03	12015.42
857.352	11990.79
857.674	11939.94
857.996	11825.82
858.318	11805.71
858.64	11777.23
858.961	11851.81
859.283	11801.64
859.605	11716.22
859.926	11793.5
860.248	11691.59
860.57	11616.33
860.891	11612.72
861.212	11625.15
861.534	11585.6
861.855	11545.83
862.176	11488.2
862.498	11494.53
862.819	11490.46
863.14	11464.7
863.461	11380.18
863.782	11407.07
864.103	11403.01
864.424	11369.56
864.745	11324.36
865.065	11243.46
865.386	11220.41
865.707	11218.38
866.027	11193.29
866.348	11215.67
866.668	11130.7
866.989	11177.7
867.309	11073.07
867.63	11170.47
867.95	11120.3
868.27	11014.54
868.59	11046.18
868.91	10995.56
869.23	11037.59
869.55	10893.64
869.87	11031.04
870.19	10976.12
870.51	10981.55
870.83	10973.19
871.15	10913.53
871.469	10869.23
871.789	10857.26
872.109	10814.32
872.428	10792.63
872.748	10764.38
873.067	10855.45
873.386	10819.07
873.706	10739.75
874.025	10719.63
874.344	10704.27
874.663	10765.96
874.982	10727.99
875.301	10681.22
875.62	10657.49
875.939	10651.61
876.258	10641.67
876.577	10546.53
876.896	10554.21
877.214	10525.97
877.533	10513.99
877.852	10556.7
878.17	10571.84
878.489	10504.5
878.807	10509.47
879.125	10512.18
879.444	10408.68
879.762	10439.41
880.08	10478.51
880.398	10337.72
880.716	10386.99
881.034	10254.56
881.352	10340.66
881.67	10302.7
881.988	10315.58
882.306	10214.56
882.624	10230.38
882.941	10173.89
883.259	10137.05
883.577	10167.33
883.894	10146.54
884.212	10120.55
884.529	10067.67
884.846	10117.16
885.164	10040.33
885.481	9984.06
885.798	10027.67
886.115	9912.65
886.432	9922.14
886.75	9964.62
887.067	9908.81
887.383	9831.75
887.7	9873.78
888.017	9801.24
888.334	9811.18
888.651	9795.82
888.967	9847.57
889.284	9677.17
889.6	9698.87
889.917	9677.4
890.233	9655.71
890.55	9654.35
890.866	9636.72
891.182	9587.01
891.498	9594.24
891.815	9449.38
892.131	9499.33
892.447	9482.83
892.763	9465.66
893.079	9388.14
893.395	9393.34
893.71	9384.98
894.026	9366.45
894.342	9279.45
894.657	9318.77
894.973	9241.48
895.289	9228.6
895.604	9182.05
895.92	9145.44
896.235	9165.32
896.55	9105.66
896.865	9060.02
897.181	9011.66
897.496	9053.24
897.811	8938.21
898.126	8954.48
898.441	8873.58
898.756	8870.19
899.071	8843.75
899.386	8853.92
899.7	8799.91
900.015	8727.6
900.33	8650.31
900.644	8633.36
900.959	8699.12
901.273	8687.37
901.588	8591.78
901.902	8531.22
902.216	8570.09
902.531	8531.67
902.845	8508.17
903.159	8443.31
903.473	8402.18
903.787	8386.81
904.101	8353.37
904.415	8413.93
904.729	8312.92
905.042	8255.97
905.356	8286.25
905.67	8173.71
905.984	8209.19
906.297	8156.08
906.611	8139.81
906.924	8093.04
907.237	8010.1
907.551	8024.11
907.864	7983.21
908.177	7931.23
908.491	7965.13
908.804	7888.52
909.117	7921.06
909.43	7811.46
909.743	7827.28
910.056	7832.03
910.368	7732.59
910.681	7714.06
910.994	7661.86
911.307	7677.68
911.619	7528.3
911.932	7662.54
912.244	7516.55
912.557	7500.06
912.869	7460.96
913.181	7452.15
913.494	7468.87
913.806	7386.61
914.118	7378.03
914.43	7332.38
914.742	7327.86
915.054	7224.13
915.366	7262.55
915.678	7204.25
915.99	7153.17
916.302	7090.12
916.613	7129.67
916.925	7035.89
917.236	7040.63
917.548	6982.33
917.859	6987.75
918.171	6928.09
918.482	6955.89
918.794	6911.82
919.105	6910.92
919.416	6806.06
919.727	6814.43
920.038	6826.4
920.349	6744.82
920.66	6674.09
920.971	6740.3
921.282	6705.05
921.593	6645.84
921.903	6594.54
922.214	6609.91
922.525	6556.58
922.835	6534.21
923.146	6443.59
923.456	6498.95
923.767	6472.06
924.077	6405.17
924.387	6385.06
924.697	6374.44
925.008	6346.64
925.318	6320.65
925.628	6321.78
925.938	6280.65
926.248	6248.79
926.558	6197.72
926.867	6227.32
927.177	6201.33
927.487	6126.31
927.796	6114.1
928.106	6106.2
928.416	6094.67
928.725	6062.58
929.034	6014.67
929.344	5980.32
929.653	5992.53
929.962	5906.88
930.271	5886.77
930.581	5875.92
930.89	5863.04
931.199	5802.47
931.508	5848.58
931.817	5780.1
932.125	5810.38
932.434	5742.14
932.743	5714.34
933.051	5693.1
933.36	5672.08
933.669	5613.1
933.977	5605.87
934.286	5652.87
934.594	5581.24
934.902	5504.86
935.21	5526.32
935.519	5504.63
935.827	5471.86
936.135	5415.14
936.443	5398.87
936.751	5396.38
937.059	5425.54
937.367	5350.51
937.674	5316.61
937.982	5331.75
938.29	5283.39
938.597	5265.77
938.905	5221.92
939.213	5222.83
939.52	5154.58
939.827	5158.2
940.135	5126.33
940.442	5137.18
940.749	5127.24
941.056	5070.97
941.363	5050.18
941.67	4992.33
941.977	5023.29
942.284	5002.27
942.591	4965.43
942.898	4932.44
943.205	4963.63
943.511	4942.84
943.818	4873.69
944.125	4811.31
944.431	4855.83
944.738	4840.92
945.044	4817.42
945.35	4786.68
945.657	4770.64
945.963	4773.35
946.269	4736.74
946.575	4722.28
946.881	4656.52
947.187	4665.56
947.493	4604.99
947.799	4605.44
948.105	4553.02
948.41	4574.71
948.716	4539
949.022	4513.47
949.327	4519.57
949.633	4519.8
949.938	4508.72
950.244	4505.33
950.549	4461.49
950.854	4435.73
951.16	4400.7
951.465	4341.5
951.77	4388.95
952.075	4321.84
952.38	4306.24
952.685	4365
952.99	4252.46
953.294	4305.56
953.599	4258.79
953.904	4252.01
954.209	4208.62
954.513	4199.8
954.818	4148.28
955.122	4201.61
955.426	4161.39
955.731	4144.44
956.035	4095.4
956.339	4097.89
956.643	4055.85
956.948	4024.67
957.252	4014.95
957.556	4016.53
957.86	3965.46
958.163	3969.08
958.467	3966.36
958.771	3936.53
959.075	3940.38
959.378	3926.37
959.682	3937.44
959.985	3907.16
960.289	3863.54
960.592	3844.11
960.896	3864.67
961.199	3842.07
961.502	3838.46
961.805	3763.43
962.108	3749.65
962.411	3786.93
962.714	3740.16
963.017	3748.97
963.32	3723.43
963.623	3704.22
963.926	3692.93
964.228	3669.65
964.531	3624
964.833	3649.99
965.136	3603.21
965.438	3581.06
965.741	3606.15
966.043	3560.95
966.345	3550.33
966.648	3569.09
966.95	3540.39
967.252	3504.91
967.554	3512.82
967.856	3459.71
968.158	3447.06
968.46	3444.57
968.761	3412.71
969.063	3398.02
969.365	3406.83
969.666	3376.1
969.968	3365.25
970.269	3332.71
970.571	3353.73
970.872	3306.27
971.174	3298.81
971.475	3276.44
971.776	3308.98
972.077	3228.08
972.378	3265.14
972.679	3234.18
972.98	3209.1
973.281	3214.07
973.582	3265.82
973.883	3189.89
974.183	3206.16
974.484	3169.55
974.785	3147.18
975.085	3150.79
975.386	3126.84
975.686	3077.8
975.986	3083.68
976.287	3109.21
976.587	3037.58
976.887	3059.95
977.187	3042.55
977.487	3028.54
977.787	2994.86
978.087	2997.58
978.387	2936.11
978.687	2958.48
978.987	2915.77
979.286	2899.73
979.586	2925.71
979.885	2916.67
980.185	2923
980.484	2863.12
980.784	2857.69
981.083	2865.6
981.382	2857.24
981.682	2848.2
981.981	2825.15
982.28	2851.37
982.579	2782.21
982.878	2800.52
983.177	2781.54
983.475	2774.98
983.774	2735.21
984.073	2734.08
984.372	2738.6
984.67	2731.14
984.969	2688.66
985.267	2688.21
985.566	2704.7
985.864	2661.99
986.162	2639.85
986.461	2646.4
986.759	2644.82
987.057	2608.66
987.355	2564.37
987.653	2614.31
987.951	2589.9
988.249	2566.85
988.547	2572.05
988.844	2527.08
989.142	2561.88
989.44	2529.11
989.737	2526.4
990.035	2504.03
990.332	2506.06
990.63	2494.99
990.927	2502.45
991.224	2466.52
991.521	2464.03
991.819	2434.65
992.116	2407.54
992.413	2407.31
992.71	2410.02
993.006	2391.49
993.303	2397.82
993.6	2382.45
993.897	2364.6
994.193	2340.19
994.49	2333.87
994.787	2324.37
995.083	2304.94
995.379	2322.79
995.676	2302.91
995.972	2274.88
996.268	2270.14
996.565	2215.22
996.861	2259.52
997.157	2243.47
997.453	2242.57
997.749	2224.49
998.044	2202.34
998.34	2210.25
998.636	2159.41
998.932	2141.78
999.227	2160.76
999.523	2177.03
999.818	2130.71
1000.114	2123.48
1000.409	2138.62
1000.704	2104.72
1001	2107.88
1001.295	2062.91
1001.59	2055.23
1001.885	2050.03
1002.18	2053.65
1002.475	2065.4
1002.77	2017.49
1003.065	2010.03
1003.359	2008.22
1003.654	1986.98
1003.949	1973.65
1004.243	1969.13
1004.538	1955.8
1004.832	1946.98
1005.127	1944.5
1005.421	1906.53
1005.715	1939.3
1006.009	1888.45
1006.304	1890.04
1006.598	1886.42
1006.892	1899.75
1007.186	1848
1007.48	1868.34
1007.773	1862.92
1008.067	1870.6
1008.361	1824.27
1008.655	1822.24
1008.948	1809.59
1009.242	1795.8
1009.535	1787.89
1009.829	1767.55
1010.122	1782.47
1010.415	1751.28
1010.708	1742.24
1011.001	1746.99
1011.295	1746.08
1011.588	1700.66
1011.881	1691.85
1012.173	1681.45
1012.466	1682.36
1012.759	1709.25
1013.052	1681.9
1013.344	1666.09
1013.637	1633.54
1013.93	1642.58
1014.222	1608.91
1014.514	1610.49
1014.807	1612.08
1015.099	1607.78
1015.391	1588.8
1015.683	1572.08
1015.976	1570.27
1016.268	1572.98
1016.56	1537.95
1016.851	1554.9
1017.143	1545.86
1017.435	1518.07
1017.727	1519.88
1018.018	1517.39
1018.31	1511.06
1018.602	1500.67
1018.893	1434.45
1019.185	1443.04
1019.476	1444.17
1019.767	1452.76
1020.058	1459.76
1020.35	1421.12
1020.641	1452.08
1020.932	1424.74
1021.223	1404.62
1021.514	1398.75
1021.804	1370.5
1022.095	1373.44
1022.386	1370.05
1022.677	1358.3
1022.967	1348.58
1023.258	1356.94
1023.548	1361.91
1023.839	1332.54
1024.129	1302.93
1024.419	1297.28
1024.709	1302.93
1025	1298.41
1025.29	1272.65
1025.58	1274.46
1025.87	1283.27
1026.16	1263.16
1026.449	1243.5
1026.739	1242.14
1027.029	1249.15
1027.319	1231.52
1027.608	1205.31
1027.898	1210.5
1028.187	1197.85
1028.477	1196.95
1028.766	1189.04
1029.055	1188.36
1029.344	1190.62
1029.634	1164.86
1029.923	1191.52
1030.212	1161.92
1030.501	1147.91
1030.79	1143.61
1031.078	1123.05
1031.367	1149.04
1031.656	1094.12
1031.945	1121.92
1032.233	1112.2
1032.522	1097.06
1032.81	1076.95
1033.099	1078.08
1033.387	1090.73
1033.675	1053.45
1033.963	1047.57
1034.251	1060.68
1034.54	1023.17
1034.828	1043.05
1035.116	1060.23
1035.403	1032.88
1035.691	1016.61
1035.979	1023.17
1036.267	1007.12
1036.554	999.21
1036.842	1013.22
1037.129	981.81
1037.417	982.26
1037.704	989.27
1037.992	972.09
1038.279	977.06
1038.566	962.6
1038.853	962.6
1039.14	962.6
