Data from hue_22_FLMS001491_00038.txt Node
Date: Tue Feb 07 17:10:02 GMT 2017
User: dcchb
Spectrometer: FLMS00149
Trigger mode: 0
Integration Time (sec): 2.000000E-2
Scans to average: 10
Electric dark correction enabled: true
Nonlinearity correction enabled: false
Boxcar width: 0
XAxis mode: Wavelengths
Number of Pixels in Spectrum: 2048
>>>>>Begin Spectral Data<<<<<
341.393	-9.89
341.776	-9.89
342.16	-9.89
342.543	-48.76
342.927	-78.59
343.31	-49.43
343.693	-58.47
344.077	-55.54
344.46	-66.16
344.843	-60.73
345.226	-45.14
345.61	-40.17
345.993	-17.57
346.376	-3.56
346.759	5.25
347.142	29.89
347.525	28.76
347.908	44.58
348.291	82.99
348.674	101.52
349.057	103.78
349.44	128.41
349.823	138.58
350.206	168.64
350.588	200.96
350.971	190.33
351.354	216.1
351.737	225.14
352.119	263.33
352.502	264.46
352.884	270.78
353.267	302.42
353.65	292.93
354.032	290.9
354.414	321.63
354.797	327.73
355.179	333.38
355.562	340.84
355.944	344.23
356.326	340.39
356.709	333.38
357.091	324.12
357.473	344.45
357.855	334.28
358.238	345.36
358.62	336.54
359.002	342.42
359.384	356.88
359.766	333.16
360.148	333.38
360.53	351.01
360.912	324.57
361.294	352.14
361.676	323.44
362.057	360.72
362.439	317.56
362.821	334.28
363.203	339.48
363.584	321.4
363.966	311.23
364.348	313.95
364.729	306.72
365.111	313.49
365.493	327.05
365.874	336.77
366.256	302.42
366.637	293.38
367.019	308.07
367.4	325.92
367.781	321.18
368.163	327.05
368.544	317.79
368.925	331.35
369.306	309.2
369.688	322.08
370.069	309.2
370.45	325.92
370.831	308.52
371.212	334.96
371.593	306.04
371.974	306.26
372.355	317.79
372.736	305.36
373.117	318.92
373.498	310.1
373.879	327.28
374.26	332.93
374.641	346.04
375.021	326.6
375.402	305.81
375.783	320.05
376.163	351.46
376.544	331.35
376.925	329.09
377.305	291.8
377.686	318.01
378.066	330.67
378.447	324.12
378.827	336.77
379.208	330.9
379.588	315.08
379.968	337.22
380.349	343.55
380.729	338.13
381.109	339.26
381.489	343.1
381.87	332.7
382.25	332.48
382.63	343.1
383.01	334.74
383.39	330.67
383.77	343.55
384.15	362.76
384.53	348.52
384.91	346.04
385.29	352.59
385.67	351.23
386.049	367.73
386.429	355.08
386.809	337.9
387.189	362.31
387.568	354.17
387.948	353.95
388.328	373.83
388.707	347.62
389.087	356.66
389.466	374.51
389.846	369.31
390.225	368.41
390.605	382.42
390.984	397.79
391.363	396.2
391.743	355.75
392.122	361.63
392.501	382.87
392.881	378.58
393.26	387.16
393.639	351.01
394.018	371.12
394.397	376.09
394.776	393.49
395.155	388.52
395.534	404.57
395.913	399.14
396.292	399.82
396.671	395.75
397.05	405.24
397.429	372.02
397.808	385.81
398.186	394.62
398.565	397.79
398.944	393.49
399.323	405.47
399.701	381.29
400.08	400.05
400.458	407.73
400.837	421.51
401.215	413.83
401.594	425.58
401.972	415.64
402.351	398.92
402.729	415.19
403.107	409.99
403.486	410.67
403.864	405.92
404.242	438.24
404.62	406.83
404.999	412.02
405.377	423.32
405.755	413.83
406.133	424.9
406.511	435.07
406.889	406.37
407.267	438.01
407.645	452.47
408.023	439.59
408.401	447.73
408.779	446.6
409.156	451.12
409.534	446.37
409.912	448.18
410.29	475.98
410.667	461.51
411.045	491.79
411.422	474.39
411.8	453.83
412.178	464.9
412.555	487.5
412.933	468.07
413.31	494.73
413.687	468.74
414.065	493.38
414.442	512.36
414.819	508.52
415.197	502.87
415.574	480.04
415.951	481.17
416.328	506.94
416.705	509.2
417.082	502.19
417.46	522.3
417.837	514.85
418.214	527.73
418.591	530.66
418.967	506.94
419.344	528.18
419.721	544
420.098	512.13
420.475	542.64
420.852	535.64
421.228	548.52
421.605	549.65
421.982	559.36
422.358	550.1
422.735	536.99
423.111	560.49
423.488	571.34
423.864	557.56
424.241	570.21
424.617	567.73
424.994	576.54
425.37	562.08
425.746	602.53
426.123	582.41
426.499	584.22
426.875	583.77
427.251	610.44
427.627	588.97
428.003	605.01
428.379	605.92
428.756	593.04
429.132	642.53
429.507	642.53
429.883	625.8
430.259	647.5
430.635	627.16
431.011	671.23
431.387	655.18
431.763	646.82
432.138	657.44
432.514	679.13
432.89	659.02
433.265	675.29
433.641	661.28
434.016	687.95
434.392	707.83
434.767	731.34
435.143	700.38
435.518	707.83
435.894	733.37
436.269	716.42
436.644	738.57
437.02	715.97
437.395	728.17
437.77	758
438.145	742.41
438.52	752.58
438.895	759.36
439.271	753.71
439.646	786.93
440.021	782.18
440.395	786.7
440.77	769.3
441.145	800.49
441.52	791.67
441.895	795.29
442.27	800.49
442.645	806.81
443.019	781.05
443.394	824.67
443.769	819.02
444.143	821.5
444.518	839.58
444.892	829.87
445.267	826.48
445.641	833.03
446.016	828.96
446.39	854.5
446.764	856.98
447.139	876.42
447.513	855.18
447.887	868.73
448.262	861.28
448.636	885
449.01	906.7
449.384	879.81
449.758	897.21
450.132	883.88
450.506	908.51
450.88	918.68
451.254	935.85
451.628	928.62
452.002	928.85
452.376	902.41
452.75	953.25
453.123	945.57
453.497	952.35
453.871	981.05
454.244	978.11
454.618	1003.42
454.992	1002.52
455.365	1038.67
455.739	1033.48
456.112	1033.7
456.486	1040.26
456.859	1044.1
457.232	1052.68
457.606	1040.93
457.979	1110.08
458.352	1080.03
458.725	1116.19
459.099	1093.14
459.472	1156.18
459.845	1126.58
460.218	1140.14
460.591	1123.64
460.964	1162.74
461.337	1175.62
461.71	1182.62
462.083	1213.36
462.456	1207.71
462.829	1221.27
463.201	1231.44
463.574	1232.57
463.947	1265.79
464.32	1269.63
464.692	1295.16
465.065	1291.1
465.438	1333.81
465.81	1310.08
466.183	1363.18
466.555	1377.87
466.928	1400.02
467.3	1400.92
467.672	1391.43
468.045	1441.37
468.417	1440.92
468.789	1448.15
469.161	1433.24
469.534	1497.19
469.906	1527.93
470.278	1511.43
470.65	1524.08
471.022	1577.64
471.394	1572.9
471.766	1583.29
472.138	1660.35
472.51	1687.02
472.882	1689.73
473.253	1711.2
473.625	1747.81
473.997	1774.47
474.369	1796.39
474.74	1789.61
475.112	1820.12
475.484	1881.81
475.855	1925.43
476.227	1941.47
476.598	1995.71
476.97	2027.35
477.341	2041.58
477.713	2071.64
478.084	2066.67
478.455	2140.11
478.827	2175.59
479.198	2265.31
479.569	2258.08
479.94	2309.15
480.311	2337.17
480.682	2377.62
481.053	2439.54
481.424	2495.58
481.795	2496.04
482.166	2556.15
482.537	2595.92
482.908	2669.14
483.279	2687.44
483.65	2743.49
484.021	2809.25
484.391	2827.33
484.762	2860.55
485.133	2866.65
485.503	2956.59
485.874	3007.89
486.244	3013.76
486.615	3077.04
486.985	3160.65
487.356	3202.01
487.726	3273.19
488.097	3292.4
488.467	3294.89
488.837	3405.39
489.207	3425.73
489.578	3498.5
489.948	3557.48
490.318	3610.36
490.688	3633.41
491.058	3642.45
491.428	3738.04
491.798	3761.99
492.168	3830.01
492.538	3888.09
492.908	3896
493.278	3950.69
493.648	3921.76
494.017	4102.55
494.387	4039.5
494.757	4136.22
495.126	4179.38
495.496	4172.38
495.866	4242.2
496.235	4265.03
496.605	4307.51
496.974	4337.34
497.344	4379.15
497.713	4433.16
498.082	4420.96
498.452	4488.75
498.821	4523.1
499.19	4493.5
499.559	4582.31
499.928	4609.88
500.298	4651.69
500.667	4702.76
501.036	4673.61
501.405	4746.15
501.774	4743.66
502.143	4794.51
502.512	4819.59
502.88	4895.52
503.249	4861.4
503.618	4900.72
503.987	4969.64
504.356	4956.99
504.724	4965.8
505.093	5006.25
505.462	5012.58
505.83	5004.22
506.199	5121.28
506.567	5178
506.936	5168.28
507.304	5232.69
507.672	5240.14
508.041	5268.17
508.409	5268.62
508.777	5324.44
509.145	5307.94
509.514	5350.42
509.882	5343.42
510.25	5417.99
510.618	5449.63
510.986	5394.72
511.354	5551.55
511.722	5549.52
512.09	5539.8
512.458	5571.66
512.826	5576.86
513.193	5617.08
513.561	5657.31
513.929	5675.84
514.297	5710.41
514.664	5766.68
515.032	5773.92
515.4	5796.29
515.767	5828.38
516.135	5869.28
516.502	5867.7
516.869	5922.84
517.237	5937.08
517.604	5931.2
517.972	5974.14
518.339	5953.57
518.706	5981.14
519.073	6047.58
519.44	6065.21
519.808	6112.89
520.175	6111.99
520.542	6118.09
520.909	6218.42
521.276	6228.14
521.643	6231.53
522.009	6309.95
522.376	6363.96
522.743	6368.7
523.11	6389.04
523.477	6451.41
523.843	6467.91
524.21	6460.45
524.577	6522.37
524.943	6571.18
525.31	6591.07
525.676	6734.57
526.043	6744.06
526.409	6730.95
526.776	6812.76
527.142	6776.6
527.508	6826.09
527.874	6858.86
528.241	6973.21
528.607	6951.29
528.973	7008.46
529.339	7043.94
529.705	7061.57
530.071	7173.88
530.437	7104.28
530.803	7186.53
531.169	7204.84
531.535	7243.48
531.901	7260.66
532.267	7334.55
532.632	7379.75
532.998	7349.24
533.364	7437.6
533.73	7389.92
534.095	7454.55
534.461	7548.56
534.826	7551.5
535.192	7578.16
535.557	7611.38
535.923	7586.3
536.288	7639.63
536.653	7729.12
537.019	7696.13
537.384	7689.12
537.749	7736.35
538.114	7720.08
538.479	7801.66
538.845	7850.92
539.21	7840.08
539.575	7912.62
539.94	7869.23
540.305	7923.01
540.67	8043.91
541.034	8017.92
541.399	8112.84
541.764	8037.13
542.129	8111.48
542.494	8164.59
542.858	8187.64
543.223	8190.35
543.587	8249.78
543.952	8246.62
544.316	8250.24
544.681	8289.78
545.045	8407.97
545.41	8443.9
545.774	8453.62
546.138	8364.58
546.503	8516.44
546.867	8493.62
547.231	8527.97
547.595	8578.14
547.959	8560.06
548.324	8621.52
548.688	8596.21
549.052	8708.53
549.416	8694.07
549.779	8708.08
550.143	8751.92
550.507	8783.78
550.871	8823.33
551.235	8838.92
551.599	8848.86
551.962	8947.39
552.326	8938.8
552.689	8971.35
553.053	8920.95
553.417	9064
553.78	9144.9
554.143	9070.55
554.507	9092.47
554.87	9186.03
555.234	9242.07
555.597	9173.83
555.96	9251.34
556.323	9241.4
556.686	9282.07
557.05	9295.86
557.413	9404.78
557.776	9412.01
558.139	9444.33
558.502	9416.08
558.865	9470.99
559.228	9548.05
559.59	9555.96
559.953	9571.1
560.316	9700.59
560.679	9682.06
561.041	9732.91
561.404	9759.35
561.767	9805
562.129	9756.64
562.492	9861.04
562.854	9890.42
563.217	9859.01
563.579	9902.17
563.941	9974.26
564.304	10000.02
564.666	10103.52
565.028	10078.21
565.39	10142.39
565.753	10147.81
566.115	10195.27
566.477	10226.68
566.839	10248.15
567.201	10394.13
567.563	10332.21
567.925	10372.44
568.287	10381.03
568.648	10423.74
569.01	10501.48
569.372	10550.29
569.734	10549.84
570.095	10658.53
570.457	10702.6
570.819	10672.77
571.18	10720.9
571.542	10743.73
571.903	10835.7
572.265	10816.5
572.626	10973.55
572.987	11022.59
573.349	11015.81
573.71	11168.58
574.071	11108.92
574.432	11158.41
574.794	11211.51
575.155	11288.35
575.516	11349.14
575.877	11459.19
576.238	11489.92
576.599	11647.43
576.96	11616.25
577.32	11671.39
577.681	11733.53
578.042	11823.7
578.403	11946.86
578.763	12016.46
579.124	12115.44
579.485	12213.07
579.845	12344.82
580.206	12265.72
580.566	12543.68
580.927	12625.04
581.287	12776.67
581.648	12853.28
582.008	13004.91
582.368	13119.03
582.728	13238.13
583.089	13323.55
583.449	13496.2
583.809	13635.86
584.169	13880.37
584.529	13964.89
584.889	14261.15
585.249	14281.49
585.609	14502.5
585.969	14697.52
586.329	14849.16
586.688	15206.44
587.048	15315.59
587.408	15525.07
587.768	15743.6
588.127	15934.33
588.487	16094.77
588.846	16506.74
589.206	16594.2
589.565	16791.03
589.925	17184.46
590.284	17287.06
590.643	17805.92
591.003	17943.99
591.362	18309.41
591.721	18505.33
592.08	18797.75
592.44	19181.47
592.799	19381.02
593.158	19723.15
593.517	19876.82
593.876	20226.64
594.235	20540.08
594.593	20849.45
594.952	21164.47
595.311	21357.01
595.67	21782.31
596.029	22117.44
596.387	22461.16
596.746	22635.17
597.104	22888.49
597.463	23106.57
597.822	23595.59
598.18	23788.81
598.538	24018.18
598.897	24619.75
599.255	24662.46
599.613	25264.25
599.972	25436.22
600.33	25916.44
600.688	26024.91
601.046	26444.78
601.404	26788.73
601.762	27028.95
602.12	27422.39
602.478	27778.31
602.836	27891.3
603.194	28128.81
603.552	28527.67
603.91	28635.46
604.268	29043.36
604.625	29238.61
604.983	29621.88
605.341	29857.35
605.698	30304.34
606.056	30591.79
606.413	30716.09
606.771	31130.54
607.128	31276.97
607.485	31482.62
607.843	31748.15
608.2	32177.97
608.557	32462.93
608.914	32607.33
609.272	32968.68
609.629	33126.19
609.986	33625.39
610.343	33620.64
610.7	33920.52
611.057	34151.47
611.414	34350.34
611.771	34610.9
612.127	34891.12
612.484	35121.39
612.841	35372.46
613.198	35474.83
613.554	35640.7
613.911	36012.67
614.267	36224.19
614.624	36318.2
614.98	36498.53
615.337	36865.98
615.693	36952.08
616.05	37096.26
616.406	37520.43
616.762	37515.45
617.118	37684.72
617.475	37831.6
617.831	38088.32
618.187	38260.97
618.543	38347.75
618.899	38788.19
619.255	38726.5
619.611	38820.05
619.967	39214.62
620.323	39357.67
620.678	39227.05
621.034	39327.16
621.39	39495.06
621.746	39542.75
622.101	40048.27
622.457	39848.05
622.812	40213.69
623.168	40381.37
623.523	40433.12
623.879	40679.44
624.234	40378.66
624.589	40696.61
624.945	40777.29
625.3	40725.54
625.655	40768.02
626.01	40988.36
626.365	41099.54
626.72	41187.9
627.075	41147.9
627.43	41368.46
627.785	41289.14
628.14	41403.94
628.495	41457.72
628.85	41577.72
629.205	41467.44
629.559	41733.87
629.914	41565.74
630.269	41650.49
630.623	41716.25
630.978	41649.58
631.332	41855
631.687	42008.22
632.041	41809.13
632.396	42005.73
632.75	41885.73
633.104	42067.42
633.459	42055.45
633.813	41975.45
634.167	41970.25
634.521	41911.27
634.875	42110.14
635.229	42045.5
635.583	41830.37
635.937	41967.09
636.291	42011.38
636.645	42017.71
636.999	42015.45
637.352	42114.2
637.706	41873.53
638.06	42167.54
638.413	41969.12
638.767	42035.34
639.121	42011.38
639.474	41826.3
639.828	41953.76
640.181	42007.77
640.534	42102
640.888	41994.66
641.241	41762.57
641.594	41873.98
641.947	42078.95
642.301	41861.1
642.654	42055.45
643.007	42117.59
643.36	41958.73
643.713	41988.33
644.066	42104.94
644.419	41915.56
644.771	41737.72
645.124	41300.44
645.477	41221.57
645.83	41070.39
646.182	40971.18
646.535	40937.74
646.888	41027.9
647.24	40608.71
647.593	40814.58
647.945	40949.94
648.298	40621.81
648.65	40574.13
649.002	40602.15
649.355	40784.29
649.707	40677.63
650.059	40926.44
650.411	41378.63
650.763	41348.35
651.115	41561.45
651.467	41737.49
651.819	41561
652.171	41542.69
652.523	41430.15
652.875	41444.84
653.227	41324.39
653.578	41510.6
653.93	41575.23
654.282	41405.52
654.633	41286.65
654.985	41457.5
655.337	41407.1
655.688	41456.82
656.039	41622.92
656.391	41285.3
656.742	41297.73
657.094	41315.81
657.445	41404.62
657.796	41361.45
658.147	41355.35
658.498	41274.45
658.849	41373.43
659.2	41250.95
659.551	41138.18
659.902	41324.85
660.253	41245.53
660.604	41371.62
660.955	41109.48
661.306	41292.53
661.656	41274.68
662.007	41366.43
662.358	41260.21
662.708	41319.87
663.059	41263.83
663.409	41025.64
663.76	41258.63
664.11	41215.47
664.461	41342.25
664.811	41362.81
665.161	41275.81
665.511	41183.15
665.862	41148.58
666.212	41188.58
666.562	41269.25
666.912	41189.03
667.262	41087.56
667.612	41166.21
667.962	41226.54
668.312	41087.56
668.662	41383.15
669.011	41098.18
669.361	41037.4
669.711	41086.21
670.06	41080.33
670.41	41097.28
670.76	40973.44
671.109	41124.4
671.459	41036.49
671.808	40933.67
672.157	41157.62
672.507	40856.61
672.856	40845.31
673.205	40970.73
673.554	41039.43
673.904	40890.73
674.253	41044.18
674.602	41008.02
674.951	40387.47
675.3	40144.99
675.649	40867.68
675.998	40719.89
676.346	40700.46
676.695	40845.99
677.044	40565.32
677.393	40803.5
677.741	40701.13
678.09	40630.17
678.438	40579.1
678.787	40637.86
679.135	40721.47
679.484	40426.11
679.832	40559.22
680.181	40342.95
680.529	40426.34
680.877	40252.33
681.225	40237.42
681.573	40579.1
681.922	40046.24
682.27	40152.45
682.618	40101.83
682.966	39995.62
683.314	40058.44
683.661	39963.07
684.009	39806.92
684.357	39710.65
684.705	39829.07
685.053	39873.36
685.4	39702.74
685.748	39483.54
686.095	39604.66
686.443	39398.79
686.79	39294.39
687.138	39374.61
687.485	39400.15
687.832	39279.7
688.18	39298.23
688.527	39025.92
688.874	39116.54
689.221	38818.02
689.568	38921.97
689.915	38837
690.262	38816.66
690.609	38663.9
690.956	38529.21
691.303	38525.6
691.65	38330.57
691.997	38519.5
692.344	38230.69
692.69	38171.26
693.037	38146.17
693.383	37880.42
693.73	38015.1
694.077	37829.34
694.423	37833.41
694.769	37718.84
695.116	37701.66
695.462	37568.56
695.808	37383.48
696.155	37621.67
696.501	37136.71
696.847	37240.89
697.193	37021.46
697.539	37183.94
697.885	36845.19
698.231	36730.84
698.577	36727.68
698.923	36683.84
699.269	36622.6
699.614	36453.11
699.96	36406.56
700.306	36383.96
700.651	36159.56
700.997	36091.76
701.342	35978.09
701.688	35957.98
702.033	35810.64
702.379	35792.79
702.724	35739.46
703.069	35761.38
703.415	35277.32
703.76	35416.07
704.105	35469.18
704.45	35262.18
704.795	35086.14
705.14	35029.87
705.485	35024.9
705.83	34830.33
706.175	34876.65
706.52	34934.28
706.865	34719.82
707.209	34700.84
707.554	34425.14
707.899	34611.12
708.243	34313.05
708.588	34362.77
708.932	34191.25
709.277	34060.63
709.621	34154.19
709.966	33942.21
710.31	33929.33
710.654	33602.79
710.998	33687.98
711.342	33780.64
711.687	33570.93
712.031	33423.58
712.375	33410.7
712.719	33481.21
713.063	33304.94
713.407	33569.8
713.75	33221.33
714.094	33207.09
714.438	33254.55
714.782	33273.31
715.125	33004.16
715.469	33095.91
715.812	32820.89
716.156	32701.12
716.499	32738.18
716.843	32738.86
717.186	32689.14
717.53	32722.36
717.873	32688.24
718.216	32537.96
718.559	32559.88
718.902	32380.67
719.246	32311.3
719.589	32211.64
719.932	32113.79
720.275	32131.42
720.617	32147.69
720.96	32081.92
721.303	31902.04
721.646	31956.5
721.989	31806
722.331	32079.21
722.674	31797.64
723.016	31846.9
723.359	31809.39
723.701	31833.12
724.044	31537.08
724.386	31472.9
724.729	31527.59
725.071	31419.34
725.413	31270.19
725.755	31392
726.097	31266.8
726.439	31078.34
726.782	31135.73
727.124	31229.29
727.465	30991.56
727.807	31166.69
728.149	31012.35
728.491	30873.59
728.833	30941.84
729.175	30686.71
729.516	30935.51
729.858	30814.61
730.199	30670.21
730.541	30768.29
730.882	30748.63
731.224	30810.77
731.565	30512.47
731.906	30607.39
732.248	30441.29
732.589	30465.92
732.93	30256.21
733.271	30368.98
733.612	30385.92
733.953	30261.18
734.294	30156.55
734.635	30139.38
734.976	30208.53
735.317	29982.77
735.658	30045.37
735.999	30053.05
736.339	29967.86
736.68	30010.79
737.021	29859.61
737.361	29776.67
737.702	29915.88
738.042	29804.02
738.383	29693.29
738.723	29701.42
739.063	29710.01
739.404	29631.59
739.744	29773.96
740.084	29519.28
740.424	29569.9
740.764	29435.21
741.104	29545.04
741.444	29390.02
741.784	29372.39
742.124	29373.07
742.464	29391.6
742.804	29258.27
743.143	29238.61
743.483	29235.45
743.823	29073.19
744.162	29011.05
744.502	29154.09
744.841	29008.11
745.181	29073.64
745.52	28965.62
745.86	29014.21
746.199	28943.7
746.538	28917.71
746.877	28887.66
747.216	28870.94
747.556	28857.15
747.895	28768.79
748.234	28605.18
748.573	28522.24
748.911	28763.59
749.25	28590.04
749.589	28531.96
749.928	28504.84
750.267	28428.46
750.605	28482.7
750.944	28303.72
751.283	28280.22
751.621	28321.35
751.96	28164.74
752.298	28144.4
752.636	28200.67
752.975	28014.69
753.313	27911.41
753.651	28196.6
753.989	27850.17
754.327	27901.24
754.666	27778.31
755.004	27724.98
755.342	27783.73
755.679	27627.35
756.017	27691.08
756.355	27600.46
756.693	27555.26
757.031	27559.33
757.368	27431.88
757.706	27350.98
758.044	27181.71
758.381	27227.82
758.719	27214.71
759.056	27237.76
759.394	27029.63
759.731	26951.89
760.068	26899.69
760.405	26729.75
760.743	26802.74
761.08	26750.99
761.417	26595.06
761.754	26604.33
762.091	26497.66
762.428	26465.8
762.765	26227.16
763.102	26474.39
763.438	26351.45
763.775	26088.18
764.112	26226.94
764.449	26112.59
764.785	25982.65
765.122	25819.04
765.458	25615.43
765.795	25804.35
766.131	25692.26
766.467	25487.3
766.804	25478.48
767.14	25384.93
767.476	25367.07
767.812	25236.23
768.148	25261.77
768.485	25091.37
768.821	25008.66
769.157	24957.14
769.492	24809.57
769.828	24859.97
770.164	24555.12
770.5	24600.77
770.836	24620.88
771.171	24437.15
771.507	24423.14
771.842	24316.93
772.178	24283.49
772.513	24148.35
772.849	24072.64
773.184	23985.64
773.519	23987
773.855	23965.3
774.19	23765.76
774.525	23695.7
774.86	23635.59
775.195	23687.12
775.53	23411.19
775.865	23381.59
776.2	23233.12
776.535	23028.6
776.87	23047.81
777.205	22904.31
777.539	22876.52
777.874	22892.11
778.209	22629.97
778.543	22599.24
778.878	22542.29
779.212	22660.48
779.547	22396.3
779.881	22352.01
780.215	22263.2
780.55	22293.71
780.884	22119.25
781.218	22006.03
781.552	22031.79
781.886	21887.16
782.22	21865.47
782.554	21780.73
782.888	21529.21
783.222	21594.52
783.556	21432.04
783.889	21460.06
784.223	21164.02
784.557	21238.59
784.89	21141.42
785.224	21190.69
785.557	20988.88
785.891	20985.49
786.224	20891.26
786.558	20880.19
786.891	20618.72
787.224	20581.21
787.557	20501.21
787.891	20366.07
788.224	20450.59
788.557	20399.52
788.89	20392.06
789.223	20335.57
789.556	20166.76
789.888	20149.81
790.221	19987.78
790.554	19833.43
790.887	19863.71
791.219	19811.06
791.552	19768.8
791.884	19714.34
792.217	19654.68
792.549	19529.49
792.882	19488.13
793.214	19353.22
793.546	19381.92
793.879	19235.48
794.211	19105.32
794.543	19227.57
794.875	19054.24
795.207	19172.89
795.539	19035.94
795.871	18965.89
796.203	18780.35
796.535	18709.85
796.867	18673.01
797.198	18680.24
797.53	18684.99
797.862	18603.64
798.193	18531.55
798.525	18413.13
798.856	18484.54
799.188	18186.02
799.519	18174.95
799.85	18064.89
800.182	18062.63
800.513	18126.59
800.844	17930.21
801.175	18035.29
801.506	17899.92
801.837	17912.58
802.168	17864.9
802.499	17771.57
802.83	17718.46
803.161	17652.25
803.491	17642.76
803.822	17611.12
804.153	17583.32
804.483	17452.93
804.814	17296.78
805.145	17339.94
805.475	17312.14
805.805	17249.55
806.136	17225.14
806.466	17266.72
806.796	17195.54
807.126	16994.19
807.457	17023.34
807.787	16974.98
808.117	16858.82
808.447	16737.02
808.777	16864.92
809.107	16852.95
809.436	16640.97
809.766	16620.64
810.096	16558.94
810.426	16528.21
810.755	16545.16
811.085	16494.31
811.414	16422.9
811.744	16361.66
812.073	16416.12
812.403	16259.29
812.732	16189.24
813.061	16163.47
813.39	16094.1
813.719	16088.45
814.049	16160.31
814.378	16079.18
814.707	15931.61
815.036	16050.26
815.365	15860.2
815.693	15833.09
816.022	15788.79
816.351	15695.01
816.68	15738.17
817.008	15749.92
817.337	15541.57
817.665	15484.17
817.994	15634
818.322	15523.72
818.651	15441.01
818.979	15497.05
819.307	15461.34
819.636	15440.55
819.964	15337.28
820.292	15377.73
820.62	15315.13
820.948	15270.16
821.276	15311.74
821.604	15257.51
821.932	15209.6
822.259	15211.63
822.587	15292.08
822.915	15181.13
823.243	15270.39
823.57	15279.88
823.898	15309.48
824.225	15206.44
824.553	15146.1
824.88	15191.97
825.207	15240.11
825.535	15164.63
825.862	15317.85
826.189	15204.63
826.516	15229.49
826.843	15263.84
827.17	15278.98
827.497	15242.59
827.824	15221.58
828.151	15284.4
828.478	15159.43
828.805	15216.61
829.131	15161.24
829.458	15149.71
829.785	15088.25
830.111	15118.3
830.438	15171.63
830.764	15165.76
831.09	15185.19
831.417	15055.25
831.743	15185.65
832.069	15175.25
832.395	15012.32
832.722	15105.65
833.048	15128.47
833.374	14992.88
833.7	14990.17
834.026	15061.13
834.351	15004.18
834.677	14961.02
835.003	15006.44
835.329	15007.57
835.654	14980.45
835.98	14876.05
836.306	14973.9
836.631	14841.02
836.956	14918.99
837.282	14914.92
837.607	14837.41
837.932	14807.12
838.258	14852.1
838.583	14743.4
838.908	14646.9
839.233	14735.04
839.558	14645.1
839.883	14651.42
840.208	14622.27
840.533	14573.68
840.858	14580.24
841.182	14509.96
841.507	14511.77
841.832	14451.43
842.156	14503.63
842.481	14474.93
842.805	14365.33
843.13	14372.79
843.454	14313.13
843.778	14216.41
844.103	14285.78
844.427	14147.26
844.751	14182.28
845.075	14187.03
845.399	14125.79
845.723	14023.64
846.047	14081.27
846.371	13911.1
846.695	13864.78
847.019	13841.95
847.343	13739.13
847.666	13643.09
847.99	13616.65
848.313	13693.03
848.637	13522.41
848.96	13510.66
849.284	13526.48
849.607	13340.5
849.931	13373.04
850.254	13277.67
850.577	13201.52
850.9	13107.73
851.223	13143.89
851.546	13007.62
851.869	12921.52
852.192	13012.82
852.515	12840.17
852.838	12825.03
853.161	12802.43
853.483	12748.2
853.806	12686.5
854.129	12700.51
854.451	12694.19
854.774	12640.4
855.096	12491.71
855.419	12508.2
855.741	12541.65
856.063	12488.54
856.385	12416.23
856.708	12330.81
857.03	12342.56
857.352	12355.66
857.674	12279.28
857.996	12220.3
858.318	12156.12
858.64	12134.43
858.961	12116.8
859.283	12044.03
859.605	12019.85
859.926	11945.28
860.248	11950.25
860.57	11913.64
860.891	11932.17
861.212	11888.33
861.534	11849.46
861.855	11762.91
862.176	11825.73
862.498	11812.4
862.819	11724.72
863.14	11710.94
863.461	11691.27
863.782	11660.99
864.103	11663.03
864.424	11605.63
864.745	11622.8
865.065	11580.54
865.386	11537.61
865.707	11538.06
866.027	11527.89
866.348	11550.49
866.668	11510.04
866.989	11467.1
867.309	11386.2
867.63	11464.16
867.95	11421.68
868.27	11282.92
868.59	11420.32
868.91	11359.08
869.23	11329.25
869.55	11272.53
869.87	11318.4
870.19	11215.13
870.51	11242.7
870.83	11271.62
871.15	11185.75
871.469	11157.5
871.789	11208.12
872.109	11223.49
872.428	11044.96
872.748	11110.5
873.067	11073.89
873.386	11098.75
873.706	10959.32
874.025	11002.48
874.344	10934.68
874.663	10900.33
874.982	10988.02
875.301	10959.09
875.62	10989.15
875.939	10915.25
876.258	10916.15
876.577	10846.78
876.896	10881.58
877.214	10794.57
877.533	10789.83
877.852	10769.72
878.17	10769.04
878.489	10834.8
878.807	10792.77
879.125	10765.65
879.444	10755.03
879.762	10744.63
880.08	10781.24
880.398	10597.74
880.716	10679.78
881.034	10636.16
881.352	10646.1
881.67	10616.95
881.988	10548.93
882.306	10492.89
882.624	10473.23
882.941	10480.68
883.259	10374.92
883.577	10424.64
883.894	10411.76
884.212	10417.86
884.529	10397.98
884.846	10314.14
885.164	10357.98
885.481	10334.02
885.798	10233.01
886.115	10169.96
886.432	10258.54
886.75	10179
887.067	10200.24
887.383	10176.06
887.7	10176.29
888.017	10055.84
888.334	10101.49
888.651	10099.23
888.967	10039.57
889.284	10034.59
889.6	9922.06
889.917	9877.76
890.233	9876.86
890.55	9854.94
890.866	9760.93
891.182	9843.87
891.498	9766.13
891.815	9780.59
892.131	9736.98
892.447	9722.51
892.763	9650.2
893.079	9663.98
893.395	9649.97
893.71	9625.79
894.026	9574.95
894.342	9511.9
894.657	9523.87
894.973	9486.59
895.289	9413.14
895.604	9477.1
895.92	9427.15
896.235	9352.13
896.55	9330.88
896.865	9334.05
897.181	9261.28
897.496	9254.28
897.811	9233.03
898.126	9191.23
898.441	9199.14
898.756	9107.39
899.071	9035.98
899.386	9068.07
899.7	8964.57
900.015	8981.74
900.33	8876.43
900.644	8878.92
900.959	8859.48
901.273	8879.15
901.588	8852.03
901.902	8797.34
902.216	8753.95
902.531	8739.04
902.845	8632.82
903.159	8722.99
903.473	8659.49
903.787	8663.33
904.101	8543.56
904.415	8587.18
904.729	8478.7
905.042	8430.12
905.356	8460.85
905.67	8452.72
905.984	8426.28
906.297	8339.27
906.611	8265.15
906.924	8293.17
907.237	8269.22
907.551	8186.28
907.864	8221.54
908.177	8150.8
908.491	8128.43
908.804	8139.28
909.117	8083.46
909.43	8077.58
909.743	8021.99
910.056	7977.47
910.368	7905.39
910.681	7913.29
910.994	7821.77
911.307	7883.24
911.619	7748.78
911.932	7837.14
912.244	7765.5
912.557	7771.38
912.869	7637.14
913.181	7641.44
913.494	7642.34
913.806	7580.2
914.118	7546.07
914.43	7527.77
914.742	7491.16
915.054	7484.61
915.366	7491.84
915.678	7383.82
915.99	7362.12
916.302	7356.47
916.613	7274.22
916.925	7297.72
917.236	7253.2
917.548	7227.21
917.859	7258.4
918.171	7130.72
918.482	7133.88
918.794	7074.22
919.105	7067.67
919.416	7015.01
919.727	6991.29
920.038	6984.05
920.349	6918.97
920.66	6919.2
920.971	6960.78
921.282	6901.34
921.593	6831.52
921.903	6781.8
922.214	6763.49
922.525	6725.53
922.835	6652.54
923.146	6720.11
923.456	6652.76
923.767	6664.97
924.077	6602.14
924.387	6588.81
924.697	6497.96
925.008	6492.99
925.318	6442.15
925.628	6454.35
925.938	6451.64
926.248	6379.1
926.558	6333.22
926.867	6394.01
927.177	6344.07
927.487	6283.96
927.796	6237.86
928.106	6267.91
928.416	6204.64
928.725	6230.85
929.034	6151.31
929.344	6149.73
929.653	6161.25
929.962	6073.57
930.271	6054.13
930.581	6024.98
930.89	5975.94
931.199	5991.54
931.508	5967.58
931.817	5941.82
932.125	5898.88
932.434	5952.67
932.743	5869.05
933.051	5815.72
933.36	5821.82
933.669	5761.49
933.977	5756.52
934.286	5673.58
934.594	5717.19
934.902	5657.08
935.21	5665.22
935.519	5638.55
935.827	5540.25
936.135	5534.15
936.443	5528.5
936.751	5487.37
937.059	5537.31
937.367	5470.42
937.674	5473.36
937.982	5422.96
938.29	5394.26
938.597	5354.27
938.905	5310.2
939.213	5347.71
939.52	5336.87
939.827	5315.17
940.135	5310.88
940.442	5279.47
940.749	5239.69
941.056	5245.12
941.363	5165.57
941.67	5202.63
941.977	5120.6
942.284	5105.01
942.591	5099.36
942.898	5034.5
943.205	5049.19
943.511	5066.59
943.818	5090.54
944.125	4988.63
944.431	4970.77
944.738	4984.33
945.044	4932.58
945.35	4925.35
945.657	4845.8
945.963	4874.5
946.269	4812.81
946.575	4837.44
946.881	4795.64
947.187	4769.2
947.493	4740.27
947.799	4778.46
948.105	4752.93
948.41	4717.22
948.716	4675.41
949.022	4708.63
949.327	4600.39
949.633	4636.54
949.938	4589.99
950.244	4613.49
950.549	4561.74
950.854	4582.53
951.16	4505.25
951.465	4506.15
951.77	4423.44
952.075	4500.96
952.38	4426.83
952.685	4412.37
952.99	4414.86
953.294	4379.38
953.599	4344.58
953.904	4317.46
954.209	4326.27
954.513	4332.15
954.818	4291.02
955.122	4290.57
955.426	4258.48
955.731	4220.51
956.035	4221.19
956.339	4209.21
956.643	4175.99
956.948	4135.99
957.252	4124.47
957.556	4080.63
957.86	4081.53
958.163	4086.73
958.467	4129.21
958.771	4060.29
959.075	4034.53
959.378	4039.5
959.682	3992.49
959.985	3959.73
960.289	3983.23
960.592	3998.37
960.896	3896.68
961.199	3945.04
961.502	3940.07
961.805	3917.69
962.108	3890.12
962.411	3892.38
962.714	3856.45
963.017	3811.48
963.32	3820.3
963.623	3761.09
963.926	3786.4
964.228	3740.07
964.531	3737.59
964.833	3752.5
965.136	3682.9
965.438	3660.98
965.741	3667.08
966.043	3649.45
966.345	3623.01
966.648	3605.61
966.95	3587.53
967.252	3574.65
967.554	3561.77
967.856	3566.74
968.158	3485.61
968.46	3522.45
968.761	3524.26
969.063	3517.93
969.365	3502.56
969.666	3413.3
969.968	3440.19
970.269	3432.28
970.571	3419.4
970.872	3404.94
971.174	3382.57
971.475	3355.45
971.776	3393.64
972.077	3324.49
972.378	3350.48
972.679	3308.9
972.98	3336.92
973.281	3330.59
973.582	3257.37
973.883	3247.88
974.183	3228.45
974.484	3248.78
974.785	3229.35
975.085	3213.08
975.386	3154.32
975.686	3173.08
975.986	3180.99
976.287	3132.86
976.587	3080.2
976.887	3113.42
977.187	3098.05
977.487	3129.47
977.787	3082.01
978.087	3063.7
978.387	3043.59
978.687	3070.03
978.987	3052.18
979.286	2987.77
979.586	3001.33
979.885	2995.23
980.185	2967.21
980.484	2941.9
980.784	2944.16
981.083	2966.31
981.382	2910.71
981.682	2899.42
981.981	2893.09
982.28	2899.64
982.579	2870.49
982.878	2880.21
983.177	2857.61
983.475	2801.56
983.774	2821.23
984.073	2805.86
984.372	2754.56
984.67	2747.55
984.969	2744.84
985.267	2764.05
985.566	2778.97
985.864	2703.04
986.162	2742.13
986.461	2708.23
986.759	2704.39
987.057	2666.43
987.355	2678.86
987.653	2655.81
987.951	2628.24
988.249	2674.79
988.547	2611.97
988.844	2635.24
989.142	2594.79
989.44	2565.64
989.737	2562.25
990.035	2538.97
990.332	2549.82
990.63	2543.04
990.927	2525.19
991.224	2531.52
991.521	2478.64
991.819	2492.65
992.116	2486.09
992.413	2491.06
992.71	2462.59
993.006	2412.42
993.303	2409.48
993.6	2437.73
993.897	2421.69
994.193	2400.22
994.49	2368.58
994.787	2376.49
995.083	2354.8
995.379	2367.68
995.676	2310.5
995.972	2348.24
996.268	2348.24
996.565	2299.88
996.861	2311.41
997.157	2291.3
997.453	2266.44
997.749	2285.42
998.044	2261.47
998.34	2218.3
998.636	2242.94
998.932	2226.21
999.227	2195.03
999.523	2206.55
999.818	2173.78
1000.114	2164.07
1000.409	2184.18
1000.704	2122.71
1001	2164.07
1001.295	2151.86
1001.59	2123.16
1001.885	2098.98
1002.18	2067.8
1002.475	2105.09
1002.77	2075.48
1003.065	2060.34
1003.359	2070.28
1003.654	2017.63
1003.949	2034.81
1004.243	2018.76
1004.538	2019.89
1004.832	2018.31
1005.127	2010.4
1005.421	1973.79
1005.715	1974.02
1006.009	1954.13
1006.304	1930.4
1006.598	1921.59
1006.892	1911.64
1007.186	1886.11
1007.48	1864.87
1007.773	1868.71
1008.067	1891.53
1008.361	1851.31
1008.655	1835.04
1008.948	1852.66
1009.242	1819.22
1009.535	1841.14
1009.829	1830.97
1010.122	1815.15
1010.415	1799.56
1010.708	1769.05
1011.001	1774.02
1011.295	1764.76
1011.588	1749.84
1011.881	1753.68
1012.173	1721.14
1012.466	1716.4
1012.759	1701.71
1013.052	1688.6
1013.344	1703.97
1013.637	1700.35
1013.93	1660.35
1014.222	1647.92
1014.514	1644.31
1014.807	1639.34
1015.099	1624.19
1015.391	1619
1015.683	1619
1015.976	1611.09
1016.268	1631.65
1016.56	1597.3
1016.851	1585.1
1017.143	1561.6
1017.435	1549.85
1017.727	1553.01
1018.018	1555.04
1018.31	1512.79
1018.602	1510.3
1018.893	1510.07
1019.185	1510.98
1019.476	1517.3
1019.767	1502.62
1020.058	1443.18
1020.35	1468.72
1020.641	1459.45
1020.932	1440.02
1021.223	1447.48
1021.514	1439.79
1021.804	1396.18
1022.095	1398.89
1022.386	1409.74
1022.677	1390.3
1022.967	1377.65
1023.258	1377.87
1023.548	1364.54
1023.839	1354.15
1024.129	1325.22
1024.419	1334.94
1024.709	1318.89
1025	1304.65
1025.29	1297.88
1025.58	1260.59
1025.87	1284.77
1026.16	1289.74
1026.449	1269.63
1026.739	1262.17
1027.029	1271.66
1027.319	1226.69
1027.608	1219.91
1027.898	1212.91
1028.187	1241.61
1028.477	1212.91
1028.766	1218.33
1029.055	1195.51
1029.344	1173.81
1029.634	1176.3
1029.923	1187.37
1030.212	1148.5
1030.501	1174.49
1030.79	1149.18
1031.078	1146.24
1031.367	1148.73
1031.656	1122.74
1031.945	1141.27
1032.233	1129.52
1032.522	1116.41
1032.81	1077.99
1033.099	1084.32
1033.387	1095.17
1033.675	1091.1
1033.963	1083.64
1034.251	1091.1
1034.54	1073.93
1034.828	1047.49
1035.116	1011.1
1035.403	1050.88
1035.691	1071.89
1035.979	1035.51
1036.267	1014.72
1036.554	1008.84
1036.842	1019.24
1037.129	980.14
1037.417	987.15
1037.704	1001.16
1037.992	1002.74
1038.279	986.7
1038.566	973.36
1038.853	973.36
1039.14	973.36
