Data from hue_160_FLMS001491_00073.txt Node
Date: Tue Feb 07 16:51:40 GMT 2017
User: dcchb
Spectrometer: FLMS00149
Trigger mode: 0
Integration Time (sec): 2.000000E-2
Scans to average: 10
Electric dark correction enabled: true
Nonlinearity correction enabled: false
Boxcar width: 0
XAxis mode: Wavelengths
Number of Pixels in Spectrum: 2048
>>>>>Begin Spectral Data<<<<<
341.393	-21.51
341.776	-21.51
342.16	-21.51
342.543	-47.05
342.927	-81.17
343.31	-68.06
343.693	-83.88
344.077	-64.45
344.46	-51.11
344.843	-54.96
345.226	-55.18
345.61	-28.52
345.993	-18.35
346.376	-3.21
346.759	8.54
347.142	41.31
347.525	66.17
347.908	35.21
348.291	78.37
348.674	91.25
349.057	106.85
349.44	121.31
349.823	124.47
350.206	170.35
350.588	196.56
350.971	199.05
351.354	221.87
351.737	248.31
352.119	253.28
352.502	264.81
352.884	277.69
353.267	278.37
353.65	290.8
354.032	296.45
354.414	308.65
354.797	322.66
355.179	314.98
355.562	323.11
355.944	330.57
356.326	340.74
356.709	352.94
357.091	332.38
357.473	331.02
357.855	319.05
358.238	329.21
358.62	340.51
359.002	335.09
359.384	331.25
359.766	324.92
360.148	332.83
360.53	333.96
360.912	358.37
361.294	345.26
361.676	331.02
362.057	330.57
362.439	312.04
362.821	319.95
363.203	336.9
363.584	332.15
363.966	332.15
364.348	335.54
364.729	329.89
365.111	331.25
365.493	319.05
365.874	324.69
366.256	329.89
366.637	309.55
367.019	305.03
367.4	318.82
367.781	317.92
368.163	318.37
368.544	312.27
368.925	312.27
369.306	322.21
369.688	310.68
370.069	328.31
370.45	311.14
370.831	304.36
371.212	307.07
371.593	300.97
371.974	326.05
372.355	300.97
372.736	319.5
373.117	314.98
373.498	300.51
373.879	322.44
374.26	316.11
374.641	303.68
375.021	330.34
375.402	321.53
375.783	333.73
376.163	324.69
376.544	350
376.925	335.09
377.305	322.44
377.686	337.35
378.066	309.78
378.447	319.27
378.827	335.09
379.208	318.59
379.588	334.41
379.968	335.54
380.349	340.74
380.729	335.99
381.109	338.03
381.489	330.12
381.87	335.32
382.25	325.15
382.63	348.2
383.01	317.24
383.39	341.42
383.77	334.86
384.15	344.58
384.53	329.21
384.91	347.97
385.29	342.1
385.67	345.26
386.049	364.24
386.429	338.03
386.809	335.77
387.189	340.74
387.568	345.49
387.948	326.95
388.328	351.13
388.707	367.86
389.087	370.8
389.466	356.33
389.846	379.83
390.225	368.08
390.605	355.43
390.984	362.89
391.363	347.97
391.743	371.02
392.122	359.04
392.501	364.02
392.881	360.63
393.26	381.87
393.639	378.48
394.018	386.16
394.397	370.12
394.776	366.95
395.155	396.33
395.534	387.29
395.913	388.42
396.292	393.39
396.671	391.81
397.05	366.73
397.429	398.59
397.808	385.26
398.186	372.15
398.565	403.56
398.944	380.06
399.323	393.39
399.701	381.19
400.08	390.68
400.458	397.46
400.837	392.49
401.215	420.74
401.594	393.85
401.972	390
402.351	404.69
402.729	418.48
403.107	415.54
403.486	404.24
403.864	427.97
404.242	420.51
404.62	405.6
404.999	406.73
405.377	412.15
405.755	411.47
406.133	433.62
406.511	402.21
406.889	416.22
407.267	435.88
407.645	452.38
408.023	451.25
408.401	426.39
408.779	446.95
409.156	438.82
409.534	444.47
409.912	442.43
410.29	435.43
410.667	459.83
411.045	472.04
411.422	479.27
411.8	485.37
412.178	454.18
412.555	479.49
412.933	498.02
413.31	480.85
413.687	472.04
414.065	491.7
414.442	473.39
414.819	500.28
415.197	516.78
415.574	495.76
415.951	493.5
416.328	534.41
416.705	515.65
417.082	510.68
417.46	524.92
417.837	538.7
418.214	538.7
418.591	533.05
418.967	533.73
419.344	526.72
419.721	530.57
420.098	531.24
420.475	515.88
420.852	553.84
421.228	546.84
421.605	554.97
421.982	561.07
422.358	562.2
422.735	575.54
423.111	571.02
423.488	565.14
423.864	559.72
424.241	593.39
424.617	585.25
424.994	577.12
425.37	597.91
425.746	606.95
426.123	604.69
426.499	606.5
426.875	594.74
427.251	598.81
427.627	607.17
428.003	619.83
428.379	629.32
428.756	639.49
429.132	637.91
429.507	662.31
429.883	650.11
430.259	656.21
430.635	652.6
431.011	670
431.387	668.41
431.763	685.82
432.138	703.67
432.514	671.8
432.89	717.9
433.265	720.62
433.641	702.31
434.016	716.32
434.392	733.95
434.767	731.24
435.143	762.42
435.518	744.8
435.894	754.97
436.269	759.03
436.644	772.14
437.02	776.21
437.395	777.34
437.77	772.82
438.145	808.75
438.52	800.61
438.895	796.55
439.271	825.25
439.646	825.25
440.021	829.54
440.395	831.35
440.77	849.43
441.145	851.46
441.52	868.86
441.895	855.75
442.27	888.75
442.645	862.08
443.019	898.47
443.394	868.18
443.769	868.64
444.143	870.67
444.518	904.11
444.892	888.75
445.267	920.61
445.641	912.7
446.016	923.55
446.39	937.79
446.764	941.18
447.139	912.7
447.513	934.85
447.887	930.78
448.262	950.44
448.636	955.64
449.01	967.39
449.384	985.47
449.758	974.4
450.132	979.82
450.506	1000.38
450.88	1015.52
451.254	1003.1
451.628	1024.34
452.002	1022.53
452.376	1048.74
452.75	1052.36
453.123	1036.09
453.497	1080.83
453.871	1094.17
454.244	1091.45
454.618	1080.61
454.992	1111.34
455.365	1157.44
455.739	1159.48
456.112	1148.85
456.486	1160.83
456.859	1178.68
457.232	1204.45
457.606	1190.66
457.979	1225.01
458.352	1239.47
458.725	1226.14
459.099	1250.09
459.472	1291.45
459.845	1298
460.218	1289.19
460.591	1309.3
460.964	1320.15
461.337	1357.66
461.71	1379.36
462.083	1413.48
462.456	1398.56
462.829	1410.77
463.201	1461.16
463.574	1456.64
463.947	1466.81
464.32	1507.26
464.692	1550.43
465.065	1510.2
465.438	1548.84
465.81	1577.32
466.183	1580.26
466.555	1616.41
466.928	1613.7
467.3	1673.81
467.672	1671.78
468.045	1717.43
468.417	1751.55
468.789	1728.05
469.161	1820.93
469.534	1852.79
469.906	1863.86
470.278	1906.57
470.65	1910.19
471.022	1956.29
471.394	2009.62
471.766	2053.91
472.138	2109.28
472.51	2135.49
472.882	2167.36
473.253	2199.67
473.625	2244.87
473.997	2293.46
474.369	2344.75
474.74	2396.5
475.112	2434.92
475.484	2552.21
475.855	2581.81
476.227	2589.49
476.598	2687.34
476.97	2725.54
477.341	2827.91
477.713	2891.63
478.084	2920.78
478.455	3029.71
478.827	3090.95
479.198	3176.15
479.569	3236.93
479.94	3351.73
480.311	3403.94
480.682	3458.17
481.053	3604.38
481.424	3700.65
481.795	3786.52
482.166	3906.3
482.537	3968.21
482.908	4077.36
483.279	4171.15
483.65	4252.95
484.021	4391.71
484.391	4483.46
484.762	4539.05
485.133	4699.04
485.503	4805.93
485.874	4963.44
486.244	5044.8
486.615	5191.01
486.985	5299.25
487.356	5422.64
487.726	5490.66
488.097	5716.87
488.467	5781.05
488.837	5893.36
489.207	6036.86
489.578	6205.67
489.948	6265.78
490.318	6432.78
490.688	6512.78
491.058	6639.11
491.428	6793.45
491.798	6963.84
492.168	7111.86
492.538	7179.88
492.908	7338.07
493.278	7500.78
493.648	7572.41
494.017	7715.46
494.387	7791.39
494.757	7939.18
495.126	8108.22
495.496	8143.47
495.866	8294.88
496.235	8432.28
496.605	8535.78
496.974	8610.35
497.344	8736.45
497.713	8856
498.082	8965.15
498.452	9130.11
498.821	9172.82
499.19	9263.89
499.559	9333.05
499.928	9453.27
500.298	9591.12
500.667	9626.37
501.036	9728.52
501.405	9740.94
501.774	9805.12
502.143	10030.88
502.512	10046.25
502.88	10202.85
503.249	10167.37
503.618	10323.3
503.987	10350.42
504.356	10400.59
504.724	10527.59
505.093	10573.24
505.462	10613.92
505.83	10629.06
506.199	10812.33
506.567	10958.31
506.936	10909.95
507.304	11010.74
507.672	11079.89
508.041	11177.74
508.409	11158.08
508.777	11268.81
509.145	11383.61
509.514	11356.27
509.882	11388.81
510.25	11492.08
510.618	11506.77
510.986	11597.39
511.354	11644.85
511.722	11763.72
512.09	11790.61
512.458	11829.25
512.826	11877.61
513.193	11917.38
513.561	11962.13
513.929	12059.98
514.297	12090.49
514.664	12157.83
515.032	12124.16
515.4	12207.09
515.767	12200.77
516.135	12295
516.502	12272.18
516.869	12417.26
517.237	12441.44
517.604	12302.23
517.972	12425.17
518.339	12513.53
518.706	12431.72
519.073	12462.23
519.44	12623.81
519.808	12657.48
520.175	12617.25
520.542	12781.09
520.909	12761.2
521.276	12750.58
521.643	12792.39
522.009	12803.01
522.376	12858.83
522.743	12911.71
523.11	13028.32
523.477	13014.3
523.843	13077.58
524.21	13159.39
524.577	13167.07
524.943	13200.06
525.31	13209.1
525.676	13310.57
526.043	13251.36
526.409	13325.93
526.776	13375.2
527.142	13299.49
527.508	13366.84
527.874	13361.19
528.241	13393.96
528.607	13279.16
528.973	13386.05
529.339	13455.42
529.705	13488.87
530.071	13453.39
530.437	13417.68
530.803	13553.05
531.169	13494.07
531.535	13383.11
531.901	13508.75
532.267	13520.51
532.632	13441.86
532.998	13464.01
533.364	13420.62
533.73	13454.29
534.095	13483.67
534.461	13502.2
534.826	13440.51
535.192	13361.19
535.557	13415.42
535.923	13419.72
536.288	13413.84
536.653	13346.5
537.019	13371.36
537.384	13358.25
537.749	13349.21
538.114	13286.84
538.479	13238.71
538.845	13270.57
539.21	13200.51
539.575	13129.78
539.94	13174.3
540.305	13159.16
540.67	12991.71
541.034	13120.06
541.399	13058.15
541.764	12962.55
542.129	13010.01
542.494	12923.69
542.858	12942.22
543.223	12909.9
543.587	12927.53
543.952	12792.84
544.316	12796.68
544.681	12744.71
545.045	12646.86
545.41	12709.23
545.774	12707.87
546.138	12716.01
546.503	12632.17
546.867	12591.26
547.231	12562.34
547.595	12603.92
547.959	12541.1
548.324	12417.03
548.688	12404.83
549.052	12363.47
549.416	12356.47
549.779	12344.72
550.143	12317.15
550.507	12344.27
550.871	12342.68
551.235	12284.61
551.599	12308.56
551.962	12180.2
552.326	12233.08
552.689	12133.65
553.053	12159.64
553.417	12020.21
553.78	12233.08
554.143	12067.44
554.507	12067.21
554.87	12066.08
555.234	12107.66
555.597	11967.78
555.96	12024.95
556.323	12084.39
556.686	11967.78
557.05	12027.66
557.413	12009.13
557.776	12015.46
558.139	12011.17
558.502	11963.03
558.865	11930.27
559.228	11953.54
559.59	11931.4
559.953	11845.75
560.316	11948.57
560.679	12024.95
561.041	11946.99
561.404	12018.62
561.767	11979.3
562.129	11885.75
562.492	12071.05
562.854	11979.98
563.217	11902.92
563.579	11924.62
563.941	11944.5
564.304	11947.89
564.666	11971.62
565.028	12074.22
565.39	11996.7
565.753	12049.58
566.115	12003.48
566.477	12066.08
566.839	12017.95
567.201	12114.22
567.563	12085.97
567.925	12108.11
568.287	12087.32
568.648	12145.18
569.01	12105.85
569.372	12138.85
569.734	12127.55
570.095	12219.07
570.457	12218.39
570.819	12225.4
571.18	12238.28
571.542	12184.5
571.903	12241.22
572.265	12272.86
572.626	12252.74
572.987	12273.53
573.349	12234.21
573.71	12266.98
574.071	12318.05
574.432	12321.22
574.794	12326.87
575.155	12335.9
575.516	12280.76
575.877	12346.07
576.238	12310.82
576.599	12335.45
576.96	12296.13
577.32	12324.61
577.681	12355.79
578.042	12270.14
578.403	12334.55
578.763	12346.07
579.124	12335.23
579.485	12419.52
579.845	12398.73
580.206	12380.88
580.566	12343.59
580.927	12406.64
581.287	12428.78
581.648	12344.72
582.008	12396.69
582.368	12385.39
582.728	12389.01
583.089	12309.92
583.449	12418.84
583.809	12398.05
584.169	12383.13
584.529	12259.07
584.889	12412.06
585.249	12307.2
585.609	12223.37
585.969	12228.56
586.329	12226.53
586.688	12249.35
587.048	12205.29
587.408	12176.81
587.768	12236.25
588.127	12240.99
588.487	12151.95
588.846	12283.25
589.206	12183.14
589.565	12143.59
589.925	12279.41
590.284	12216.59
590.643	12205.74
591.003	12215.23
591.362	12167.32
591.721	12180.88
592.08	12185.85
592.44	12273.76
592.799	12186.76
593.158	12119.41
593.517	12142.92
593.876	12212.52
594.235	12144.95
594.593	12157.15
594.952	12122.8
595.311	12109.02
595.67	12101.33
596.029	12170.94
596.387	12081.9
596.746	12084.16
597.104	12134.78
597.463	12016.14
597.822	12036.93
598.18	12071.96
598.538	12022.92
598.897	12088.68
599.255	12012.3
599.613	12190.37
599.972	12026.31
600.33	11984.05
600.688	12122.58
601.046	12096.81
601.404	12157.6
601.762	12032.64
602.12	12118.74
602.478	12113.31
602.836	12065.4
603.194	12062.24
603.552	12073.09
603.91	12036.03
604.268	12068.79
604.625	11958.51
604.983	12075.57
605.341	12004.39
605.698	12117.83
606.056	12067.44
606.413	12006.42
606.771	12068.57
607.128	12133.42
607.485	12107.44
607.843	12031.28
608.2	12158.96
608.557	12181.33
608.914	12093.65
609.272	12192.63
609.629	12132.52
609.986	12212.29
610.343	12151.95
610.7	12204.61
611.057	12157.38
611.414	12060.66
611.771	12258.62
612.127	12225.4
612.484	12183.82
612.841	12333.87
613.198	12205.06
613.554	12292.29
613.911	12359.41
614.267	12296.36
614.624	12238.73
614.98	12296.58
615.337	12354.21
615.693	12299.97
616.05	12218.17
616.406	12387.65
616.762	12332.74
617.118	12264.27
617.475	12362.12
617.831	12360.99
618.187	12390.59
618.543	12358.28
618.899	12416.58
619.255	12368.45
619.611	12373.19
619.967	12423.36
620.323	12485.28
620.678	12448.67
621.034	12346.3
621.39	12362.12
621.746	12330.71
622.101	12457.03
622.457	12405.28
622.812	12419.97
623.168	12497.71
623.523	12413.87
623.879	12426.52
624.234	12438.95
624.589	12374.1
624.945	12402.34
625.3	12418.84
625.655	12461.78
626.01	12409.8
626.365	12384.49
626.72	12425.39
627.075	12369.35
627.43	12434.43
627.785	12367.99
628.14	12356.92
628.495	12403.7
628.85	12395.79
629.205	12353.31
629.559	12388.33
629.914	12288
630.269	12387.2
630.623	12304.49
630.978	12279.41
631.332	12326.41
631.687	12305.85
632.041	12231.05
632.396	12291.61
632.75	12291.84
633.104	12239.86
633.459	12245.06
633.813	12152.63
634.167	12181.33
634.521	12128.23
634.875	12235.34
635.229	12160.77
635.583	12160.54
635.937	12123.25
636.291	11997.83
636.645	12092.07
636.999	12088.68
637.352	12093.2
637.706	12023.82
638.06	12093.65
638.413	12070.83
638.767	11946.31
639.121	11997.16
639.474	11910.6
639.828	11984.73
640.181	11984.28
640.534	11987.44
640.888	11941.11
641.241	11850.95
641.594	11895.69
641.947	11887.33
642.301	11906.31
642.654	11883.04
643.007	11961.9
643.36	11898.63
643.713	11859.53
644.066	11924.84
644.419	11890.49
644.771	11742.7
645.124	11661.12
645.477	11657.05
645.83	11569.82
646.182	11515.81
646.535	11503.16
646.888	11467
647.24	11425.87
647.593	11534.57
647.945	11410.96
648.298	11360.11
648.65	11380.68
649.002	11392.2
649.355	11479.43
649.707	11449.15
650.059	11549.71
650.411	11675.58
650.763	11634
651.115	11785.86
651.467	11674.68
651.819	11662.48
652.171	11678.75
652.523	11692.08
652.875	11729.14
653.227	11609.37
653.578	11712.87
653.93	11759.87
654.282	11670.39
654.633	11687.11
654.985	11767.78
655.337	11612.08
655.688	11775.47
656.039	11766.65
656.391	11645.53
656.742	11654.57
657.094	11686.88
657.445	11638.75
657.796	11688.46
658.147	11648.46
658.498	11651.63
658.849	11782.02
659.2	11646.21
659.551	11722.59
659.902	11736.15
660.253	11682.14
660.604	11689.37
660.955	11688.92
661.306	11872.64
661.656	11710.84
662.007	11738.86
662.358	11690.95
662.708	11745.86
663.059	11746.09
663.409	11734.56
663.76	11797.39
664.11	11751.97
664.461	11810.49
664.811	11783.38
665.161	11726.2
665.511	11761
665.862	11760.1
666.212	11769.37
666.562	11820.21
666.912	11756.48
667.262	11779.53
667.612	11759.87
667.962	11725.98
668.312	11746.77
668.662	11788.8
669.011	11763.49
669.361	11707.45
669.711	11729.59
670.06	11728.01
670.41	11692.98
670.76	11741.57
671.109	11726.43
671.459	11712.64
671.808	11669.26
672.157	11701.8
672.507	11634.45
672.856	11671.06
673.205	11668.58
673.554	11679.42
673.904	11589.03
674.253	11667
674.602	11627.67
674.951	11473.78
675.3	11449.37
675.649	11541.58
675.998	11519.43
676.346	11567.11
676.695	11567.56
677.044	11513.33
677.393	11563.04
677.741	11476.04
678.09	11488.02
678.438	11484.18
678.787	11529.82
679.135	11488.24
679.484	11384.97
679.832	11494.12
680.181	11376.38
680.529	11480.79
680.877	11426.78
681.225	11360.79
681.573	11461.58
681.922	11317.4
682.27	11274.01
682.618	11281.92
682.966	11242.37
683.314	11274.46
683.661	11236.72
684.009	11185.43
684.357	11189.04
684.705	11084.64
685.053	11160.79
685.4	11100.46
685.748	11077.63
686.095	11003.28
686.443	11039.67
686.79	11027.24
687.138	11042.61
687.485	10955.6
687.832	10883.51
688.18	11047.8
688.527	10877.86
688.874	10888.94
689.221	10874.47
689.568	10816.85
689.915	10803.74
690.262	10754.7
690.609	10728.26
690.956	10730.52
691.303	10644.2
691.65	10669.96
691.997	10637.87
692.344	10554.03
692.69	10526.46
693.037	10549.74
693.383	10430.64
693.73	10509.74
694.077	10358.33
694.423	10331.21
694.769	10340.93
695.116	10340.02
695.462	10222.51
695.808	10217.77
696.155	10240.14
696.501	10182.29
696.847	10154.94
697.193	10073.37
697.539	10123.31
697.885	10065.23
698.231	10048.96
698.577	10040.37
698.923	9915.86
699.269	9883.99
699.614	9863.65
699.96	9813.26
700.306	9807.38
700.651	9758.35
700.997	9706.82
701.342	9657.56
701.688	9669.99
702.033	9655.75
702.379	9600.84
702.724	9584.56
703.069	9613.94
703.415	9423.66
703.76	9469.54
704.105	9452.36
704.45	9430.22
704.795	9389.09
705.14	9406.94
705.485	9265.02
705.83	9277.45
706.175	9289.88
706.52	9312.93
706.865	9168.53
707.209	9236.78
707.554	9098.93
707.899	9193.61
708.243	9111.13
708.588	9058.02
708.932	8992.94
709.277	9022.32
709.621	8986.39
709.966	9001.98
710.31	8986.39
710.654	8884.47
710.998	8882.44
711.342	8910.68
711.687	8851.48
712.031	8822.1
712.375	8769.9
712.719	8833.85
713.063	8782.78
713.407	8790.23
713.75	8724.7
714.094	8775.32
714.438	8723.34
714.782	8675.21
715.125	8650.8
715.469	8650.35
715.812	8649.67
716.156	8663.01
716.499	8608.54
716.843	8581.2
717.186	8524.25
717.53	8640.18
717.873	8527.87
718.216	8500.3
718.559	8499.85
718.902	8510.69
719.246	8517.25
719.589	8476.34
719.932	8447.87
720.275	8439.51
720.617	8462.11
720.96	8426.4
721.303	8390.02
721.646	8383.69
721.989	8355.44
722.331	8432.5
722.674	8414.88
723.016	8392.73
723.359	8380.53
723.701	8331.49
724.044	8298.27
724.386	8237.71
724.729	8374.88
725.071	8347.31
725.413	8250.14
725.755	8267.31
726.097	8279.29
726.439	8269.57
726.782	8299.17
727.124	8307.54
727.465	8212.17
727.807	8196.35
728.149	8250.36
728.491	8276.58
728.833	8270.7
729.175	8243.13
729.516	8222.11
729.858	8219.85
730.199	8211.27
730.541	8194.77
730.882	8204.49
731.224	8223.24
731.565	8214.88
731.906	8142.12
732.248	8258.72
732.589	8180.76
732.93	8153.64
733.271	8162.45
733.612	8115.22
733.953	8152.96
734.294	8181.21
734.635	8169.91
734.976	8188.67
735.317	8167.2
735.658	8111.16
735.999	8187.09
736.339	8209.69
736.68	8211.72
737.021	8206.52
737.361	8128.78
737.702	8197.48
738.042	8207.88
738.383	8188.22
738.723	8206.52
739.063	8236.8
739.404	8296.24
739.744	8258.95
740.084	8243.58
740.424	8263.92
740.764	8301.66
741.104	8282.23
741.444	8322.22
741.784	8311.38
742.124	8353.18
742.464	8365.84
742.804	8277.71
743.143	8346.86
743.483	8358.38
743.823	8309.34
744.162	8402.22
744.502	8452.16
744.841	8397.02
745.181	8500.3
745.52	8524.03
745.86	8514.31
746.199	8543.01
746.538	8603.12
746.877	8649.67
747.216	8691.71
747.556	8736
747.895	8760.63
748.234	8780.07
748.573	8922.89
748.911	8940.29
749.25	8926.05
749.589	8947.52
749.928	9061.19
750.267	9207.17
750.605	9241.3
750.944	9266.83
751.283	9328.98
751.621	9458.47
751.96	9490.1
752.298	9632.7
752.636	9661.17
752.975	9694.17
753.313	9818.68
753.651	9985.46
753.989	9968.51
754.327	10061.39
754.666	10220.71
755.004	10300.7
755.342	10456.41
755.679	10616.4
756.017	10728.94
756.355	10841.48
756.693	10930.74
757.031	11098.65
757.368	11185.88
757.706	11337.96
758.044	11424.74
758.381	11606.43
758.719	11716.49
759.056	11836.26
759.394	12058.85
759.731	12214.33
760.068	12287.77
760.405	12377.26
760.743	12612.28
761.08	12753.75
761.417	12894.08
761.754	13100.63
762.091	13275.77
762.428	13400.28
762.765	13444.12
763.102	13749.43
763.438	13809.09
763.775	13963.43
764.112	14164.33
764.449	14400.93
764.785	14405.91
765.122	14566.81
765.458	14644.32
765.795	14833.69
766.131	14905.1
766.467	15084.08
766.804	15188.71
767.14	15312.32
767.476	15530.4
767.812	15527.01
768.148	15820.78
768.485	15760.45
768.821	15913.44
769.157	16071.63
769.492	16206.99
769.828	16304.16
770.164	16377.38
770.5	16407.21
770.836	16653.76
771.171	16599.75
771.507	16702.8
771.842	16739.18
772.178	16840.64
772.513	16965.16
772.849	17084.03
773.184	17072.28
773.519	17219.62
773.855	17329.22
774.19	17235.89
774.525	17411.48
774.86	17399.95
775.195	17451.02
775.53	17603.56
775.865	17491.93
776.2	17539.84
776.535	17508.65
776.87	17636.56
777.205	17580.29
777.539	17678.81
777.874	17742.77
778.209	17692.83
778.543	17741.86
778.878	17785.7
779.212	17847.17
779.547	17753.16
779.881	17950.9
780.215	17856.21
780.55	17955.42
780.884	17878.81
781.218	17845.59
781.552	17981.86
781.886	17897.11
782.22	17905.25
782.554	17924.01
782.888	17817.34
783.222	17736.67
783.556	17751.58
783.889	17713.39
784.223	17703.45
784.557	17809.88
784.89	17763.78
785.224	17688.08
785.557	17667.29
785.891	17585.71
786.224	17695.31
786.558	17742.09
786.891	17559.72
787.224	17634.97
787.557	17541.64
787.891	17705.48
788.224	17642.21
788.557	17605.6
788.89	17535.54
789.223	17559.5
789.556	17378.48
789.888	17387.98
790.221	17443.79
790.554	17328.77
790.887	17290.12
791.219	17333.74
791.552	17411.25
791.884	17271.82
792.217	17245.38
792.549	17226.62
792.882	17107.53
793.214	16986.18
793.546	17088.32
793.879	16981.43
794.211	16924.48
794.543	17012.17
794.875	16999.96
795.207	17037.02
795.539	16928.78
795.871	16944.82
796.203	16786.86
796.535	16630.48
796.867	16794.77
797.198	16697.15
797.53	16637.26
797.862	16506.64
798.193	16662.8
798.525	16572.86
798.856	16613.53
799.188	16390.71
799.519	16223.49
799.85	16304.39
800.182	16398.4
800.513	16338.74
800.844	16184.39
801.175	16275.69
801.506	16358.62
801.837	16253.77
802.168	16183.49
802.499	16021.23
802.83	16071.63
803.161	15952.53
803.491	16045.41
803.822	16006.32
804.153	15870.73
804.483	15824.4
804.814	15739.66
805.145	15786.89
805.475	15753.22
805.805	15695.59
806.136	15690.62
806.466	15677.74
806.796	15588.25
807.126	15524.07
807.457	15581.47
807.787	15492.43
808.117	15488.14
808.447	15447.01
808.777	15420.57
809.107	15342.61
809.436	15313.45
809.766	15269.39
810.096	15258.77
810.426	15274.58
810.755	15219.67
811.085	15207.02
811.414	15135.38
811.744	15059.9
812.073	15086.57
812.403	15114.81
812.732	14981.94
813.061	14890.64
813.39	14887.7
813.719	14888.15
814.049	14992.78
814.378	14847.25
814.707	14816.74
815.036	14760.25
815.365	14696.75
815.693	14642.96
816.022	14744.43
816.351	14702.85
816.68	14582.85
817.008	14663.3
817.337	14430.09
817.665	14386.92
817.994	14494.49
818.322	14520.03
818.651	14394.16
818.979	14445.91
819.307	14407.94
819.636	14394.38
819.964	14350.09
820.292	14451.33
820.62	14427.83
820.948	14294.05
821.276	14363.87
821.604	14353.7
821.932	14316.42
822.259	14312.58
822.587	14361.61
822.915	14282.29
823.243	14300.6
823.57	14233.03
823.898	14350.77
824.225	14282.29
824.553	14242.97
824.88	14345.57
825.207	14293.59
825.535	14262.63
825.862	14353.03
826.189	14274.16
826.516	14402.29
826.843	14332.91
827.17	14363.42
827.497	14346.25
827.824	14346.25
828.151	14438
828.478	14339.69
828.805	14413.59
829.131	14352.35
829.458	14295.85
829.785	14222.63
830.111	14294.05
830.438	14342.41
830.764	14309.41
831.09	14360.94
831.417	14229.41
831.743	14376.53
832.069	14404.78
832.395	14302.41
832.722	14263.76
833.048	14272.8
833.374	14170.43
833.7	14202.07
834.026	14217.66
834.351	14283.2
834.677	14243.65
835.003	14234.39
835.329	14214.73
835.654	14220.83
835.98	14182.64
836.306	14181.96
836.631	14142.41
836.956	14173.37
837.282	14022.19
837.607	14080.94
837.932	13985.13
838.258	14044.33
838.583	14025.8
838.908	13860.61
839.233	13923.21
839.558	13882.3
839.883	13931.57
840.208	13772.25
840.533	13852.7
840.858	13826.26
841.182	13795.75
841.507	13814.51
841.832	13751.01
842.156	13721.18
842.481	13651.8
842.805	13656.32
843.13	13619.26
843.454	13628.3
843.778	13588.07
844.103	13542.88
844.427	13520.73
844.751	13478.02
845.075	13472.37
845.399	13473.5
845.723	13426.05
846.047	13311.02
846.371	13237.12
846.695	13179.95
847.019	13118.26
847.343	13153.96
847.666	13033.51
847.99	12988.54
848.313	12902.22
848.637	12954.87
848.96	12829.68
849.284	12866.51
849.607	12707.42
849.931	12717.59
850.254	12606.86
850.577	12553.3
850.9	12477.82
851.223	12589.01
851.546	12370.25
851.869	12341.1
852.192	12363.02
852.515	12261.1
852.838	12242.8
853.161	12224.72
853.483	12130.26
853.806	12119.64
854.129	12125.51
854.451	12086.42
854.774	11986.99
855.096	11935.01
855.419	11901.57
855.741	11945.41
856.063	11805.97
856.385	11805.75
856.708	11781.57
857.03	11683.72
857.352	11731.4
857.674	11686.88
857.996	11677.16
858.318	11568.24
858.64	11526.89
858.961	11527.56
859.283	11489.83
859.605	11416.83
859.926	11519.43
860.248	11458.19
860.57	11384.29
860.891	11421.35
861.212	11320.11
861.534	11274.24
861.855	11241.02
862.176	11282.15
862.498	11182.94
862.819	11262.49
863.14	11173.22
863.461	11164.86
863.782	11161.02
864.103	11208.48
864.424	11078.31
864.745	11132.09
865.065	11078.76
865.386	10969.61
865.707	11015.71
866.027	11050.51
866.348	10962.61
866.668	11013.23
866.989	10968.26
867.309	10904.98
867.63	10887.35
867.95	10917.64
868.27	10846.9
868.59	10859.56
868.91	10842.16
869.23	10810.07
869.55	10786.11
869.87	10829.28
870.19	10789.28
870.51	10767.58
870.83	10785.44
871.15	10730.07
871.469	10740.24
871.789	10741.37
872.109	10688.04
872.428	10606.01
872.748	10691.43
873.067	10629.06
873.386	10614.59
873.706	10631.32
874.025	10457.99
874.344	10574.37
874.663	10569.85
874.982	10494.14
875.301	10517.87
875.62	10477.2
875.939	10456.18
876.258	10491.66
876.577	10472.22
876.896	10451.89
877.214	10446.69
877.533	10387.03
877.852	10418.67
878.17	10304.77
878.489	10342.06
878.807	10314.04
879.125	10291.21
879.444	10262.29
879.762	10263.42
880.08	10270.65
880.398	10225.23
880.716	10240.14
881.034	10269.74
881.352	10205.34
881.67	10089.64
881.988	10059.81
882.306	10127.6
882.624	10069.75
882.941	10037.21
883.259	9920.6
883.577	9973.48
883.894	9938.45
884.212	9907.27
884.529	9969.19
884.846	9880.15
885.164	9858.23
885.481	9826.37
885.798	9911.79
886.115	9796.76
886.432	9833.6
886.75	9774.16
887.067	9778.01
887.383	9797.67
887.7	9726.03
888.017	9703.21
888.334	9676.54
888.651	9662.53
888.967	9641.51
889.284	9594.73
889.6	9555.86
889.917	9510.67
890.233	9534.62
890.55	9423.44
890.866	9413.72
891.182	9459.82
891.498	9381.18
891.815	9359.26
892.131	9312.48
892.447	9338.02
892.763	9324.46
893.079	9302.31
893.395	9252.14
893.71	9208.53
894.026	9206.27
894.342	9162.43
894.657	9128.98
894.973	9096.89
895.289	9073.62
895.604	9059.38
895.92	8983.45
896.235	8913.62
896.55	8962.43
896.865	8888.99
897.181	8856.22
897.496	8891.02
897.811	8817.58
898.126	8788.2
898.441	8705.49
898.756	8696.45
899.071	8731.03
899.386	8658.49
899.7	8602.22
900.015	8584.82
900.33	8489.68
900.644	8515.67
900.959	8543.24
901.273	8486.29
901.588	8452.62
901.902	8388.89
902.216	8382.34
902.531	8323.35
902.845	8283.13
903.159	8224.83
903.473	8258.5
903.787	8218.95
904.101	8195.45
904.415	8134.88
904.729	8143.92
905.042	8120.65
905.356	8069.12
905.67	8011.5
905.984	8064.15
906.297	7985.74
906.611	7944.38
906.924	7926.3
907.237	7899.64
907.551	7846.3
907.864	7825.74
908.177	7769.92
908.491	7758.17
908.804	7731.96
909.117	7724.5
909.43	7672.98
909.743	7593.88
910.056	7597.27
910.368	7581
910.681	7512.53
910.994	7556.37
911.307	7474.79
911.619	7434.79
911.932	7373.55
912.244	7351.4
912.557	7356.6
912.869	7274.79
913.181	7221.24
913.494	7265.98
913.806	7249.48
914.118	7167.9
914.43	7149.6
914.742	7161.58
915.054	7100.79
915.366	7035.25
915.678	7016.5
915.99	7018.3
916.302	6967.68
916.613	6913.9
916.925	6960.9
917.236	6860.57
917.548	6831.87
917.859	6880
918.171	6825.09
918.482	6810.63
918.794	6771.98
919.105	6764.53
919.416	6708.93
919.727	6689.27
920.038	6703.06
920.349	6616.96
920.66	6610.41
920.971	6617.18
921.282	6576.73
921.593	6511.65
921.903	6444.31
922.214	6457.64
922.525	6428.72
922.835	6441.6
923.146	6393.69
923.456	6384.42
923.767	6330.64
924.077	6334.71
924.387	6254.48
924.697	6244.77
925.008	6218.33
925.318	6174.71
925.628	6201.83
925.938	6157.54
926.248	6154.37
926.558	6134.49
926.867	6140.36
927.177	6139.68
927.487	6065.11
927.796	5964.09
928.106	5959.57
928.416	5919.12
928.725	5964.77
929.034	5935.39
929.344	5962.06
929.653	5888.62
929.962	5850.43
930.271	5790.09
930.581	5818.34
930.89	5748.28
931.199	5759.13
931.508	5752.12
931.817	5727.49
932.125	5672.8
932.434	5675.29
932.743	5574.27
933.051	5618.34
933.36	5614.73
933.669	5506.25
933.977	5535.41
934.286	5533.15
934.594	5489.98
934.902	5449.08
935.21	5404.56
935.519	5369.08
935.827	5428.74
936.135	5368.4
936.443	5379.93
936.751	5334.96
937.059	5286.37
937.367	5266.94
937.674	5303.32
937.982	5261.97
938.29	5216.32
938.597	5232.81
938.905	5180.84
939.213	5122.08
939.52	5122.99
939.827	5151.23
940.135	5088.64
940.442	5045.47
940.749	5082.54
941.056	5041.86
941.363	4981.97
941.67	4996.89
941.977	4955.99
942.284	4917.57
942.591	4919.6
942.898	4887.06
943.205	4872.15
943.511	4827.18
943.818	4823.11
944.125	4820.17
944.431	4849.1
944.738	4759.15
945.044	4741.98
945.35	4675.99
945.657	4679.83
945.963	4658.59
946.269	4663.34
946.575	4679.38
946.881	4633.06
947.187	4651.81
947.493	4575.66
947.799	4585.37
948.105	4572.27
948.41	4532.49
948.716	4525.49
949.022	4466.96
949.327	4492.49
949.633	4459.28
949.938	4450.24
950.244	4474.64
950.549	4381.54
950.854	4365.04
951.16	4393.74
951.465	4357.13
951.77	4346.96
952.075	4328.88
952.38	4248.21
952.685	4261.77
952.99	4258.83
953.294	4211.37
953.599	4226.97
953.904	4164.59
954.209	4159.62
954.513	4189.9
954.818	4094.77
955.122	4120.3
955.426	4104.93
955.731	4107.87
956.035	4094.99
956.339	4085.5
956.643	4042.34
956.948	4033.98
957.252	4002.11
957.556	3986.07
957.86	4030.59
958.163	3941.1
958.467	3948.33
958.771	3911.04
959.075	3923.02
959.378	3881.21
959.682	3940.19
959.985	3887.54
960.289	3861.55
960.592	3823.81
960.896	3810.7
961.199	3813.19
961.502	3741.55
961.805	3767.99
962.108	3752.63
962.411	3696.58
962.714	3730.48
963.017	3677.6
963.32	3693.42
963.623	3699.3
963.926	3631.27
964.228	3652.06
964.531	3618.17
964.833	3597.15
965.136	3585.63
965.438	3595.12
965.741	3558.73
966.043	3526.87
966.345	3561.67
966.648	3514.67
966.95	3515.12
967.252	3459.53
967.554	3499.07
967.856	3471.5
968.158	3468.79
968.46	3432.41
968.761	3386.08
969.063	3402.13
969.365	3367.55
969.666	3385.18
969.968	3339.08
970.269	3328.23
970.571	3310.83
970.872	3293.66
971.174	3249.82
971.475	3268.8
971.776	3274.45
972.077	3265.86
972.378	3194.45
972.679	3238.74
972.98	3186.31
973.281	3214.56
973.582	3171.85
973.883	3152.42
974.183	3135.92
974.484	3129.59
974.785	3129.14
975.085	3113.77
975.386	3141.12
975.686	3108.35
975.986	3083.49
976.287	3069.71
976.587	3060.44
976.887	3020.44
977.187	3048.24
977.487	2992.65
977.787	2969.15
978.087	2985.64
978.387	2972.31
978.687	2969.6
978.987	2965.08
979.286	2910.62
979.586	2935.02
979.885	2890.5
980.185	2902.03
980.484	2883.5
980.784	2844.18
981.083	2834.91
981.382	2808.7
981.682	2815.7
981.981	2795.14
982.28	2798.08
982.579	2746.55
982.878	2769.6
983.177	2743.39
983.475	2749.04
983.774	2759.43
984.073	2718.53
984.372	2681.7
984.67	2705.2
984.969	2719.43
985.267	2669.72
985.566	2660.9
985.864	2646.44
986.162	2649.15
986.461	2621.81
986.759	2628.14
987.057	2572.09
987.355	2608.48
987.653	2585.43
987.951	2574.13
988.249	2521.93
988.547	2541.36
988.844	2517.63
989.142	2518.76
989.44	2504.52
989.737	2495.26
990.035	2515.82
990.332	2489.61
990.63	2462.72
990.927	2464.07
991.224	2456.39
991.521	2445.09
991.819	2417.75
992.116	2419.78
992.413	2393.79
992.71	2406.45
993.006	2401.93
993.303	2370.74
993.6	2378.43
993.897	2325.09
994.193	2313.34
994.49	2321.48
994.787	2285.77
995.083	2310.18
995.379	2257.53
995.676	2280.12
995.972	2265.43
996.268	2265.89
996.565	2245.55
996.861	2245.77
997.157	2234.93
997.453	2208.94
997.749	2203.52
998.044	2203.74
998.34	2162.84
998.636	2163.06
998.932	2156.96
999.227	2147.7
999.523	2147.02
999.818	2112.44
1000.114	2098.89
1000.409	2090.3
1000.704	2089.85
1001	2093.91
1001.295	2091.65
1001.59	2077.19
1001.885	2066.12
1002.18	2014.14
1002.475	2022.05
1002.77	2019.57
1003.065	2004.2
1003.359	1983.41
1003.654	1972.11
1003.949	1991.32
1004.243	1962.17
1004.538	1946.57
1004.832	1951.09
1005.127	1946.35
1005.421	1916.52
1005.715	1912.45
1006.009	1943.64
1006.304	1886.69
1006.598	1877.42
1006.892	1857.31
1007.186	1828.61
1007.48	1863.86
1007.773	1820.47
1008.067	1829.97
1008.361	1803.07
1008.655	1816.18
1008.948	1766.24
1009.242	1812.79
1009.535	1757.65
1009.829	1770.98
1010.122	1727.82
1010.415	1749.74
1010.708	1724.66
1011.001	1713.13
1011.295	1704.32
1011.588	1693.92
1011.881	1684.21
1012.173	1687.37
1012.466	1664.55
1012.759	1663.19
1013.052	1692.34
1013.344	1624.32
1013.637	1631.78
1013.93	1640.59
1014.222	1614.6
1014.514	1600.82
1014.807	1581.61
1015.099	1592.01
1015.391	1561.5
1015.683	1562.18
1015.976	1569.86
1016.268	1559.01
1016.56	1528.96
1016.851	1568.96
1017.143	1535.51
1017.435	1512.91
1017.727	1514.27
1018.018	1495.96
1018.31	1470.65
1018.602	1474.95
1018.893	1472.46
1019.185	1500.26
1019.476	1426.36
1019.767	1464.78
1020.058	1424.78
1020.35	1437.43
1020.641	1418.45
1020.932	1394.5
1021.223	1381.84
1021.514	1366.7
1021.804	1400.15
1022.095	1363.09
1022.386	1348.62
1022.677	1362.86
1022.967	1337.55
1023.258	1330.09
1023.548	1341.39
1023.839	1297.32
1024.129	1323.76
1024.419	1300.49
1024.709	1276.08
1025	1297.55
1025.29	1263.2
1025.58	1265.24
1025.87	1246.25
1026.16	1274.5
1026.449	1254.61
1026.739	1234.5
1027.029	1253.03
1027.319	1182.3
1027.608	1208.97
1027.898	1205.58
1028.187	1192.02
1028.477	1198.8
1028.766	1167.84
1029.055	1159.93
1029.344	1154.05
1029.634	1129.42
1029.923	1146.37
1030.212	1149.76
1030.501	1130.32
1030.79	1147.72
1031.078	1123.09
1031.367	1098.23
1031.656	1124.22
1031.945	1082.42
1032.233	1094.84
1032.522	1069.31
1032.81	1082.64
1033.099	1087.84
1033.387	1051
1033.675	1070.21
1033.963	1050.55
1034.251	1058.01
1034.54	1041.96
1034.828	1031.12
1035.116	1022.08
1035.403	1013.26
1035.691	1038.57
1035.979	997.45
1036.267	991.12
1036.554	988.63
1036.842	1006.03
1037.129	987.5
1037.417	983.89
1037.704	968.07
1037.992	953.15
1038.279	943.66
1038.566	942.08
1038.853	942.08
1039.14	942.08
