Data from hue_80_FLMS001491_27.txt Node
Date: Mon Feb 06 15:22:44 GMT 2017
User: dcchb
Spectrometer: FLMS00149
Trigger mode: 0
Integration Time (sec): 2.000000E-2
Scans to average: 10
Electric dark correction enabled: true
Nonlinearity correction enabled: false
Boxcar width: 0
XAxis mode: Wavelengths
Number of Pixels in Spectrum: 2048
>>>>>Begin Spectral Data<<<<<
341.393	-24.41
341.776	-24.41
342.16	-24.41
342.543	-65.76
342.927	-56.5
343.31	-61.47
343.693	-53.11
344.077	-60.11
344.46	-57.85
344.843	-59.89
345.226	-57.85
345.61	-18.53
345.993	-27.34
346.376	-6.78
346.759	0
347.142	27.34
347.525	41.13
347.908	47.23
348.291	69.38
348.674	89.26
349.057	128.58
349.44	116.38
349.823	142.37
350.206	167.45
350.588	210.16
350.971	206.55
351.354	233.21
351.737	204.74
352.119	249.71
352.502	251.07
352.884	262.37
353.267	289.03
353.65	291.74
354.032	272.31
354.414	283.61
354.797	302.59
355.179	316.6
355.562	322.48
355.944	341.91
356.326	326.77
356.709	341.01
357.091	344.85
357.473	347.34
357.855	337.84
358.238	352.99
358.62	321.12
359.002	328.58
359.384	339.2
359.766	334
360.148	327.9
360.53	342.14
360.912	356.15
361.294	320.9
361.676	330.16
362.057	330.16
362.439	333.32
362.821	358.18
363.203	336.04
363.584	341.46
363.966	317.96
364.348	324.74
364.729	329.03
365.111	300.78
365.493	319.99
365.874	314.12
366.256	295.81
366.637	314.34
367.019	308.01
367.4	310.5
367.781	320.44
368.163	313.66
368.544	309.14
368.925	324.96
369.306	313.89
369.688	299.65
370.069	307.34
370.45	311.86
370.831	328.58
371.212	300.78
371.593	297.17
371.974	292.65
372.355	312.08
372.736	328.35
373.117	316.38
373.498	305.75
373.879	301.46
374.26	309.82
374.641	324.29
375.021	306.88
375.402	310.05
375.783	316.38
376.163	314.57
376.544	320.44
376.925	326.09
377.305	331.52
377.686	304.17
378.066	326.09
378.447	317.96
378.827	321.35
379.208	319.31
379.588	344.4
379.968	302.82
380.349	324.51
380.729	335.13
381.109	314.79
381.489	343.04
381.87	328.35
382.25	338.07
382.63	329.93
383.01	345.98
383.39	320.67
383.77	334.91
384.15	342.59
384.53	326.55
384.91	335.13
385.29	340.33
385.67	343.04
386.049	341.91
386.429	339.2
386.809	328.35
387.189	359.99
387.568	341.46
387.948	348.92
388.328	345.53
388.707	348.92
389.087	343.04
389.466	357.05
389.846	375.81
390.225	360.44
390.605	360.22
390.984	362.25
391.363	363.15
391.743	345.3
392.122	338.75
392.501	366.54
392.881	358.63
393.26	384.62
393.639	366.32
394.018	343.04
394.397	369.03
394.776	395.47
395.155	371.97
395.534	360.89
395.913	381.68
396.292	376.94
396.671	351.86
397.05	377.84
397.429	371.74
397.808	367.45
398.186	355.24
398.565	373.32
398.944	390.27
399.323	392.53
399.701	371.74
400.08	366.32
400.458	383.49
400.837	376.49
401.215	394.11
401.594	401.35
401.972	392.31
402.351	391.85
402.729	398.18
403.107	404.06
403.486	398.41
403.864	404.74
404.242	398.63
404.62	411.51
404.999	401.12
405.377	419.42
405.755	419.42
406.133	416.71
406.511	391.18
406.889	414
407.267	417.62
407.645	392.31
408.023	424.85
408.401	410.16
408.779	435.02
409.156	434.34
409.534	412.19
409.912	431.18
410.29	434.11
410.667	437.28
411.045	430.95
411.422	440.44
411.8	430.72
412.178	442.47
412.555	436.37
412.933	431.85
413.31	442.25
413.687	458.97
414.065	452.42
414.442	436.15
414.819	456.03
415.197	473.43
415.574	465.75
415.951	486.31
416.328	478.86
416.705	488.57
417.082	474.56
417.46	463.94
417.837	498.52
418.214	484.06
418.591	481.8
418.967	484.06
419.344	505.3
419.721	509.14
420.098	487.22
420.475	492.19
420.852	475.69
421.228	496.26
421.605	510.72
421.982	513.66
422.358	489.48
422.735	517.95
423.111	508.01
423.488	532.42
423.864	523.38
424.241	524.51
424.617	528.12
424.994	530.16
425.37	552.98
425.746	507.78
426.123	536.71
426.499	533.09
426.875	540.1
427.251	558.4
427.627	562.47
428.003	574.45
428.379	554.34
428.756	585.97
429.132	577.84
429.507	584.17
429.883	577.39
430.259	571.06
430.635	611.28
431.011	583.26
431.387	597.95
431.763	580.1
432.138	618.51
432.514	612.87
432.89	628.68
433.265	601.34
433.641	635.24
434.016	614.9
434.392	617.84
434.767	637.5
435.143	656.25
435.518	655.12
435.894	658.74
436.269	643.37
436.644	652.86
437.02	660.55
437.395	680.66
437.77	684.5
438.145	681.34
438.52	692.64
438.895	699.42
439.271	678.63
439.646	698.29
440.021	707.55
440.395	688.57
440.77	712.07
441.145	710.49
441.52	726.53
441.895	710.04
442.27	739.87
442.645	751.17
443.019	737.38
443.394	742.58
443.769	742.13
444.143	741.9
444.518	745.74
444.892	738.29
445.267	761.79
445.641	764.73
446.016	781.22
446.39	758.62
446.764	765.63
447.139	764.5
447.513	751.39
447.887	773.76
448.262	775.8
448.636	809.24
449.01	799.08
449.384	805.85
449.758	821.45
450.132	804.05
450.506	816.93
450.88	838.4
451.254	812.63
451.628	844.05
452.002	829.58
452.376	855.34
452.75	857.15
453.123	875.01
453.497	873.42
453.871	858.51
454.244	899.64
454.618	907.32
454.992	885.17
455.365	910.03
455.739	928.11
456.112	935.34
456.486	969.24
456.859	944.83
457.232	968.79
457.606	988.9
457.979	978.28
458.352	1004.95
458.725	1022.35
459.099	1015.57
459.472	1019.41
459.845	1017.6
460.218	1026.87
460.591	1044.04
460.964	1064.15
461.337	1086.98
461.71	1095.34
462.083	1115.68
462.456	1105.06
462.829	1118.84
463.201	1128.78
463.574	1110.71
463.947	1142.34
464.32	1178.5
464.692	1185.28
465.065	1195.67
465.438	1225.5
465.81	1255.11
466.183	1266.18
466.555	1277.93
466.928	1290.59
467.3	1317.03
467.672	1291.04
468.045	1348.67
468.417	1344.37
468.789	1360.87
469.161	1400.87
469.534	1423.92
469.906	1455.33
470.278	1464.59
470.65	1500.3
471.022	1541.43
471.394	1522.45
471.766	1545.27
472.138	1588.88
472.51	1636.79
472.882	1683.8
473.253	1686.51
473.625	1704.14
473.997	1783.91
474.369	1830.69
474.74	1851.02
475.112	1859.84
475.484	1919.95
475.855	1982.09
476.227	2009.89
476.598	2088.53
476.97	2088.98
477.341	2178.47
477.713	2212.6
478.084	2246.95
478.455	2361.75
478.827	2416.89
479.198	2501.63
479.569	2502.31
479.94	2581.63
480.311	2636.99
480.682	2723.77
481.053	2784.56
481.424	2919.92
481.795	2966.93
482.166	3080.6
482.537	3126.47
482.908	3230.42
483.279	3292.79
483.65	3378.89
484.021	3497.99
484.391	3550.87
484.762	3683.74
485.133	3744.08
485.503	3851.42
485.874	3968.71
486.244	4068.59
486.615	4182.04
486.985	4286.67
487.356	4445.08
487.726	4515.81
488.097	4659.31
488.467	4731.63
488.837	4894.56
489.207	5012.98
489.578	5178.39
489.948	5283.7
490.318	5388.11
490.688	5537.26
491.058	5658.38
491.428	5786.97
491.798	5933.86
492.168	6043.46
492.538	6200.29
492.908	6310.79
493.278	6405.71
493.648	6529.77
494.017	6717.11
494.387	6830.33
494.757	6939.93
495.126	7070.1
495.496	7199.13
495.866	7333.59
496.235	7419.92
496.605	7539.46
496.974	7730.64
497.344	7863.75
497.713	7949.17
498.082	8059.22
498.452	8231.42
498.821	8291.53
499.19	8442.49
499.559	8562.49
499.928	8686.78
500.298	8813.55
500.667	8891.97
501.036	8945.08
501.405	9139.65
501.774	9208.57
502.143	9270.49
502.512	9476.81
502.88	9522.01
503.249	9623.02
503.618	9795.22
503.987	9828.22
504.356	9961.55
504.724	10041.09
505.093	10163.8
505.462	10199.73
505.83	10372.61
506.199	10467.75
506.567	10608.99
506.936	10658.7
507.304	10774.63
507.672	10816.44
508.041	10890.11
508.409	11046.26
508.777	11173.27
509.145	11188.41
509.514	11234.05
509.882	11441.06
510.25	11425.91
510.618	11518.12
510.986	11603.31
511.354	11735.96
511.722	11871.33
512.09	11956.75
512.458	11928.95
512.826	12088.5
513.193	12111.32
513.561	12206.01
513.929	12319.68
514.297	12371.65
514.664	12475.6
515.032	12491.65
515.4	12652.1
515.767	12733.45
516.135	12797.18
516.502	12629.05
516.869	12934.35
517.237	12940.9
517.604	12898.19
517.972	13057.28
518.339	13102.03
518.706	13157.17
519.073	13201.69
519.44	13318.75
519.808	13374.56
520.175	13380.67
520.542	13562.36
520.909	13570.72
521.276	13683.93
521.643	13655.46
522.009	13791.28
522.376	13840.77
522.743	13801.67
523.11	14038.5
523.477	14116.69
523.843	14187.2
524.21	14263.81
524.577	14285.5
524.943	14368.44
525.31	14369.11
525.676	14525.72
526.043	14558.49
526.409	14631.03
526.776	14768.2
527.142	14750.8
527.508	14768.43
527.874	14829.21
528.241	14921.42
528.607	14945.37
528.973	15009.1
529.339	15040.73
529.705	15117.57
530.071	15141.52
530.437	15214.29
530.803	15249.32
531.169	15278.47
531.535	15199.15
531.901	15234.63
532.267	15301.29
532.632	15393.04
532.998	15329.54
533.364	15431.23
533.73	15368.64
534.095	15478.92
534.461	15515.07
534.826	15522.3
535.192	15561.62
535.557	15641.4
535.923	15564.56
536.288	15562.08
536.653	15651.57
537.019	15525.24
537.384	15568.18
537.749	15689.76
538.114	15559.59
538.479	15633.26
538.845	15657.89
539.21	15562.75
539.575	15609.08
539.94	15534.51
540.305	15664.67
540.67	15646.37
541.034	15592.58
541.399	15530.89
541.764	15601.17
542.129	15648.4
542.494	15673.26
542.858	15674.84
543.223	15620.15
543.587	15713.03
543.952	15677.78
544.316	15596.65
544.681	15635.3
545.045	15646.82
545.41	15652.47
545.774	15680.94
546.138	15621.06
546.503	15607.05
546.867	15537.22
547.231	15625.58
547.595	15711.23
547.959	15569.08
548.324	15585.13
548.688	15575.64
549.052	15671.9
549.416	15584
549.779	15649.98
550.143	15519.59
550.507	15570.89
550.871	15650.89
551.235	15488.86
551.599	15602.98
551.962	15636.65
552.326	15672.13
552.689	15584.45
553.053	15555.75
553.417	15596.88
553.78	15780.15
554.143	15540.61
554.507	15627.61
554.87	15658.57
555.234	15668.06
555.597	15525.47
555.96	15658.35
556.323	15674.62
556.686	15682.53
557.05	15667.38
557.413	15691.34
557.776	15651.57
558.139	15759.81
558.502	15786.48
558.865	15749.87
559.228	15811.34
559.59	15847.04
559.953	15835.52
560.316	15999.58
560.679	15949.64
561.041	15999.35
561.404	16088.62
561.767	16068.5
562.129	16037.09
562.492	16044.1
562.854	16104.66
563.217	16121.84
563.579	16032.35
563.941	16123.42
564.304	16171.78
564.666	16225.11
565.028	16244.32
565.39	16285
565.753	16307.82
566.115	16383.3
566.477	16414.94
566.839	16473.69
567.201	16479.79
567.563	16489.74
567.925	16417.65
568.287	16534.25
568.648	16568.83
569.01	16620.58
569.372	16660.13
569.734	16577.87
570.095	16744.42
570.457	16673.91
570.819	16774.93
571.18	16851.99
571.542	16882.95
571.903	16793.68
572.265	16986.67
572.626	16896.73
572.987	16926.56
573.349	16909.84
573.71	16954.36
574.071	16985.77
574.432	16980.34
574.794	17166.78
575.155	17083.39
575.516	17077.07
575.877	17069.16
576.238	17166.55
576.599	17150.96
576.96	17159.1
577.32	17165.65
577.681	17214.69
578.042	17248.13
578.403	17194.12
578.763	17239.55
579.124	17256.72
579.485	17357.28
579.845	17275.48
580.206	17244.97
580.566	17257.85
580.927	17296.49
581.287	17375.14
581.648	17294.46
582.008	17298.75
582.368	17292.43
582.728	17244.52
583.089	17282.03
583.449	17243.61
583.809	17244.97
584.169	17191.19
584.529	17190.06
584.889	17285.65
585.249	17257.17
585.609	17198.42
585.969	17312.77
586.329	17312.31
586.688	17304.18
587.048	17178.53
587.408	17256.72
587.768	17168.81
588.127	17247.23
588.487	17178.53
588.846	17274.57
589.206	17153.67
589.565	17207.01
589.925	17309.15
590.284	17161.81
590.643	17210.85
591.003	17146.89
591.362	17283.84
591.721	17203.84
592.08	17279.77
592.44	17292.2
592.799	17287.91
593.158	17197.06
593.517	17276.83
593.876	17130.62
594.235	17109.38
594.593	17223.73
594.952	17171.75
595.311	17153.22
595.67	17157.51
596.029	17252.2
596.387	17157.29
596.746	17244.07
597.104	17087.69
597.463	17159.1
597.822	17223.05
598.18	17154.58
598.538	17215.82
598.897	17243.16
599.255	17150.06
599.613	17293.1
599.972	17136.95
600.33	17198.19
600.688	17196.16
601.046	17197.51
601.404	17345.76
601.762	17193.9
602.12	17355.25
602.478	17323.84
602.836	17202.94
603.194	17191.19
603.552	17279.09
603.91	17135.14
604.268	17229.6
604.625	17113.22
604.983	17266.66
605.341	17132.43
605.698	17274.12
606.056	17404.51
606.413	17258.76
606.771	17355.93
607.128	17375.14
607.485	17273.44
607.843	17286.1
608.2	17372.65
608.557	17547.11
608.914	17413.55
609.272	17494.68
609.629	17437.96
609.986	17592.98
610.343	17411.07
610.7	17541.01
611.057	17483.16
611.414	17503.49
611.771	17536.94
612.127	17625.53
612.484	17577.62
612.841	17637.73
613.198	17568.13
613.554	17575.81
613.911	17648.12
614.267	17667.33
614.624	17575.81
614.98	17743.94
615.337	17785.3
615.693	17685.86
616.05	17689.03
616.406	17725.64
616.762	17717.73
617.118	17655.35
617.475	17830.94
617.831	17811.28
618.187	17809.02
618.543	17875.91
618.899	17886.76
619.255	17885.63
619.611	17904.84
619.967	17864.62
620.323	17889.47
620.678	17876.82
621.034	17786.88
621.39	17796.82
621.746	17893.09
622.101	18027.1
622.457	17938.74
622.812	17887.67
623.168	17967.21
623.523	17977.38
623.879	17999.98
624.234	17893.09
624.589	17992.3
624.945	18017.61
625.3	17992.07
625.655	17986.65
626.01	17997.94
626.365	18001.79
626.72	17941
627.075	17910.94
627.43	17884.5
627.785	17814.9
628.14	17920.43
628.495	17930.6
628.85	17956.36
629.205	17926.99
629.559	17972.63
629.914	17961.11
630.269	17946.42
630.623	17848.8
630.978	17825.07
631.332	17951.62
631.687	18013.54
632.041	17828.01
632.396	17797.27
632.75	17898.96
633.104	17893.54
633.459	17719.76
633.813	17744.17
634.167	17679.08
634.521	17738.97
634.875	17714.34
635.229	17673.21
635.583	17588.01
635.937	17546.43
636.291	17669.37
636.645	17617.84
636.999	17516.38
637.352	17618.75
637.706	17513.21
638.06	17648.12
638.413	17455.59
638.767	17425.3
639.121	17489.26
639.474	17419.2
639.828	17364.06
640.181	17527.67
640.534	17531.29
640.888	17333.1
641.241	17330.62
641.594	17400.22
641.947	17397.06
642.301	17379.88
642.654	17442.93
643.007	17372.88
643.36	17367.9
643.713	17386.66
644.066	17377.17
644.419	17338.98
644.771	17186.44
645.124	16931.31
645.477	16931.53
645.83	16929.27
646.182	16804.76
646.535	16776.51
646.888	16712.33
647.24	16656.29
647.593	16770.63
647.945	16743.29
648.298	16680.47
648.65	16596.63
649.002	16589.62
649.355	16806.56
649.707	16696.96
650.059	16718.43
650.411	16877.3
650.763	16957.29
651.115	17187.34
651.467	17079.32
651.819	17174.69
652.171	17089.95
652.523	17104.41
652.875	17013.79
653.227	16937.41
653.578	17073.68
653.93	17013.11
654.282	16991.87
654.633	16933.57
654.985	17022.38
655.337	17114.35
655.688	16962.72
656.039	17115.93
656.391	16998.2
656.742	17034.35
657.094	17013.11
657.445	17032.55
657.796	17000
658.147	16945.09
658.498	16905.09
658.849	16955.03
659.2	17106.67
659.551	16935.83
659.902	17003.39
660.253	16985.32
660.604	17062.38
660.955	16922.49
661.306	17024.86
661.656	17021.93
662.007	17005.2
662.358	17054.69
662.708	17012.43
663.059	17018.54
663.409	16908.03
663.76	17157.74
664.11	17050.17
664.461	17139.89
664.811	17060.79
665.161	17066.9
665.511	17077.29
665.862	17082.49
666.212	17171.3
666.562	17107.8
666.912	17036.84
667.262	17073.68
667.612	17022.6
667.962	17045.43
668.312	17104.86
668.662	17056.5
669.011	17008.37
669.361	17066.22
669.711	17014.92
670.06	17012.21
670.41	16948.03
670.76	16932.89
671.109	17030.06
671.459	17002.04
671.808	16929.5
672.157	17021.25
672.507	16896.73
672.856	16783.97
673.205	16949.61
673.554	17006.78
673.904	16807.47
674.253	17023.28
674.602	16924.98
674.951	16619.9
675.3	16612.44
675.649	16787.58
675.998	16840.01
676.346	16885.66
676.695	16932.21
677.044	16674.36
677.393	16731.99
677.741	16847.47
678.09	16725.89
678.438	16783.29
678.787	16797.3
679.135	16776.51
679.484	16564.54
679.832	16663.97
680.181	16537.19
680.529	16666.45
680.877	16546.01
681.225	16590.75
681.573	16642.95
681.922	16537.19
682.27	16487.93
682.618	16619.9
682.966	16373.58
683.314	16386.69
683.661	16387.59
684.009	16299.23
684.357	16254.26
684.705	16283.87
685.053	16219.46
685.4	16223.3
685.748	16129.97
686.095	16047.04
686.443	16034.15
686.79	16053.14
687.138	16049.52
687.485	16078
687.832	15965.68
688.18	15926.36
688.527	15835.74
688.874	15826.48
689.221	15848.85
689.568	15831.9
689.915	15821.5
690.262	15683.43
690.609	15638.68
690.956	15614.28
691.303	15608.86
691.65	15481.63
691.997	15562.75
692.344	15373.16
692.69	15467.16
693.037	15425.13
693.383	15202.31
693.73	15287.73
694.077	15169.32
694.423	15210.67
694.769	15069.89
695.116	15066.95
695.462	15003.9
695.808	14957.8
696.155	14943.11
696.501	14894.75
696.847	14877.8
697.193	14729.56
697.539	14798.48
697.885	14676.9
698.231	14645.49
698.577	14572.72
698.923	14464.93
699.269	14538.83
699.614	14423.8
699.96	14355.78
700.306	14365.95
700.651	14306.97
700.997	14301.77
701.342	14211.38
701.688	14135.45
702.033	14191.27
702.379	14102
702.724	14081.44
703.069	14058.84
703.415	13939.29
703.76	13846.64
704.105	13868.56
704.45	13882.35
704.795	13764.16
705.14	13726.87
705.485	13668.34
705.83	13652.3
706.175	13693.2
706.52	13583.15
706.865	13578.63
707.209	13580.21
707.554	13522.81
707.899	13512.87
708.243	13396.71
708.588	13350.61
708.932	13282.59
709.277	13306.77
709.621	13253.44
709.966	13169.6
710.31	13154.91
710.654	13120.78
710.998	13010.96
711.342	13003.5
711.687	12939.09
712.031	12972.09
712.375	12883.73
712.719	12927.12
713.063	12891.41
713.407	12956.5
713.75	12828.59
714.094	12754.92
714.438	12741.59
714.782	12848.7
715.125	12714.24
715.469	12735.48
715.812	12681.93
716.156	12613.68
716.499	12654.13
716.843	12722.6
717.186	12478.09
717.53	12685.54
717.873	12624.98
718.216	12628.82
718.559	12489.84
718.902	12403.97
719.246	12533.23
719.589	12464.08
719.932	12411.2
720.275	12429.05
720.617	12417.3
720.96	12288.26
721.303	12384.99
721.646	12370.07
721.989	12289.85
722.331	12368.04
722.674	12317.19
723.016	12354.03
723.359	12313.57
723.701	12329.62
724.044	12258.89
724.386	12105.67
724.729	12189.28
725.071	12214.82
725.413	12229.06
725.755	12090.53
726.097	12160.36
726.439	12120.59
726.782	12170.98
727.124	12179.34
727.465	11996.75
727.807	12170.98
728.149	12009.18
728.491	12090.3
728.833	12105.44
729.175	12041.72
729.516	11989.29
729.858	12065.67
730.199	11953.81
730.541	12024.77
730.882	11962.62
731.224	12016.41
731.565	11928.73
731.906	11978.67
732.248	11963.08
732.589	11996.52
732.93	11873.36
733.271	11987.03
733.612	12004.66
733.953	11945.22
734.294	11941.15
734.635	11952.91
734.976	11917.2
735.317	11918.56
735.658	11918.78
735.999	11950.65
736.339	11867.48
736.68	11946.58
737.021	12007.37
737.361	11891.44
737.702	11963.08
738.042	11913.36
738.383	11917.65
738.723	11990.65
739.063	11879.46
739.404	11933.7
739.744	11894.6
740.084	11961.95
740.424	11950.19
740.764	11914.94
741.104	11944.32
741.444	11902.74
741.784	11950.87
742.124	11924.21
742.464	11966.01
742.804	12017.54
743.143	12004.66
743.483	11978.22
743.823	12030.64
744.162	12057.99
744.502	12133.92
744.841	12088.04
745.181	12222.05
745.52	12138.21
745.86	12209.62
746.199	12204.2
746.538	12271.09
746.877	12328.72
747.216	12377.08
747.556	12396.96
747.895	12444.42
748.234	12364.19
748.573	12524.19
748.911	12506.11
749.25	12606.22
749.589	12618.88
749.928	12718.54
750.267	12819.1
750.605	12812.09
750.944	12867.68
751.283	12996.95
751.621	12992.88
751.96	13043.72
752.298	13046.66
752.636	13139.77
752.975	13303.6
753.313	13330.95
753.651	13450.95
753.989	13454.34
754.327	13595.12
754.666	13649.81
755.004	13723.03
755.342	13851.16
755.679	13912.85
756.017	13975.68
756.355	14160.08
756.693	14151.94
757.031	14391.49
757.368	14396.23
757.706	14469
758.044	14503.12
758.381	14723.45
758.719	14769.78
759.056	14849.55
759.394	14954.18
759.731	14989.21
760.068	15226.49
760.405	15274.85
760.743	15437.56
761.08	15478.46
761.417	15605.47
761.754	15670.55
762.091	15842.97
762.428	15843.2
762.765	15890.66
763.102	16093.81
763.438	16113.25
763.775	16240.93
764.112	16311.21
764.449	16455.39
764.785	16548.27
765.122	16582.16
765.458	16709.84
765.795	16742.38
766.131	16756.62
766.467	16914.81
766.804	16953.23
767.14	16945.09
767.476	17080
767.812	17016.05
768.148	17145.99
768.485	17103.28
768.821	17242.94
769.157	17287.68
769.492	17303.05
769.828	17311.86
770.164	17374.68
770.5	17387.79
770.836	17389.37
771.171	17382.37
771.507	17565.87
771.842	17450.61
772.178	17579.42
772.513	17523.61
772.849	17549.14
773.184	17487.9
773.519	17588.01
773.855	17464.85
774.19	17645.64
774.525	17536.49
774.86	17555.24
775.195	17589.82
775.53	17598.63
775.865	17514.57
776.2	17506.66
776.535	17401.12
776.87	17487.22
777.205	17468.47
777.539	17368.13
777.874	17534.45
778.209	17315.25
778.543	17322.26
778.878	17244.97
779.212	17337.85
779.547	17201.58
779.881	17364.06
780.215	17239.55
780.55	17285.87
780.884	17181.92
781.218	17160.68
781.552	17228.7
781.886	17157.29
782.22	17126.1
782.554	17049.5
782.888	16851.99
783.222	16980.12
783.556	16867.13
783.889	16868.93
784.223	16810.41
784.557	16740.35
784.89	16799.78
785.224	16677.53
785.557	16627.59
785.891	16704.65
786.224	16632.33
786.558	16612.22
786.891	16414.71
787.224	16423.07
787.557	16408.16
787.891	16426.23
788.224	16376.29
788.557	16364.32
788.89	16338.55
789.223	16338.1
789.556	16221.04
789.888	16160.93
790.221	16152.8
790.554	16059.46
790.887	16082.29
791.219	16098.11
791.552	16011.33
791.884	15957.09
792.217	15899.47
792.549	15837.1
792.882	15673.71
793.214	15749.64
793.546	15783.31
793.879	15608.4
794.211	15548.97
794.543	15579.93
794.875	15514.17
795.207	15577.9
795.539	15442.76
795.871	15537.44
796.203	15348.52
796.535	15350.1
796.867	15259.03
797.198	15206.15
797.53	15185.82
797.862	15114.18
798.193	15164.57
798.525	15003.67
798.856	15154.4
799.188	15025.37
799.519	14888.2
799.85	14814.07
800.182	14773.17
800.513	14839.38
800.844	14764.13
801.175	14870.57
801.506	14716.22
801.837	14716.68
802.168	14584.48
802.499	14617.24
802.83	14565.04
803.161	14511.71
803.491	14471.03
803.822	14549.9
804.153	14450.02
804.483	14263.81
804.814	14204.37
805.145	14228.33
805.475	14171.15
805.805	14181.1
806.136	14144.94
806.466	14162.57
806.796	14171.38
807.126	14023.36
807.457	14009.35
807.787	14001.21
808.117	13951.27
808.447	13837.38
808.777	13955.34
809.107	13890.03
809.436	13822.69
809.766	13760.77
810.096	13713.54
810.426	13761.22
810.755	13743.37
811.085	13645.74
811.414	13626.76
811.744	13520.1
812.073	13558.06
812.403	13554.9
812.732	13484.62
813.061	13421.57
813.39	13377.73
813.719	13338.63
814.049	13420.66
814.378	13348.12
814.707	13240.56
815.036	13206.88
815.365	13182.48
815.693	13114.23
816.022	13113.78
816.351	13110.16
816.68	13027.91
817.008	13065.87
817.337	12888.25
817.665	12986.55
817.994	13026.55
818.322	13011.86
818.651	12889.15
818.979	12821.58
819.307	12879.89
819.636	12907.91
819.964	12755.37
820.292	12766.44
820.62	12869.04
820.948	12827.91
821.276	12791.75
821.604	12764.41
821.932	12682.38
822.259	12729.38
822.587	12742.72
822.915	12723.28
823.243	12771.87
823.57	12754.69
823.898	12704.52
824.225	12712.66
824.553	12721.7
824.88	12696.16
825.207	12741.59
825.535	12745.88
825.862	12718.76
826.189	12700.68
826.516	12681.93
826.843	12749.95
827.17	12712.43
827.497	12832.43
827.824	12705.43
828.151	12717.86
828.478	12703.62
828.805	12774.81
829.131	12636.73
829.458	12677.86
829.785	12615.04
830.111	12677.18
830.438	12692.32
830.764	12685.77
831.09	12666.79
831.417	12631.31
831.743	12604.19
832.069	12654.13
832.395	12619.1
832.722	12578.2
833.048	12562.61
833.374	12657.75
833.7	12623.4
834.026	12589.73
834.351	12581.59
834.677	12529.61
835.003	12550.63
835.329	12589.73
835.654	12443.74
835.98	12536.17
836.306	12434.93
836.631	12383.63
836.956	12553.79
837.282	12439.45
837.607	12407.58
837.932	12423.18
838.258	12422.95
838.583	12414.81
838.908	12321.94
839.233	12342.05
839.558	12333.46
839.883	12235.61
840.208	12228.38
840.533	12207.14
840.858	12201.04
841.182	12201.04
841.507	12220.24
841.832	12111.77
842.156	12104.99
842.481	12105.22
842.805	12066.8
843.13	12029.29
843.454	11984.77
843.778	11991.78
844.103	12031.1
844.427	11943.41
844.751	11857.54
845.075	11878.78
845.399	11891.21
845.723	11805.57
846.047	11834.04
846.371	11699.35
846.695	11660.03
847.019	11613.03
847.343	11600.15
847.666	11562.18
847.99	11479.02
848.313	11461.85
848.637	11276.31
848.96	11366.48
849.284	11346.14
849.607	11273.83
849.931	11253.49
850.254	11082.65
850.577	11048.75
850.9	11012.37
851.223	10969.88
851.546	10932.59
851.869	10865.48
852.192	10933.72
852.515	10810.56
852.838	10756.55
853.161	10792.71
853.483	10738.25
853.806	10692.83
854.129	10796.33
854.451	10661.87
854.774	10563.79
855.096	10569.67
855.419	10524.7
855.741	10491.48
856.063	10428.88
856.385	10408.54
856.708	10432.27
857.03	10366.51
857.352	10370.12
857.674	10341.2
857.996	10268.2
858.318	10201.31
858.64	10221.88
858.961	10215.1
859.283	10117.02
859.605	10089
859.926	10198.83
860.248	10082.22
860.57	10070.47
860.891	10046.52
861.212	10080.41
861.534	9913.19
861.855	9952.28
862.176	9981.21
862.498	9999.74
862.819	9925.84
863.14	9934.65
863.461	9855.33
863.782	9803.81
864.103	9824.15
864.424	9743.25
864.745	9760.65
865.065	9782.34
865.386	9730.37
865.707	9680.88
866.027	9708.67
866.348	9729.91
866.668	9701.21
866.989	9645.17
867.309	9611.27
867.63	9595.45
867.95	9515.46
868.27	9514.55
868.59	9525.85
868.91	9508.9
869.23	9489.92
869.55	9457.83
869.87	9510.71
870.19	9473.88
870.51	9469.58
870.83	9438.62
871.15	9376.48
871.469	9451.73
871.789	9449.24
872.109	9407.66
872.428	9424.84
872.748	9411.28
873.067	9379.41
873.386	9415.57
873.706	9334.67
874.025	9300.55
874.344	9292.41
874.663	9353.2
874.982	9238.85
875.301	9249.25
875.62	9188.68
875.939	9166.76
876.258	9246.31
876.577	9171.74
876.896	9235.24
877.214	9152.75
877.533	9147.56
877.852	9107.11
878.17	9079.54
878.489	9102.59
878.807	9138.29
879.125	9118.18
879.444	9044.73
879.762	9011.51
880.08	9019.88
880.398	9020.33
880.716	8967.9
881.034	8978.3
881.352	8997.28
881.67	8913.44
881.988	8924.51
882.306	8970.61
882.624	8867.34
882.941	8846.32
883.259	8819.2
883.577	8860.78
883.894	8791.18
884.212	8762.93
884.529	8778.07
884.846	8698.53
885.164	8689.72
885.481	8666.44
885.798	8686.55
886.115	8649.72
886.432	8606.55
886.75	8640.68
887.067	8655.59
887.383	8581.24
887.7	8539.89
888.017	8528.82
888.334	8483.62
888.651	8491.53
888.967	8468.25
889.284	8417.63
889.6	8374.7
889.917	8310.97
890.233	8326.79
890.55	8327.01
890.866	8352.1
891.182	8278.2
891.498	8291.08
891.815	8229.61
892.131	8215.6
892.447	8223.74
892.763	8181.48
893.079	8223.51
893.395	8135.38
893.71	8131.76
894.026	8093.12
894.342	8089.5
894.657	7983.29
894.973	7996.17
895.289	8029.85
895.604	8014.03
895.92	7910.07
896.235	7869.4
896.55	7882.73
896.865	7886.12
897.181	7864.43
897.496	7861.04
897.811	7757.76
898.126	7750.3
898.441	7705.56
898.756	7662.4
899.071	7665.79
899.386	7673.24
899.7	7606.13
900.015	7550.99
900.33	7503.98
900.644	7475.28
900.959	7525.68
901.273	7456.98
901.588	7463.76
901.902	7378.79
902.216	7352.35
902.531	7352.35
902.845	7318.68
903.159	7277.32
903.473	7261.28
903.787	7223.09
904.101	7163.43
904.415	7185.12
904.729	7128.17
905.042	7144.67
905.356	7054.96
905.67	7097.89
905.984	7056.76
906.297	7083.2
906.611	7064.67
906.924	6999.36
907.237	7020.38
907.551	6906.94
907.864	6868.29
908.177	6884.56
908.491	6881.17
908.804	6855.19
909.117	6793.04
909.43	6771.8
909.743	6753.49
910.056	6726.83
910.368	6694.97
910.681	6707.62
910.994	6710.56
911.307	6614.06
911.619	6529.77
911.932	6530
912.244	6510.79
912.557	6492.71
912.869	6486.16
913.181	6470.79
913.494	6465.82
913.806	6380.17
914.118	6376.1
914.43	6294.3
914.742	6342.21
915.054	6284.13
915.366	6317.35
915.678	6240.97
915.99	6251.59
916.302	6174.53
916.613	6150.12
916.925	6139.95
917.236	6146.96
917.548	6071.25
917.859	6097.69
918.171	6064.7
918.482	5978.6
918.794	5989.45
919.105	5918.49
919.416	5981.09
919.727	5928.66
920.038	5867.87
920.349	5815.89
920.66	5815.89
920.971	5817.25
921.282	5786.06
921.593	5766.85
921.903	5801.88
922.214	5734.31
922.525	5697.7
922.835	5714.88
923.146	5693.64
923.456	5617.25
923.767	5605.95
924.077	5597.37
924.387	5580.87
924.697	5533.87
925.008	5549.46
925.318	5547.65
925.628	5484.6
925.938	5491.38
926.248	5423.59
926.558	5385.17
926.867	5374.55
927.177	5380.65
927.487	5327.77
927.796	5280.09
928.106	5273.76
928.416	5296.58
928.725	5287.77
929.034	5231.5
929.344	5237.6
929.653	5203.48
929.962	5156.7
930.271	5125.06
930.581	5121
930.89	5111.96
931.199	5060.66
931.508	5055.69
931.817	5036.48
932.125	5057.04
932.434	5013.43
932.743	5001.45
933.051	4945.86
933.36	4925.75
933.669	4903.83
933.977	4905.86
934.286	4872.41
934.594	4826.31
934.902	4810.72
935.21	4791.96
935.519	4795.58
935.827	4791.29
936.135	4772.76
936.443	4693.21
936.751	4685.98
937.059	4688.01
937.367	4690.95
937.674	4647.79
937.982	4636.26
938.29	4608.69
938.597	4602.59
938.905	4581.35
939.213	4577.51
939.52	4530.95
939.827	4527.11
940.135	4488.24
940.442	4484.18
940.749	4454.12
941.056	4490.96
941.363	4400.79
941.67	4424.74
941.977	4377.96
942.284	4317.85
942.591	4340.45
942.898	4304.52
943.205	4298.64
943.511	4316.5
943.818	4306.33
944.125	4242.37
944.431	4262.49
944.738	4230.4
945.044	4194.92
945.35	4154.24
945.657	4204.18
945.963	4139.33
946.269	4157.63
946.575	4111.76
946.881	4088.03
947.187	4067.24
947.493	4067.69
947.799	4041.7
948.105	4016.17
948.41	3965.77
948.716	4003.28
949.022	3994.92
949.327	3997.63
949.633	3931.65
949.938	3946.56
950.244	3934.13
950.549	3891.2
950.854	3890.07
951.16	3872.89
951.465	3845.55
951.77	3832.44
952.075	3857.53
952.38	3809.84
952.685	3782.27
952.99	3734.14
953.294	3754.48
953.599	3744.53
953.904	3709.96
954.209	3680.81
954.513	3680.81
954.818	3682.39
955.122	3645.1
955.426	3609.62
955.731	3594.26
956.035	3614.37
956.339	3581.83
956.643	3572.56
956.948	3537.99
957.252	3544.77
957.556	3556.74
957.86	3519
958.163	3509.74
958.467	3508.61
958.771	3474.48
959.075	3461.38
959.378	3405.33
959.682	3427.48
959.985	3403.75
960.289	3403.75
960.592	3368.05
960.896	3364.21
961.199	3321.27
961.502	3333.47
961.805	3345.67
962.108	3336.86
962.411	3304.55
962.714	3314.04
963.017	3284.43
963.32	3267.94
963.623	3239.46
963.926	3238.56
964.228	3189.75
964.531	3186.13
964.833	3193.59
965.136	3178.67
965.438	3196.3
965.741	3151.33
966.043	3110.88
966.345	3091.67
966.648	3135.74
966.95	3123.08
967.252	3067.49
967.554	3078.79
967.856	3068.39
968.158	3030.88
968.46	3028.85
968.761	3021.84
969.063	3014.38
969.365	2996.76
969.666	2995.4
969.968	2986.36
970.269	2944.33
970.571	2963.54
970.872	2939.81
971.174	2909.08
971.475	2916.53
971.776	2905.23
972.077	2883.09
972.378	2879.02
972.679	2884.22
972.98	2852.35
973.281	2814.39
973.582	2835.86
973.883	2829.76
974.183	2797.89
974.484	2803.77
974.785	2746.82
975.085	2756.99
975.386	2745.46
975.686	2755.18
975.986	2693.49
976.287	2700.49
976.587	2683.55
976.887	2683.55
977.187	2677.44
977.487	2662.75
977.787	2649.2
978.087	2650.1
978.387	2629.08
978.687	2600.16
978.987	2601.29
979.286	2620.04
979.586	2580.05
979.885	2533.49
980.185	2571.91
980.484	2556.99
980.784	2525.58
981.083	2541.18
981.382	2537.79
981.682	2513.83
981.981	2480.61
982.28	2486.71
982.579	2480.39
982.878	2444.23
983.177	2476.77
983.475	2436.77
983.774	2436.32
984.073	2420.5
984.372	2394.74
984.67	2408.98
984.969	2387.73
985.267	2393.61
985.566	2387.51
985.864	2338.24
986.162	2366.94
986.461	2329.2
986.759	2318.13
987.057	2307.51
987.355	2258.02
987.653	2279.04
987.951	2306.38
988.249	2271.35
988.547	2272.71
988.844	2237.91
989.142	2221.64
989.44	2224.12
989.737	2226.61
990.035	2193.84
990.332	2211.02
990.63	2203.33
990.927	2201.3
991.224	2168.53
991.521	2154.52
991.819	2182.09
992.116	2168.98
992.413	2124.24
992.71	2138.47
993.006	2136.67
993.303	2070.45
993.6	2107.06
993.897	2079.04
994.193	2102.09
994.49	2034.75
994.787	2043.79
995.083	2056.22
995.379	2044.24
995.676	2058.02
995.972	2013.96
996.268	1991.59
996.565	2027.52
996.861	2001.53
997.157	1985.94
997.453	1978.71
997.749	1945.03
998.044	1960.85
998.34	1929.44
998.636	1963.11
998.932	1901.64
999.227	1905.03
999.523	1893.74
999.818	1877.24
1000.114	1892.83
1000.409	1884.24
1000.704	1884.02
1001	1857.35
1001.295	1857.35
1001.59	1834.98
1001.885	1831.59
1002.18	1785.26
1002.475	1787.98
1002.77	1796.11
1003.065	1773.51
1003.359	1813.74
1003.654	1796.56
1003.949	1757.47
1004.243	1756.56
1004.538	1696.68
1004.832	1732.61
1005.127	1726.28
1005.421	1730.35
1005.715	1709.56
1006.009	1686.74
1006.304	1691.93
1006.598	1673.85
1006.892	1649.9
1007.186	1673.85
1007.48	1662.78
1007.773	1649.67
1008.067	1632.95
1008.361	1622.78
1008.655	1604.93
1008.948	1595.66
1009.242	1620.3
1009.535	1606.51
1009.829	1577.13
1010.122	1566.29
1010.415	1578.26
1010.708	1538.04
1011.001	1514.76
1011.295	1540.98
1011.588	1540.52
1011.881	1524.03
1012.173	1525.16
1012.466	1510.02
1012.759	1499.85
1013.052	1506.18
1013.344	1478.38
1013.637	1474.09
1013.93	1451.26
1014.222	1457.14
1014.514	1441.77
1014.807	1463.92
1015.099	1406.74
1015.391	1420.98
1015.683	1431.37
1015.976	1413.75
1016.268	1410.81
1016.56	1378.04
1016.851	1374.88
1017.143	1322.45
1017.435	1391.83
1017.727	1351.83
1018.018	1344.15
1018.31	1322.9
1018.602	1344.82
1018.893	1345.05
1019.185	1324.26
1019.476	1301.89
1019.767	1291.49
1020.058	1298.27
1020.35	1293.98
1020.641	1254.43
1020.932	1274.54
1021.223	1262.11
1021.514	1254.2
1021.804	1228.22
1022.095	1246.75
1022.386	1229.35
1022.677	1221.66
1022.967	1224.15
1023.258	1190.25
1023.548	1213.08
1023.839	1195.9
1024.129	1175.79
1024.419	1155.45
1024.709	1163.36
1025	1161.55
1025.29	1158.16
1025.58	1138.73
1025.87	1128.78
1026.16	1129.46
1026.449	1156.13
1026.739	1116.35
1027.029	1117.94
1027.319	1106.86
1027.608	1099.63
1027.898	1101.44
1028.187	1101.89
1028.477	1090.82
1028.766	1090.82
1029.055	1077.94
1029.344	1069.12
1029.634	1044.49
1029.923	1053.76
1030.212	1039.97
1030.501	1029.35
1030.79	1036.81
1031.078	1040.65
1031.367	1011.5
1031.656	1009.92
1031.945	1002.91
1032.233	1007.88
1032.522	999.75
1032.81	978.51
1033.099	968.11
1033.387	987.54
1033.675	977.38
1033.963	950.71
1034.251	967.66
1034.54	939.41
1034.828	948.68
1035.116	912.07
1035.403	928.56
1035.691	935.34
1035.979	922.91
1036.267	922.91
1036.554	898.06
1036.842	913.87
1037.129	910.26
1037.417	905.74
1037.704	898.06
1037.992	901.22
1038.279	871.84
1038.566	858.06
1038.853	858.06
1039.14	858.06
