Data from hue_26_FLMS001491_00064.txt Node
Date: Tue Feb 07 17:14:20 GMT 2017
User: dcchb
Spectrometer: FLMS00149
Trigger mode: 0
Integration Time (sec): 2.000000E-2
Scans to average: 10
Electric dark correction enabled: true
Nonlinearity correction enabled: false
Boxcar width: 0
XAxis mode: Wavelengths
Number of Pixels in Spectrum: 2048
>>>>>Begin Spectral Data<<<<<
341.393	14.52
341.776	14.52
342.16	14.52
342.543	-66.38
342.927	-67.96
343.31	-64.35
343.693	-79.04
344.077	-90.56
344.46	-48.08
344.843	-57.57
345.226	-45.14
345.61	-46.72
345.993	-17.8
346.376	10.9
346.759	-8.53
347.142	57.91
347.525	53.61
347.908	54.74
348.291	78.92
348.674	70.56
349.057	131.13
349.44	125.25
349.823	131.35
350.206	163.67
350.588	198.02
350.971	221.52
351.354	243.67
351.737	242.99
352.119	251.8
352.502	262.65
352.884	300.61
353.267	299.03
353.65	275.08
354.032	304.23
354.414	326.83
354.797	290.67
355.179	322.08
355.562	312.59
355.944	316.66
356.326	350.33
356.709	337.9
357.091	342.42
357.473	326.38
357.855	337
358.238	344.23
358.62	366.15
359.002	350.78
359.384	332.03
359.766	351.23
360.148	352.36
360.53	344.91
360.912	320.95
361.294	339.26
361.676	326.6
362.057	338.35
362.439	343.55
362.821	322.08
363.203	338.8
363.584	342.87
363.966	341.97
364.348	329.31
364.729	320.73
365.111	315.08
365.493	315.98
365.874	331.35
366.256	326.38
366.637	321.4
367.019	319.14
367.4	322.08
367.781	315.98
368.163	322.31
368.544	328.86
368.925	325.25
369.306	325.02
369.688	305.59
370.069	327.05
370.45	334.28
370.831	327.05
371.212	309.65
371.593	331.35
371.974	330.67
372.355	323.66
372.736	329.99
373.117	332.25
373.498	292.25
373.879	313.49
374.26	315.3
374.641	337.22
375.021	332.7
375.402	329.99
375.783	336.54
376.163	358.92
376.544	358.01
376.925	327.73
377.305	337.9
377.686	335.41
378.066	345.13
378.447	329.54
378.827	340.16
379.208	338.35
379.588	358.24
379.968	340.16
380.349	364.79
380.729	351.23
381.109	331.35
381.489	363.66
381.87	342.87
382.25	369.54
382.63	364.57
383.01	339.71
383.39	358.69
383.77	357.79
384.15	363.66
384.53	350.33
384.91	353.95
385.29	362.76
385.67	338.8
386.049	384.23
386.429	345.58
386.809	366.37
387.189	343.32
387.568	371.12
387.948	388.07
388.328	381.06
388.707	383.1
389.087	390.33
389.466	357.34
389.846	391.23
390.225	386.71
390.605	367.73
390.984	406.83
391.363	378.35
391.743	396.88
392.122	377.9
392.501	377.45
392.881	389.42
393.26	381.29
393.639	406.83
394.018	390.78
394.397	405.92
394.776	407.28
395.155	407.73
395.534	403.89
395.913	393.49
396.292	409.54
396.671	415.19
397.05	441.85
397.429	416.77
397.808	403.44
398.186	418.12
398.565	414.51
398.944	425.36
399.323	438.24
399.701	426.03
400.08	444.56
400.458	418.58
400.837	425.81
401.215	433.27
401.594	449.08
401.972	429.88
402.351	450.67
402.729	442.76
403.107	461.06
403.486	439.59
403.864	458.12
404.242	456.32
404.62	465.13
404.999	456.09
405.377	455.64
405.755	467.39
406.133	454.28
406.511	455.41
406.889	482.3
407.267	477.11
407.645	472.59
408.023	493.38
408.401	485.69
408.779	492.92
409.156	506.94
409.534	491.34
409.912	484.79
410.29	483.21
410.667	490.21
411.045	495.86
411.422	527.95
411.8	497.44
412.178	530.21
412.555	506.94
412.933	514.62
413.31	541.29
413.687	532.7
414.065	535.18
414.442	530.66
414.819	554.84
415.197	540.16
415.574	532.7
415.951	554.17
416.328	562.53
416.705	563.66
417.082	536.99
417.46	569.99
417.837	570.21
418.214	578.57
418.591	561.17
418.967	586.93
419.344	581.96
419.721	584.9
420.098	563.21
420.475	610.66
420.852	581.96
421.228	597.55
421.605	597.33
421.982	599.81
422.358	605.46
422.735	605.01
423.111	630.1
423.488	620.15
423.864	626.71
424.241	640.27
424.617	648.85
424.994	635.75
425.37	638.68
425.746	644.33
426.123	666.93
426.499	665.35
426.875	666.03
427.251	682.52
427.627	678.68
428.003	704.9
428.379	692.24
428.756	672.81
429.132	699.02
429.507	708.74
429.883	702.64
430.259	719.36
430.635	714.39
431.011	718.68
431.387	717.33
431.763	744.22
432.138	738.12
432.514	744.67
432.89	757.78
433.265	762.97
433.641	786.7
434.016	791
434.392	788.74
434.767	803.65
435.143	780.15
435.518	812.92
435.894	798.45
436.269	823.09
436.644	825.57
437.02	848.4
437.395	833.93
437.77	854.5
438.145	861.95
438.52	893.14
438.895	884.78
439.271	875.29
439.646	907.83
440.021	880.49
440.395	897.66
440.77	877.1
441.145	884.55
441.52	930.65
441.895	881.39
442.27	940.37
442.645	929.3
443.019	931.33
443.394	922.52
443.769	959.35
444.143	925
444.518	969.97
444.892	950.99
445.267	968.84
445.641	963.2
446.016	961.39
446.39	975.4
446.764	986.7
447.139	1022.85
447.513	1014.04
447.887	1006.81
448.262	997.32
448.636	1036.19
449.01	1035.06
449.384	1025.11
449.758	1027.83
450.132	1037.09
450.506	1044.77
450.88	1062.18
451.254	1038.45
451.628	1072.8
452.002	1070.54
452.376	1113.25
452.75	1084.77
453.123	1104.89
453.497	1116.41
453.871	1131.33
454.244	1178.33
454.618	1160.93
454.992	1141.27
455.365	1140.82
455.739	1174.49
456.112	1203.41
456.486	1223.3
456.859	1221.72
457.232	1229.18
457.606	1247.71
457.979	1250.87
458.352	1294.26
458.725	1276.63
459.099	1300.81
459.472	1310.3
459.845	1340.59
460.218	1307.82
460.591	1334.48
460.964	1325.45
461.337	1402.96
461.71	1394.37
462.083	1423.75
462.456	1414.03
462.829	1440.7
463.201	1448.61
463.574	1435.5
463.947	1491.09
464.32	1524.76
464.692	1524.76
465.065	1536.51
465.438	1568.38
465.81	1557.98
466.183	1596.62
466.555	1610.41
466.928	1630.3
467.3	1649.05
467.672	1637.3
468.045	1692.89
468.417	1689.73
468.789	1693.35
469.161	1787.35
469.534	1800.91
469.906	1813.57
470.278	1828.93
470.65	1842.95
471.022	1864.19
471.394	1881.14
471.766	1918.42
472.138	1930.18
472.51	1989.38
472.882	2035.03
473.253	2030.06
473.625	2069.83
473.997	2086.56
474.369	2124.75
474.74	2147.8
475.112	2237.74
475.484	2242.26
475.855	2279.09
476.227	2299.43
476.598	2380.56
476.97	2376.04
477.341	2424.4
477.713	2467.34
478.084	2513.89
478.455	2548.24
478.827	2588.46
479.198	2671.17
479.569	2691.29
479.94	2806.76
480.311	2777.84
480.682	2864.39
481.053	2931.5
481.424	2987.55
481.795	3009.24
482.166	3058.51
482.537	3112.97
482.908	3164.49
483.279	3263.47
483.65	3275
484.021	3333.98
484.391	3413.53
484.762	3475.22
485.133	3514.77
485.503	3559.51
485.874	3683.58
486.244	3680.41
486.615	3758.15
486.985	3834.08
487.356	3897.81
487.726	3940.52
488.097	4027.97
488.467	4073.17
488.837	4143.68
489.207	4176.22
489.578	4255.76
489.948	4296.67
490.318	4364.24
490.688	4425.48
491.058	4522.2
491.428	4544.8
491.798	4648.75
492.168	4691.91
492.538	4718.12
492.908	4846.93
493.278	4916.99
493.648	4935.52
494.017	4988.4
494.387	5034.73
494.757	5106.59
495.126	5133.03
495.496	5133.48
495.866	5224.55
496.235	5289.41
496.605	5282.18
496.974	5307.71
497.344	5431.33
497.713	5425.9
498.082	5525.56
498.452	5563.75
498.821	5590.64
499.19	5619.34
499.559	5689.62
499.928	5705.22
500.298	5772.79
500.667	5789.06
501.036	5804.88
501.405	5871.09
501.774	5876.51
502.143	5898.21
502.512	5957.19
502.88	6027.69
503.249	6082.61
503.618	6070.18
503.987	6101.14
504.356	6142.72
504.724	6184.75
505.093	6222.72
505.462	6264.75
505.83	6312.66
506.199	6342.94
506.567	6394.46
506.936	6392.43
507.304	6498.64
507.672	6523.5
508.041	6521.24
508.409	6569.15
508.777	6622.26
509.145	6716.49
509.514	6635.14
509.882	6724.17
510.25	6731.4
510.618	6790.61
510.986	6804.17
511.354	6915.58
511.722	6887.56
512.09	7020.21
512.458	6940.89
512.826	7055.92
513.193	7044.39
513.561	7061.57
513.929	7184.5
514.297	7170.49
514.664	7215.69
515.032	7257.04
515.4	7326.19
515.767	7324.84
516.135	7307.89
516.502	7317.38
516.869	7413.87
517.237	7477.37
517.604	7404.61
517.972	7516.92
518.339	7548.78
518.706	7560.08
519.073	7541.1
519.44	7655.67
519.808	7645.73
520.175	7647.77
520.542	7771.15
520.909	7859.51
521.276	7813.86
521.643	7842.11
522.009	7904.71
522.376	7950.58
522.743	8030.58
523.11	8114.42
523.477	8157.81
523.843	8218.82
524.21	8274.87
524.577	8271.25
524.943	8366.84
525.31	8388.08
525.676	8425.15
526.043	8496.56
526.409	8498.82
526.776	8579.72
527.142	8599.38
527.508	8606.61
527.874	8697
528.241	8755.53
528.607	8800.96
528.973	8887.96
529.339	8845.25
529.705	8958.92
530.071	9071
530.437	9043.66
530.803	9101.74
531.169	9173.6
531.535	9147.16
531.901	9204.56
532.267	9183.54
532.632	9307.83
532.998	9338.79
533.364	9410.2
533.73	9416.98
534.095	9467.83
534.461	9537.43
534.826	9584.44
535.192	9619.01
535.557	9630.31
535.923	9655.17
536.288	9691.78
536.653	9802.74
537.019	9785.79
537.384	9790.76
537.749	9844.54
538.114	9858.78
538.479	9913.02
538.845	9946.46
539.21	9936.97
539.575	10016.52
539.94	10028.95
540.305	10176.96
540.67	10147.36
541.034	10136.29
541.399	10279.79
541.764	10284.76
542.129	10383.29
542.494	10380.57
542.858	10400.46
543.223	10454.7
543.587	10474.58
543.952	10444.3
544.316	10620.79
544.681	10574.92
545.045	10612.21
545.41	10725.2
545.774	10724.97
546.138	10783.73
546.503	10765.2
546.867	10762.03
547.231	10892.88
547.595	10916.38
547.959	10985.3
548.324	11031.18
548.688	11001.12
549.052	11038.64
549.416	11073.44
549.779	11064.17
550.143	11123.15
550.507	11273.43
550.871	11286.09
551.235	11180.78
551.599	11296.48
551.962	11331.74
552.326	11331.06
552.689	11423.94
553.053	11478.4
553.417	11526.53
553.78	11584.38
554.143	11569.7
554.507	11675
554.87	11702.8
555.234	11681.78
555.597	11696.25
555.96	11789.13
556.323	11821.67
556.686	11873.87
557.05	11939.63
557.413	11964.71
557.776	12010.81
558.139	12089.68
558.502	12112.51
558.865	12157.93
559.228	12220.98
559.59	12250.13
559.953	12210.36
560.316	12340.75
560.679	12401.54
561.041	12455.1
561.404	12521.54
561.767	12519.05
562.129	12498.26
562.492	12639.5
562.854	12644.24
563.217	12632.49
563.579	12732.38
563.941	12791.13
564.304	12830.68
564.666	12876.55
565.028	12869.32
565.39	12938.25
565.753	12982.77
566.115	13059.6
566.477	13117.9
566.839	13200.39
567.201	13232.93
567.563	13320.16
567.925	13323.55
568.287	13319.48
568.648	13431.57
569.01	13531.23
569.372	13623.2
569.734	13641.28
570.095	13622.98
570.457	13683.31
570.819	13796.76
571.18	13831.11
571.542	13998.56
571.903	13901.16
572.265	13942.06
572.626	13990.65
572.987	14090.53
573.349	14122.62
573.71	14156.07
574.071	14340.47
574.432	14321.71
574.794	14511.54
575.155	14461.37
575.516	14521.93
575.877	14709.05
576.238	14700.46
576.599	14886.67
576.96	14959.89
577.32	14987.23
577.681	15070.39
578.042	15254.8
578.403	15355.13
578.763	15339.77
579.124	15515.81
579.485	15574.11
579.845	15803.03
580.206	15864.72
580.566	15998.96
580.927	16149.24
581.287	16236.69
581.648	16450.7
582.008	16565.95
582.368	16747.86
582.728	16907.86
583.089	17059.72
583.449	17157.12
583.809	17427.85
584.169	17577.45
584.529	17729.31
584.889	18076.87
585.249	18193.25
585.609	18294.94
585.969	18702.62
586.329	18878.66
586.688	19221.7
587.048	19327.23
587.408	19557.28
587.768	19771.29
588.127	20030.72
588.487	20254.44
588.846	20743.01
589.206	20848.77
589.565	21118.82
589.925	21486.5
590.284	21740.95
590.643	21952.7
591.003	22374.38
591.362	22828.16
591.721	22957.87
592.08	23289.61
592.44	23566.89
592.799	23872.42
593.158	24209.36
593.517	24687.09
593.876	24888.67
594.235	25122.33
594.593	25484.36
594.952	25805.48
595.311	26137.9
595.67	26591
596.029	26975.39
596.387	27352.33
596.746	27722.72
597.104	27790.96
597.463	28109.37
597.822	28556.14
598.18	28868
598.538	29111.16
598.897	29524.03
599.255	29657.81
599.613	30634.28
599.972	30603.09
600.33	31034.49
600.688	31262.29
601.046	31664.31
601.404	32087.57
601.762	32282.37
602.12	32739.08
602.478	33111.95
602.836	33414.09
603.194	33510.14
603.552	33964.14
603.91	33951.93
604.268	34529.77
604.625	34689.31
604.983	35078.23
605.341	35269.19
605.698	35695.39
606.056	36085.89
606.413	36239.33
606.771	36550.28
607.128	36927.67
607.485	36977.16
607.843	37294.22
608.2	37864.37
608.557	38034.99
608.914	38266.17
609.272	38645.37
609.629	38936.43
609.986	39222.08
610.343	39275.63
610.7	39724.66
611.057	39759.01
611.414	39966.69
611.771	40222.73
612.127	40512.89
612.484	40848.02
612.841	41002.37
613.198	41022.25
613.554	41256.82
613.911	41745.17
614.267	41833.31
614.624	41874.89
614.98	42231.94
615.337	42581.31
615.693	42528.66
616.05	42727.29
616.406	43164.8
616.762	43085.7
617.118	43201.63
617.475	43421.97
617.831	43618.8
618.187	43779.47
618.543	44120.93
618.899	44262.4
619.255	44412
619.611	44290.42
619.967	44753.23
620.323	44824.64
620.678	44788.94
621.034	44858.54
621.39	45023.28
621.746	45077.97
622.101	45611.29
622.457	45426.43
622.812	45519.31
623.168	45632.3
623.523	45762.24
623.879	45893.99
624.234	45830.26
624.589	46042.01
624.945	46131.05
625.3	46265.96
625.655	46332.17
626.01	46491.26
626.365	46569.91
626.72	46530.81
627.075	46565.39
627.43	46668.21
627.785	46580.98
628.14	46708.43
628.495	46775.32
628.85	46905.04
629.205	46768.32
629.559	47118.14
629.914	46962.21
630.269	46940.29
630.623	46958.6
630.978	46940.07
631.332	47045.6
631.687	47219.15
632.041	47094.86
632.396	47090.34
632.75	47037.69
633.104	47228.65
633.459	47099.84
633.813	47154.07
634.167	47220.74
634.521	47143.9
634.875	47309.55
635.229	47143.9
635.583	47074.52
635.937	47162.88
636.291	47195.2
636.645	47121.08
636.999	47063.45
637.352	47230.68
637.706	46972.61
638.06	47209.44
638.413	47115.65
638.767	47013.51
639.121	47142.77
639.474	46990.69
639.828	47053.06
640.181	47132.83
640.534	47067.97
640.888	46967.41
641.241	46806.51
641.594	47073.4
641.947	47081.53
642.301	47010.12
642.654	46923.57
643.007	46996.33
643.36	46899.84
643.713	46877.24
644.066	47081.98
644.419	46885.15
644.771	46641.99
645.124	46162.23
645.477	46116.13
645.83	45849.7
646.182	45846.76
646.535	45784.84
646.888	45802.92
647.24	45673.66
647.593	45859.42
647.945	45716.37
648.298	45600.67
648.65	45523.61
649.002	45479.54
649.355	45600.67
649.707	45664.62
650.059	45848.12
650.411	46368.33
650.763	46197.49
651.115	46718.38
651.467	46493.52
651.819	46526.06
652.171	46394.99
652.523	46433.86
652.875	46387.09
653.227	46322.23
653.578	46511.38
653.93	46385.73
654.282	46210.82
654.633	46266.18
654.985	46373.07
655.337	46278.61
655.688	46359.29
656.039	46449.68
656.391	46124.49
656.742	46091.05
657.094	46155.23
657.445	46399.74
657.796	46188.9
658.147	46210.14
658.498	46103.7
658.849	46294.21
659.2	46176.02
659.551	46095.12
659.902	46259.41
660.253	46082.46
660.604	46176.24
660.955	46066.64
661.306	46205.17
661.656	45978.96
662.007	45944.84
662.358	46145.06
662.708	46098.28
663.059	46092.86
663.409	45728.12
663.76	46108
664.11	46046.76
664.461	46086.3
664.811	46114.32
665.161	46006.53
665.511	45829.59
665.862	45985.97
666.212	46110.48
666.562	46142.12
666.912	45984.61
667.262	45886.31
667.612	45960.88
667.962	46036.81
668.312	45820.09
668.662	46019.86
669.011	45923.14
669.361	45843.14
669.711	45881.56
670.06	45871.84
670.41	45883.14
670.76	45745.97
671.109	45910.94
671.459	45843.14
671.808	45753.88
672.157	45940.32
672.507	45460.56
672.856	45619.65
673.205	45660.32
673.554	45722.24
673.904	45612.42
674.253	45876.14
674.602	45779.19
674.951	45076.84
675.3	44784.42
675.649	45530.38
675.998	45469.37
676.346	45496.49
676.695	45651.51
677.044	45339.43
677.393	45374.68
677.741	45465.75
678.09	45343.27
678.438	45306.44
678.787	45311.18
679.135	45420.11
679.484	45064.41
679.832	45263.95
680.181	44977.18
680.529	45141.92
680.877	45054.92
681.225	44958.87
681.573	45271.63
681.922	44844.75
682.27	44809.27
682.618	44774.47
682.966	44605.21
683.314	44917.97
683.661	44718.65
684.009	44514.37
684.357	44452.22
684.705	44448.83
685.053	44549.62
685.4	44353.24
685.748	44071.44
686.095	44178.78
686.443	44089.29
686.79	43968.62
687.138	44019.92
687.485	44076.86
687.832	43817.21
688.18	43857.66
688.527	43650.66
688.874	43640.26
689.221	43491.34
689.568	43293.38
689.915	43337.67
690.262	43317.79
690.609	43250.44
690.956	43132.71
691.303	43130.9
691.65	42865.82
691.997	42879.16
692.344	42683.23
692.69	42581.99
693.037	42708.54
693.383	42336.57
693.73	42592.61
694.077	42198.72
694.423	42172.28
694.769	42143.81
695.116	42094.54
695.462	41922.12
695.808	41998.95
696.155	42020.19
696.501	41618.62
696.847	41630.83
697.193	41390.38
697.539	41514.67
697.885	41217.5
698.231	40996.04
698.577	41168.01
698.923	41065.42
699.269	40928.25
699.614	40611.42
699.96	40577.75
700.306	40643.06
700.651	40502.72
700.997	40279.68
701.342	40292.56
701.688	40261.6
702.033	40058.44
702.379	40011.66
702.724	40123.97
703.069	40039.46
703.415	39631.33
703.76	39703.65
704.105	39703.65
704.45	39534.61
704.795	39324.9
705.14	39132.13
705.485	39197.9
705.83	38900.05
706.175	39094.62
706.52	38912.25
706.865	38926.94
707.209	38748.19
707.554	38718.59
707.899	38757.46
708.243	38470.23
708.588	38470.23
708.932	38223.01
709.277	38303.91
709.621	38218.03
709.966	37992.96
710.31	38076.12
710.654	37617.15
710.998	37815.79
711.342	37718.39
711.687	37784.83
712.031	37618.5
712.375	37451.28
712.719	37559.52
713.063	37356.81
713.407	37484.27
713.75	37191.39
714.094	37195.46
714.438	37084.05
714.782	37079.08
715.125	36854
715.469	36977.16
715.812	36792.76
716.156	36634.35
716.499	36613.11
716.843	36691.97
717.186	36499.44
717.53	36626.44
717.873	36535.14
718.216	36559.32
718.559	36367.46
718.902	36154.81
719.246	36239.1
719.589	36134.47
719.932	35888.83
720.275	35940.13
720.617	35881.6
720.96	35832.79
721.303	35937.42
721.646	35825.56
721.989	35614.26
722.331	35723.18
722.674	35628.27
723.016	35714.6
723.359	35542.85
723.701	35525.9
724.044	35230.54
724.386	35168.4
724.729	35301.5
725.071	35320.94
725.413	35129.53
725.755	35190.77
726.097	35061.28
726.439	34826.94
726.782	34953.49
727.124	35002.75
727.465	34738.8
727.807	34627.62
728.149	34663.78
728.491	34711.46
728.833	34715.53
729.175	34554.63
729.516	34558.47
729.858	34447.51
730.199	34418.81
730.541	34453.84
730.882	34297.01
731.224	34379.04
731.565	34067.41
731.906	34255.2
732.248	34210.91
732.589	33910.13
732.93	34010.01
733.271	33956.68
733.612	33874.65
733.953	33844.82
734.294	33786.74
734.635	33633.75
734.976	33806.17
735.317	33614.54
735.658	33673.3
735.999	33593.07
736.339	33465.62
736.68	33549.23
737.021	33466.07
737.361	33220.43
737.702	33538.38
738.042	33242.8
738.383	33404.38
738.723	33346.52
739.063	33282.35
739.404	33202.12
739.744	33219.52
740.084	33039.19
740.424	33031.28
740.764	33015.01
741.104	33144.72
741.444	32823.37
741.784	32725.98
742.124	32855.69
742.464	32660.67
742.804	32650.5
743.143	32605.53
743.483	32533.21
743.823	32375.48
744.162	32495.25
744.502	32427.68
744.841	32324.86
745.181	32444.4
745.52	32311.07
745.86	32325.08
746.199	32090.74
746.538	32131.42
746.877	32237.17
747.216	32331.86
747.556	32098.65
747.895	32084.18
748.234	31968.71
748.573	31941.59
748.911	31915.6
749.25	31932.55
749.589	31714.25
749.928	31790.41
750.267	31854.59
750.605	31696.62
750.944	31615.95
751.283	31560.13
751.621	31623.18
751.96	31464.31
752.298	31529.17
752.636	31570.07
752.975	31193.81
753.313	31028.62
753.651	31283.08
753.989	31126.24
754.327	31012.8
754.666	30864.1
755.004	31010.99
755.342	31039.01
755.679	30907.04
756.017	30809.42
756.355	30867.49
756.693	30645.58
757.031	30701.17
757.368	30515.86
757.706	30448.75
758.044	30377.11
758.381	30361.29
758.719	30277.45
759.056	30295.08
759.394	30188.42
759.731	30033.84
760.068	29898.25
760.405	29879.72
760.743	29785.71
761.08	29882.21
761.417	29602.67
761.754	29550.47
762.091	29562.67
762.428	29489.45
762.765	29328.1
763.102	29467.3
763.438	29204.71
763.775	29115.9
764.112	29162
764.449	28953.65
764.785	28911.84
765.122	28734.44
765.458	28730.6
765.795	28607.21
766.131	28593.2
766.467	28449.25
766.804	28291.52
767.14	28194.57
767.476	28177.85
767.812	28030.51
768.148	28032.31
768.485	27828.25
768.821	27753
769.157	27621.7
769.492	27649.5
769.828	27655.6
770.164	27360.24
770.5	27366.57
770.836	27313.24
771.171	27146.24
771.507	27111.89
771.842	26951.89
772.178	26876.41
772.513	26787.15
772.849	26696.53
773.184	26599.13
773.519	26663.08
773.855	26534.73
774.19	26390.1
774.525	26347.39
774.86	26292.92
775.195	26209.31
775.53	26134.96
775.865	25939.94
776.2	25790.11
776.535	25610.46
776.87	25588.31
777.205	25549.89
777.539	25326.17
777.874	25561.42
778.209	25238.49
778.543	25184.71
778.878	25017.03
779.212	25022
779.547	24812.06
779.881	24974.99
780.215	24771.38
780.55	24817.71
780.884	24560.54
781.218	24588.79
781.552	24420.88
781.886	24332.3
782.22	24155.81
782.554	24158.07
782.888	23980.89
783.222	23866.1
783.556	23831.07
783.889	23789.04
784.223	23630.17
784.557	23599.66
784.89	23553.79
785.224	23426.56
785.557	23262.27
785.891	23280.35
786.224	23195.6
786.558	23102.27
786.891	22951.54
787.224	22877.2
787.557	22833.58
787.891	22821.38
788.224	22783.64
788.557	22563.53
788.89	22626.81
789.223	22633.59
789.556	22443.31
789.888	22269.53
790.221	22263.65
790.554	22028.4
790.887	22104.56
791.219	22025.47
791.552	21962.87
791.884	21845.36
792.217	21857.79
792.549	21793.16
792.882	21608.75
793.214	21516.78
793.546	21574.18
793.879	21323.79
794.211	21310.46
794.543	21320.4
794.875	21227.29
795.207	21321.53
795.539	21137.58
795.871	21131.93
796.203	20878.83
796.535	20848.32
796.867	20810.81
797.198	20803.35
797.53	20691.72
797.862	20546.41
798.193	20655.33
798.525	20351.61
798.856	20384.15
799.188	20209.47
799.519	20250.82
799.85	20180.09
800.182	19978.51
800.513	20090.6
800.844	19886.77
801.175	20009.25
801.506	19919.76
801.837	19817.61
802.168	19821.68
802.499	19770.16
802.83	19620.56
803.161	19556.15
803.491	19551.86
803.822	19528.13
804.153	19497.17
804.483	19307.12
804.814	19258.53
805.145	19278.19
805.475	19283.39
805.805	19187.57
806.136	19123.17
806.466	19126.11
806.796	19035.04
807.126	18940.35
807.457	18857.87
807.787	18882.05
808.117	18781.94
808.447	18727.25
808.777	18700.58
809.107	18681.15
809.436	18559.12
809.766	18636.85
810.096	18463.75
810.426	18440.02
810.755	18334.49
811.085	18437.76
811.414	18187.37
811.744	18200.03
812.073	18171.56
812.403	18099.24
812.732	18099.24
813.061	18059.69
813.39	17981.5
813.719	17926.36
814.049	17895.41
814.378	17836.65
814.707	17768.4
815.036	17770.66
815.365	17601.18
815.693	17516.88
816.022	17601.18
816.351	17502.87
816.68	17359.15
817.008	17384.91
817.337	17263.33
817.665	17302.88
817.994	17323.44
818.322	17225.14
818.651	17185.59
818.979	17116.67
819.307	17206.84
819.636	17110.57
819.964	17061.3
820.292	17146.05
820.62	17061.53
820.948	16986.05
821.276	17005.03
821.604	16976.11
821.932	17059.72
822.259	16962.77
822.587	16924.81
822.915	16972.49
823.243	17003
823.57	17025.82
823.898	16963.23
824.225	16881.65
824.553	16864.25
824.88	16909.67
825.207	17043.22
825.535	16904.7
825.862	17006.84
826.189	16839.61
826.516	16952.61
826.843	16950.12
827.17	16908.31
827.497	16930.46
827.824	16954.41
828.151	17026.73
828.478	16870.12
828.805	16950.12
829.131	16875.54
829.458	16840.07
829.785	16713.97
830.111	16876.45
830.438	16910.8
830.764	16879.39
831.09	16922.78
831.417	16765.04
831.743	16867.64
832.069	16830.57
832.395	16727.07
832.722	16812.95
833.048	16717.81
833.374	16833.29
833.7	16696.11
834.026	16694.53
834.351	16736.34
834.677	16623.8
835.003	16681.88
835.329	16627.42
835.654	16565.27
835.98	16569.34
836.306	16546.29
836.631	16510.58
836.956	16623.57
837.282	16601.2
837.607	16525.5
837.932	16476.46
838.258	16456.8
838.583	16411.15
838.908	16320.53
839.233	16402.79
839.558	16270.82
839.883	16315.56
840.208	16315.33
840.533	16238.73
840.858	16246.63
841.182	16205.96
841.507	16182
841.832	16086.87
842.156	16073.76
842.481	16009.13
842.805	16059.07
843.13	15995.12
843.454	15924.38
843.778	15927.32
844.103	15874.89
844.427	15819.98
844.751	15883.03
845.075	15781.11
845.399	15595.8
845.723	15608.23
846.047	15649.36
846.371	15484.17
846.695	15555.58
847.019	15361.91
847.343	15319.2
847.666	15227.23
847.99	15157.4
848.313	15167.57
848.637	15006.44
848.96	15052.99
849.284	14992.88
849.607	14905.2
849.931	14742.04
850.254	14703.85
850.577	14656.62
850.9	14549.05
851.223	14617.53
851.546	14497.3
851.869	14396.51
852.192	14405.33
852.515	14401.94
852.838	14259.57
853.161	14316.29
853.483	14156.52
853.806	14093.02
854.129	14105.45
854.451	14092.34
854.774	14019.35
855.096	13932.57
855.419	13923.98
855.741	13844.44
856.063	13790.88
856.385	13857.09
856.708	13794.95
857.03	13684.22
857.352	13691.67
857.674	13592.02
857.996	13640.38
858.318	13521.06
858.64	13547.95
858.961	13390.66
859.283	13443.09
859.605	13440.61
859.926	13390.44
860.248	13339.37
860.57	13295.07
860.891	13306.6
861.212	13221.18
861.534	13177.56
861.855	13165.81
862.176	13195.87
862.498	13206.26
862.819	13146.83
863.14	13101.41
863.461	13034.29
863.782	13041.3
864.103	12999.94
864.424	12999.49
864.745	12916.33
865.065	12927.17
865.386	12813.96
865.707	12730.34
866.027	12845.14
866.348	12800.85
866.668	12730.34
866.989	12761.98
867.309	12677.46
867.63	12733.28
867.95	12659.38
868.27	12616.45
868.59	12594.53
868.91	12601.08
869.23	12603.57
869.55	12507.07
869.87	12610.35
870.19	12558.82
870.51	12586.62
870.83	12625.94
871.15	12477.69
871.469	12529.44
871.789	12479.95
872.109	12420.52
872.428	12411.26
872.748	12428.43
873.067	12419.39
873.386	12366.74
873.706	12382.56
874.025	12293.52
874.344	12190.92
874.663	12266.63
874.982	12209
875.301	12166.06
875.62	12270.47
875.939	12136.69
876.258	12182.56
876.577	12091.72
876.896	12064.15
877.214	12044.49
877.533	12052.62
877.852	12007.2
878.17	12055.56
878.489	12022.11
878.807	11961.78
879.125	11960.19
879.444	11864.83
879.762	11833.42
880.08	11923.13
880.398	11785.74
880.716	11818.73
881.034	11780.76
881.352	11813.53
881.67	11751.39
881.988	11764.27
882.306	11642.24
882.624	11730.14
882.941	11686.53
883.259	11629.36
883.577	11631.16
883.894	11580.54
884.212	11513.2
884.529	11505.52
884.846	11526.99
885.164	11483.82
885.481	11420.55
885.798	11448.12
886.115	11327.22
886.432	11312.3
886.75	11292.41
887.067	11346.2
887.383	11242.7
887.7	11311.62
888.017	11175.36
888.334	11210.84
888.651	11164.96
888.967	11145.75
889.284	11136.03
889.6	11119.31
889.917	10971.07
890.233	11023.72
890.55	10974.23
890.866	11014.68
891.182	10942.59
891.498	10896.49
891.815	10884.97
892.131	10840
892.447	10858.08
892.763	10776.5
893.079	10716.38
893.395	10672.54
893.71	10723.16
894.026	10662.83
894.342	10627.12
894.657	10529.72
894.973	10537.63
895.289	10504.87
895.604	10498.99
895.92	10403.17
896.235	10386.45
896.55	10375.83
896.865	10412.66
897.181	10299.22
897.496	10361.37
897.811	10290.18
898.126	10161.82
898.441	10198.21
898.756	10148.04
899.071	10068.04
899.386	10037.76
899.7	9915.28
900.015	9939.91
900.33	9878.89
900.644	9870.98
900.959	9878.89
901.273	9916.41
901.588	9785.56
901.902	9722.74
902.216	9702.63
902.531	9701.5
902.845	9696.3
903.159	9613.36
903.473	9593.25
903.787	9591.22
904.101	9465.12
904.415	9473.25
904.729	9514.83
905.042	9435.29
905.356	9437.55
905.67	9343.31
905.984	9365.46
906.297	9260.38
906.611	9230.55
906.924	9230.77
907.237	9130.89
907.551	9140.16
907.864	9130.66
908.177	9094.51
908.491	9050.21
908.804	9040.04
909.117	8979.26
909.43	8882.99
909.743	8874.17
910.056	8834.4
910.368	8810.45
910.681	8732.26
910.994	8735.65
911.307	8706.49
911.619	8674.18
911.932	8679.15
912.244	8587.4
912.557	8600.28
912.869	8596.67
913.181	8516.89
913.494	8513.96
913.806	8392.6
914.118	8426.28
914.43	8336.11
914.742	8339.5
915.054	8268.54
915.366	8266.51
915.678	8215.21
915.99	8204.59
916.302	8171.59
916.613	8126.4
916.925	8114.42
917.236	8127.98
917.548	7986.29
917.859	7960.75
918.171	7968.66
918.482	7936.8
918.794	7885.05
919.105	7836.46
919.416	7715.33
919.727	7728.44
920.038	7788.78
920.349	7713.75
920.66	7697.71
920.971	7611.38
921.282	7587.88
921.593	7533.64
921.903	7558.73
922.214	7547.88
922.525	7495
922.835	7412.52
923.146	7405.96
923.456	7411.16
923.767	7318.06
924.077	7330.26
924.387	7300.66
924.697	7194.9
925.008	7250.26
925.318	7186.99
925.628	7215.01
925.938	7129.13
926.248	7126.2
926.558	7113.32
926.867	7047.78
927.177	6921.68
927.487	6899.76
927.796	6931.63
928.106	6847.56
928.416	6902.93
928.725	6930.72
929.034	6768.47
929.344	6856.6
929.653	6799.2
929.962	6774.12
930.271	6759.88
930.581	6704.51
930.89	6616.15
931.199	6584.52
931.508	6581.35
931.817	6551.3
932.125	6541.58
932.434	6552.88
932.743	6475.82
933.051	6449.83
933.36	6427.46
933.669	6368.7
933.977	6365.31
934.286	6391.53
934.594	6344.75
934.902	6227.24
935.21	6235.37
935.519	6270.63
935.827	6215.03
936.135	6178.65
936.443	6158.54
936.751	6088.26
937.059	6115.6
937.367	6060.24
937.674	6096.39
937.982	6051.42
938.29	6009.62
938.597	6020.46
938.905	5970.52
939.213	5936.17
939.52	5836.29
939.827	5933.46
940.135	5836.06
940.442	5834.48
940.749	5806.46
941.056	5770.53
941.363	5706.12
941.67	5742.96
941.977	5672
942.284	5632.9
942.591	5637.42
942.898	5623.19
943.205	5604.88
943.511	5608.27
943.818	5573.02
944.125	5552.23
944.431	5533.47
944.738	5500.93
945.044	5458.9
945.35	5418.67
945.657	5377.54
945.963	5356.07
946.269	5355.17
946.575	5366.24
946.881	5348.39
947.187	5288.96
947.493	5278.11
947.799	5222.97
948.105	5230.65
948.41	5220.48
948.716	5209.86
949.022	5157.89
949.327	5140.03
949.633	5094.61
949.938	5101.39
950.244	5114.27
950.549	5098.68
950.854	5033.37
951.16	5042.41
951.465	4992.69
951.77	4929.87
952.075	4964.9
952.38	4926.48
952.685	4902.75
952.99	4860.72
953.294	4846.48
953.599	4872.24
953.904	4834.05
954.209	4779.14
954.513	4747.28
954.818	4780.5
955.122	4707.05
955.426	4679.71
955.731	4719.03
956.035	4670.67
956.339	4618.24
956.643	4643.1
956.948	4634.06
957.252	4575.3
957.556	4550.67
957.86	4531.46
958.163	4515.87
958.467	4478.58
958.771	4470.22
959.075	4461.63
959.378	4455.08
959.682	4407.85
959.985	4388.19
960.289	4415.08
960.592	4360.62
960.896	4351.58
961.199	4312.49
961.502	4272.71
961.805	4302.09
962.108	4244.24
962.411	4249.44
962.714	4199.49
963.017	4227.29
963.32	4213.28
963.623	4164.01
963.926	4145.03
964.228	4139.38
964.531	4121.98
964.833	4128.54
965.136	4086.05
965.438	4045.37
965.741	4050.12
966.043	4017.13
966.345	3984.58
966.648	4008.31
966.95	3969.9
967.252	3922.44
967.554	3937.13
967.856	3933.96
968.158	3928.77
968.46	3893.51
968.761	3893.74
969.063	3868.2
969.365	3858.49
969.666	3813.52
969.968	3791.14
970.269	3798.15
970.571	3747.3
970.872	3716.79
971.174	3695.78
971.475	3714.08
971.776	3715.67
972.077	3731.71
972.378	3669.79
972.679	3638.15
972.98	3657.59
973.281	3628.21
973.582	3674.76
973.883	3601.09
974.183	3639.06
974.484	3565.84
974.785	3514.54
975.085	3577.59
975.386	3584.14
975.686	3521.77
975.986	3437.48
976.287	3503.02
976.587	3458.72
976.887	3465.05
977.187	3458.27
977.487	3438.38
977.787	3380.08
978.087	3352.96
978.387	3352.06
978.687	3348.89
978.987	3318.39
979.286	3273.87
979.586	3298.5
979.885	3342.34
980.185	3275
980.484	3261.44
980.784	3241.1
981.083	3232.06
981.382	3202.01
981.682	3225.28
981.981	3186.64
982.28	3135.79
982.579	3164.27
982.878	3209.69
983.177	3134.21
983.475	3128.56
983.774	3108.22
984.073	3094.66
984.372	3072.52
984.67	3057.6
984.969	3067.55
985.267	3030.94
985.566	2998.17
985.864	3035
986.162	2953.88
986.461	2983.48
986.759	2936.7
987.057	2932.86
987.355	2944.16
987.653	2896.25
987.951	2941.67
988.249	2907.1
988.547	2873.43
988.844	2896.48
989.142	2874.56
989.44	2884.05
989.737	2794.79
990.035	2807.67
990.332	2786.65
990.63	2786.65
990.927	2780.1
991.224	2757.5
991.521	2774.67
991.819	2735.8
992.116	2724.28
992.413	2708.69
992.71	2717.5
993.006	2698.97
993.303	2707.1
993.6	2701.23
993.897	2645.86
994.193	2633.89
994.49	2631.63
994.787	2624.17
995.083	2582.81
995.379	2571.74
995.676	2556.83
995.972	2566.09
996.268	2556.37
996.565	2540.1
996.861	2536.26
997.157	2497.62
997.453	2483.16
997.749	2502.36
998.044	2472.53
998.34	2470.95
998.636	2448.58
998.932	2413.1
999.227	2411.52
999.523	2416.72
999.818	2416.49
1000.114	2387.34
1000.409	2386.66
1000.704	2345.31
1001	2344.85
1001.295	2351.18
1001.59	2358.41
1001.885	2300.79
1002.18	2282.03
1002.475	2288.36
1002.77	2307.79
1003.065	2274.8
1003.359	2249.04
1003.654	2248.58
1003.949	2235.93
1004.243	2236.83
1004.538	2201.35
1004.832	2199.32
1005.127	2190.73
1005.421	2148.02
1005.715	2154.35
1006.009	2142.15
1006.304	2139.44
1006.598	2107.8
1006.892	2068.93
1007.186	2077.52
1007.48	2038.87
1007.773	2064.41
1008.067	2030.74
1008.361	2062.15
1008.655	2004.07
1008.948	2007.69
1009.242	1992.09
1009.535	1984.64
1009.829	1977.41
1010.122	1969.72
1010.415	1973.34
1010.708	1961.59
1011.001	1920.68
1011.295	1914.58
1011.588	1923.62
1011.881	1899.67
1012.173	1918.42
1012.466	1892.21
1012.759	1874.81
1013.052	1855.83
1013.344	1830.52
1013.637	1846.79
1013.93	1812.66
1014.222	1825.09
1014.514	1800.46
1014.807	1781.93
1015.099	1780.12
1015.391	1805.21
1015.683	1764.53
1015.976	1761.37
1016.268	1761.82
1016.56	1740.8
1016.851	1704.42
1017.143	1713.46
1017.435	1691.09
1017.727	1702.61
1018.018	1712.1
1018.31	1652.67
1018.602	1689.28
1018.893	1638.21
1019.185	1646.57
1019.476	1615.61
1019.767	1630.97
1020.058	1592.33
1020.35	1582.61
1020.641	1590.98
1020.932	1572.22
1021.223	1594.59
1021.514	1567.25
1021.804	1514.37
1022.095	1512.11
1022.386	1526.57
1022.677	1521.82
1022.967	1492.67
1023.258	1480.7
1023.548	1476.63
1023.839	1450.87
1024.129	1463.97
1024.419	1437.76
1024.709	1441.37
1025	1414.03
1025.29	1397.31
1025.58	1380.13
1025.87	1383.07
1026.16	1427.36
1026.449	1403.41
1026.739	1373.58
1027.029	1348.04
1027.319	1353.02
1027.608	1357.53
1027.898	1337.2
1028.187	1339.23
1028.477	1312.34
1028.766	1320.25
1029.055	1316.86
1029.344	1275.05
1029.634	1290.19
1029.923	1251.1
1030.212	1274.83
1030.501	1277.76
1030.79	1259.68
1031.078	1255.62
1031.367	1249.52
1031.656	1238.22
1031.945	1226.01
1032.233	1215.17
1032.522	1189.86
1032.81	1196.64
1033.099	1175.62
1033.387	1190.31
1033.675	1184.88
1033.963	1175.84
1034.251	1175.62
1034.54	1139.24
1034.828	1145.34
1035.116	1144.66
1035.403	1133.81
1035.691	1114.83
1035.979	1084.1
1036.267	1097.65
1036.554	1111.67
1036.842	1076.86
1037.129	1106.92
1037.417	1077.32
1037.704	1037.54
1037.992	1044.77
1038.279	1044.77
1038.566	1032.8
1038.853	1032.8
1039.14	1032.8
