Data from hue_10_FLMS001491_29.txt Node
Date: Mon Feb 06 15:31:40 GMT 2017
User: dcchb
Spectrometer: FLMS00149
Trigger mode: 0
Integration Time (sec): 2.000000E-2
Scans to average: 10
Electric dark correction enabled: true
Nonlinearity correction enabled: false
Boxcar width: 0
XAxis mode: Wavelengths
Number of Pixels in Spectrum: 2048
>>>>>Begin Spectral Data<<<<<
341.393	-25.32
341.776	-25.32
342.16	-25.32
342.543	-67.81
342.927	-70.52
343.31	-78.2
343.693	-60.13
344.077	-56.51
344.46	-56.96
344.843	-54.7
345.226	-21.93
345.61	-44.98
345.993	-31.2
346.376	-19.9
346.759	16.71
347.142	9.48
347.525	33.66
347.908	68.91
348.291	77.5
348.674	109.59
349.057	108.68
349.44	137.16
349.823	127.89
350.206	147.33
350.588	205.86
350.971	197.49
351.354	218.96
351.737	228.45
352.119	245.4
352.502	281.56
352.884	279.75
353.267	291.96
353.65	296.7
354.032	277.72
354.414	311.84
354.797	299.41
355.179	322.46
355.562	315.46
355.944	336.02
356.326	334.21
356.709	328.34
357.091	329.02
357.473	320.43
357.855	335.8
358.238	340.09
358.62	336.47
359.002	327.66
359.384	336.7
359.766	339.19
360.148	356.13
360.53	335.8
360.912	315.68
361.294	326.08
361.676	348
362.057	322.01
362.439	336.93
362.821	328.56
363.203	341.22
363.584	331.28
363.966	318.17
364.348	318.62
364.729	330.37
365.111	333.76
365.493	342.8
365.874	307.1
366.256	296.7
366.637	331.05
367.019	302.58
367.4	291.5
367.781	307.1
368.163	317.27
368.544	295.12
368.925	313.65
369.306	326.76
369.688	317.94
370.069	315.91
370.45	321.79
370.831	320.43
371.212	305.06
371.593	305.74
371.974	316.14
372.355	315.91
372.736	325.4
373.117	320.43
373.498	327.89
373.879	312.97
374.26	316.14
374.641	329.92
375.021	325.85
375.402	332.18
375.783	312.97
376.163	316.81
376.544	314.78
376.925	317.27
377.305	349.13
377.686	336.25
378.066	313.42
378.447	335.34
378.827	327.66
379.208	329.69
379.588	345.74
379.968	324.72
380.349	326.53
380.729	346.64
381.109	337.83
381.489	326.08
381.87	330.6
382.25	347.32
382.63	320.66
383.01	342.8
383.39	321.56
383.77	336.02
384.15	339.64
384.53	355.68
384.91	335.57
385.29	356.81
385.67	349.13
386.049	350.03
386.429	343.71
386.809	340.09
387.189	350.71
387.568	338.51
387.948	365.63
388.328	360.88
388.707	347.55
389.087	352.97
389.466	356.13
389.846	365.17
390.225	336.93
390.605	372.86
390.984	357.49
391.363	365.63
391.743	366.98
392.122	358.39
392.501	370.6
392.881	376.25
393.26	363.37
393.639	394.1
394.018	357.72
394.397	366.98
394.776	387.32
395.155	380.54
395.534	361.33
395.913	373.99
396.292	358.62
396.671	375.8
397.05	359.3
397.429	380.99
397.808	381.22
398.186	387.77
398.565	386.64
398.944	401.78
399.323	363.82
399.701	399.3
400.08	391.84
400.458	385.51
400.837	387.77
401.215	385.74
401.594	394.55
401.972	380.99
402.351	417.15
402.729	414.89
403.107	399.07
403.486	415.57
403.864	396.59
404.242	405.62
404.62	397.04
404.999	412.63
405.377	398.85
405.755	389.81
406.133	416.7
406.511	402.24
406.889	414.21
407.267	411.05
407.645	408.11
408.023	426.19
408.401	401.78
408.779	441.1
409.156	456.7
409.534	421.44
409.912	449.69
410.29	444.27
410.667	429.13
411.045	441.1
411.422	444.27
411.8	454.44
412.178	459.86
412.555	463.48
412.933	456.92
413.31	455.34
413.687	455.57
414.065	451.05
414.442	478.17
414.819	472.52
415.197	489.92
415.574	472.52
415.951	472.74
416.328	465.28
416.705	479.75
417.082	481.33
417.46	477.94
417.837	499.63
418.214	492.18
418.591	473.42
418.967	493.08
419.344	507.54
419.721	498.5
420.098	507.09
420.475	500.54
420.852	527.66
421.228	476.13
421.605	499.86
421.982	504.61
422.358	494.44
422.735	506.87
423.111	532.18
423.488	508.45
423.864	519.52
424.241	540.31
424.617	544.83
424.994	542.8
425.37	540.99
425.746	520.2
426.123	551.38
426.499	545.06
426.875	538.73
427.251	565.62
427.627	555.45
428.003	567.88
428.379	564.49
428.756	572.4
429.132	586.86
429.507	579.63
429.883	554.32
430.259	594.77
430.635	608.11
431.011	578.28
431.387	608.78
431.763	625.51
432.138	617.82
432.514	622.34
432.89	628.44
433.265	626.18
433.641	640.2
434.016	624.38
434.392	659.4
434.767	649.46
435.143	687.43
435.518	664.15
435.894	653.53
436.269	682.68
436.644	647.43
437.02	668.67
437.395	676.58
437.77	669.12
438.145	701.89
438.52	684.49
438.895	688.33
439.271	689.69
439.646	695.56
440.021	715.22
440.395	723.36
440.77	699.18
441.145	729.68
441.52	735.56
441.895	722
442.27	749.8
442.645	736.92
443.019	732.85
443.394	749.57
443.769	732.4
444.143	729.91
444.518	760.42
444.892	736.69
445.267	759.51
445.641	743.7
446.016	762.9
446.39	784.82
446.764	781.21
447.139	756.8
447.513	773.3
447.887	789.8
448.262	783.92
448.636	806.07
449.01	805.39
449.384	813.98
449.758	799.51
450.132	792.06
450.506	825.5
450.88	800.42
451.254	809.91
451.628	820.53
452.002	853.75
452.376	846.74
452.75	829.79
453.123	834.09
453.497	873.41
453.871	865.5
454.244	896.23
454.618	881.32
454.992	870.02
455.365	872.05
455.739	901.43
456.112	930.58
456.486	893.07
456.859	934.88
457.232	925.39
457.606	944.37
457.979	932.16
458.352	956.12
458.725	981.43
459.099	962.67
459.472	977.81
459.845	993.86
460.218	983.46
460.591	1009.45
460.964	1009.45
461.337	1026.63
461.71	1036.79
462.083	1065.72
462.456	1046.51
462.829	1073.63
463.201	1084.25
463.574	1093.06
463.947	1107.53
464.32	1116.79
464.692	1127.87
465.065	1129.45
465.438	1123.35
465.81	1155.89
466.183	1148.43
466.555	1168.32
466.928	1182.33
467.3	1177.13
467.672	1232.5
468.045	1254.87
468.417	1238.37
468.789	1264.59
469.161	1256.22
469.534	1280.63
469.906	1327.18
470.278	1328.54
470.65	1346.39
471.022	1362.89
471.394	1377.58
471.766	1419.61
472.138	1403.79
472.51	1432.72
472.882	1436.33
473.253	1492.6
473.625	1475.43
473.997	1533.05
474.369	1545.71
474.74	1526.95
475.112	1563.56
475.484	1594.29
475.855	1656.89
476.227	1644.46
476.598	1703.22
476.97	1710.22
477.341	1741.41
477.713	1773.27
478.084	1823.44
478.455	1862.54
478.827	1844.68
479.198	1894.17
479.569	1944.12
479.94	1976.88
480.311	2004.23
480.682	2051.01
481.053	2093.94
481.424	2145.24
481.795	2190.89
482.166	2189.31
482.537	2224.33
482.908	2293.71
483.279	2274.95
483.65	2322.41
484.021	2388.85
484.391	2455.97
484.762	2455.51
485.133	2467.72
485.503	2532.12
485.874	2614.61
486.244	2632.91
486.615	2678.79
486.985	2747.48
487.356	2787.03
487.726	2794.26
488.097	2825
488.467	2884.66
488.837	2925.33
489.207	2942.28
489.578	3033.13
489.948	3040.58
490.318	3098.21
490.688	3128.04
491.058	3171.65
491.428	3199.22
491.798	3301.59
492.168	3324.42
492.538	3339.33
492.908	3382.27
493.278	3417.98
493.648	3422.04
494.017	3500.01
494.387	3503.85
494.757	3568.93
495.126	3594.47
495.496	3624.75
495.866	3679.66
496.235	3728.48
496.605	3773.45
496.974	3805.99
497.344	3801.69
497.713	3839.21
498.082	3843.5
498.452	3887.79
498.821	3941.13
499.19	3895.48
499.559	4004.17
499.928	3984.51
500.298	4015.7
500.667	4084.4
501.036	4068.35
501.405	4089.37
501.774	4120.56
502.143	4159.65
502.512	4144.06
502.88	4229.93
503.249	4222.25
503.618	4224.73
503.987	4238.07
504.356	4286.2
504.724	4356.48
505.093	4275.81
505.462	4372.3
505.83	4357.16
506.199	4372.3
506.567	4485.07
506.936	4474.22
507.304	4484.39
507.672	4473.31
508.041	4541.79
508.409	4563.93
508.777	4592.18
509.145	4588.57
509.514	4620.88
509.882	4665.17
510.25	4614.55
510.618	4671.5
510.986	4673.31
511.354	4720.09
511.722	4752.18
512.09	4763.25
512.458	4755.79
512.826	4790.14
513.193	4772.06
513.561	4847.09
513.929	4840.31
514.297	4883.7
514.664	4896.81
515.032	4867.65
515.4	4982
515.767	4968.44
516.135	5003.47
516.502	4948.56
516.869	5033.98
517.237	5055.45
517.604	4961.66
517.972	5012.06
518.339	5079.85
518.706	5037.59
519.073	5098.61
519.44	5094.32
519.808	5178.38
520.175	5139.74
520.542	5124.82
520.909	5226.97
521.276	5211.37
521.643	5212.5
522.009	5290.24
522.376	5301.54
522.743	5327.76
523.11	5344.7
523.477	5387.19
523.843	5464.47
524.21	5475.77
524.577	5456.11
524.943	5512.16
525.31	5541.08
525.676	5560.97
526.043	5652.49
526.409	5604.81
526.776	5687.07
527.142	5651.59
527.508	5760.74
527.874	5723.45
528.241	5739.5
528.607	5767.29
528.973	5778.14
529.339	5748.76
529.705	5852.49
530.071	5899.49
530.437	5863.56
530.803	5984.01
531.169	5962.09
531.535	5943.11
531.901	6015.87
532.267	5987.17
532.632	6104.91
532.998	6080.05
533.364	6141.07
533.73	6144.01
534.095	6160.5
534.461	6164.34
534.826	6200.5
535.192	6247.96
535.557	6322.98
535.923	6291.12
536.288	6308.29
536.653	6330.89
537.019	6284.11
537.384	6419.48
537.749	6424.45
538.114	6411.34
538.479	6451.79
538.845	6505.13
539.21	6509.42
539.575	6526.37
539.94	6538.35
540.305	6579.02
540.67	6632.58
541.034	6616.76
541.399	6679.81
541.764	6677.55
542.129	6669.64
542.494	6738.11
542.858	6789.86
543.223	6769.75
543.587	6781.28
543.952	6808.62
544.316	6873.7
544.681	6815.85
545.045	6898.11
545.41	6969.29
545.774	6985.11
546.138	6928.39
546.503	6995.28
546.867	6974.94
547.231	7081.83
547.595	7100.82
547.959	7084.77
548.324	7114.83
548.688	7167.71
549.052	7176.97
549.416	7169.97
549.779	7262.39
550.143	7259.91
550.507	7345.33
550.871	7338.78
551.235	7290.42
551.599	7382.16
551.962	7393.92
552.326	7419
552.689	7430.07
553.053	7411.77
553.417	7450.86
553.78	7525.44
554.143	7485.44
554.507	7524.08
554.87	7531.77
555.234	7649.73
555.597	7631.2
555.96	7689.73
556.323	7672.1
556.686	7682.04
557.05	7720.01
557.413	7803.62
557.776	7763.62
558.139	7850.4
558.502	7823.06
558.865	7843.4
559.228	7914.58
559.59	7911.87
559.953	7941.47
560.316	7955.26
560.679	7941.92
561.041	8003.62
561.404	8063.28
561.767	8082.03
562.129	8032.77
562.492	8219.43
562.854	8178.3
563.217	8197.96
563.579	8188.25
563.941	8258.07
564.304	8264.4
564.666	8300.11
565.028	8319.77
565.39	8336.94
565.753	8393.21
566.115	8410.84
566.477	8460.78
566.839	8409.48
567.201	8550.72
567.563	8508.01
567.925	8624.84
568.287	8619.87
568.648	8567.22
569.01	8703.71
569.372	8719.76
569.734	8688.57
570.095	8772.86
570.457	8819.41
570.819	8907.32
571.18	8807.66
571.542	8931.28
571.903	8925.17
572.265	8980.09
572.626	9059.86
572.987	9079.3
573.349	9137.15
573.71	9164.49
574.071	9182.34
574.432	9257.6
574.794	9366.52
575.155	9418.27
575.516	9494.65
575.877	9500.98
576.238	9625.95
576.599	9676.57
576.96	9683.12
577.32	9788.66
577.681	9895.54
578.042	9922.89
578.403	10036.56
578.763	10141.64
579.124	10239.26
579.485	10386.83
579.845	10469.99
580.206	10562.65
580.566	10617.33
580.927	10726.48
581.287	10948.17
581.648	11058
582.008	11200.14
582.368	11314.72
582.728	11474.03
583.089	11596.07
583.449	11823.18
583.809	12030.63
584.169	12149.95
584.529	12285.99
584.889	12608.47
585.249	12699.31
585.609	12998.74
585.969	13204.38
586.329	13438.05
586.688	13630.59
587.048	13852.73
587.408	14081.42
587.768	14370.91
588.127	14576.1
588.487	14789.65
588.846	15188.06
589.206	15260.15
589.565	15592.34
589.925	16012.67
590.284	16214.25
590.643	16446.79
591.003	16793.67
591.362	17237.95
591.721	17484.05
592.08	17759.29
592.44	18082.67
592.799	18402.44
593.158	18619.38
593.517	19057.56
593.876	19432.02
594.235	19564.9
594.593	19960.14
594.952	20351.32
595.311	20611.2
595.67	20939.1
596.029	21408.01
596.387	21749.92
596.746	22147.2
597.104	22364.82
597.463	22760.97
597.822	23183.33
598.18	23453.83
598.538	23701.74
598.897	24113.7
599.255	24318.89
599.613	24955.71
599.972	25183.28
600.33	25574.45
600.688	25794.11
601.046	26124.95
601.404	26668.66
601.762	26938.94
602.12	27223.22
602.478	27747.96
602.836	27942.3
603.194	27990.66
603.552	28509.97
603.91	28680.36
604.268	29161.48
604.625	29420.23
604.983	29831.97
605.341	29984.28
605.698	30301.34
606.056	30677.82
606.413	31016.35
606.771	31297.47
607.128	31649.78
607.485	31720.06
607.843	32087.5
608.2	32456.99
608.557	32797.32
608.914	33027.59
609.272	33480.24
609.629	33582.38
609.986	34009.49
610.343	34030.73
610.7	34562.24
611.057	34717.72
611.414	34823.03
611.771	35117.71
612.127	35469.11
612.484	35575.55
612.841	35856.22
613.198	36030.9
613.554	36284
613.911	36705.69
614.267	36763.54
614.624	36925.57
614.98	37182.06
615.337	37613.91
615.693	37698.43
616.05	37761.25
616.406	38159.66
616.762	38187.91
617.118	38339.77
617.475	38474
617.831	38748.57
618.187	38920.09
618.543	39058.85
618.899	39391.94
619.255	39414.54
619.611	39682.56
619.967	39795.78
620.323	40003
620.678	39974.53
621.034	40032.38
621.39	40228.76
621.746	40269.44
622.101	40833.71
622.457	40577.22
622.812	40738.35
623.168	40958.68
623.523	41059.25
623.879	41306.7
624.234	41133.59
624.589	41569.51
624.945	41568.16
625.3	41859
625.655	41734.26
626.01	41961.37
626.365	41937.41
626.72	41936.28
627.075	41956.4
627.43	42096.05
627.785	42091.31
628.14	42101.48
628.495	42284.98
628.85	42362.94
629.205	42220.57
629.559	42538.3
629.914	42343.73
630.269	42605.87
630.623	42420.34
630.978	42416.27
631.332	42807.67
631.687	42679.77
632.041	42735.13
632.396	42766.32
632.75	42558.64
633.104	42728.35
633.459	42696.04
633.813	42702.14
634.167	42740.33
634.521	42778.07
634.875	42825.98
635.229	42955.69
635.583	42854
635.937	42799.76
636.291	42807.45
636.645	42917.28
636.999	42813.1
637.352	42918.86
637.706	42574.46
638.06	42924.28
638.413	42907.78
638.767	42822.59
639.121	42890.38
639.474	42626.66
639.828	42706.89
640.181	42733.55
640.534	42810.61
640.888	42727.45
641.241	42597.51
641.594	42808.13
641.947	42940.1
642.301	42600.67
642.654	42705.76
643.007	42822.14
643.36	42746.88
643.713	42704.4
644.066	42838.63
644.419	42458.08
644.771	42458.76
645.124	42043.4
645.477	41896.06
645.83	41776.51
646.182	41679.57
646.535	41481.83
646.888	41536.97
647.24	41439.35
647.593	41582.62
647.945	41527.03
648.298	41405.9
648.65	41437.77
649.002	41337.2
649.355	41426.92
649.707	41340.14
650.059	41607.93
650.411	41928.15
650.763	41985.32
651.115	42382.37
651.467	42325.2
651.819	42355.71
652.171	42209.5
652.523	42127.92
652.875	42294.24
653.227	42139.22
653.578	42235.94
653.93	42144.87
654.282	42078.2
654.633	42000.69
654.985	42098.54
655.337	42067.13
655.688	42070.29
656.039	42166.56
656.391	41737.42
656.742	41866.46
657.094	41969.28
657.445	42046.34
657.796	41967.7
658.147	41844.31
658.498	42028.94
658.849	41981.93
659.2	41971.99
659.551	41882.95
659.902	42033
660.253	42089.95
660.604	41999.33
660.955	41797.53
661.306	41970.86
661.656	41856.74
662.007	41893.12
662.358	41937.64
662.708	41806.57
663.059	41931.76
663.409	41775.16
663.76	41900.58
664.11	41866.68
664.461	41917.53
664.811	42026.23
665.161	41967.47
665.511	41814.03
665.862	41790.75
666.212	41830.07
666.562	41915.49
666.912	41945.78
667.262	41723.18
667.612	41754.37
667.962	41791.43
668.312	41699.91
668.662	41874.14
669.011	41694.93
669.361	41746.91
669.711	41717.98
670.06	41618.1
670.41	41597.08
670.76	41504.21
671.109	41616.74
671.459	41599.8
671.808	41674.37
672.157	41634.6
672.507	41478.67
672.856	41305.57
673.205	41417.2
673.554	41516.18
673.904	41456.97
674.253	41717.08
674.602	41557.76
674.951	40909.42
675.3	40765.69
675.649	41422.85
675.998	41393.02
676.346	41307.37
676.695	41354.6
677.044	41122.97
677.393	41335.62
677.741	41280.71
678.09	41290.43
678.438	41034.39
678.787	41144.21
679.135	41248.62
679.484	40894.5
679.832	41175.17
680.181	40891.57
680.529	40972.02
680.877	40920.04
681.225	40849.53
681.573	40989.64
681.922	40864.67
682.27	40644.34
682.618	40678.01
682.966	40578.81
683.314	40599.37
683.661	40566.15
684.009	40410.9
684.357	40292.26
684.705	40291.58
685.053	40203.45
685.4	40334.52
685.748	40051.59
686.095	40212.49
686.443	39918.94
686.79	39771.82
687.138	40000.06
687.485	40052.04
687.832	39800.07
688.18	39831.93
688.527	39662.9
688.874	39595.78
689.221	39570.02
689.568	39463.58
689.915	39221.1
690.262	39388.1
690.609	39229.91
690.956	39149.01
691.303	39109.24
691.65	38956.48
691.997	38871.05
692.344	38667.22
692.69	38648.46
693.037	38523.49
693.383	38235.82
693.73	38359.66
694.077	38255.48
694.423	38159.43
694.769	38187
695.116	38043.51
695.462	38057.06
695.808	37831.76
696.155	37863.85
696.501	37648.71
696.847	37686.9
697.193	37415.5
697.539	37589.96
697.885	37279.68
698.231	37150.2
698.577	37146.35
698.923	37188.61
699.269	36964.44
699.614	36745.23
699.96	36650.77
700.306	36780.71
700.651	36592.92
700.997	36365.36
701.342	36408.97
701.688	36492.59
702.033	36148.19
702.379	36259.37
702.724	36164.01
703.069	36141.18
703.415	35712.49
703.76	35791.81
704.105	35804.02
704.45	35794.98
704.795	35524.02
705.14	35472.95
705.485	35346.85
705.83	35360.41
706.175	35306.85
706.52	35139.17
706.865	34981.21
707.209	34903.25
707.554	34935.11
707.899	35087.2
708.243	34779.64
708.588	34782.57
708.932	34690.37
709.277	34521.56
709.621	34579.19
709.966	34348.46
710.31	34418.97
710.654	34037.28
710.998	34128.81
711.342	34081.12
711.687	34111.18
712.031	33991.18
712.375	33891.75
712.719	33902.6
713.063	33894.01
713.407	33831.86
713.75	33776.5
714.094	33756.16
714.438	33562.04
714.782	33595.49
715.125	33402.27
715.469	33423.97
715.812	33200.24
716.156	32886.58
716.499	32953.24
716.843	33095.61
717.186	32884.09
717.53	32941.72
717.873	32903.98
718.216	32859.23
718.559	32779.24
718.902	32569.3
719.246	32645.68
719.589	32583.31
719.932	32467.38
720.275	32361.39
720.617	32355.29
720.96	32295.41
721.303	32193.94
721.646	32308.29
721.989	32088.18
722.331	32254.73
722.674	32184.45
723.016	32091.12
723.359	32047.28
723.701	31996.88
724.044	31829.88
724.386	31648.19
724.729	31882.76
725.071	31828.98
725.413	31648.42
725.755	31683.22
726.097	31590.34
726.439	31344.02
726.782	31532.04
727.124	31572.72
727.465	31419.95
727.807	31447.29
728.149	31389.22
728.491	31257.24
728.833	31265.83
729.175	31165.27
729.516	31121.2
729.858	31024.03
730.199	31087.08
730.541	31044.82
730.882	30967.31
731.224	30984.03
731.565	30718.27
731.906	30845.28
732.248	30813.86
732.589	30641.89
732.93	30614.1
733.271	30604.15
733.612	30689.8
733.953	30576.58
734.294	30434.21
734.635	30436.7
734.976	30525.28
735.317	30211.85
735.658	30294.78
735.999	30325.52
736.339	30234.45
736.68	30295.01
737.021	30233.32
737.361	29997.84
737.702	30256.82
738.042	30072.87
738.383	30124.17
738.723	30152.41
739.063	29965.98
739.404	30066.54
739.744	29942.48
740.084	29807.11
740.424	29870.16
740.764	29724.4
741.104	29839.65
741.444	29520.57
741.784	29548.59
742.124	29606.89
742.464	29536.16
742.804	29570.28
743.143	29401.7
743.483	29446.44
743.823	29283.28
744.162	29221.59
744.502	29249.84
744.841	29232.89
745.181	29237.41
745.52	29029.73
745.86	29251.87
746.199	29053.69
746.538	29076.96
746.877	29204.87
747.216	29094.59
747.556	28971.2
747.895	29021.37
748.234	28852.33
748.573	28864.76
748.911	28827.93
749.25	28787.48
749.589	28627.03
749.928	28627.26
750.267	28670.87
750.605	28735.05
750.944	28531.89
751.283	28547.48
751.621	28592.91
751.96	28345
752.298	28347.49
752.636	28335.96
752.975	28079.7
753.313	28140.71
753.651	28349.3
753.989	28108.4
754.327	28033.6
754.666	27975.97
755.004	28039.93
755.342	28046.71
755.679	27829.76
756.017	27705.25
756.355	27899.37
756.693	27713.83
757.031	27718.58
757.368	27496.66
757.706	27433.39
758.044	27429.32
758.381	27544.12
758.719	27339.38
759.056	27331.47
759.394	27261.87
759.731	27102.32
760.068	27023.23
760.405	27055.55
760.743	26887.64
761.08	26906.62
761.417	26755.21
761.754	26830.92
762.091	26689.45
762.428	26591.6
762.765	26527.2
763.102	26494.43
763.438	26474.54
763.775	26255.57
764.112	26357.94
764.449	26224.16
764.785	26022.35
765.122	25898.74
765.458	25899.87
765.795	25988
766.131	25857.84
766.467	25769.48
766.804	25684.96
767.14	25508.24
767.476	25582.14
767.812	25417.4
768.148	25367
768.485	25192.09
768.821	25141.25
769.157	25060.34
769.492	25026.9
769.828	24958.88
770.164	24790.29
770.5	24665.78
770.836	24737.87
771.171	24500.58
771.507	24475.73
771.842	24298.56
772.178	24398.44
772.513	24248.84
772.849	24212.46
773.184	24148.05
773.519	24102.63
773.855	23909.19
774.19	23975.17
774.525	23792.13
774.86	23765.46
775.195	23768.85
775.53	23633.49
775.865	23359.37
776.2	23316.89
776.535	23086.16
776.87	23317.56
777.205	23176.1
777.539	23040.06
777.874	23060.17
778.209	22878.03
778.543	22716.22
778.878	22617.92
779.212	22645.72
779.547	22465.84
779.881	22549
780.215	22270.36
780.55	22346.52
780.884	22319.17
781.218	22152.17
781.552	22160.08
781.886	21982.23
782.22	21929.35
782.554	21892.97
782.888	21670.83
783.222	21547.67
783.556	21571.85
783.889	21387.9
784.223	21352.87
784.557	21297.28
784.89	21227.9
785.224	21149.49
785.557	21069.94
785.891	21060.9
786.224	20949.72
786.558	20963.95
786.891	20718.09
787.224	20654.58
787.557	20643.28
787.891	20604.64
788.224	20609.84
788.557	20493.68
788.89	20510.86
789.223	20344.54
789.556	20169.85
789.888	20250.3
790.221	20092.56
790.554	19873.59
790.887	19983.42
791.219	20030.65
791.552	19936.18
791.884	19817.09
792.217	19759.92
792.549	19615.29
792.882	19585.91
793.214	19410.32
793.546	19493.26
793.879	19351.57
794.211	19192.48
794.543	19307.05
794.875	19163.55
795.207	19194.06
795.539	19148.86
795.871	19012.82
796.203	18798.36
796.535	18875.87
796.867	18797.01
797.198	18714.75
797.53	18797.01
797.862	18610.34
798.193	18646.05
798.525	18433.4
798.856	18488.77
799.188	18397.24
799.519	18276.57
799.85	18131.94
800.182	18233.4
800.513	18186.85
800.844	17929.01
801.175	18047.19
801.506	18145.95
801.837	17955.67
802.168	17877.48
802.499	17880.42
802.83	17714.77
803.161	17690.14
803.491	17652.63
803.822	17625.29
804.153	17504.84
804.483	17430.04
804.814	17405.4
805.145	17432.3
805.475	17348.23
805.805	17209.25
806.136	17319.76
806.466	17220.55
806.796	17147.11
807.126	16993.66
807.457	17034.79
807.787	17006.32
808.117	16901.24
808.447	16807.68
808.777	16962.48
809.107	16820.33
809.436	16684.52
809.766	16757.29
810.096	16649.94
810.426	16634.8
810.755	16545.09
811.085	16562.26
811.414	16546.44
811.744	16335.15
812.073	16333.79
812.403	16368.14
812.732	16298.77
813.061	16317.3
813.39	16270.29
813.719	16097.87
814.049	16233.01
814.378	16102.84
814.707	15979.23
815.036	16077.53
815.365	15962.28
815.693	15863.3
816.022	15883.86
816.351	15830.08
816.68	15744.43
817.008	15710.31
817.337	15643.42
817.665	15569.29
817.994	15630.99
818.322	15574.72
818.651	15531.1
818.979	15496.75
819.307	15557.77
819.636	15394.16
819.964	15429.86
820.292	15408.17
820.62	15413.14
820.948	15325.91
821.276	15368.4
821.604	15258.57
821.932	15366.59
822.259	15286.36
822.587	15282.75
822.915	15212.92
823.243	15342.18
823.57	15295.63
823.898	15339.7
824.225	15198.68
824.553	15135.41
824.88	15206.59
825.207	15218.34
825.535	15178.34
825.862	15290.66
826.189	15178.8
826.516	15195.29
826.843	15220.83
827.17	15313.93
827.497	15253.82
827.824	15200.94
828.151	15341.05
828.478	15200.04
828.805	15271
829.131	15233.94
829.458	15122.53
829.785	15058.35
830.111	15174.73
830.438	15211.56
830.764	15118.91
831.09	15168.63
831.417	15101.28
831.743	15173.15
832.069	15207.95
832.395	15164.11
832.722	15151.68
833.048	15118.23
833.374	15139.25
833.7	14986.94
834.026	15113.49
834.351	15080.27
834.677	15094.96
835.003	15135.41
835.329	15069.87
835.654	15067.16
835.98	14884.11
836.306	14980.83
836.631	14928.63
836.956	14978.35
837.282	14857.45
837.607	14811.8
837.932	14835.75
838.258	14820.16
838.583	14783.33
838.908	14687.06
839.233	14740.84
839.558	14735.42
839.883	14701.29
840.208	14418.82
840.533	14650.45
840.858	14635.31
841.182	14527.29
841.507	14691.8
841.832	14419.49
842.156	14395.31
842.481	14449.32
842.805	14451.81
843.13	14430.79
843.454	14394.64
843.778	14365.94
844.103	14304.02
844.427	14231.93
844.751	14235.77
845.075	14152.16
845.399	14142.66
845.723	14084.59
846.047	14059.73
846.371	13962.33
846.695	13862.22
847.019	13841.66
847.343	13889.11
847.666	13707.2
847.99	13670.59
848.313	13719.85
848.637	13641.89
848.96	13572.28
849.284	13526.86
849.607	13473.3
849.931	13353.53
850.254	13254.1
850.577	13197.83
850.9	13175.23
851.223	13160.54
851.546	13035.12
851.869	13007.55
852.192	13064.5
852.515	12931.4
852.838	12816.6
853.161	12870.83
853.483	12793.77
853.806	12724.17
854.129	12724.85
854.451	12710.16
854.774	12636.49
855.096	12495.25
855.419	12518.75
855.741	12497.51
856.063	12428.36
856.385	12358.98
856.708	12380.23
857.03	12341.81
857.352	12304.97
857.674	12324.86
857.996	12210.06
858.318	12259.55
858.64	12104.53
858.961	12150.63
859.283	12144.98
859.605	12038.77
859.926	11959.22
860.248	11987.24
860.57	11971.42
860.891	11988.15
861.212	11881.71
861.534	11854.14
861.855	11862.72
862.176	11842.84
862.498	11832.67
862.819	11826.34
863.14	11772.33
863.461	11692.56
863.782	11711.99
864.103	11582.28
864.424	11603.52
864.745	11725.55
865.065	11592.22
865.386	11498.21
865.707	11519.01
866.027	11567.82
866.348	11517.65
866.668	11524.43
866.989	11508.16
867.309	11430.19
867.63	11448.72
867.95	11483.07
868.27	11380.7
868.59	11406.47
868.91	11373.47
869.23	11355.62
869.55	11323.76
869.87	11299.8
870.19	11281.5
870.51	11241.27
870.83	11232.68
871.15	11185.45
871.469	11162.63
871.789	11265.23
872.109	11159.01
872.428	11146.36
872.748	11175.29
873.067	11141.84
873.386	11094.84
873.706	11139.13
874.025	11054.16
874.344	10977.1
874.663	11075.17
874.982	10996.08
875.301	11008.28
875.62	10987.95
875.939	10869.98
876.258	10865.46
876.577	10891.45
876.896	10916.76
877.214	10923.99
877.533	10890.32
877.852	10830.21
878.17	10809.87
878.489	10879.25
878.807	10834.05
879.125	10811.23
879.444	10782.98
879.762	10708.4
880.08	10718.8
880.398	10824.11
880.716	10705.69
881.034	10643.32
881.352	10658.91
881.67	10606.03
881.988	10588.41
882.306	10582.31
882.624	10520.39
882.941	10548.41
883.259	10469.32
883.577	10488.52
883.894	10389.54
884.212	10435.19
884.529	10425.7
884.846	10336.66
885.164	10396.77
885.481	10295.99
885.798	10315.87
886.115	10214.86
886.432	10288.08
886.75	10201.75
887.067	10238.59
887.383	10201.3
887.7	10272.26
888.017	10083.34
888.334	10128.76
888.651	10104.35
888.967	10032.04
889.284	10037.01
889.6	9996.79
889.917	9951.59
890.233	9919.73
890.55	9861.2
890.866	9883.34
891.182	9807.41
891.498	9759.73
891.815	9756.11
892.131	9709.11
892.447	9761.09
892.763	9694.19
893.079	9670.47
893.395	9623.01
893.71	9661.88
894.026	9661.88
894.342	9549.57
894.657	9507.08
894.973	9525.39
895.289	9491.49
895.604	9428.66
895.92	9397.03
896.235	9299.63
896.55	9406.74
896.865	9357.48
897.181	9283.13
897.496	9276.58
897.811	9243.13
898.126	9242
898.441	9075.68
898.756	9100.09
899.071	9086.07
899.386	9075
899.7	9074.55
900.015	9038.62
900.33	8928.34
900.644	8923.37
900.959	8925.4
901.273	8820.77
901.588	8814.44
901.902	8814.67
902.216	8747.1
902.531	8753.43
902.845	8745.97
903.159	8639.08
903.473	8677.05
903.787	8614.67
904.101	8598.86
904.415	8519.99
904.729	8520.44
905.042	8510.95
905.356	8450.61
905.67	8400.89
905.984	8430.5
906.297	8324.06
906.611	8323.61
906.924	8329.71
907.237	8267.57
907.551	8243.61
907.864	8202.03
908.177	8221.69
908.491	8139.43
908.804	8172.88
909.117	8095.59
909.43	8013.33
909.743	8001.13
910.056	7953.22
910.368	7940.12
910.681	7934.92
910.994	7862.38
911.307	7839.55
911.619	7729.73
911.932	7836.39
912.244	7709.84
912.557	7750.06
912.869	7667.13
913.181	7723.62
913.494	7643.63
913.806	7570.86
914.118	7535.15
914.43	7556.85
914.742	7522.27
915.054	7485.21
915.366	7456.29
915.678	7373.13
915.99	7400.47
916.302	7253.13
916.613	7273.47
916.925	7335.39
917.236	7301.94
917.548	7203.64
917.859	7207.03
918.171	7190.08
918.482	7124.32
918.794	7089.74
919.105	7080.48
919.416	6980.59
919.727	7063.08
920.038	7035.51
920.349	6950.99
920.66	6905.57
920.971	6874.38
921.282	6896.98
921.593	6770.66
921.903	6811.33
922.214	6779.69
922.525	6730.66
922.835	6686.14
923.146	6683.88
923.456	6632.35
923.767	6678.23
924.077	6659.7
924.387	6592.58
924.697	6581.96
925.008	6520.27
925.318	6559.59
925.628	6477.78
925.938	6436.2
926.248	6407.95
926.558	6420.16
926.867	6418.12
927.177	6327.28
927.487	6327.73
927.796	6283.44
928.106	6179.94
928.416	6217
928.725	6240.95
929.034	6196.21
929.344	6172.7
929.653	6157.11
929.962	6115.98
930.271	6083.67
930.581	6035.31
930.89	5977
931.199	5989.88
931.508	5986.27
931.817	5932.71
932.125	5933.39
932.434	5900.17
932.743	5870.11
933.051	5821.53
933.36	5814.3
933.669	5757.57
933.977	5757.35
934.286	5771.81
934.594	5740.85
934.902	5669.89
935.21	5588.99
935.519	5656.79
935.827	5648.65
936.135	5600.74
936.443	5545.83
936.751	5577.01
937.059	5479.16
937.367	5477.58
937.674	5520.07
937.982	5466.73
938.29	5442.78
938.597	5412.27
938.905	5385.61
939.213	5363.23
939.52	5360.52
939.827	5387.19
940.135	5268.1
940.442	5225.16
940.749	5277.59
941.056	5259.51
941.363	5174.54
941.67	5192.39
941.977	5116.46
942.284	5053.86
942.591	5117.14
942.898	5085.05
943.205	5083.92
943.511	5059.51
943.818	5019.06
944.125	4999.63
944.431	4967.09
944.738	4959.63
945.044	4962.12
945.35	4949.23
945.657	4907.2
945.963	4855
946.269	4848.45
946.575	4840.31
946.881	4794.21
947.187	4811.38
947.493	4752.63
947.799	4744.72
948.105	4760.09
948.41	4695.68
948.716	4725.06
949.022	4628.11
949.327	4636.02
949.633	4626.98
949.938	4584.5
950.244	4603.93
950.549	4555.35
950.854	4497.27
951.16	4551.5
951.465	4510.38
951.77	4511.51
952.075	4481.9
952.38	4448.23
952.685	4425.18
952.99	4368.23
953.294	4392.19
953.599	4346.31
953.904	4316.71
954.209	4328.91
954.513	4290.27
954.818	4282.13
955.122	4312.19
955.426	4250.04
955.731	4271.51
956.035	4228.12
956.339	4168.01
956.643	4161.91
956.948	4160.78
957.252	4137.05
957.556	4123.27
957.86	4110.61
958.163	4096.83
958.467	4057.51
958.771	4045.98
959.075	4057.51
959.378	3998.07
959.682	4039.88
959.985	3994.91
960.289	3936.83
960.592	3931.18
960.896	3907.68
961.199	3925.31
961.502	3937.74
961.805	3897.74
962.108	3822.71
962.411	3846.44
962.714	3808.7
963.017	3829.26
963.32	3816.61
963.623	3756.72
963.926	3786.78
964.228	3729.83
964.531	3740.9
964.833	3732.77
965.136	3699.1
965.438	3720.11
965.741	3674.47
966.043	3609.61
966.345	3630.4
966.648	3626.78
966.95	3665.65
967.252	3563.96
967.554	3558.31
967.856	3550.4
968.158	3518.76
968.46	3535.71
968.761	3519.89
969.063	3439.44
969.365	3479.22
969.666	3479.89
969.968	3471.08
970.269	3443.96
970.571	3420.91
970.872	3422.72
971.174	3387.92
971.475	3380.91
971.776	3321.03
972.077	3333.23
972.378	3316.96
972.679	3336.4
972.98	3300.46
973.281	3290.97
973.582	3285.78
973.883	3260.01
974.183	3256.17
974.484	3205.33
974.785	3242.84
975.085	3229.28
975.386	3198.77
975.686	3191.54
975.986	3197.64
976.287	3177.08
976.587	3112.67
976.887	3089.62
977.187	3132.33
977.487	3068.38
977.787	3093.69
978.087	3079.45
978.387	3029.96
978.687	3034.48
978.987	3031.09
979.286	3018.66
979.586	3008.49
979.885	2991.77
980.185	2981.6
980.484	2960.13
980.784	2945.45
981.083	2909.29
981.382	2889.4
981.682	2896.86
981.981	2883.75
982.28	2885.11
982.579	2881.72
982.878	2839.23
983.177	2851.21
983.475	2808.05
983.774	2812.57
984.073	2784.09
984.372	2781.38
984.67	2794.94
984.969	2780.93
985.267	2764.66
985.566	2723.98
985.864	2727.15
986.162	2691.67
986.461	2711.78
986.759	2699.58
987.057	2705.9
987.355	2658.22
987.653	2644.89
987.951	2654.15
988.249	2647.83
988.547	2625.68
988.844	2649.18
989.142	2595.85
989.44	2546.59
989.737	2543.65
990.035	2576.19
990.332	2573.48
990.63	2529.41
990.927	2527.83
991.224	2526.02
991.521	2524.21
991.819	2495.29
992.116	2480.37
992.413	2471.33
992.71	2434.05
993.006	2432.92
993.303	2396.76
993.6	2387.49
993.897	2410.09
994.193	2435.63
994.49	2417.78
994.787	2372.8
995.083	2361.28
995.379	2344.33
995.676	2331.22
995.972	2294.61
996.268	2336.87
996.565	2321.05
996.861	2283.54
997.157	2263.2
997.453	2290.55
997.749	2278.34
998.044	2228.85
998.34	2209.65
998.636	2279.25
998.932	2164.45
999.227	2166.48
999.523	2195.18
999.818	2148.18
1000.114	2162.19
1000.409	2177.78
1000.704	2149.08
1001	2120.61
1001.295	2109.08
1001.59	2145.24
1001.885	2105.47
1002.18	2063.66
1002.475	2081.06
1002.77	2063.43
1003.065	2068.86
1003.359	2017.79
1003.654	2042.42
1003.949	2001.06
1004.243	2010.1
1004.538	1990.44
1004.832	1994.51
1005.127	1959.71
1005.421	1969.88
1005.715	1971.23
1006.009	1939.37
1006.304	1942.08
1006.598	1899.82
1006.892	1917.45
1007.186	1885.13
1007.48	1924.46
1007.773	1895.53
1008.067	1862.76
1008.361	1852.37
1008.655	1871.8
1008.948	1852.59
1009.242	1836.77
1009.535	1812.14
1009.829	1806.04
1010.122	1780.5
1010.415	1790.22
1010.708	1793.39
1011.001	1756.78
1011.295	1766.95
1011.588	1742.54
1011.881	1733.05
1012.173	1740.73
1012.466	1713.84
1012.759	1714.07
1013.052	1704.35
1013.344	1714.52
1013.637	1702.09
1013.93	1677.91
1014.222	1686.5
1014.514	1658.47
1014.807	1654.41
1015.099	1642.65
1015.391	1642.65
1015.683	1611.02
1015.976	1623.9
1016.268	1590.9
1016.56	1587.06
1016.851	1584.35
1017.143	1545.26
1017.435	1554.07
1017.727	1542.77
1018.018	1540.06
1018.31	1527.86
1018.602	1514.52
1018.893	1489.89
1019.185	1482.43
1019.476	1475.43
1019.767	1496.67
1020.058	1472.72
1020.35	1468.65
1020.641	1440.85
1020.932	1414.41
1021.223	1431.36
1021.514	1397.92
1021.804	1411.47
1022.095	1406.5
1022.386	1371.48
1022.677	1399.95
1022.967	1382.1
1023.258	1390.01
1023.548	1366.73
1023.839	1349.1
1024.129	1336
1024.419	1335.32
1024.709	1330.57
1025	1339.39
1025.29	1306.17
1025.58	1302.78
1025.87	1270.69
1026.16	1284.02
1026.449	1247.64
1026.739	1272.27
1027.029	1239.05
1027.319	1230.24
1027.608	1260.74
1027.898	1223.91
1028.187	1230.91
1028.477	1240.63
1028.766	1211.93
1029.055	1174.42
1029.344	1204.47
1029.634	1173.29
1029.923	1180.29
1030.212	1170.12
1030.501	1169.45
1030.79	1131.93
1031.078	1166.96
1031.367	1134.19
1031.656	1136.45
1031.945	1139.62
1032.233	1141.2
1032.522	1089.67
1032.81	1111.37
1033.099	1090.8
1033.387	1077.7
1033.675	1098.49
1033.963	1072.73
1034.251	1065.49
1034.54	1060.97
1034.828	1053.29
1035.116	1031.15
1035.403	1039.96
1035.691	1045.83
1035.979	1007.64
1036.267	1046.74
1036.554	1021.88
1036.842	1016.23
1037.129	1014.65
1037.417	997.02
1037.704	991.15
1037.992	994.76
1038.279	954.76
1038.566	974.65
1038.853	974.65
1039.14	974.65
