Data from hue_200_FLMS001491_00096.txt Node
Date: Tue Feb 07 16:44:13 GMT 2017
User: dcchb
Spectrometer: FLMS00149
Trigger mode: 0
Integration Time (sec): 2.000000E-2
Scans to average: 10
Electric dark correction enabled: true
Nonlinearity correction enabled: false
Boxcar width: 0
XAxis mode: Wavelengths
Number of Pixels in Spectrum: 2048
>>>>>Begin Spectral Data<<<<<
341.393	-1.71
341.776	-1.71
342.16	-1.71
342.543	-59.33
342.927	-69.28
343.31	-69.5
343.693	-86
344.077	-65.44
344.46	-73.57
344.843	-67.47
345.226	-37.64
345.61	-24.76
345.993	-10.52
346.376	-19.56
346.759	15.47
347.142	25.18
347.525	36.26
347.908	78.97
348.291	96.82
348.674	93.88
349.057	107.89
349.44	128.01
349.823	140.89
350.206	162.81
350.588	196.03
350.971	193.77
351.354	228.57
351.737	223.14
352.119	234.67
352.502	271.05
352.884	274.89
353.267	269.92
353.65	301.33
354.032	265.85
354.414	302.46
354.797	308.79
355.179	302.01
355.562	330.94
355.944	319.41
356.326	325.29
356.709	345.63
357.091	352.41
357.473	345.4
357.855	338.17
358.238	340.88
358.62	357.38
359.002	325.74
359.384	349.47
359.766	341.56
360.148	337.72
360.53	322.12
360.912	343.14
361.294	333.42
361.676	328.23
362.057	320.54
362.439	326.42
362.821	320.99
363.203	315.8
363.584	332.29
363.966	325.97
364.348	336.14
364.729	289.58
365.111	315.8
365.493	319.19
365.874	323.03
366.256	318.96
366.637	327.1
367.019	324.84
367.4	322.58
367.781	311.96
368.163	319.19
368.544	296.81
368.925	320.32
369.306	291.84
369.688	312.18
370.069	321.22
370.45	311.96
370.831	306.31
371.212	310.6
371.593	313.54
371.974	326.42
372.355	298.85
372.736	317.83
373.117	309.92
373.498	321.22
373.879	304.95
374.26	308.34
374.641	307.89
375.021	297.72
375.402	339.98
375.783	311.05
376.163	329.36
376.544	339.3
376.925	316.02
377.305	323.03
377.686	312.18
378.066	334.55
378.447	314.21
378.827	343.37
379.208	323.25
379.588	329.81
379.968	330.26
380.349	336.14
380.729	338.17
381.109	313.99
381.489	329.81
381.87	340.65
382.25	343.37
382.63	328.9
383.01	339.3
383.39	345.85
383.77	352.18
384.15	329.13
384.53	354.89
384.91	349.69
385.29	358.06
385.67	353.54
386.049	342.69
386.429	349.92
386.809	362.8
387.189	320.54
387.568	355.34
387.948	336.59
388.328	357.6
388.707	358.28
389.087	338.85
389.466	347.21
389.846	376.13
390.225	356.02
390.605	390.6
390.984	372.07
391.363	368
391.743	366.87
392.122	367.32
392.501	360.54
392.881	377.04
393.26	372.29
393.639	373.42
394.018	363.93
394.397	374.55
394.776	379.75
395.155	393.99
395.534	383.82
395.913	374.78
396.292	396.92
396.671	389.24
397.05	395.79
397.429	400.54
397.808	374.78
398.186	397.6
398.565	409.13
398.944	411.84
399.323	394.21
399.701	394.44
400.08	403.03
400.458	398.96
400.837	404.83
401.215	414.78
401.594	403.7
401.972	425.17
402.351	410.03
402.729	419.52
403.107	445.28
403.486	431.05
403.864	440.54
404.242	462.46
404.62	439.18
404.999	457.04
405.377	452.74
405.755	450.26
406.133	458.84
406.511	467.43
406.889	470.14
407.267	465.62
407.645	504.72
408.023	493.87
408.401	487.09
408.779	495.23
409.156	496.81
409.534	494.55
409.912	493.42
410.29	517.15
410.667	538.62
411.045	518.96
411.422	543.14
411.8	565.73
412.178	566.64
412.555	575.45
412.933	565.51
413.31	592.4
413.687	596.02
414.065	600.99
414.442	634.21
414.819	619.97
415.197	650.93
415.574	645.05
415.951	655.22
416.328	668.78
416.705	643.47
417.082	653.64
417.46	680.08
417.837	713.07
418.214	731.83
418.591	704.71
418.967	730.25
419.344	718.05
419.721	755.56
420.098	729.12
420.475	756.01
420.852	789.91
421.228	796.69
421.605	806.41
421.982	824.71
422.358	842.34
422.735	848.21
423.111	844.82
423.488	862.22
423.864	876.01
424.241	915.78
424.617	930.02
424.994	939.06
425.37	956.68
425.746	986.29
426.123	947.87
426.499	998.04
426.875	1002.33
427.251	1029.22
427.627	1024.03
428.003	1053.86
428.379	1049.34
428.756	1070.81
429.132	1099.73
429.507	1077.81
429.883	1110.35
430.259	1110.13
430.635	1151.26
431.011	1154.19
431.387	1170.01
431.763	1210.46
432.138	1203.46
432.514	1233.51
432.89	1236.68
433.265	1275.32
433.641	1262.66
434.016	1345.37
434.392	1343.11
434.767	1391.93
435.143	1382.89
435.518	1381.76
435.894	1436.67
436.269	1439.16
436.644	1496.78
437.02	1503.11
437.395	1547.4
437.77	1554.86
438.145	1590.34
438.52	1591.92
438.895	1649.55
439.271	1660.62
439.646	1705.14
440.021	1693.61
440.395	1770.9
440.77	1751.24
441.145	1742.88
441.52	1817.9
441.895	1826.27
442.27	1849.77
442.645	1836.89
443.019	1875.76
443.394	1900.61
443.769	1943.32
444.143	1936.32
444.518	1961.86
444.892	1992.14
445.267	1964.34
445.641	2010.22
446.016	2045.02
446.39	2061.51
446.764	2071.68
447.139	2068.07
447.513	2112.81
447.887	2128.18
448.262	2128.63
448.636	2136.09
449.01	2198.01
449.384	2204.33
449.758	2197.56
450.132	2273.49
450.506	2246.59
450.88	2258.12
451.254	2271.9
451.628	2311.68
452.002	2348.74
452.376	2385.12
452.75	2381.73
453.123	2399.13
453.497	2464.21
453.871	2422.63
454.244	2487.27
454.618	2494.95
454.992	2553.7
455.365	2582.63
455.739	2623.08
456.112	2614.72
456.486	2677.99
456.859	2695.85
457.232	2742.85
457.606	2716.19
457.979	2750.76
458.352	2819.01
458.725	2826.92
459.099	2855.17
459.472	2933.58
459.845	2946.01
460.218	2918.67
460.591	2988.27
460.964	2986.69
461.337	3090.41
461.71	3153.46
462.083	3119.79
462.456	3155.27
462.829	3183.74
463.201	3240.69
463.574	3257.41
463.947	3292.89
464.32	3374.93
464.692	3407.47
465.065	3416.96
465.438	3492.21
465.81	3515.71
466.183	3528.82
466.555	3624.18
466.928	3623.05
467.3	3633.45
467.672	3695.14
468.045	3794.12
468.417	3781.47
468.789	3824.63
469.161	3931.29
469.534	3927.23
469.906	3986.21
470.278	4038.18
470.65	4073.44
471.022	4154.11
471.394	4202.7
471.766	4236.82
472.138	4331.96
472.51	4371.06
472.882	4455.57
473.253	4514.56
473.625	4591.39
473.997	4608.57
474.369	4685.4
474.74	4689.24
475.112	4790.71
475.484	4832.29
475.855	4894.89
476.227	4935.79
476.598	5078.16
476.97	5084.94
477.341	5248.1
477.713	5305.95
478.084	5328.55
478.455	5476.34
478.827	5510.69
479.198	5657.58
479.569	5655.09
479.94	5794.97
480.311	5847.85
480.682	5967.63
481.053	6062.76
481.424	6249.88
481.795	6227.05
482.166	6285.36
482.537	6311.35
482.908	6488.29
483.279	6516.54
483.65	6614.16
484.021	6760.6
484.391	6806.25
484.762	6839.24
485.133	6902.29
485.503	7020.48
485.874	7154.71
486.244	7217.08
486.615	7275.84
486.985	7379.34
487.356	7518.55
487.726	7501.14
488.097	7690.74
488.467	7726.45
488.837	7901.13
489.207	7954.01
489.578	8037.63
489.948	8114.24
490.318	8231.07
490.688	8243.05
491.058	8368.24
491.428	8356.26
491.798	8450.5
492.168	8617.05
492.538	8570.27
492.908	8669.25
493.278	8857.95
493.648	8793.99
494.017	8844.61
494.387	8989.47
494.757	9043.02
495.126	9059.3
495.496	9115.34
495.866	9149.91
496.235	9261.78
496.605	9319.18
496.974	9339.06
497.344	9382.68
497.713	9379.97
498.082	9460.87
498.452	9592.16
498.821	9603.24
499.19	9559.17
499.559	9698.83
499.928	9660.41
500.298	9725.72
500.667	9831.03
501.036	9738.15
501.405	9830.8
501.774	9850.69
502.143	9921.65
502.512	9985.37
502.88	9999.38
503.249	9946.5
503.618	9986.95
503.987	10036.67
504.356	10050
504.724	10072.15
505.093	10111.25
505.462	10121.19
505.83	10140.17
506.199	10217.46
506.567	10271.24
506.936	10303.56
507.304	10345.82
507.672	10335.19
508.041	10398.7
508.409	10457.9
508.777	10457.45
509.145	10525.02
509.514	10487.73
509.882	10534.74
510.25	10611.8
510.618	10563.44
510.986	10545.36
511.354	10627.62
511.722	10640.95
512.09	10703.77
512.458	10611.35
512.826	10752.58
513.193	10741.96
513.561	10722.3
513.929	10765.24
514.297	10774.05
514.664	10806.59
515.032	10803.66
515.4	10887.5
515.767	10880.49
516.135	10871.9
516.502	10798.46
516.869	10886.37
517.237	10864.67
517.604	10836.42
517.972	10916.42
518.339	10944.44
518.706	10889.08
519.073	10889.53
519.44	10943.09
519.808	10936.08
520.175	10907.61
520.542	11067.83
520.909	11087.26
521.276	10976.31
521.643	11070.32
522.009	11002.75
522.376	10994.61
522.743	11024.22
523.11	11138.34
523.477	11151.44
523.843	11092.01
524.21	11218.79
524.577	11163.2
524.943	11152.35
525.31	11174.04
525.676	11123.87
526.043	11199.13
526.409	11194.61
526.776	11265.11
527.142	11153.03
527.508	11168.17
527.874	11174.49
528.241	11244.1
528.607	11145.57
528.973	11177.43
529.339	11139.24
529.705	11197.32
530.071	11188.51
530.437	11176.08
530.803	11197.09
531.169	11127.49
531.535	11043.42
531.901	11159.58
532.267	11019.92
532.632	11055.18
532.998	10976.31
533.364	11006.36
533.73	10984.67
534.095	10991.22
534.461	10939.25
534.826	10943.31
535.192	10973.82
535.557	10952.81
535.923	10856.99
536.288	10838.91
536.653	10826.03
537.019	10755.3
537.384	10702.19
537.749	10691.57
538.114	10620.16
538.479	10604.79
538.845	10609.31
539.21	10484.79
539.575	10529.77
539.94	10416.55
540.305	10465.36
540.67	10349.66
541.034	10369.77
541.399	10280.96
541.764	10290
542.129	10266.04
542.494	10245.48
542.858	10226.04
543.223	10066.05
543.587	10087.07
543.952	10002.55
544.316	10040.74
544.681	9994.64
545.045	9866.96
545.41	9934.53
545.774	9853.63
546.138	9836.68
546.503	9748.77
546.867	9694.31
547.231	9723.91
547.595	9697.47
547.959	9658.83
548.324	9536.57
548.688	9526.85
549.052	9554.88
549.416	9464.26
549.779	9379.74
550.143	9330.7
550.507	9360.08
550.871	9356.46
551.235	9309.01
551.599	9305.39
551.962	9280.53
552.326	9195.34
552.689	9157.6
553.053	9036.25
553.417	9132.97
553.78	9116.24
554.143	9016.81
554.507	9015.46
554.87	8956.47
555.234	9024.27
555.597	8860.66
555.96	8870.15
556.323	8895.01
556.686	8865.18
557.05	8765.52
557.413	8834.67
557.776	8759.87
558.139	8841
558.502	8734.56
558.865	8720.1
559.228	8770.94
559.59	8758.29
559.953	8700.89
560.316	8744.5
560.679	8610.49
561.041	8682.58
561.404	8692.75
561.767	8678.06
562.129	8661.57
562.492	8636.26
562.854	8603.04
563.217	8573.66
563.579	8636.03
563.941	8563.49
564.304	8530.95
564.666	8615.47
565.028	8591.74
565.39	8524.39
565.753	8615.01
566.115	8565.75
566.477	8555.58
566.839	8485.75
567.201	8568.01
567.563	8610.72
567.925	8579.53
568.287	8559.65
568.648	8548.57
569.01	8617.95
569.372	8556.94
569.734	8523.49
570.095	8662.24
570.457	8636.71
570.819	8589.25
571.18	8523.04
571.542	8602.13
571.903	8609.82
572.265	8615.24
572.626	8622.47
572.987	8628.35
573.349	8581.34
573.71	8549.93
574.071	8634.67
574.432	8556.26
574.794	8637.16
575.155	8625.41
575.516	8514.68
575.877	8630.61
576.238	8575.92
576.599	8573.66
576.96	8585.64
577.32	8602.81
577.681	8565.98
578.042	8659.31
578.403	8628.8
578.763	8592.64
579.124	8649.36
579.485	8661.34
579.845	8693.43
580.206	8557.16
580.566	8621.34
580.927	8569.37
581.287	8657.5
581.648	8622.92
582.008	8635.35
582.368	8705.63
582.728	8619.99
583.089	8583.6
583.449	8671.06
583.809	8596.71
584.169	8583.15
584.529	8599.42
584.889	8653.66
585.249	8559.2
585.609	8587.9
585.969	8573.43
586.329	8565.52
586.688	8570.27
587.048	8550.38
587.408	8535.92
587.768	8468.58
588.127	8483.04
588.487	8483.72
588.846	8589.03
589.206	8454.11
589.565	8481.01
589.925	8561.23
590.284	8512.19
590.643	8550.16
591.003	8545.64
591.362	8541.12
591.721	8515.36
592.08	8507.9
592.44	8451.63
592.799	8546.31
593.158	8469.93
593.517	8443.94
593.876	8438.52
594.235	8361.46
594.593	8441.46
594.952	8471.74
595.311	8433.1
595.67	8383.61
596.029	8500.67
596.387	8488.69
596.746	8467.9
597.104	8371.86
597.463	8379.09
597.822	8473.32
598.18	8419.99
598.538	8375.02
598.897	8411.86
599.255	8345.19
599.613	8473.55
599.972	8435.36
600.33	8446.43
600.688	8384.74
601.046	8370.5
601.404	8459.99
601.762	8458.41
602.12	8420.22
602.478	8422.7
602.836	8406.88
603.194	8384.74
603.552	8400.33
603.91	8330.28
604.268	8391.29
604.625	8353.1
604.983	8397.62
605.341	8318.3
605.698	8367.79
606.056	8408.24
606.413	8376.38
606.771	8385.87
607.128	8353.55
607.485	8394.91
607.843	8294.12
608.2	8361.91
608.557	8382.48
608.914	8401.01
609.272	8473.1
609.629	8417.96
609.986	8478.07
610.343	8428.58
610.7	8408.47
611.057	8392.87
611.414	8443.04
611.771	8441.23
612.127	8447.56
612.484	8407.34
612.841	8502.47
613.198	8401.91
613.554	8393.78
613.911	8453.44
614.267	8497.73
614.624	8478.07
614.98	8436.94
615.337	8511.97
615.693	8460.89
616.05	8452.98
616.406	8484.17
616.762	8465.19
617.118	8530.04
617.475	8474.68
617.831	8474.23
618.187	8563.72
618.543	8528.69
618.899	8570.95
619.255	8553.09
619.611	8546.99
619.967	8565.3
620.323	8543.15
620.678	8548.35
621.034	8483.94
621.39	8501.57
621.746	8531.63
622.101	8614.56
622.457	8551.96
622.812	8527.56
623.168	8602.58
623.523	8586.09
623.879	8609.82
624.234	8512.64
624.589	8565.98
624.945	8525.75
625.3	8494.34
625.655	8457.73
626.01	8513.55
626.365	8537.95
626.72	8566.2
627.075	8535.69
627.43	8568.69
627.785	8457.96
628.14	8534.11
628.495	8536.82
628.85	8522.81
629.205	8450.95
629.559	8542.25
629.914	8476.71
630.269	8501.34
630.623	8436.04
630.978	8425.87
631.332	8473.32
631.687	8408.92
632.041	8408.47
632.396	8459.31
632.75	8422.02
633.104	8413.66
633.459	8374.34
633.813	8348.35
634.167	8400.1
634.521	8359.2
634.875	8378.18
635.229	8309.48
635.583	8301.12
635.937	8315.13
636.291	8292.99
636.645	8243.27
636.999	8251.63
637.352	8244.4
637.706	8238.53
638.06	8226.55
638.413	8202.37
638.767	8295.7
639.121	8240.33
639.474	8193.33
639.828	8165.99
640.181	8171.64
640.534	8108.81
640.888	8164.18
641.241	8143.61
641.594	8131.86
641.947	8181.58
642.301	8118.98
642.654	8116.95
643.007	8168.7
643.36	8099.09
643.713	8137.96
644.066	8180
644.419	8088.93
644.771	8069.27
645.124	8020
645.477	7965.31
645.83	7967.12
646.182	7856.62
646.535	7857.75
646.888	7988.82
647.24	7852.55
647.593	7872.43
647.945	7851.64
648.298	7873.79
648.65	7823.62
649.002	7763.06
649.355	7889.16
649.707	7864.98
650.059	7878.99
650.411	7976.39
650.763	7976.61
651.115	8076.27
651.467	8045.31
651.819	8032.88
652.171	8030.4
652.523	7970.96
652.875	8069.94
653.227	8012.77
653.578	8026.55
653.93	8006.89
654.282	7995.82
654.633	7991.75
654.985	8031.07
655.337	8014.13
655.688	8019.55
656.039	8066.33
656.391	8023.84
656.742	8038.31
657.094	8077.17
657.445	8011.41
657.796	7988.82
658.147	8065.42
658.498	8092.54
658.849	8061.58
659.2	8092.77
659.551	8064.75
659.902	8078.76
660.253	8065.2
660.604	8074.01
660.955	8019.32
661.306	8117.4
661.656	8080.11
662.007	8026.33
662.358	8074.46
662.708	8132.09
663.059	8117.17
663.409	8067.46
663.76	8110.17
664.11	8088.7
664.461	8112.65
664.811	8122.37
665.161	8147
665.511	8075.59
665.862	8084.86
666.212	8142.48
666.562	8151.3
666.912	8096.38
667.262	8113.56
667.612	8104.74
667.962	8172.99
668.312	8145.2
668.662	8166.44
669.011	8153.78
669.361	8099.09
669.711	8093.22
670.06	8106.1
670.41	8145.87
670.76	8121.02
671.109	8119.43
671.459	8096.84
671.808	8063.16
672.157	8114.24
672.507	8017.52
672.856	8018.87
673.205	8074.01
673.554	8054.12
673.904	8090.28
674.253	8108.13
674.602	8043.05
674.951	7896.39
675.3	7893.68
675.649	7994.24
675.998	8075.82
676.346	8044.86
676.695	8025.88
677.044	7981.81
677.393	7978.19
677.741	7902.04
678.09	7926.44
678.438	7942.26
678.787	7936.84
679.135	7879.89
679.484	7874.24
679.832	7907.01
680.181	7856.39
680.529	7878.31
680.877	7857.97
681.225	7834.92
681.573	7871.53
681.922	7863.17
682.27	7756.05
682.618	7789.27
682.966	7711.31
683.314	7824.07
683.661	7730.97
684.009	7745.66
684.357	7652.33
684.705	7655.49
685.053	7612.78
685.4	7647.81
685.748	7623.18
686.095	7657.52
686.443	7596.74
686.79	7542.95
687.138	7573.91
687.485	7621.14
687.832	7533.91
688.18	7551.54
688.527	7454.59
688.874	7466.34
689.221	7497.75
689.568	7426.57
689.915	7414.82
690.262	7378.89
690.609	7349.96
690.956	7297.76
691.303	7325.56
691.65	7290.3
691.997	7316.52
692.344	7298.44
692.69	7159.68
693.037	7184.54
693.383	7162.17
693.73	7222.96
694.077	7119.01
694.423	7113.36
694.769	7081.95
695.116	7078.78
695.462	7040.82
695.808	7022.06
696.155	7032.46
696.501	7002.17
696.847	6928.73
697.193	6925.57
697.539	6905.23
697.885	6838.34
698.231	6801.05
698.577	6804.89
698.923	6779.13
699.269	6797.21
699.614	6727.83
699.96	6678.34
700.306	6667.95
700.651	6654.39
700.997	6650.09
701.342	6649.87
701.688	6615.07
702.033	6553.15
702.379	6529.64
702.724	6507.5
703.069	6519.48
703.415	6467.05
703.76	6463.88
704.105	6471.57
704.45	6431.79
704.795	6419.14
705.14	6364.45
705.485	6342.98
705.83	6288.52
706.175	6314.96
706.52	6272.02
706.865	6269.54
707.209	6246.04
707.554	6220.05
707.899	6202.87
708.243	6175.53
708.588	6175.08
708.932	6121.52
709.277	6126.04
709.621	6135.3
709.966	6082.2
710.31	6109.32
710.654	6043.56
710.998	6062.54
711.342	6091.46
711.687	6091.24
712.031	6024.35
712.375	6011.69
712.719	6020.73
713.063	5962.2
713.407	5994.07
713.75	5915.65
714.094	5941.19
714.438	5928.08
714.782	5952.71
715.125	5926.27
715.469	5888.98
715.812	5912.71
716.156	5851.02
716.499	5883.79
716.843	5853.73
717.186	5833.62
717.53	5827.74
717.873	5853.96
718.216	5806.95
718.559	5814.41
718.902	5753.39
719.246	5812.15
719.589	5802.66
719.932	5792.71
720.275	5772.6
720.617	5771.92
720.96	5757.24
721.303	5763.34
721.646	5730.34
721.989	5706.62
722.331	5770.34
722.674	5770.79
723.016	5729.89
723.359	5700.51
723.701	5723.56
724.044	5629.1
724.386	5663
724.729	5692.83
725.071	5702.1
725.413	5728.99
725.755	5693.51
726.097	5667.97
726.439	5655.32
726.782	5659.39
727.124	5708.88
727.465	5587.75
727.807	5655.77
728.149	5650.57
728.491	5650.8
728.833	5650.8
729.175	5652.38
729.516	5622.55
729.858	5659.84
730.199	5633.17
730.541	5626.39
730.882	5624.58
731.224	5640.4
731.565	5628.43
731.906	5610.35
732.248	5632.04
732.589	5632.27
732.93	5628.88
733.271	5597.92
733.612	5648.99
733.953	5655.54
734.294	5647.18
734.635	5658.93
734.976	5639.95
735.317	5639.27
735.658	5668.2
735.999	5669.33
736.339	5703
736.68	5706.62
737.021	5634.08
737.361	5658.26
737.702	5687.86
738.042	5658.48
738.383	5683.57
738.723	5744.13
739.063	5677.01
739.404	5722.66
739.744	5700.06
740.084	5733.51
740.424	5764.47
740.764	5757.91
741.104	5780.74
741.444	5777.57
741.784	5768.53
742.124	5798.36
742.464	5828.87
742.804	5858.25
743.143	5836.56
743.483	5923.56
743.823	5862.09
744.162	5954.74
744.502	5928.53
744.841	5978.25
745.181	6015.08
745.52	6033.39
745.86	6083.1
746.199	6103.67
746.538	6104.8
746.877	6142.08
747.216	6243.78
747.556	6246.26
747.895	6287.17
748.234	6375.98
748.573	6415.52
748.911	6437.44
749.25	6496.88
749.589	6517.44
749.928	6639.25
750.267	6667.27
750.605	6782.52
750.944	6861.16
751.283	6822.29
751.621	7001.27
751.96	7019.12
752.298	7096.86
752.636	7220.02
752.975	7301.15
753.313	7378.44
753.651	7461.6
753.989	7559.67
754.327	7649.39
754.666	7778.88
755.004	7963.28
755.342	8078.53
755.679	8184.52
756.017	8229.26
756.355	8470.16
756.693	8577.73
757.031	8775.24
757.368	8833.99
757.706	9022.23
758.044	9152.63
758.381	9372.06
758.719	9394.65
759.056	9607.53
759.394	9721.2
759.731	9905.15
760.068	10012.94
760.405	10149.89
760.743	10385.36
761.08	10547.39
761.417	10756.88
761.754	10884.11
762.091	11048.4
762.428	11150.54
762.765	11330.2
763.102	11582.39
763.438	11710.75
763.775	11834.14
764.112	11978.09
764.449	12161.14
764.785	12380.34
765.122	12517.06
765.458	12616.26
765.795	12810.38
766.131	13054.22
766.467	13223.48
766.804	13294.44
767.14	13412.4
767.476	13629.57
767.812	13760.87
768.148	13876.12
768.485	14060.52
768.821	14160.63
769.157	14299.61
769.492	14415.31
769.828	14522.65
770.164	14558.81
770.5	14683.33
770.836	14884.91
771.171	14948.41
771.507	15079.7
771.842	15145.69
772.178	15271.34
772.513	15370.32
772.849	15475.85
773.184	15585
773.519	15585
773.855	15734.15
774.19	15768.72
774.525	15842.62
774.86	15962.84
775.195	15994.71
775.53	16102.27
775.865	16135.49
776.2	16163.97
776.535	16123.97
776.87	16250.97
777.205	16331.42
777.539	16347.92
777.874	16500
778.209	16481.7
778.543	16366.22
778.878	16433.57
779.212	16552.88
779.547	16615.03
779.881	16634.69
780.215	16655.25
780.55	16720.11
780.884	16663.62
781.218	16658.87
781.552	16793.56
781.886	16678.08
782.22	16711.07
782.554	16742.71
782.888	16649.38
783.222	16683.5
783.556	16601.92
783.889	16674.91
784.223	16582.94
784.557	16553.56
784.89	16827.9
785.224	16645.08
785.557	16669.27
785.891	16688.25
786.224	16704.74
786.558	16636.72
786.891	16564.41
787.224	16587.23
787.557	16573.9
787.891	16575.71
788.224	16619.32
788.557	16536.61
788.89	16632.66
789.223	16708.36
789.556	16524.18
789.888	16514.24
790.221	16478.08
790.554	16330.06
790.887	16468.59
791.219	16384.07
791.552	16363.74
791.884	16296.62
792.217	16359.67
792.549	16365.54
792.882	16222.5
793.214	16250.52
793.546	16247.36
793.879	16131.65
794.211	16085.55
794.543	16175.04
794.875	16153.35
795.207	16162.39
795.539	16127.13
795.871	16075.83
796.203	15971.2
796.535	15850.08
796.867	15868.83
797.198	15895.73
797.53	15919.45
797.862	15766.24
798.193	15784.54
798.525	15702.74
798.856	15748.16
799.188	15544.32
799.519	15594.27
799.85	15504.32
800.182	15591.55
800.513	15646.02
800.844	15496.87
801.175	15499.8
801.506	15504.78
801.837	15432.91
802.168	15448.73
802.499	15415.29
802.83	15386.36
803.161	15202.19
803.491	15257.55
803.822	15357.44
804.153	15127.84
804.483	15061.85
804.814	15059.82
805.145	15084
805.475	15055.97
805.805	14944.56
806.136	15050.55
806.466	14937.79
806.796	14980.95
807.126	14878.58
807.457	14935.53
807.787	14915.19
808.117	14854.62
808.447	14811.91
808.777	14698.24
809.107	14732.59
809.436	14680.39
809.766	14682.65
810.096	14618.02
810.426	14657.11
810.755	14527.17
811.085	14602.65
811.414	14517.46
811.744	14390.23
812.073	14451.02
812.403	14375.77
812.732	14384.81
813.061	14421.87
813.39	14376.22
813.719	14325.37
814.049	14285.15
814.378	14287.86
814.707	14255.09
815.036	14203.34
815.365	14162.44
815.693	14063.68
816.022	14089.22
816.351	14070.24
816.68	14030.01
817.008	14050.58
817.337	13921.77
817.665	13924.93
817.994	13969.9
818.322	13977.58
818.651	13880.41
818.979	13793.18
819.307	13952.05
819.636	13890.13
819.964	13755.67
820.292	13835.44
820.62	13855.1
820.948	13689.46
821.276	13819.62
821.604	13718.38
821.932	13833.63
822.259	13748.89
822.587	13805.61
822.915	13794.31
823.243	13765.39
823.57	13677.93
823.898	13796.12
824.225	13641.1
824.553	13835.89
824.88	13749.12
825.207	13778.04
825.535	13729.68
825.862	13776.69
826.189	13709.57
826.516	13837.7
826.843	13802.9
827.17	13799.51
827.497	13839.73
827.824	13782.11
828.151	13881.54
828.478	13749.34
828.805	13910.47
829.131	13844.25
829.458	13787.08
829.785	13695.11
830.111	13810.36
830.438	13846.74
830.764	13832.73
831.09	13832.5
831.417	13726.74
831.743	13839.51
832.069	13792.73
832.395	13739.85
832.722	13752.05
833.048	13733.98
833.374	13799.28
833.7	13691.49
834.026	13725.39
834.351	13717.7
834.677	13674.54
835.003	13719.06
835.329	13719.74
835.654	13620.08
835.98	13607.42
836.306	13615.33
836.631	13489.69
836.956	13556.58
837.282	13658.95
837.607	13526.07
837.932	13567.88
838.258	13596.13
838.583	13567.88
838.908	13486.3
839.233	13471.84
839.558	13375.57
839.883	13385.74
840.208	13363.36
840.533	13379.86
840.858	13369.69
841.182	13378.73
841.507	13317.94
841.832	13284.04
842.156	13272.07
842.481	13198.17
842.805	13290.82
843.13	13238.62
843.454	13130.6
843.778	13110.94
844.103	13114.56
844.427	13075.69
844.751	13059.87
845.075	12915.47
845.399	12965.63
845.723	12909.82
846.047	12907.1
846.371	12880.66
846.695	12766.99
847.019	12703.72
847.343	12715.24
847.666	12640.44
847.99	12569.49
848.313	12522.71
848.637	12454.01
848.96	12502.59
849.284	12416.95
849.607	12333.79
849.931	12320.23
850.254	12276.84
850.577	12183.51
850.9	12087.01
851.223	12003.63
851.546	12026.68
851.869	11933.8
852.192	12051.08
852.515	11956.17
852.838	11862.39
853.161	11924.53
853.483	11765.67
853.806	11773.35
854.129	11720.92
854.451	11655.84
854.774	11507.14
855.096	11607.93
855.419	11571.77
855.741	11528.16
856.063	11467.82
856.385	11457.42
856.708	11399.57
857.03	11338.78
857.352	11319.12
857.674	11321.61
857.996	11300.14
858.318	11204.1
858.64	11211.56
858.961	11105.34
859.283	11117.55
859.605	11056.53
859.926	11165.46
860.248	11053.37
860.57	11019.7
860.891	11031.67
861.212	11000.71
861.534	10970.66
861.855	10933.14
862.176	10922.3
862.498	10938.57
862.819	10862.86
863.14	10889.3
863.461	10831.45
863.782	10809.53
864.103	10830.32
864.424	10669.2
864.745	10830.77
865.065	10720.04
865.386	10640.05
865.707	10746.71
866.027	10684.11
866.348	10616.09
866.668	10602.31
866.989	10648.86
867.309	10568.86
867.63	10561.86
867.95	10499.26
868.27	10494.06
868.59	10505.36
868.91	10451.35
869.23	10452.03
869.55	10460.39
869.87	10469.65
870.19	10435.53
870.51	10481.63
870.83	10461.74
871.15	10457
871.469	10416.55
871.789	10393.5
872.109	10402.54
872.428	10265.82
872.748	10342.43
873.067	10231.47
873.386	10287.29
873.706	10287.06
874.025	10203.67
874.344	10173.62
874.663	10221.53
874.982	10145.82
875.301	10180.4
875.62	10163
875.939	10106.5
876.258	10161.19
876.577	10076.44
876.896	10122.54
877.214	10017.69
877.533	10026.5
877.852	9964.36
878.17	10031.25
878.489	10067.18
878.807	10026.05
879.125	9908.31
879.444	9950.8
879.762	9972.72
880.08	9960.74
880.398	9872.61
880.716	9882.55
881.034	9857.24
881.352	9873.51
881.67	9800.52
881.988	9858.82
882.306	9796
882.624	9791.25
882.941	9705.61
883.259	9704.02
883.577	9680.52
883.894	9684.14
884.212	9639.39
884.529	9637.13
884.846	9618.83
885.164	9624.25
885.481	9558.27
885.798	9561.2
886.115	9489.57
886.432	9529.11
886.75	9451.6
887.067	9539.28
887.383	9467.87
887.7	9433.3
888.017	9434.88
888.334	9418.61
888.651	9405.28
888.967	9399.4
889.284	9280.98
889.6	9256.13
889.917	9259.06
890.233	9277.37
890.55	9214.77
890.866	9151.27
891.182	9165.51
891.498	9115.79
891.815	9063.59
892.131	9085.28
892.447	8968.68
892.763	9029.24
893.079	8919.64
893.395	8965.96
893.71	8979.98
894.026	8926.42
894.342	8844.39
894.657	8764.84
894.973	8847.32
895.289	8734.78
895.604	8750.15
895.92	8717.84
896.235	8671.74
896.55	8690.04
896.865	8646.43
897.181	8609.14
897.496	8570.95
897.811	8560.55
898.126	8513.55
898.441	8539.99
898.756	8480.78
899.071	8383.38
899.386	8433.1
899.7	8338.41
900.015	8290.73
900.33	8190.62
900.644	8244.4
900.959	8303.16
901.273	8226.78
901.588	8245.76
901.902	8177.96
902.216	8121.24
902.531	8108.59
902.845	8104.07
903.159	8009.61
903.473	8002.15
903.787	7969.15
904.101	7950.85
904.415	7975.71
904.729	7883.73
905.042	7794.02
905.356	7770.97
905.67	7764.64
905.984	7780.69
906.297	7764.19
906.611	7672.21
906.924	7670.86
907.237	7668.82
907.551	7566.91
907.864	7592.44
908.177	7546.12
908.491	7524.87
908.804	7485.55
909.117	7464.08
909.43	7422.05
909.743	7407.14
910.056	7330.98
910.368	7340.24
910.681	7301.38
910.994	7264.09
911.307	7227.25
911.619	7214.82
911.932	7205.33
912.244	7184.54
912.557	7149.52
912.869	7082.62
913.181	7023.19
913.494	7078.1
913.806	7018.67
914.118	6951.33
914.43	6987.03
914.742	6912.69
915.054	6843.08
915.366	6820.71
915.678	6839.02
915.99	6743.65
916.302	6762.63
916.613	6744.1
916.925	6699.36
917.236	6746.59
917.548	6641.28
917.859	6654.84
918.171	6603.77
918.482	6605.8
918.794	6536.42
919.105	6524.9
919.416	6469.31
919.727	6471.57
920.038	6447.39
920.349	6376.43
920.66	6399.7
920.971	6439.25
921.282	6418.24
921.593	6355.86
921.903	6305.7
922.214	6302.76
922.525	6257.11
922.835	6227.28
923.146	6180.5
923.456	6172.59
923.767	6138.69
924.077	6189.54
924.387	6113.16
924.697	6031.8
925.008	6054.63
925.318	6021.86
925.628	6003.1
925.938	5980.28
926.248	5914.07
926.558	5954.52
926.867	5944.58
927.177	5925.59
927.487	5854.41
927.796	5811.92
928.106	5840.62
928.416	5812.83
928.725	5788.65
929.034	5688.31
929.344	5730.8
929.653	5722.66
929.962	5614.19
930.271	5619.84
930.581	5577.81
930.89	5577.35
931.199	5540.97
931.508	5578.94
931.817	5526.96
932.125	5550.24
932.434	5429.33
932.743	5436.57
933.051	5422.1
933.36	5415.32
933.669	5436.79
933.977	5369.68
934.286	5370.13
934.594	5338.49
934.902	5312.5
935.21	5275.89
935.519	5240.87
935.827	5251.03
936.135	5258.04
936.443	5196.35
936.751	5199.06
937.059	5151.83
937.367	5100.3
937.674	5165.39
937.982	5108.89
938.29	5077.25
938.597	5084.48
938.905	4990.93
939.213	5011.94
939.52	4948.22
939.827	4963.81
940.135	4981.66
940.442	4897.82
940.749	4936.47
941.056	4908.44
941.363	4839.07
941.67	4850.82
941.977	4843.59
942.284	4820.31
942.591	4780.09
942.898	4770.82
943.205	4783.93
943.511	4736.25
943.818	4714.1
944.125	4665.96
944.431	4674.55
944.738	4624.16
945.044	4632.29
945.35	4603.82
945.657	4570.37
945.963	4597.72
946.269	4544.39
946.575	4536.93
946.881	4511.17
947.187	4548
947.493	4468.91
947.799	4436.14
948.105	4442.02
948.41	4430.49
948.716	4363.15
949.022	4377.16
949.327	4403.82
949.633	4328.57
949.938	4331.96
950.244	4329.48
950.549	4266.43
950.854	4274.79
951.16	4235.69
951.465	4239.54
951.77	4208.12
952.075	4195.47
952.38	4138.3
952.685	4190.95
952.99	4134.45
953.294	4090.84
953.599	4090.61
953.904	4089.03
954.209	4031.86
954.513	4088.13
954.818	4008.81
955.122	4001.8
955.426	3995.7
955.731	3991.18
956.035	3951.18
956.339	3912.99
956.643	3965.19
956.948	3924.29
957.252	3914.8
957.556	3860.11
957.86	3867.79
958.163	3838.87
958.467	3816.72
958.771	3857.17
959.075	3833.22
959.378	3796.61
959.682	3773.11
959.985	3775.82
960.289	3762.26
960.592	3690.62
960.896	3705.99
961.199	3713.22
961.502	3721.81
961.805	3644.07
962.108	3632.32
962.411	3647.46
962.714	3586.45
963.017	3580.12
963.32	3578.54
963.623	3547.8
963.926	3571.08
964.228	3566.33
964.531	3543.06
964.833	3503.28
965.136	3460.8
965.438	3432.1
965.741	3456.05
966.043	3469.61
966.345	3411.53
966.648	3426.9
966.95	3411.53
967.252	3398.65
967.554	3356.62
967.856	3360.69
968.158	3338.32
968.46	3323.85
968.761	3296.28
969.063	3299.67
969.365	3293.8
969.666	3277.98
969.968	3280.24
970.269	3274.82
970.571	3228.04
970.872	3217.19
971.174	3198.88
971.475	3144.87
971.776	3216.51
972.077	3153.24
972.378	3150.07
972.679	3122.95
972.98	3113.01
973.281	3093.12
973.582	3093.12
973.883	3048.38
974.183	3088.61
974.484	3033.01
974.785	3013.13
975.085	3012.68
975.386	3030.3
975.686	3009.51
975.986	3016.29
976.287	2951.21
976.587	2990.75
976.887	2971.77
977.187	2972
977.487	2916.41
977.787	2928.38
978.087	2885.45
978.387	2868.95
978.687	2879.57
978.987	2827.37
979.286	2829.4
979.586	2830.76
979.885	2812.68
980.185	2819.46
980.484	2803.19
980.784	2820.82
981.083	2781.49
981.382	2757.99
981.682	2755.73
981.981	2725
982.28	2727.26
982.579	2706.47
982.878	2723.19
983.177	2686.36
983.475	2675.51
983.774	2663.98
984.073	2669.63
984.372	2654.94
984.67	2609.97
984.969	2610.2
985.267	2599.8
985.566	2588.28
985.864	2584.66
986.162	2564.1
986.461	2561.16
986.759	2578.56
987.057	2513.48
987.355	2508.51
987.653	2493.14
987.951	2491.33
988.249	2508.51
988.547	2491.33
988.844	2473.25
989.142	2456.98
989.44	2424.44
989.737	2445.01
990.035	2451.33
990.332	2412.69
990.63	2413.59
990.927	2380.83
991.224	2407.95
991.521	2367.27
991.819	2360.71
992.116	2347.61
992.413	2339.7
992.71	2362.52
993.006	2317.33
993.303	2283.2
993.6	2298.34
993.897	2280.94
994.193	2266.71
994.49	2246.82
994.787	2226.48
995.083	2232.36
995.379	2219.7
995.676	2224.22
995.972	2174.5
996.268	2200.94
996.565	2181.06
996.861	2165.92
997.157	2182.87
997.453	2154.62
997.749	2147.61
998.044	2153.94
998.34	2151.68
998.636	2094.73
998.932	2126.6
999.227	2111.23
999.523	2094.51
999.818	2066.49
1000.114	2038.46
1000.409	2064
1000.704	2048.18
1001	1990.1
1001.295	1982.19
1001.59	2019.03
1001.885	1979.26
1002.18	1979.71
1002.475	1986.94
1002.77	1975.87
1003.065	1946.94
1003.359	1964.79
1003.654	1920.95
1003.949	1960.5
1004.243	1917.56
1004.538	1875.3
1004.832	1890.9
1005.127	1890.22
1005.421	1852.03
1005.715	1857
1006.009	1841.18
1006.304	1812.48
1006.598	1821.07
1006.892	1793.27
1007.186	1805.48
1007.48	1798.02
1007.773	1785.36
1008.067	1781.97
1008.361	1760.96
1008.655	1745.82
1008.948	1762.76
1009.242	1720.96
1009.535	1702.43
1009.829	1739.71
1010.122	1692.03
1010.415	1695.42
1010.708	1665.37
1011.001	1690.9
1011.295	1681.41
1011.588	1666.72
1011.881	1646.84
1012.173	1614.52
1012.466	1644.58
1012.759	1621.98
1013.052	1610.23
1013.344	1622.66
1013.637	1588.08
1013.93	1577.01
1014.222	1560.51
1014.514	1564.35
1014.807	1546.27
1015.099	1525.71
1015.391	1541.08
1015.683	1547.85
1015.976	1522.32
1016.268	1520.06
1016.56	1499.27
1016.851	1462.43
1017.143	1492.26
1017.435	1475.54
1017.727	1451.81
1018.018	1484.35
1018.31	1453.85
1018.602	1446.39
1018.893	1405.26
1019.185	1407.52
1019.476	1404.13
1019.767	1416.78
1020.058	1384.47
1020.35	1374.3
1020.641	1369.78
1020.932	1359.84
1021.223	1367.75
1021.514	1339.72
1021.804	1337.24
1022.095	1305.6
1022.386	1321.42
1022.677	1346.28
1022.967	1307.41
1023.258	1316.45
1023.548	1278.48
1023.839	1289.33
1024.129	1248.65
1024.419	1253.17
1024.709	1243.91
1025	1245.26
1025.29	1229.9
1025.58	1194.42
1025.87	1208.88
1026.16	1216.11
1026.449	1206.85
1026.739	1176.11
1027.029	1202.78
1027.319	1180.41
1027.608	1151.03
1027.898	1172.72
1028.187	1165.72
1028.477	1170.01
1028.766	1156.9
1029.055	1141.76
1029.344	1123.69
1029.634	1141.31
1029.923	1104.7
1030.212	1126.4
1030.501	1112.39
1030.79	1083.91
1031.078	1087.75
1031.367	1090.92
1031.656	1084.59
1031.945	1051.6
1032.233	1067.42
1032.522	1069.22
1032.81	1042.56
1033.099	1047.08
1033.387	1045.27
1033.675	1049.34
1033.963	1040.3
1034.251	1029.45
1034.54	989.68
1034.828	1031.94
1035.116	997.13
1035.403	955.1
1035.691	968.89
1035.979	994.2
1036.267	983.12
1036.554	974.08
1036.842	966.4
1037.129	946.97
1037.417	948.55
1037.704	933.18
1037.992	944.48
1038.279	929.79
1038.566	918.04
1038.853	918.04
1039.14	918.04
