Data from hue_340_FLMS001491_91.txt Node
Date: Mon Feb 06 15:43:53 GMT 2017
User: dcchb
Spectrometer: FLMS00149
Trigger mode: 0
Integration Time (sec): 2.000000E-2
Scans to average: 10
Electric dark correction enabled: true
Nonlinearity correction enabled: false
Boxcar width: 0
XAxis mode: Wavelengths
Number of Pixels in Spectrum: 2048
>>>>>Begin Spectral Data<<<<<
341.393	-6.78
341.776	-6.78
342.16	-6.78
342.543	-73.44
342.927	-64.63
343.31	-91.3
343.693	-77.06
344.077	-63.95
344.46	-60.79
344.843	-48.81
345.226	-34.8
345.61	-14.69
345.993	-6.78
346.376	-17.85
346.759	-11.98
347.142	44.29
347.525	48.81
347.908	57.4
348.291	79.55
348.674	80.68
349.057	117.29
349.44	116.83
349.823	146.21
350.206	155.7
350.588	183.95
350.971	202.93
351.354	215.14
351.737	235.25
352.119	255.13
352.502	245.42
352.884	268.47
353.267	254.91
353.65	301.91
354.032	296.26
354.414	292.2
354.797	303.27
355.179	308.01
355.562	312.99
355.944	335.36
356.326	324.96
356.709	328.8
357.091	327.22
357.473	323.16
357.855	334
358.238	331.97
358.62	336.94
359.002	356.6
359.384	354.34
359.766	326.77
360.148	322.25
360.53	346.21
360.912	337.84
361.294	335.36
361.676	323.61
362.057	331.06
362.439	318.64
362.821	316.38
363.203	346.88
363.584	303.49
363.966	320.22
364.348	326.09
364.729	309.14
365.111	314.34
365.493	294
365.874	323.83
366.256	309.14
366.637	319.54
367.019	291.07
367.4	318.86
367.781	296.04
368.163	296.04
368.544	299.43
368.925	319.31
369.306	311.86
369.688	290.84
370.069	310.27
370.45	309.37
370.831	296.72
371.212	301.69
371.593	316.6
371.974	304.17
372.355	319.54
372.736	311.63
373.117	322.7
373.498	313.89
373.879	323.38
374.26	294.23
374.641	291.07
375.021	288.35
375.402	296.94
375.783	319.54
376.163	326.55
376.544	320.22
376.925	336.49
377.305	326.77
377.686	331.52
378.066	314.34
378.447	312.08
378.827	340.33
379.208	318.41
379.588	334.23
379.968	327
380.349	322.7
380.729	320.44
381.109	336.49
381.489	334.23
381.87	313.66
382.25	325.19
382.63	312.99
383.01	332.19
383.39	313.66
383.77	321.12
384.15	328.35
384.53	331.29
384.91	338.07
385.29	326.32
385.67	331.74
386.049	357.28
386.429	329.71
386.809	328.13
387.189	345.75
387.568	331.06
387.948	341.91
388.328	352.53
388.707	344.85
389.087	351.18
389.466	370.84
389.846	334
390.225	361.8
390.605	352.31
390.984	352.31
391.363	354.11
391.743	334.91
392.122	343.72
392.501	344.85
392.881	348.24
393.26	360.67
393.639	359.76
394.018	352.31
394.397	365.19
394.776	354.34
395.155	381.68
395.534	367.9
395.913	347.34
396.292	353.44
396.671	381.68
397.05	363.83
397.429	375.13
397.808	374.68
398.186	347.34
398.565	371.06
398.944	365.41
399.323	361.12
399.701	381.68
400.08	386.43
400.458	373.55
400.837	387.33
401.215	394.57
401.594	388.69
401.972	378.97
402.351	388.92
402.729	383.49
403.107	380.33
403.486	373.55
403.864	384.4
404.242	385.98
404.62	384.17
404.999	385.53
405.377	404.06
405.755	396.15
406.133	396.37
406.511	380.1
406.889	418.75
407.267	406.32
407.645	420.78
408.023	411.29
408.401	408.12
408.779	418.97
409.156	415.36
409.534	447.67
409.912	427.11
410.29	424.4
410.667	423.49
411.045	438.86
411.422	448.58
411.8	447.67
412.178	443.6
412.555	456.94
412.933	448.8
413.31	474.56
413.687	467.56
414.065	471.85
414.442	459.87
414.819	468.46
415.197	477.5
415.574	478.86
415.951	481.12
416.328	496.71
416.705	493.32
417.082	500.1
417.46	505.98
417.837	521.57
418.214	508.24
418.591	504.62
418.967	510.72
419.344	513.21
419.721	515.24
420.098	503.49
420.475	515.69
420.852	529.25
421.228	508.91
421.605	522.47
421.982	520.21
422.358	546.2
422.735	551.4
423.111	544.39
423.488	570.83
423.864	574.67
424.241	569.25
424.617	567.67
424.994	576.48
425.37	580.1
425.746	598.85
426.123	589.36
426.499	584.17
426.875	588.23
427.251	585.97
427.627	592.75
428.003	609.25
428.379	592.75
428.756	625.07
429.132	632.07
429.507	619.87
429.883	618.06
430.259	639.31
430.635	640.44
431.011	644.28
431.387	643.6
431.763	663.49
432.138	684.73
432.514	688.12
432.89	679.98
433.265	675.01
433.641	675.46
434.016	688.12
434.392	698.29
434.767	712.52
435.143	720.43
435.518	760.66
435.894	745.52
436.269	716.82
436.644	746.87
437.02	765.63
437.395	756.14
437.77	759.98
438.145	753.88
438.52	770.38
438.895	790.94
439.271	778.06
439.646	776.48
440.021	772.64
440.395	773.76
440.77	781
441.145	797.72
441.52	786.42
441.895	802.46
442.27	791.17
442.645	827.55
443.019	821.45
443.394	788.68
443.769	841.79
444.143	823.71
444.518	828.23
444.892	834.33
445.267	843.37
445.641	867.55
446.016	854.89
446.39	842.69
446.764	858.73
447.139	865.51
447.513	860.99
447.887	873.2
448.262	845.18
448.636	884.5
449.01	883.37
449.384	881.78
449.758	867.55
450.132	881.78
450.506	897.6
450.88	903.71
451.254	910.03
451.628	880.43
452.002	911.61
452.376	919.52
452.75	895.34
453.123	916.59
453.497	919.3
453.871	903.71
454.244	938.73
454.618	943.25
454.992	975.79
455.365	977.15
455.739	963.14
456.112	980.09
456.486	1001.78
456.859	955.23
457.232	981.67
457.606	1010.82
457.979	1018.73
458.352	1030.03
458.725	1031.16
459.099	1023.48
459.472	1041.33
459.845	1031.16
460.218	1037.71
460.591	1078.62
460.964	1065.06
461.337	1089.01
461.71	1115.9
462.083	1084.72
462.456	1089.46
462.829	1115.22
463.201	1125.85
463.574	1128.33
463.947	1140.53
464.32	1159.29
464.692	1165.62
465.065	1174.66
465.438	1161.55
465.81	1187.99
466.183	1212.62
466.555	1224.15
466.928	1235
467.3	1240.65
467.672	1216.92
468.045	1267.54
468.417	1255.56
468.789	1254.66
469.161	1301.89
469.534	1301.21
469.906	1301.21
470.278	1321.55
470.65	1313.19
471.022	1328.78
471.394	1382.79
471.766	1380.98
472.138	1404.93
472.51	1423.47
472.882	1450.81
473.253	1455.78
473.625	1469.57
473.997	1498.72
474.369	1504.37
474.74	1510.92
475.112	1549.56
475.484	1554.08
475.855	1598.83
476.227	1584.82
476.598	1651.26
476.97	1639.73
477.341	1652.61
477.713	1661.65
478.084	1711.82
478.455	1740.07
478.827	1753.17
479.198	1823.45
479.569	1805.15
479.94	1852.83
480.311	1870.23
480.682	1898.48
481.053	1945.71
481.424	1965.6
481.795	1979.83
482.166	2001.98
482.537	2013.51
482.908	2004.92
483.279	2075.88
483.65	2105.48
484.021	2142.77
484.391	2171.02
484.762	2169.66
485.133	2205.14
485.503	2244.69
485.874	2279.04
486.244	2264.35
486.615	2303.22
486.985	2312.26
487.356	2371.24
487.726	2372.59
488.097	2426.15
488.467	2416.21
488.837	2482.19
489.207	2529.2
489.578	2561.06
489.948	2595.41
490.318	2586.6
490.688	2594.96
491.058	2659.37
491.428	2667.95
491.798	2745.24
492.168	2759.48
492.538	2753.37
492.908	2784.79
493.278	2847.16
493.648	2834.95
494.017	2841.73
494.387	2851.22
494.757	2939.13
495.126	2931.9
495.496	2982.97
495.866	2916.99
496.235	2951.56
496.605	3007.83
496.974	3020.94
497.344	3047.38
497.713	3100.03
498.082	3044.44
498.452	3112.91
498.821	3159.92
499.19	3170.54
499.559	3157.21
499.928	3180.93
500.298	3215.73
500.667	3234.94
501.036	3181.84
501.405	3263.87
501.774	3266.81
502.143	3286.02
502.512	3306.35
502.88	3315.17
503.249	3275.39
503.618	3302.06
503.987	3369.18
504.356	3335.51
504.724	3379.12
505.093	3389.06
505.462	3414.37
505.83	3387.26
506.199	3434.26
506.567	3446.46
506.936	3463.86
507.304	3459.57
507.672	3503.41
508.041	3536.18
508.409	3492.56
508.777	3572.56
509.145	3569.85
509.514	3566.46
509.882	3567.82
510.25	3598.55
510.618	3628.15
510.986	3607.81
511.354	3584.54
511.722	3640.13
512.09	3667.25
512.458	3662.05
512.826	3661.82
513.193	3716.74
513.561	3709.73
513.929	3739.79
514.297	3755.16
514.664	3714.48
515.032	3757.19
515.4	3774.59
515.767	3757.87
516.135	3827.02
516.502	3767.81
516.869	3807.58
517.237	3844.42
517.604	3787.02
517.972	3844.87
518.339	3849.39
518.706	3878.32
519.073	3875.6
519.44	3907.92
519.808	3889.62
520.175	3898.65
520.542	3937.52
520.909	3984.3
521.276	3961.48
521.643	3999.89
522.009	4019.78
522.376	3976.62
522.743	4050.06
523.11	4051.42
523.477	4076.5
523.843	4065.2
524.21	4111.98
524.577	4087.8
524.943	4113.56
525.31	4172.09
525.676	4200.57
526.043	4153.56
526.409	4248.7
526.776	4264.97
527.142	4198.08
527.508	4218.19
527.874	4310.17
528.241	4312.88
528.607	4282.83
528.973	4405.31
529.339	4354.91
529.705	4398.75
530.071	4389.94
530.437	4432.43
530.803	4429.49
531.169	4500.45
531.535	4471.52
531.901	4503.38
532.267	4521.69
532.632	4495.93
532.998	4571.86
533.364	4562.37
533.73	4562.59
534.095	4605.98
534.461	4647.56
534.826	4611.86
535.192	4660.22
535.557	4685.98
535.923	4664.51
536.288	4749.03
536.653	4763.94
537.019	4780.89
537.384	4805.98
537.749	4733.89
538.114	4775.69
538.479	4791.74
538.845	4832.19
539.21	4818.4
539.575	4875.8
539.94	4835.13
540.305	4935.69
540.67	4946.54
541.034	4921.9
541.399	4955.12
541.764	4969.36
542.129	5042.13
542.494	5001.9
542.858	5063.6
543.223	5049.13
543.587	5076.25
543.952	5062.47
544.316	5099.98
544.681	5081.9
545.045	5169.13
545.41	5220.43
545.774	5180.43
546.138	5178.62
546.503	5238.73
546.867	5238.28
547.231	5295.68
547.595	5286.41
547.959	5321.44
548.324	5353.08
548.688	5322.8
549.052	5343.81
549.416	5376.81
549.779	5399.63
550.143	5365.96
550.507	5447.99
550.871	5410.03
551.235	5476.01
551.599	5500.42
551.962	5523.47
552.326	5581.77
552.689	5558.27
553.053	5519.18
553.417	5558.27
553.78	5582.9
554.143	5621.32
554.507	5663.58
554.87	5659.29
555.234	5658.83
555.597	5659.96
555.96	5699.51
556.323	5705.39
556.686	5711.04
557.05	5768.44
557.413	5730.92
557.776	5803.46
558.139	5804.37
558.502	5799.17
558.865	5779.51
559.228	5873.74
559.59	5898.83
559.953	5895.66
560.316	5965.27
560.679	5963.01
561.041	5928.88
561.404	5940.86
561.767	5969.11
562.129	5987.41
562.492	6025.38
562.854	6051.14
563.217	6063.8
563.579	6099.05
563.941	6083.23
564.304	6133.4
564.666	6165.94
565.028	6133.17
565.39	6127.75
565.753	6169.33
566.115	6267.41
566.477	6256.33
566.839	6244.13
567.201	6304.92
567.563	6250.23
567.925	6342.21
568.287	6325.26
568.648	6297.91
569.01	6457.23
569.372	6450.23
569.734	6436.89
570.095	6503.78
570.457	6468.3
570.819	6491.58
571.18	6529.32
571.542	6619.26
571.903	6606.15
572.265	6616.1
572.626	6717.79
572.987	6722.08
573.349	6779.93
573.71	6868.07
574.071	6805.02
574.432	6906.49
574.794	7010.89
575.155	6961.4
575.516	7020.38
575.877	7031.45
576.238	7084.33
576.599	7171.79
576.96	7169.53
577.32	7279.36
577.681	7353.03
578.042	7446.36
578.403	7525.45
578.763	7605.9
579.124	7714.6
579.485	7805.67
579.845	7871.88
580.206	7893.35
580.566	8037.53
580.927	8093.8
581.287	8226.22
581.648	8282.27
582.008	8411.98
582.368	8596.61
582.728	8692.43
583.089	8809.49
583.449	8918.41
583.809	9145.07
584.169	9190.94
584.529	9408.79
584.889	9599.3
585.249	9776.47
585.609	9882.45
585.969	10078.38
586.329	10269.11
586.688	10433.62
587.048	10655.09
587.408	10828.42
587.768	10990.9
588.127	11214.62
588.487	11435.86
588.846	11670.43
589.206	11853.7
589.565	11964.43
589.925	12361.48
590.284	12618.88
590.643	12810.51
591.003	13071.29
591.362	13303.38
591.721	13583.82
592.08	13750.37
592.44	14042.34
592.799	14392.16
593.158	14584.93
593.517	14817.46
593.876	15095.42
594.235	15382.87
594.593	15655.63
594.952	15946.93
595.311	16158.67
595.67	16430.98
596.029	16869.39
596.387	17075.94
596.746	17421.01
597.104	17611.06
597.463	17809.7
597.822	18239.75
598.18	18524.03
598.538	18603.13
598.897	19006.05
599.255	19153.85
599.613	19650.33
599.972	19758.12
600.33	20227.04
600.688	20211.9
601.046	20692.79
601.404	21019.79
601.762	21219.56
602.12	21549.26
602.478	21815.92
602.836	21963.04
603.194	22190.6
603.552	22407.55
603.91	22617.48
604.268	22948.55
604.625	23225.6
604.983	23481.19
605.341	23649.55
605.698	23908.52
606.056	24176.31
606.413	24413.37
606.771	24732.46
607.128	24894.71
607.485	25109.62
607.843	25221.71
608.2	25664.86
608.557	25866.89
608.914	25905.08
609.272	26375.13
609.629	26476.59
609.986	26640.43
610.343	26860.76
610.7	27035.9
611.057	27266.85
611.414	27425.95
611.771	27694.87
612.127	27954.75
612.484	27987.74
612.841	28320.84
613.198	28378.69
613.554	28554.96
613.911	28819.81
614.267	28975.28
614.624	29211.66
614.98	29385.89
615.337	29587.47
615.693	29761.93
616.05	29683.97
616.406	30081.92
616.762	30024.75
617.118	30145.65
617.475	30378.64
617.831	30572.08
618.187	30752.19
618.543	30775.24
618.899	31098.62
619.255	31106.07
619.611	31313.75
619.967	31424.03
620.323	31474.65
620.678	31571.83
621.034	31585.84
621.39	31751.26
621.746	31845.72
622.101	32219.49
622.457	32094.3
622.812	32249.55
623.168	32389.2
623.523	32563.21
623.879	32659.48
624.234	32497.45
624.589	32751.23
624.945	32869.19
625.3	32875.52
625.655	32973.37
626.01	33145.12
626.365	33178.34
626.72	33117.55
627.075	33124.33
627.43	33194.16
627.785	33306.92
628.14	33393.92
628.495	33475.05
628.85	33555.95
629.205	33412.23
629.559	33656.29
629.914	33512.57
630.269	33640.02
630.623	33634.82
630.978	33592.34
631.332	33810.18
631.687	33832.56
632.041	33680.92
632.396	33715.5
632.75	33679.79
633.104	33825.55
633.459	33614.94
633.813	33842.73
634.167	33911.2
634.521	33846.57
634.875	33969.05
635.229	33860.13
635.583	33788.72
635.937	33879.79
636.291	33868.94
636.645	33847.92
636.999	33841.82
637.352	34030.52
637.706	33823.07
638.06	34006.56
638.413	33889.28
638.767	33730.64
639.121	34033.46
639.474	33735.16
639.828	33810.41
640.181	33911.42
640.534	34030.07
640.888	33772.9
641.241	33723.86
641.594	33970.18
641.947	33854.48
642.301	33820.58
642.654	33973.8
643.007	33863.74
643.36	33892.67
643.713	33789.85
644.066	34010.86
644.419	33762.05
644.771	33517.99
645.124	33298.11
645.477	33244.1
645.83	32970.88
646.182	32905.35
646.535	32859.25
646.888	32895.86
647.24	32673.72
647.593	32948.74
647.945	32810.21
648.298	32828.06
648.65	32684.11
649.002	32720.27
649.355	32846.59
649.707	32776.99
650.059	32939.47
650.411	33331.33
650.763	33290.88
651.115	33679.57
651.467	33503.53
651.819	33532.23
652.171	33474.6
652.523	33473.02
652.875	33404.55
653.227	33306.92
653.578	33627.59
653.93	33512.57
654.282	33345.11
654.633	33226.47
654.985	33414.26
655.337	33337.65
655.688	33297.66
656.039	33436.86
656.391	33137.66
656.742	33315.06
657.094	33231.44
657.445	33447.71
657.796	33283.87
658.147	33228.05
658.498	33092.69
658.849	33256.07
659.2	33239.13
659.551	33048.4
659.902	33219.01
660.253	33251.1
660.604	33190.99
660.955	33114.38
661.306	33183.08
661.656	33080.03
662.007	33236.64
662.358	33223.08
662.708	33037.78
663.059	33232.57
663.409	32966.82
663.76	33256.3
664.11	33228.96
664.461	33223.99
664.811	33270.09
665.161	33181.27
665.511	33099.47
665.862	33350.08
666.212	33244.78
666.562	33223.08
666.912	33196.42
667.262	33156.87
667.612	33139.24
667.962	33144.89
668.312	33111.45
668.662	33174.72
669.011	33091.56
669.361	33045.91
669.711	33064.89
670.06	32953.26
670.41	32823.54
670.76	32895.18
671.109	33056.08
671.459	32959.13
671.808	32972.47
672.157	33053.82
672.507	32806.82
672.856	32897.67
673.205	32865.58
673.554	32854.96
673.904	32797.33
674.253	33106.93
674.602	32920.49
674.951	32445.25
675.3	32282.99
675.649	32678.24
675.998	32696.09
676.346	32813.6
676.695	32816.09
677.044	32668.29
677.393	32694.06
677.741	32718.01
678.09	32686.82
678.438	32652.25
678.787	32704.22
679.135	32683.21
679.484	32411.58
679.832	32578.35
680.181	32268.3
680.529	32463.33
680.877	32256.33
681.225	32394.18
681.573	32615.41
681.922	32271.02
682.27	32255.65
682.618	32232.6
682.966	32067.63
683.314	32163.45
683.661	32009.33
684.009	32075.77
684.357	31902.66
684.705	31906.96
685.053	31995.09
685.4	31802.33
685.748	31760.75
686.095	31707.19
686.443	31754.65
686.79	31586.29
687.138	31732.05
687.485	31764.59
687.832	31570.92
688.18	31553.07
688.527	31371.38
688.874	31473.52
689.221	31455.44
689.568	31069.01
689.915	31270.59
690.262	31227.88
690.609	31071.05
690.956	30934.1
691.303	30950.37
691.65	30836.93
691.997	30859.53
692.344	30579.99
692.69	30655.47
693.037	30670.61
693.383	30415.02
693.73	30581.12
694.077	30312.88
694.423	30267
694.769	30171.18
695.116	30077.18
695.462	30118.3
695.808	30027.01
696.155	29963.73
696.501	29723.51
696.847	29784.3
697.193	29634.7
697.539	29782.95
697.885	29393.13
698.231	29536.4
698.577	29420.24
698.923	29366.69
699.269	29162.85
699.614	29193.58
699.96	29059.12
700.306	29102.96
700.651	28893.48
700.997	28830.65
701.342	28884.66
701.688	28766.25
702.033	28735.97
702.379	28654.84
702.724	28561.96
703.069	28659.81
703.415	28356.54
703.76	28377.33
704.105	28364.45
704.45	28291.46
704.795	28163.1
705.14	28085.59
705.485	28039.04
705.83	27926.95
706.175	28026.83
706.52	27920.17
706.865	27788.2
707.209	27752.94
707.554	27745.71
707.899	27681.98
708.243	27619.84
708.588	27635.43
708.932	27364.48
709.277	27385.49
709.621	27270.24
709.966	27193.86
710.31	27181.88
710.654	26994.09
710.998	27082.9
711.342	27035.22
711.687	27023.92
712.031	26923.81
712.375	26710.03
712.719	26804.94
713.063	26761.78
713.407	26838.16
713.75	26529.25
714.094	26647.21
714.438	26492.18
714.782	26473.65
715.125	26339.42
715.469	26507.1
715.812	26236.6
716.156	26268.46
716.499	26130.39
716.843	26182.36
717.186	26052.87
717.53	26124.51
717.873	25997.96
718.216	26017.62
718.559	25889.94
718.902	25795.03
719.246	25900.56
719.589	25621.7
719.932	25659.89
720.275	25663.05
720.617	25563.62
720.96	25611.08
721.303	25531.31
721.646	25472.32
721.989	25381.03
722.331	25496.05
722.674	25308.94
723.016	25491.99
723.359	25329.96
723.701	25346.45
724.044	25231.88
724.386	25020.13
724.729	25271.43
725.071	25164.76
725.413	25131.77
725.755	25007.03
726.097	25035.05
726.439	24801.38
726.782	24925.22
727.124	24961.15
727.465	24841.15
727.807	24732.01
728.149	24728.39
728.491	24712.8
728.833	24797.54
729.175	24628.28
729.516	24702.4
729.858	24646.36
730.199	24670.54
730.541	24558.9
730.882	24565.23
731.224	24621.95
731.565	24402.52
731.906	24391.68
732.248	24318.23
732.589	24321.17
732.93	24217.44
733.271	24161.85
733.612	24337.67
733.953	24238.23
734.294	24171.34
734.635	24065.81
734.976	24090.89
735.317	23930.22
735.658	23981.97
735.999	24046.15
736.339	23973.38
736.68	23902.2
737.021	23844.57
737.361	23739.04
737.702	23841.63
738.042	23797.34
738.383	23914.85
738.723	23748.98
739.063	23705.37
739.404	23656.55
739.744	23512.83
740.084	23614.07
740.424	23615.2
740.764	23381.76
741.104	23611.58
741.444	23412.04
741.784	23374.53
742.124	23460.63
742.464	23375.43
742.804	23374.3
743.143	23246.85
743.483	23316.68
743.823	23220.18
744.162	23259.95
744.502	23239.84
744.841	23100.86
745.181	23113.29
745.52	23132.95
745.86	23114.19
746.199	23025.16
746.538	23082.78
746.877	22995.1
747.216	23109.9
747.556	22932.5
747.895	22898.83
748.234	22876.01
748.573	22699.52
748.911	22785.39
749.25	22758.95
749.589	22633.76
749.928	22654.55
750.267	22713.53
750.605	22506.3
750.944	22619.74
751.283	22537.03
751.621	22590.37
751.96	22406.87
752.298	22421.33
752.636	22376.36
752.975	22319.41
753.313	22159.42
753.651	22246.42
753.989	22173.2
754.327	22236.25
754.666	22102.02
755.004	21980.89
755.342	22039.87
755.679	22048.23
756.017	21831.74
756.355	21887.11
756.693	21783.16
757.031	21812.76
757.368	21694.34
757.706	21763.5
758.044	21622.71
758.381	21611.86
758.719	21457.51
759.056	21533.67
759.394	21527.8
759.731	21262.94
760.068	21313.79
760.405	21276.73
760.743	21123.06
761.08	21259.1
761.417	21096.85
761.754	21126
762.091	21039.9
762.428	20940.92
762.765	20762.84
763.102	20905.89
763.438	20686.24
763.775	20679
764.112	20641.27
764.449	20622.96
764.785	20619.57
765.122	20395.85
765.458	20463.19
765.795	20255.29
766.131	20313.82
766.467	20267.72
766.804	20119.02
767.14	20116.53
767.476	20091.68
767.812	19932.58
768.148	19940.27
768.485	19835.64
768.821	19802.64
769.157	19751.8
769.492	19711.8
769.828	19662.08
770.164	19491.01
770.5	19445.36
770.836	19416.89
771.171	19281.75
771.507	19307.97
771.842	19112.49
772.178	19265.48
772.513	19023.45
772.849	19005.6
773.184	19058.71
773.519	18939.61
773.855	18883.12
774.19	18751.6
774.525	18720.41
774.86	18672.05
775.195	18626.4
775.53	18540.76
775.865	18371.04
776.2	18346.64
776.535	18256.92
776.87	18243.36
777.205	18135.34
777.539	18014.67
777.874	18066.42
778.209	17961.11
778.543	17864.62
778.878	17864.16
779.212	17781.68
779.547	17623.27
779.881	17768.12
780.215	17590.95
780.55	17623.04
780.884	17476.6
781.218	17320.45
781.552	17475.25
781.886	17357.96
782.22	17195.25
782.554	17223.28
782.888	17054.01
783.222	16932.21
783.556	16911.87
783.889	16913.68
784.223	16704.65
784.557	16728.15
784.89	16760.46
785.224	16637.3
785.557	16522.96
785.891	16557.98
786.224	16583.52
786.558	16513.69
786.891	16268.72
787.224	16318.22
787.557	16238.9
787.891	16236.41
788.224	16214.94
788.557	16171.33
788.89	16040.93
789.223	16033.93
789.556	15960.03
789.888	15858.57
790.221	15815.18
790.554	15683.88
790.887	15687.05
791.219	15652.92
791.552	15591.45
791.884	15505.13
792.217	15491.8
792.549	15394.17
792.882	15326.83
793.214	15217.9
793.546	15297
793.879	15191.01
794.211	15245.93
794.543	15249.09
794.875	15032.6
795.207	15097.46
795.539	14918.03
795.871	14967.29
796.203	14901.76
796.535	14734.53
796.867	14771.14
797.198	14674.42
797.53	14703.12
797.862	14606.4
798.193	14661.76
798.525	14557.58
798.856	14543.8
799.188	14381.54
799.519	14326.85
799.85	14274.88
800.182	14298.38
800.513	14171.15
800.844	14128.22
801.175	14201.21
801.506	14152.62
801.837	14077.6
802.168	14071.95
802.499	14071.49
802.83	13903.36
803.161	13921.44
803.491	13961.44
803.822	13918.5
804.153	13784.27
804.483	13728.23
804.814	13721.67
805.145	13669.7
805.475	13598.96
805.805	13618.85
806.136	13585.63
806.466	13586.31
806.796	13541.34
807.126	13400.1
807.457	13390.61
807.787	13438.74
808.117	13278.29
808.447	13279.88
808.777	13296.6
809.107	13269.93
809.436	13248.24
809.766	13152.65
810.096	13154
810.426	13081.46
810.755	13069.03
811.085	12953.78
811.414	13084.85
811.744	12930.06
812.073	12874.24
812.403	12862.49
812.732	12735.26
813.061	12759.89
813.39	12771.87
813.719	12620.46
814.049	12752.21
814.378	12745.43
814.707	12648.03
815.036	12657.52
815.365	12542.95
815.693	12447.81
816.022	12536.17
816.351	12482.84
816.68	12425.21
817.008	12336.85
817.337	12345.44
817.665	12267.93
817.994	12284.2
818.322	12219.11
818.651	12178.21
818.979	12088.72
819.307	12150.87
819.636	12102.96
819.964	12079.46
820.292	12151.32
820.62	12093.24
820.948	12008.5
821.276	12080.36
821.604	12065.22
821.932	12035.62
822.259	12036.29
822.587	11978.67
822.915	11943.41
823.243	12033.58
823.57	12033.36
823.898	12046.91
824.225	11925.79
824.553	11910.87
824.88	11952
825.207	12015.05
825.535	11960.82
825.862	11991.1
826.189	11975.28
826.516	12002.17
826.843	11995.16
827.17	11995.62
827.497	12009.4
827.824	12035.84
828.151	12015.73
828.478	12031.1
828.805	11930.76
829.131	11954.71
829.458	11994.26
829.785	11888.05
830.111	11955.62
830.438	11917.65
830.764	11933.92
831.09	12008.5
831.417	11821.16
831.743	11942.96
832.069	11926.69
832.395	11811.21
832.722	11882.17
833.048	11908.84
833.374	11930.31
833.7	11759.24
834.026	11835.85
834.351	11815.96
834.677	11869.74
835.003	11840.37
835.329	11783.19
835.654	11855.28
835.98	11788.16
836.306	11788.84
836.631	11700.48
836.956	11713.59
837.282	11766.24
837.607	11629.52
837.932	11670.65
838.258	11653.7
838.583	11657.09
838.908	11543.43
839.233	11571.9
839.558	11547.94
839.883	11546.36
840.208	11489.42
840.533	11488.06
840.858	11481.51
841.182	11493.94
841.507	11444.9
841.832	11433.37
842.156	11383.43
842.481	11366.03
842.805	11296.65
843.13	11331.68
843.454	11276.99
843.778	11288.29
844.103	11183.21
844.427	11164.23
844.751	11214.85
845.075	11211.68
845.399	11084.23
845.723	11053.95
846.047	11121.52
846.371	10968.07
846.695	10962.88
847.019	10908.64
847.343	10865.7
847.666	10798.36
847.99	10750
848.313	10747.51
848.637	10668.65
848.96	10632.04
849.284	10625.71
849.607	10574.19
849.931	10518.14
850.254	10499.61
850.577	10427.52
850.9	10313.4
851.223	10341.87
851.546	10282.67
851.869	10237.92
852.192	10271.59
852.515	10125.16
852.838	10141.88
853.161	10114.54
853.483	10040.19
853.806	9992.96
854.129	10039.74
854.451	9962.22
854.774	9884.71
855.096	9943.92
855.419	9927.42
855.741	9818.72
856.063	9839.06
856.385	9884.49
856.708	9838.61
857.03	9731.5
857.352	9684.04
857.674	9749.8
857.996	9587.77
858.318	9589.58
858.64	9594.78
858.961	9542.57
859.283	9541.9
859.605	9485.85
859.926	9540.09
860.248	9457.83
860.57	9389.81
860.891	9453.76
861.212	9418.96
861.534	9388.68
861.855	9315.46
862.176	9325.18
862.498	9425.51
862.819	9334.22
863.14	9268.23
863.461	9242.02
863.782	9187.33
864.103	9235.69
864.424	9260.32
864.745	9150.95
865.065	9155.69
865.386	9103.72
865.707	9141.23
866.027	9175.13
866.348	9078.63
866.668	9141.68
866.989	9055.13
867.309	9047.67
867.63	9034.34
867.95	9008.35
868.27	8976.26
868.59	8978.75
868.91	9040.89
869.23	8952.98
869.55	8865.76
869.87	8941.69
870.19	8893.55
870.51	8892.65
870.83	8903.95
871.15	8873.21
871.469	8884.29
871.789	8832.76
872.109	8790.96
872.428	8783.5
872.748	8866.66
873.067	8811.75
873.386	8811.97
873.706	8789.15
874.025	8674.12
874.344	8703.95
874.663	8673.67
874.982	8771.29
875.301	8646.78
875.62	8658.53
875.939	8677.06
876.258	8640.68
876.577	8560.9
876.896	8586.89
877.214	8520.91
877.533	8577.4
877.852	8557.97
878.17	8584.41
878.489	8524.52
878.807	8629.38
879.125	8505.77
879.444	8499.89
879.762	8419.44
880.08	8519.78
880.398	8484.97
880.716	8452.66
881.034	8402.04
881.352	8430.29
881.67	8349.16
881.988	8351.64
882.306	8322.04
882.624	8373.57
882.941	8315.26
883.259	8275.49
883.577	8239.56
883.894	8283.62
884.212	8202.04
884.529	8270.52
884.846	8213.34
885.164	8192.33
885.481	8214.25
885.798	8116.17
886.115	8133.8
886.432	8139.9
886.75	8093.8
887.067	8047.02
887.383	8022.16
887.7	8088.37
888.017	7991.2
888.334	8057.87
888.651	8005.89
888.967	7949.17
889.284	7922.96
889.6	7893.35
889.917	7842.51
890.233	7810.64
890.55	7820.36
890.866	7860.81
891.182	7851.54
891.498	7754.82
891.815	7743.53
892.131	7744.88
892.447	7663.98
892.763	7652.91
893.079	7666.24
893.395	7655.39
893.71	7599.35
894.026	7575.62
894.342	7576.3
894.657	7480.71
894.973	7518.45
895.289	7497.43
895.604	7500.82
895.92	7364.55
896.235	7372.01
896.55	7392.57
896.865	7407.94
897.181	7345.8
897.496	7380.6
897.811	7273.93
898.126	7292.92
898.441	7180.6
898.756	7240.49
899.071	7168.4
899.386	7187.38
899.7	7184.44
900.015	7110.1
900.33	7073.94
900.644	7001.4
900.959	7091.79
901.273	7050.44
901.588	6972.47
901.902	6942.64
902.216	6878.92
902.531	6879.37
902.845	6849.99
903.159	6854.51
903.473	6821.97
903.787	6812.25
904.101	6770.67
904.415	6822.87
904.729	6721.63
905.042	6723.21
905.356	6680.5
905.67	6657.68
905.984	6676.89
906.297	6678.02
906.611	6560.05
906.924	6601.63
907.237	6584.46
907.551	6524.8
907.864	6510.56
908.177	6495.42
908.491	6484.12
908.804	6439.38
909.117	6392.15
909.43	6317.35
909.743	6327.29
910.056	6360.28
910.368	6314.64
910.681	6232.15
910.994	6232.15
911.307	6264.47
911.619	6151.7
911.932	6188.09
912.244	6163.23
912.557	6189.67
912.869	6121.42
913.181	6098.82
913.494	6076
913.806	6072.16
914.118	6020.86
914.43	5983.35
914.742	5931.14
915.054	5918.26
915.366	5904.25
915.678	5898.6
915.99	5895.44
916.302	5806.63
916.613	5828.32
916.925	5798.27
917.236	5807.98
917.548	5747.19
917.859	5748.55
918.171	5676.91
918.482	5688.66
918.794	5629.68
919.105	5631.72
919.416	5565.28
919.727	5550.14
920.038	5570.93
920.349	5531.61
920.66	5506.52
920.971	5528.89
921.282	5483.02
921.593	5377.71
921.903	5433.76
922.214	5413.42
922.525	5390.37
922.835	5329.13
923.146	5324.83
923.456	5319.18
923.767	5259.75
924.077	5280.99
924.387	5231.95
924.697	5185.63
925.008	5237.6
925.318	5218.85
925.628	5220.88
925.938	5167.55
926.248	5095.23
926.558	5069.92
926.867	5056.14
927.177	5066.53
927.487	5024.95
927.796	4955.12
928.106	4969.36
928.416	4982.24
928.725	4928.23
929.034	4940.66
929.344	4952.41
929.653	4944.95
929.962	4820.44
930.271	4822.02
930.581	4811.17
930.89	4846.65
931.199	4774.79
931.508	4777.05
931.817	4746.32
932.125	4698.86
932.434	4716.94
932.743	4666.32
933.051	4627.22
933.36	4656.37
933.669	4609.6
933.977	4627.67
934.286	4653.89
934.594	4557.62
934.902	4547.9
935.21	4527.79
935.519	4534.57
935.827	4496.15
936.135	4466.55
936.443	4435.36
936.751	4421.35
937.059	4434.69
937.367	4376.61
937.674	4403.27
937.982	4401.24
938.29	4326.67
938.597	4343.61
938.905	4309.27
939.213	4263.16
939.52	4252.77
939.827	4264.29
940.135	4169.61
940.442	4173
940.749	4224.3
941.056	4181.58
941.363	4135.26
941.67	4116.95
941.977	4161.92
942.284	4105.88
942.591	4089.84
942.898	4073.57
943.205	4093
943.511	3989.5
943.818	4025.66
944.125	3985.21
944.431	4046.22
944.738	3975.71
945.044	3954.25
945.35	3905.21
945.657	3862.05
945.963	3917.19
946.269	3890.75
946.575	3864.31
946.881	3872.67
947.187	3837.19
947.493	3834.02
947.799	3796.06
948.105	3745.44
948.41	3762.16
948.716	3774.82
949.022	3740.69
949.327	3719
949.633	3702.5
949.938	3704.76
950.244	3694.59
950.549	3651.66
950.854	3615.72
951.16	3627.02
951.465	3617.98
951.77	3629.74
952.075	3535.95
952.38	3547.48
952.685	3585.22
952.99	3543.64
953.294	3514.71
953.599	3469.74
953.904	3499.57
954.209	3472.68
954.513	3484.65
954.818	3469.06
955.122	3399.01
955.426	3411.21
955.731	3423.19
956.035	3405.56
956.339	3363.3
956.643	3354.49
956.948	3349.29
957.252	3313.36
957.556	3341.61
957.86	3284.89
958.163	3275.39
958.467	3268.39
958.771	3265
959.075	3243.53
959.378	3248.73
959.682	3242.63
959.985	3226.58
960.289	3203.08
960.592	3182.74
960.896	3151.33
961.199	3142.29
961.502	3160.59
961.805	3116.98
962.108	3105.91
962.411	3127.15
962.714	3094.61
963.017	3098
963.32	3082.18
963.623	3029.98
963.926	3060.71
964.228	3000.6
964.531	3001.5
964.833	2974.61
965.136	2939.81
965.438	2950.2
965.741	2932.8
966.043	2949.98
966.345	2949.53
966.648	2917.89
966.95	2914.95
967.252	2906.59
967.554	2869.53
967.856	2866.37
968.158	2831.34
968.46	2845.35
968.761	2834.28
969.063	2830.89
969.365	2829.76
969.666	2803.99
969.968	2749.76
970.269	2771.68
970.571	2768.74
970.872	2733.04
971.174	2743.2
971.475	2714.96
971.776	2721.28
972.077	2705.92
972.378	2679.25
972.679	2680.16
972.98	2703.21
973.281	2668.18
973.582	2639.03
973.883	2628.41
974.183	2655.07
974.484	2618.24
974.785	2612.36
975.085	2577.56
975.386	2603.55
975.686	2586.82
975.986	2577.56
976.287	2594.51
976.587	2540.5
976.887	2529.65
977.187	2536.2
977.487	2502.76
977.787	2515.87
978.087	2490.56
978.387	2457.11
978.687	2430.22
978.987	2453.95
979.286	2449.88
979.586	2454.4
979.885	2406.72
980.185	2406.04
980.484	2405.81
980.784	2392.03
981.083	2335.53
981.382	2346.15
981.682	2332.59
981.981	2372.37
982.28	2350.22
982.579	2331.46
982.878	2352.25
983.177	2311.8
983.475	2318.36
983.774	2299.37
984.073	2267.51
984.372	2271.13
984.67	2247.85
984.969	2270
985.267	2277.91
985.566	2232.94
985.864	2221.18
986.162	2193.84
986.461	2200.62
986.759	2214.86
987.057	2183.9
987.355	2154.52
987.653	2148.42
987.951	2128.08
988.249	2145.03
988.547	2119.72
988.844	2120.85
989.142	2102.54
989.44	2088.98
989.737	2073.39
990.035	2108.19
990.332	2076.1
990.63	2069.78
990.927	2048.31
991.224	2066.16
991.521	2056.9
991.819	2011.92
992.116	2012.83
992.413	1985.71
992.71	1974.41
993.006	2030.23
993.303	1984.35
993.6	1984.35
993.897	1990.68
994.193	1991.59
994.49	1976.9
994.787	1924.7
995.083	1934.41
995.379	1910.23
995.676	1917.46
995.972	1942.32
996.268	1873.62
996.565	1856.67
996.861	1888.31
997.157	1880.85
997.453	1882.44
997.749	1866.84
998.044	1846.73
998.34	1827.75
998.636	1845.15
998.932	1820.07
999.227	1819.39
999.523	1816.45
999.818	1806.28
1000.114	1796.79
1000.409	1746.39
1000.704	1752.04
1001	1750.46
1001.295	1761.54
1001.59	1754.53
1001.885	1740.52
1002.18	1687.87
1002.475	1706.62
1002.77	1693.29
1003.065	1684.93
1003.359	1677.7
1003.654	1681.54
1003.949	1661.65
1004.243	1667.3
1004.538	1646.51
1004.832	1613.74
1005.127	1641.31
1005.421	1620.07
1005.715	1614.87
1006.009	1611.71
1006.304	1616.23
1006.598	1617.81
1006.892	1579.39
1007.186	1582.11
1007.48	1572.39
1007.773	1560.18
1008.067	1538.04
1008.361	1538.72
1008.655	1533.29
1008.948	1528.77
1009.242	1524.03
1009.535	1496.91
1009.829	1517.47
1010.122	1490.81
1010.415	1510.02
1010.708	1474.09
1011.001	1467.98
1011.295	1453.75
1011.588	1471.6
1011.881	1435.89
1012.173	1409.23
1012.466	1399.29
1012.759	1411.04
1013.052	1425.95
1013.344	1369
1013.637	1392.96
1013.93	1402.45
1014.222	1369.46
1014.514	1368.55
1014.807	1345.95
1015.099	1379.4
1015.391	1342.34
1015.683	1337.82
1015.976	1362.22
1016.268	1329.91
1016.56	1352.28
1016.851	1324.03
1017.143	1300.53
1017.435	1302.11
1017.727	1276.8
1018.018	1289.46
1018.31	1282.9
1018.602	1265.5
1018.893	1290.14
1019.185	1276.58
1019.476	1228.22
1019.767	1200.19
1020.058	1223.24
1020.35	1215.56
1020.641	1229.57
1020.932	1193.41
1021.223	1196.13
1021.514	1187.54
1021.804	1186.18
1022.095	1182.12
1022.386	1185.28
1022.677	1148.9
1022.967	1144.15
1023.258	1162.46
1023.548	1136.02
1023.839	1164.94
1024.129	1126.75
1024.419	1119.97
1024.709	1124.49
1025	1131.95
1025.29	1112.29
1025.58	1102.12
1025.87	1090.59
1026.16	1084.49
1026.449	1077.26
1026.739	1060.99
1027.029	1049.69
1027.319	1058.73
1027.608	1063.25
1027.898	1062.34
1028.187	1027.09
1028.477	1047.43
1028.766	1017.15
1029.055	1050.82
1029.344	1028
1029.634	984.83
1029.923	1015.11
1030.212	999.97
1030.501	1018.5
1030.79	969.92
1031.078	990.26
1031.367	964.95
1031.656	955.23
1031.945	981.22
1032.233	952.29
1032.522	928.79
1032.81	934.44
1033.099	941.9
1033.387	934.44
1033.675	908.68
1033.963	921.78
1034.251	919.07
1034.54	887.43
1034.828	907.32
1035.116	909.13
1035.403	907.09
1035.691	896.47
1035.979	874.1
1036.267	881.11
1036.554	883.37
1036.842	848.34
1037.129	868
1037.417	863.71
1037.704	832.97
1037.992	877.27
1038.279	855.34
1038.566	827.32
1038.853	827.32
1039.14	827.32
