Data from hue_28_FLMS001491_00033.txt Node
Date: Tue Feb 07 17:17:11 GMT 2017
User: dcchb
Spectrometer: FLMS00149
Trigger mode: 0
Integration Time (sec): 2.000000E-2
Scans to average: 10
Electric dark correction enabled: true
Nonlinearity correction enabled: false
Boxcar width: 0
XAxis mode: Wavelengths
Number of Pixels in Spectrum: 2048
>>>>>Begin Spectral Data<<<<<
341.393	-25.48
341.776	-25.48
342.16	-25.48
342.543	-64.57
342.927	-70.68
343.31	-49.43
343.693	-67.51
344.077	-74.97
344.46	-70.45
344.843	-53.95
345.226	-44.24
345.61	-44.46
345.993	-24.58
346.376	2.09
346.759	-3.56
347.142	31.47
347.525	39.15
347.908	66.5
348.291	80.51
348.674	93.16
349.057	120.28
349.44	128.87
349.823	142.65
350.206	158.7
350.588	206.15
350.971	226.04
351.354	220.62
351.737	225.59
352.119	252.71
352.502	261.29
352.884	268.98
353.267	266.94
353.65	286.83
354.032	309.2
354.414	287.28
354.797	321.86
355.179	320.5
355.562	318.92
355.944	313.95
356.326	340.16
356.709	345.36
357.091	345.36
357.473	347.39
357.855	344.68
358.238	353.04
358.62	352.36
359.002	336.54
359.384	352.14
359.766	360.05
360.148	314.4
360.53	351.91
360.912	327.05
361.294	359.6
361.676	324.12
362.057	354.85
362.439	343.32
362.821	354.62
363.203	328.18
363.584	336.09
363.966	328.86
364.348	322.31
364.729	304.68
365.111	334.51
365.493	325.92
365.874	323.44
366.256	303.78
366.637	309.88
367.019	313.49
367.4	319.82
367.781	335.64
368.163	324.34
368.544	309.88
368.925	301.97
369.306	306.26
369.688	294.51
370.069	293.83
370.45	328.64
370.831	295.87
371.212	341.29
371.593	327.05
371.974	315.3
372.355	309.88
372.736	329.77
373.117	320.05
373.498	309.65
373.879	323.89
374.26	321.4
374.641	328.41
375.021	329.54
375.402	331.57
375.783	318.69
376.163	318.01
376.544	327.96
376.925	336.54
377.305	311.46
377.686	317.11
378.066	335.19
378.447	333.38
378.827	346.26
379.208	356.88
379.588	341.97
379.968	304.23
380.349	346.49
380.729	347.62
381.109	328.86
381.489	337.22
381.87	333.16
382.25	341.06
382.63	351.01
383.01	350.78
383.39	344.45
383.77	331.8
384.15	329.09
384.53	360.27
384.91	356.88
385.29	339.03
385.67	340.39
386.049	344.23
386.429	344.23
386.809	369.31
387.189	353.04
387.568	380.39
387.948	356.43
388.328	351.01
388.707	365.47
389.087	339.03
389.466	341.74
389.846	331.35
390.225	362.76
390.605	360.95
390.984	375.64
391.363	336.54
391.743	372.93
392.122	374.74
392.501	381.29
392.881	381.74
393.26	376.54
393.639	378.58
394.018	382.19
394.397	373.61
394.776	375.64
395.155	391.68
395.534	399.14
395.913	381.29
396.292	403.66
396.671	394.17
397.05	394.85
397.429	372.48
397.808	389.2
398.186	403.66
398.565	394.17
398.944	382.42
399.323	380.84
399.701	411.57
400.08	392.81
400.458	395.3
400.837	395.75
401.215	391.46
401.594	409.76
401.972	392.59
402.351	421.97
402.729	385.13
403.107	401.85
403.486	434.62
403.864	397.33
404.242	416.32
404.62	423.1
404.999	415.64
405.377	434.17
405.755	418.8
406.133	416.99
406.511	418.12
406.889	419.25
407.267	438.69
407.645	439.37
408.023	439.37
408.401	428.75
408.779	439.59
409.156	430.1
409.534	429.65
409.912	446.82
410.29	443.21
410.667	457.45
411.045	466.48
411.422	459.71
411.8	442.76
412.178	437.79
412.555	468.97
412.933	461.97
413.31	470.55
413.687	475.52
414.065	439.82
414.442	462.64
414.819	478.24
415.197	467.61
415.574	487.05
415.951	466.26
416.328	499.48
416.705	501.06
417.082	490.44
417.46	510.78
417.837	511.91
418.214	501.96
418.591	505.58
418.967	501.74
419.344	526.6
419.721	525.69
420.098	511.23
420.475	526.6
420.852	530.21
421.228	504
421.605	533.38
421.982	537.44
422.358	502.87
422.735	530.21
423.111	544.9
423.488	522.98
423.864	549.87
424.241	552.36
424.617	527.95
424.994	548.52
425.37	557.78
425.746	553.94
426.123	567.5
426.499	548.29
426.875	565.92
427.251	573.6
427.627	579.02
428.003	578.12
428.379	598.23
428.756	574.73
429.132	586.03
429.507	584.22
429.883	581.96
430.259	625.8
430.635	606.14
431.011	599.14
431.387	612.47
431.763	621.06
432.138	633.26
432.514	653.6
432.89	637.55
433.265	642.53
433.641	642.07
434.016	651.79
434.392	661.06
434.767	673.26
435.143	662.64
435.518	681.62
435.894	682.75
436.269	687.72
436.644	686.59
437.02	683.43
437.395	681.17
437.77	697.21
438.145	706.25
438.52	708.51
438.895	751.68
439.271	731.56
439.646	730.88
440.021	707.61
440.395	710.55
440.77	752.35
441.145	743.09
441.52	744.44
441.895	757.55
442.27	773.37
442.645	732.92
443.019	756.42
443.394	755.06
443.769	758.91
444.143	760.49
444.518	800.49
444.892	774.05
445.267	774.73
445.641	768.85
446.016	784.22
446.39	805.46
446.764	789.64
447.139	807.27
447.513	791.22
447.887	791
448.262	797.78
448.636	812.24
449.01	816.31
449.384	814.95
449.758	823.31
450.132	836.19
450.506	831
450.88	842.52
451.254	847.04
451.628	858.34
452.002	848.85
452.376	864.89
452.75	869.64
453.123	857.89
453.497	880.94
453.871	896.08
454.244	912.12
454.618	907.38
454.992	908.28
455.365	932.69
455.739	926.13
456.112	921.84
456.486	934.5
456.859	960.03
457.232	972.46
457.606	961.16
457.979	980.37
458.352	984.66
458.725	1002.52
459.099	1014.72
459.472	1018.56
459.845	1039.58
460.218	1055.17
460.591	1021.5
460.964	1031.67
461.337	1056.53
461.71	1090.2
462.083	1079.8
462.456	1104.43
462.829	1106.47
463.201	1131.1
463.574	1140.37
463.947	1162.51
464.32	1174.04
464.692	1146.47
465.065	1175.84
465.438	1198.44
465.81	1188.95
466.183	1208.84
466.555	1246.8
466.928	1232.11
467.3	1240.48
467.672	1265.79
468.045	1279.34
468.417	1312.11
468.789	1328.38
469.161	1287.71
469.534	1327.71
469.906	1352.56
470.278	1369.51
470.65	1395.5
471.022	1409.06
471.394	1449.51
471.766	1458.55
472.138	1463.75
472.51	1517.98
472.882	1526.8
473.253	1568.38
473.625	1555.95
473.997	1575.83
474.369	1642.27
474.74	1629.62
475.112	1635.27
475.484	1687.02
475.855	1724.08
476.227	1747.36
476.598	1810.18
476.97	1789.84
477.341	1854.47
477.713	1890.63
478.084	1903.74
478.455	1937.41
478.827	2004.3
479.198	2026.44
479.569	2073.9
479.94	2143.28
480.311	2134.46
480.682	2192.99
481.053	2247.91
481.424	2274.8
481.795	2309.83
482.166	2384.63
482.537	2395.93
482.908	2463.49
483.279	2484.06
483.65	2524.96
484.021	2603.6
484.391	2630.72
484.762	2679.76
485.133	2686.54
485.503	2734.22
485.874	2837.27
486.244	2845.86
486.615	2908.91
486.985	2956.81
487.356	3082.46
487.726	3055.12
488.097	3134.89
488.467	3205.17
488.837	3227.09
489.207	3271.83
489.578	3341.44
489.948	3384.37
490.318	3442.23
490.688	3480.42
491.058	3536.46
491.428	3637.25
491.798	3655.55
492.168	3698.72
492.538	3745.95
492.908	3822.78
493.278	3893.29
493.648	3872.72
494.017	3891.48
494.387	3994.53
494.757	4024.81
495.126	4074.53
495.496	4140.51
495.866	4181.64
496.235	4193.62
496.605	4211.02
496.974	4238.59
497.344	4336.89
497.713	4304.58
498.082	4323.33
498.452	4410.56
498.821	4481.29
499.19	4497.11
499.559	4515.64
499.928	4549.09
500.298	4586.83
500.667	4647.17
501.036	4667.73
501.405	4729.42
501.774	4764.68
502.143	4758.12
502.512	4800.61
502.88	4887.61
503.249	4858.91
503.618	4913.6
503.987	4873.83
504.356	4990.21
504.724	4971.45
505.093	5024.33
505.462	5033.37
505.83	5052.35
506.199	5117.21
506.567	5134.16
506.936	5112.46
507.304	5237.43
507.672	5250.99
508.041	5256.19
508.409	5317.88
508.777	5354.27
509.145	5400.14
509.514	5360.82
509.882	5390.88
510.25	5404.43
510.618	5494.6
510.986	5474.94
511.354	5557.2
511.722	5564.88
512.09	5590.42
512.458	5609.85
512.826	5609.17
513.193	5681.49
513.561	5668.61
513.929	5727.59
514.297	5741.83
514.664	5739.79
515.032	5765.55
515.4	5827.93
515.767	5811.43
516.135	5886.68
516.502	5850.07
516.869	5995.38
517.237	5989.96
517.604	5947.24
517.972	6013.68
518.339	6014.36
518.706	5991.09
519.073	6070.18
519.44	6067.47
519.808	6126
520.175	6120.57
520.542	6201.02
520.909	6173.23
521.276	6147.24
521.643	6233.79
522.009	6329.61
522.376	6295.94
522.743	6361.92
523.11	6363.5
523.477	6402.6
523.843	6420.23
524.21	6522.14
524.577	6561.92
524.943	6551.97
525.31	6607.34
525.676	6632.88
526.043	6676.49
526.409	6651.86
526.776	6754.91
527.142	6780.67
527.508	6797.17
527.874	6831.97
528.241	6926.43
528.607	6888.46
528.973	7007.78
529.339	6985.41
529.705	7077.84
530.071	7082.13
530.437	7090.27
530.803	7215.23
531.169	7210.49
531.535	7192.41
531.901	7225.4
532.267	7259.3
532.632	7274.89
532.998	7332.75
533.364	7354.44
533.73	7377.72
534.095	7452.52
534.461	7494.1
534.826	7474.89
535.192	7486.87
535.557	7596.69
535.923	7609.35
536.288	7664.49
536.653	7663.36
537.019	7642.57
537.384	7739.97
537.749	7748.78
538.114	7824.03
538.479	7765.95
538.845	7850.02
539.21	7801.21
539.575	7925.5
539.94	7878.27
540.305	7965.27
540.67	7941.99
541.034	7891.83
541.399	7992.16
541.764	8052.73
542.129	8075.55
542.494	8080.52
542.858	8151.93
543.223	8219.28
543.587	8203.46
543.952	8215.43
544.316	8245.94
544.681	8315.32
545.045	8346.96
545.41	8367.52
545.774	8457.91
546.138	8484.35
546.503	8500.62
546.867	8470.57
547.231	8531.81
547.595	8565.48
547.959	8675.08
548.324	8621.07
548.688	8615.88
549.052	8683.9
549.416	8677.79
549.779	8664.46
550.143	8709.43
550.507	8808.41
550.871	8826.04
551.235	8882.76
551.599	8902.65
551.962	8898.81
552.326	8979.93
552.689	8953.49
553.053	8979.93
553.417	9008.86
553.78	9089.99
554.143	8996.66
554.507	9144.22
554.87	9138.57
555.234	9228.51
555.597	9209.76
555.96	9213.83
556.323	9261.73
556.686	9286.59
557.05	9264.45
557.413	9365.23
557.776	9363.88
558.139	9405.91
558.502	9434.61
558.865	9466.02
559.228	9550.09
559.59	9525.23
559.953	9541.73
560.316	9584.21
560.679	9618.79
561.041	9686.13
561.404	9701.72
561.767	9810.65
562.129	9794.38
562.492	9880.47
562.854	9796.41
563.217	9835.96
563.579	9886.12
563.941	9934.26
564.304	10040.02
564.666	10028.49
565.028	10056.52
565.39	10113.91
565.753	10099.9
566.115	10175.83
566.477	10213.12
566.839	10235.49
567.201	10330.86
567.563	10317.07
567.925	10370.86
568.287	10378.54
568.648	10410.4
569.01	10441.82
569.372	10597.52
569.734	10505.09
570.095	10627.12
570.457	10651.98
570.819	10742.82
571.18	10708.25
571.542	10779.43
571.903	10834.8
572.265	10881.58
572.626	10842.48
572.987	10937.62
573.349	10976.49
573.71	11027.34
574.071	11086.54
574.432	11176.26
574.794	11265.52
575.155	11323.83
575.516	11303.04
575.877	11475.91
576.238	11556.36
576.599	11599.3
576.96	11708.9
577.32	11735.79
577.681	11785.96
578.042	11891.95
578.403	12026.41
578.763	12131.04
579.124	12242.9
579.485	12305.04
579.845	12443.12
580.206	12590.46
580.566	12708.87
580.927	12762.21
581.287	13001.07
581.648	13017.34
582.008	13308.63
582.368	13375.3
582.728	13549.76
583.089	13622.52
583.449	13793.59
583.809	14017.77
584.169	14203.52
584.529	14283.07
584.889	14600.8
585.249	14630.86
585.609	14837.41
585.969	15071.98
586.329	15308.81
586.688	15518.29
587.048	15761.9
587.408	16008.68
587.768	16169.12
588.127	16433.75
588.487	16750.35
588.846	17045.26
589.206	17141.75
589.565	17383.1
589.925	17689.31
590.284	17932.47
590.643	18214.04
591.003	18509.85
591.362	18809.05
591.721	19110.51
592.08	19385.31
592.44	19610.16
592.799	19864.62
593.158	20146.42
593.517	20471.38
593.876	20739.4
594.235	21051.03
594.593	21387.52
594.952	21704.8
595.311	21921.74
595.67	22309.3
596.029	22727.59
596.387	22971.88
596.746	23208.94
597.104	23492.32
597.463	23779.54
597.822	24150.16
598.18	24352.41
598.538	24647.09
598.897	24992.39
599.255	25099.51
599.613	25885.03
599.972	25847.74
600.33	26186.94
600.688	26411.11
601.046	26701.95
601.404	27136.52
601.762	27428.94
602.12	27842.94
602.478	27996.38
602.836	28157.28
603.194	28333.32
603.552	28716.59
603.91	28870.03
604.268	29321.32
604.625	29481.32
604.983	29904.58
605.341	29896.45
605.698	30398.35
606.056	30690.1
606.413	30732.36
606.771	31148.62
607.128	31399.23
607.485	31545.67
607.843	31716.74
608.2	32119.66
608.557	32295.03
608.914	32470.84
609.272	32806.2
609.629	33094.55
609.986	33276.02
610.343	33539.97
610.7	33731.6
611.057	34026.51
611.414	34085.94
611.771	34322.09
612.127	34704.91
612.484	34827.84
612.841	35125.23
613.198	35129.98
613.554	35267.6
613.911	35718.67
614.267	35785.33
614.624	35836.63
614.98	36025.1
615.337	36485.42
615.693	36587.8
616.05	36553.9
616.406	36934.9
616.762	36952.31
617.118	37120.21
617.475	37274.33
617.831	37570.59
618.187	37662.34
618.543	37716.13
618.899	38135.1
619.255	38111.37
619.611	38233.18
619.967	38363.12
620.323	38588.87
620.678	38490.12
621.034	38408.99
621.39	38590.45
621.746	38613.5
622.101	39256.2
622.457	38925.81
622.812	39231.34
623.168	39284.22
623.523	39401.28
623.879	39593.82
624.234	39425.01
624.589	39688.05
624.945	39771.89
625.3	39886.69
625.655	39869.97
626.01	40101.15
626.365	40178.89
626.72	39947.25
627.075	40059.12
627.43	40190.41
627.785	40226.8
628.14	40380.46
628.495	40592.89
628.85	40415.27
629.205	40331.2
629.559	40701.59
629.914	40602.83
630.269	40639.67
630.623	40637.86
630.978	40572.32
631.332	40762.6
631.687	40910.39
632.041	40805.31
632.396	40986.55
632.75	40891.86
633.104	40869.94
633.459	40877.17
633.813	40743.39
634.167	40917.4
634.521	40778.42
634.875	40867
635.229	40949.94
635.583	40779.1
635.937	40951.52
636.291	40810.73
636.645	40909.94
636.999	40885.54
637.352	40925.53
637.706	40671.76
638.06	40952.2
638.413	40874.24
638.767	40830.62
639.121	40899.09
639.474	40610.29
639.828	40798.08
640.181	40868.59
640.534	40795.14
640.888	40729.61
641.241	40532.1
641.594	40709.95
641.947	40787.91
642.301	40697.74
642.654	40795.37
643.007	40725.99
643.36	40765.99
643.713	40619.78
644.066	40947.91
644.419	40544.53
644.771	40313.8
645.124	40046.69
645.477	39994.71
645.83	39778.45
646.182	39588.62
646.535	39537.1
646.888	39683.08
647.24	39464.1
647.593	39647.6
647.945	39677.66
648.298	39411.22
648.65	39382.98
649.002	39340.04
649.355	39556.98
649.707	39397.21
650.059	39572.8
650.411	39979.8
650.763	40036.74
651.115	40519.44
651.467	40310.41
651.819	40345.44
652.171	40322.39
652.523	40213.91
652.875	40182.73
653.227	40170.75
653.578	40371.42
653.93	40230.41
654.282	40069.96
654.633	40057.99
654.985	40053.24
655.337	40095.27
655.688	40043.52
656.039	40205.33
656.391	40053.24
656.742	40039.46
657.094	39945.22
657.445	40119.68
657.796	40108.15
658.147	39987.25
658.498	40050.75
658.849	40024.31
659.2	39982.28
659.551	39918.78
659.902	40142.05
660.253	40026.57
660.604	39955.84
660.955	39822.74
661.306	40062.73
661.656	39948.38
662.007	40058.89
662.358	39898.22
662.708	40080.13
663.059	39832.91
663.409	39696.41
663.76	40056.86
664.11	39925.11
664.461	39884.88
664.811	39980.93
665.161	39946.35
665.511	39721.72
665.862	39905.67
666.212	40042.39
666.562	39996.29
666.912	39838.33
667.262	39842.4
667.612	39768.05
667.962	39926.01
668.312	39666.58
668.662	39929.4
669.011	40004.2
669.361	39819.12
669.711	39880.14
670.06	39729.41
670.41	39768.95
670.76	39646.7
671.109	39795.17
671.459	39798.33
671.808	39643.08
672.157	39688.73
672.507	39479.02
672.856	39439.7
673.205	39487.61
673.554	39683.98
673.904	39375.29
674.253	39782.06
674.602	39582.07
674.951	39116.32
675.3	38914.06
675.649	39484.89
675.998	39493.93
676.346	39475.85
676.695	39711.78
677.044	39367.16
677.393	39524.21
677.741	39414.39
678.09	39544.55
678.438	39258.69
678.787	39429.53
679.135	39290.1
679.484	39151.34
679.832	39290.77
680.181	38997.45
680.529	38967.39
680.877	38892.82
681.225	39105.92
681.573	39256.43
681.922	38979.37
682.27	38864.12
682.618	38862.54
682.966	38665.71
683.314	38833.61
683.661	38773.73
684.009	38533.05
684.357	38446.28
684.705	38575.31
685.053	38547.97
685.4	38439.05
685.748	38247.19
686.095	38177.13
686.443	38224.59
686.79	38090.13
687.138	38176.23
687.485	38085.16
687.832	37995.44
688.18	37907.99
688.527	37746.41
688.874	37780.53
689.221	37796.12
689.568	37512.74
689.915	37503.93
690.262	37547.54
690.609	37473.65
690.956	37315.23
691.303	37378.51
691.65	37155.69
691.997	37235.01
692.344	36880.22
692.69	36999.99
693.037	36913.66
693.383	36707.57
693.73	36796.38
694.077	36594.35
694.423	36606.1
694.769	36379.89
695.116	36369.27
695.462	36368.37
695.808	36072.78
696.155	36429.83
696.501	35943.52
696.847	35918.66
697.193	35800.92
697.539	35922.5
697.885	35654.94
698.231	35584.21
698.577	35518.22
698.923	35375.17
699.269	35339.69
699.614	35223.99
699.96	35134.05
700.306	35063.09
700.651	35086.82
700.997	34985.13
701.342	34924.79
701.688	34739.03
702.033	34714.62
702.379	34667.62
702.724	34556.66
703.069	34642.99
703.415	34207.52
703.76	34367.74
704.105	34303.11
704.45	34110.12
704.795	33900.18
705.14	34061.08
705.485	33963.46
705.83	33711.26
706.175	33806.17
706.52	33680.75
706.865	33669.45
707.209	33556.91
707.554	33430.59
707.899	33427.2
708.243	33332.51
708.588	33135
708.932	33044.84
709.277	32965.07
709.621	33027.44
709.966	32854.11
710.31	32850.72
710.654	32635.58
710.998	32583.38
711.342	32675.13
711.687	32487.11
712.031	32330.05
712.375	32263.61
712.719	32424.97
713.063	32338.19
713.407	32459.99
713.75	32102.49
714.094	32174.13
714.438	31935.04
714.782	32086.44
715.125	32051.19
715.469	31825.43
715.812	31949.5
716.156	31742.27
716.499	31713.8
716.843	31635.16
717.186	31454.37
717.53	31622.05
717.873	31662.73
718.216	31445.33
718.559	31349.06
718.902	31262.06
719.246	31309.52
719.589	31189.29
719.932	31109.3
720.275	31067.26
720.617	31117.2
720.96	30958.34
721.303	31010.77
721.646	30890.32
721.989	30837.66
722.331	30865.23
722.674	30721.28
723.016	30817.78
723.359	30682.41
723.701	30745.46
724.044	30669.31
724.386	30442.19
724.729	30532.81
725.071	30462.31
725.413	30544.11
725.755	30453.72
726.097	30327.62
726.439	30144.8
726.782	30181.41
727.124	30334.63
727.465	30201.07
727.807	30074.52
728.149	30053.5
728.491	29968.31
728.833	30019.83
729.175	29792.95
729.516	29789.78
729.858	29794.3
730.199	29871.14
730.541	29748.2
730.882	29719.05
731.224	29744.81
731.565	29573.52
731.906	29553.18
732.248	29521.99
732.589	29491.94
732.93	29345.27
733.271	29400.64
733.612	29294.43
733.953	29479.96
734.294	29279.74
734.635	29147.31
734.976	29294.65
735.317	29115.68
735.658	29033.19
735.999	29171.49
736.339	28859.64
736.68	29106.64
737.021	28966.3
737.361	28884.04
737.702	28898.05
738.042	28842.91
738.383	28890.14
738.723	28808.34
739.063	28708.45
739.404	28713.2
739.744	28596.59
740.084	28552.98
740.424	28653.54
740.764	28418.29
741.104	28624.61
741.444	28582.13
741.784	28288.58
742.124	28477.95
742.464	28376.94
742.804	28235.47
743.143	28260.56
743.483	28261.01
743.823	28136.27
744.162	28164.74
744.502	28031.18
744.841	28026.21
745.181	28101.46
745.52	27982.37
745.86	28096.94
746.199	27908.93
746.538	27863.73
746.877	27999.32
747.216	27809.04
747.556	27793.45
747.895	27869.83
748.234	27771.08
748.573	27610.63
748.911	27618.54
749.25	27675.04
749.589	27550.97
749.928	27555.72
750.267	27503.97
750.605	27413.8
750.944	27451.99
751.283	27331.32
751.621	27392.56
751.96	27261.26
752.298	27220.58
752.636	27185.1
752.975	27060.81
753.313	26974.26
753.651	27150.3
753.989	27008.61
754.327	26869.18
754.666	26858.33
755.004	26941.27
755.342	26886.13
755.679	26846.13
756.017	26659.69
756.355	26707.83
756.693	26457.21
757.031	26565.01
757.368	26470.09
757.706	26478
758.044	26305.35
758.381	26329.31
758.719	26253.6
759.056	26283.43
759.394	26136.09
759.731	26079.6
760.068	25946.27
760.405	25983.55
760.743	25837.34
761.08	25997.79
761.417	25735.88
761.754	25678.03
762.091	25666.95
762.428	25607.29
762.765	25414.98
763.102	25519.61
763.438	25470.35
763.775	25436.68
764.112	25338.15
764.449	25303.35
764.785	25174.31
765.122	24876.92
765.458	24892.06
765.795	24855.9
766.131	24800.31
766.467	24671.05
766.804	24613.19
767.14	24463.37
767.476	24444.39
767.812	24351.96
768.148	24379.75
768.485	24167.78
768.821	24052.98
769.157	24089.37
769.492	24054.79
769.828	23919.43
770.164	23667
770.5	23683.73
770.836	23685.08
771.171	23496.61
771.507	23510.4
771.842	23340.46
772.178	23392.89
772.513	23315.6
772.849	23183.85
773.184	23171.42
773.519	23143.4
773.855	23041.03
774.19	22940.7
774.525	22869.51
774.86	22783.19
775.195	22744.09
775.53	22684.43
775.865	22557.43
776.2	22325.35
776.535	22281.5
776.87	22257.78
777.205	22178.46
777.539	22003.09
777.874	22011
778.209	21835.87
778.543	21918.8
778.878	21660.96
779.212	21805.58
779.547	21628.41
779.881	21667.06
780.215	21467.51
780.55	21550.9
780.884	21370.57
781.218	21312.72
781.552	21370.79
781.886	21160.4
782.22	21139.84
782.554	20973.74
782.888	20834.76
783.222	20671.15
783.556	20717.25
783.889	20727.65
784.223	20447.65
784.557	20472.96
784.89	20464.38
785.224	20462.57
785.557	20284.49
785.891	20245.85
786.224	20141.9
786.558	20112.75
786.891	19916.37
787.224	19806.99
787.557	19798.63
787.891	19760.89
788.224	19779.2
788.557	19759.08
788.89	19642.93
789.223	19572.65
789.556	19430.51
789.888	19443.61
790.221	19381.24
790.554	19225.99
790.887	19204.07
791.219	19207.01
791.552	19055.83
791.884	18990.74
792.217	18954.13
792.549	18841.37
792.882	18760.02
793.214	18567.25
793.546	18605.22
793.879	18468.95
794.211	18480.7
794.543	18592.34
794.875	18464.88
795.207	18550.76
795.539	18367.94
795.871	18442.06
796.203	18138.11
796.535	18118.22
796.867	18047.72
797.198	18094.72
797.53	18080.49
797.862	17918.23
798.193	17888.17
798.525	17798.91
798.856	17784
799.188	17639.14
799.519	17541.29
799.85	17462.65
800.182	17491.57
800.513	17560.5
800.844	17255.2
801.175	17340.39
801.506	17304.01
801.837	17275.53
802.168	17331.35
802.499	17188.98
802.83	17038.25
803.161	17094.3
803.491	17057.01
803.822	17031.47
804.153	16894.08
804.483	16802.55
804.814	16713.29
805.145	16665.83
805.475	16671.03
805.805	16585.16
806.136	16562.56
806.466	16644.82
806.796	16536.8
807.126	16407.53
807.457	16330.93
807.787	16372.96
808.117	16283.24
808.447	16219.29
808.777	16227.88
809.107	16156.69
809.436	16155.79
809.766	16146.52
810.096	15981.33
810.426	15979.75
810.755	16030.6
811.085	15862.46
811.414	15876.93
811.744	15744.5
812.073	15729.13
812.403	15706.08
812.732	15730.94
813.061	15599.65
813.39	15632.64
813.719	15499.08
814.049	15624.73
814.378	15542.92
814.707	15425.64
815.036	15449.14
815.365	15373.89
815.693	15236.49
816.022	15302.48
816.351	15178.64
816.68	15076.72
817.008	15156.49
817.337	14989.72
817.665	15026.55
817.994	15004.86
818.322	14971.19
818.651	14863.39
818.979	14887.57
819.307	14886.67
819.636	14841.02
819.964	14749.73
820.292	14792.44
820.62	14726.9
820.948	14738.43
821.276	14781.59
821.604	14711.08
821.932	14755.37
822.259	14797.41
822.587	14754.7
822.915	14686.68
823.243	14646.9
823.57	14631.31
823.898	14720.12
824.225	14615.94
824.553	14691.42
824.88	14565.78
825.207	14710.63
825.535	14612.33
825.862	14685.55
826.189	14678.09
826.516	14665.66
826.843	14730.06
827.17	14755.15
827.497	14768.03
827.824	14717.41
828.151	14734.36
828.478	14761.48
828.805	14753.34
829.131	14621.59
829.458	14563.52
829.785	14592.22
830.111	14612.78
830.438	14686.45
830.764	14616.4
831.09	14582.95
831.417	14635.6
831.743	14672.89
832.069	14611.65
832.395	14478.77
832.722	14548.6
833.048	14486.68
833.374	14577.53
833.7	14463.18
834.026	14624.76
834.351	14519
834.677	14517.19
835.003	14510.64
835.329	14529.62
835.654	14408.72
835.98	14336.4
836.306	14384.76
836.631	14362.84
836.956	14386.57
837.282	14370.75
837.607	14314.03
837.932	14266.35
838.258	14261.15
838.583	14160.59
838.908	14135.96
839.233	14136.63
839.558	14135.96
839.883	14077.2
840.208	14136.18
840.533	14067.48
840.858	14096.18
841.182	14066.13
841.507	13986.13
841.832	13994.26
842.156	13930.54
842.481	13969.86
842.805	13911.78
843.13	13811.22
843.454	13854.16
843.778	13832.01
844.103	13676.31
844.427	13760.37
844.751	13777.1
845.075	13662.75
845.399	13625.91
845.723	13596.99
846.047	13494.39
846.371	13417.1
846.695	13448.74
847.019	13308.41
847.343	13251.91
847.666	13204.23
847.99	13211.23
848.313	13138.02
848.637	13039.94
848.96	13106.6
849.284	12996.55
849.607	12931.47
849.931	12839.04
850.254	12767.4
850.577	12771.92
850.9	12720.17
851.223	12644.7
851.546	12661.42
851.869	12591.36
852.192	12551.36
852.515	12435.44
852.838	12462.55
853.161	12478.82
853.483	12317.7
853.806	12266.17
854.129	12317.47
854.451	12163.35
854.774	12135.56
855.096	12105.73
855.419	12144.14
855.741	12079.29
856.063	12081.55
856.385	12002.23
856.708	11984.6
857.03	11920.87
857.352	11905.51
857.674	11896.01
857.996	11792.06
858.318	11750.71
858.64	11662.12
858.961	11637.04
859.283	11631.84
859.605	11556.59
859.926	11634.78
860.248	11626.87
860.57	11557.72
860.891	11515.23
861.212	11449.92
861.534	11526.53
861.855	11497.38
862.176	11327.22
862.498	11449.25
862.819	11375.12
863.14	11291.96
863.461	11335.58
863.782	11263.94
864.103	11318.18
864.424	11240.66
864.745	11285.86
865.065	11126.77
865.386	11111.18
865.707	11127.9
866.027	11131.74
866.348	11134
866.668	11102.14
866.989	11085.19
867.309	11062.14
867.63	10981.91
867.95	11002.25
868.27	10957.51
868.59	10971.75
868.91	10934.01
869.23	11034.79
869.55	10945.08
869.87	11012.2
870.19	10887.23
870.51	10934.91
870.83	10876.83
871.15	10816.72
871.469	10868.25
871.789	10768.59
872.109	10762.71
872.428	10743.28
872.748	10830.51
873.067	10767.91
873.386	10730.62
873.706	10765.65
874.025	10720.9
874.344	10637.74
874.663	10705.09
874.982	10688.59
875.301	10621.7
875.62	10615.37
875.939	10555.94
876.258	10580.8
876.577	10534.69
876.896	10531.08
877.214	10517.29
877.533	10531.31
877.852	10515.94
878.17	10528.82
878.489	10468.93
878.807	10411.99
879.125	10383.06
879.444	10480.23
879.762	10364.76
880.08	10399.78
880.398	10282.5
880.716	10341.48
881.034	10301.03
881.352	10294.93
881.67	10235.95
881.988	10189.17
882.306	10134.48
882.624	10187.36
882.941	10146.68
883.259	10203.63
883.577	10077.53
883.894	10086.8
884.212	10032.79
884.529	10026.46
884.846	9992.56
885.164	9953.69
885.481	9951.21
885.798	9981.94
886.115	9860.59
886.432	9859.01
886.75	9883.19
887.067	9915.5
887.383	9792.79
887.7	9849.74
888.017	9721.38
888.334	9788.73
888.651	9702.85
888.967	9716.86
889.284	9666.92
889.6	9668.95
889.917	9581.95
890.233	9598.67
890.55	9563.42
890.866	9566.36
891.182	9510.54
891.498	9462.18
891.815	9412.24
892.131	9386.25
892.447	9410.43
892.763	9395.97
893.079	9318
893.395	9310.77
893.71	9325.01
894.026	9272.58
894.342	9264.45
894.657	9205.92
894.973	9231.45
895.289	9164.34
895.604	9173.37
895.92	9083.89
896.235	9016.77
896.55	8995.75
896.865	9027.16
897.181	8965.47
897.496	8948.97
897.811	8915.98
898.126	8870.56
898.441	8814.97
898.756	8837.11
899.071	8790.56
899.386	8761.41
899.7	8716.89
900.015	8675.76
900.33	8588.31
900.644	8572.26
900.959	8616.78
901.273	8529.55
901.588	8580.62
901.902	8521.64
902.216	8481.64
902.531	8423.56
902.845	8440.96
903.159	8393.51
903.473	8380.18
903.787	8275.09
904.101	8262.89
904.415	8261.53
904.729	8235.09
905.042	8203
905.356	8161.2
905.67	8177.02
905.984	8148.77
906.297	8090.24
906.611	8106.28
906.924	7992.84
907.237	7965.72
907.551	7921.88
907.864	7958.27
908.177	7948.1
908.491	7890.02
908.804	7853.86
909.117	7772.73
909.43	7741.32
909.743	7761.21
910.056	7772.28
910.368	7672.4
910.681	7638.95
910.994	7661.55
911.307	7622.91
911.619	7501.78
911.932	7527.99
912.244	7542.23
912.557	7492.74
912.869	7502.01
913.181	7404.38
913.494	7381.56
913.806	7359.19
914.118	7338.17
914.43	7255.68
914.742	7266.76
915.054	7262.46
915.366	7212.07
915.678	7166.2
915.99	7136.82
916.302	7077.16
916.613	7062.24
916.925	7026.99
917.236	7038.06
917.548	6955.35
917.859	6988.12
918.171	6885.3
918.482	6875.36
918.794	6881.23
919.105	6864.51
919.416	6810.95
919.727	6817.05
920.038	6834.91
920.349	6706.55
920.66	6662.25
920.971	6704.96
921.282	6714
921.593	6604.63
921.903	6546.78
922.214	6565.31
922.525	6562.14
922.835	6472.43
923.146	6486.67
923.456	6422.26
923.767	6406.89
924.077	6428.81
924.387	6372.77
924.697	6344.52
925.008	6352.66
925.318	6278.99
925.628	6234.92
925.938	6178.2
926.248	6169.39
926.558	6178.2
926.867	6154.02
927.177	6111.31
927.487	6097.52
927.796	6047.81
928.106	6063.63
928.416	6023.85
928.725	6008.26
929.034	5941.37
929.344	5977.53
929.653	5914.03
929.962	5862.28
930.271	5848.94
930.581	5823.41
930.89	5875.83
931.199	5802.39
931.508	5793.58
931.817	5787.93
932.125	5720.13
932.434	5729.62
932.743	5657.99
933.051	5647.37
933.36	5607.14
933.669	5581.38
933.977	5578.21
934.286	5556.52
934.594	5525.56
934.902	5519.91
935.21	5475.39
935.519	5487.82
935.827	5417.32
936.135	5433.13
936.443	5378.9
936.751	5359.69
937.059	5350.88
937.367	5304.78
937.674	5283.31
937.982	5304.1
938.29	5245.34
938.597	5272.23
938.905	5202.41
939.213	5171.45
939.52	5131.67
939.827	5144.55
940.135	5106.14
940.442	5065.23
940.749	5045.12
941.056	5080.83
941.363	5009.64
941.67	4983.2
941.977	4987.5
942.284	4949.53
942.591	4958.8
942.898	4947.27
943.205	4934.39
943.511	4922.86
943.818	4838.57
944.125	4874.28
944.431	4824.56
944.738	4803.55
945.044	4789.99
945.35	4760.16
945.657	4708.86
945.963	4708.18
946.269	4651.01
946.575	4669.99
946.881	4656.66
947.187	4616.66
947.493	4622.99
947.799	4608.97
948.105	4641.06
948.41	4584.12
948.716	4515.19
949.022	4519.03
949.327	4526.27
949.633	4420.96
949.938	4454.18
950.244	4434.29
950.549	4476.77
950.854	4387.96
951.16	4401.75
951.465	4361.52
951.77	4378.7
952.075	4349.32
952.38	4315.88
952.685	4328.76
952.99	4253.96
953.294	4264.58
953.599	4240.17
953.904	4209.89
954.209	4185.03
954.513	4161.3
954.818	4178.25
955.122	4177.35
955.426	4101.19
955.731	4037.24
956.035	4076.11
956.339	4034.3
956.643	4031.14
956.948	4028.88
957.252	4014.41
957.556	3970.57
957.86	3966.28
958.163	3970.8
958.467	3911.37
958.771	3926.96
959.075	3941.42
959.378	3898.26
959.682	3861.88
959.985	3865.72
960.289	3836.11
960.592	3843.12
960.896	3843.35
961.199	3804.25
961.502	3787.75
961.805	3744.36
962.108	3755.21
962.411	3735.33
962.714	3706.4
963.017	3724.03
963.32	3707.98
963.623	3684.03
963.926	3646.74
964.228	3637.7
964.531	3597.25
964.833	3586.85
965.136	3611.94
965.438	3590.7
965.741	3589.34
966.043	3555.44
966.345	3585.72
966.648	3530.36
966.95	3498.27
967.252	3462.11
967.554	3476.58
967.856	3452.17
968.158	3447.65
968.46	3426.18
968.761	3408.33
969.063	3360.65
969.365	3424.37
969.666	3424.83
969.968	3386.18
970.269	3305.73
970.571	3310.93
970.872	3309.8
971.174	3272.06
971.475	3263.25
971.776	3243.59
972.077	3205.4
972.378	3281.78
972.679	3233.19
972.98	3205.17
973.281	3249.69
973.582	3213.98
973.883	3183.25
974.183	3150.93
974.484	3117.94
974.785	3110.71
975.085	3134.89
975.386	3133.76
975.686	3077.04
975.986	3027.55
976.287	3068.9
976.587	3047.66
976.887	3016.47
977.187	2999.53
977.487	2987.32
977.787	2983.48
978.087	2996.14
978.387	2969.02
978.687	2957.27
978.987	2941.22
979.286	2934.89
979.586	2860.55
979.885	2896.03
980.185	2899.42
980.484	2846.08
980.784	2809.93
981.083	2847.89
981.382	2815.8
981.682	2844.73
981.981	2828.68
982.28	2803.15
982.579	2749.36
982.878	2809.47
983.177	2753.2
983.475	2772.86
983.774	2730.38
984.073	2722.24
984.372	2697.16
984.67	2694.67
984.969	2702.81
985.267	2692.64
985.566	2666.2
985.864	2654.9
986.162	2667.33
986.461	2628.91
986.759	2632.76
987.057	2580.55
987.355	2617.39
987.653	2614.9
987.951	2577.39
988.249	2567.9
988.547	2561.8
988.844	2553.44
989.142	2559.76
989.44	2503.04
989.737	2536.04
990.035	2461.23
990.332	2474.79
990.63	2470.05
990.927	2485.41
991.224	2476.15
991.521	2416.04
991.819	2425.53
992.116	2418.3
992.413	2432.76
992.71	2383.95
993.006	2384.17
993.303	2379.43
993.6	2354.12
993.897	2375.59
994.193	2327.68
994.49	2330.62
994.787	2313.22
995.083	2269.83
995.379	2283.16
995.676	2262.82
995.972	2276.38
996.268	2248.13
996.565	2224.86
996.861	2214.69
997.157	2237.96
997.453	2231.86
997.749	2157.97
998.044	2207.91
998.34	2175.37
998.636	2190.51
998.932	2171.52
999.227	2143.05
999.523	2165.42
999.818	2131.75
1000.114	2111.87
1000.409	2108.7
1000.704	2088.14
1001	2102.37
1001.295	2069.83
1001.59	2063.96
1001.885	2046.78
1002.18	2033.45
1002.475	2011.3
1002.77	2022.15
1003.065	1972.21
1003.359	1966.56
1003.654	2004.98
1003.949	1988.7
1004.243	1968.82
1004.538	1962.04
1004.832	1922.04
1005.127	1916.62
1005.421	1941.25
1005.715	1908.71
1006.009	1886.56
1006.304	1903.96
1006.598	1875.04
1006.892	1887.01
1007.186	1870.29
1007.48	1826.22
1007.773	1833
1008.067	1793.91
1008.361	1861.93
1008.655	1812.89
1008.948	1803.85
1009.242	1781.7
1009.535	1809.73
1009.829	1764.3
1010.122	1757.98
1010.415	1750.52
1010.708	1746.23
1011.001	1736.28
1011.295	1711.2
1011.588	1704.87
1011.881	1688.37
1012.173	1666.45
1012.466	1670.07
1012.759	1681.37
1013.052	1675.49
1013.344	1668.49
1013.637	1647.92
1013.93	1651.31
1014.222	1596.4
1014.514	1624.65
1014.807	1596.62
1015.099	1606.34
1015.391	1585.33
1015.683	1578.77
1015.976	1569.05
1016.268	1553.46
1016.56	1550.75
1016.851	1541.48
1017.143	1538.77
1017.435	1507.59
1017.727	1527.93
1018.018	1521.37
1018.31	1514.82
1018.602	1489.96
1018.893	1467.81
1019.185	1467.59
1019.476	1451.09
1019.767	1428.72
1020.058	1447.93
1020.35	1442.28
1020.641	1402.05
1020.932	1394.82
1021.223	1381.49
1021.514	1410.87
1021.804	1395.5
1022.095	1414.26
1022.386	1371.77
1022.677	1360.92
1022.967	1343.07
1023.258	1337.2
1023.548	1339.68
1023.839	1307.59
1024.129	1310.98
1024.419	1300.36
1024.709	1300.59
1025	1272.11
1025.29	1298.55
1025.58	1262.85
1025.87	1260.81
1026.16	1261.04
1026.449	1259.68
1026.739	1233.02
1027.029	1241.38
1027.319	1232.11
1027.608	1215.84
1027.898	1209.06
1028.187	1220.82
1028.477	1182.4
1028.766	1183.75
1029.055	1193.7
1029.344	1146.24
1029.634	1178.33
1029.923	1160.03
1030.212	1131.78
1030.501	1125.22
1030.79	1094.04
1031.078	1109.63
1031.367	1108.95
1031.656	1117.99
1031.945	1102.85
1032.233	1086.81
1032.522	1082.29
1032.81	1090.42
1033.099	1067.6
1033.387	1051.33
1033.675	1058.79
1033.963	1042.06
1034.251	1044.1
1034.54	1033.93
1034.828	1049.29
1035.116	1025.79
1035.403	1027.6
1035.691	1004.1
1035.979	1021.27
1036.267	1016.98
1036.554	1027.6
1036.842	972.69
1037.129	977.88
1037.417	958.9
1037.704	969.75
1037.992	982.4
1038.279	934.95
1038.566	953.93
1038.853	953.93
1039.14	953.93
