Data from hue_240_FLMS001491_00092.txt Node
Date: Tue Feb 07 16:36:11 GMT 2017
User: dcchb
Spectrometer: FLMS00149
Trigger mode: 0
Integration Time (sec): 2.000000E-2
Scans to average: 10
Electric dark correction enabled: true
Nonlinearity correction enabled: false
Boxcar width: 0
XAxis mode: Wavelengths
Number of Pixels in Spectrum: 2048
>>>>>Begin Spectral Data<<<<<
341.393	-21.76
341.776	-21.76
342.16	-21.76
342.543	-38.26
342.927	-61.54
343.31	-66.96
343.693	-68.32
344.077	-82.1
344.46	-57.24
344.843	-62.67
345.226	-45.49
345.61	-24.48
345.993	-8.88
346.376	16.2
346.759	-4.36
347.142	37.67
347.525	46.93
347.908	57.1
348.291	89.64
348.674	68.18
349.057	104.79
349.44	116.31
349.823	167.38
350.206	172.58
350.588	178.91
350.971	191.56
351.354	207.83
351.737	235.4
352.119	229.53
352.502	260.26
352.884	276.08
353.267	270.66
353.65	286.7
354.032	291
354.414	293.03
354.797	300.94
355.179	324.44
355.562	312.01
355.944	306.14
356.326	326.47
356.709	316.98
357.091	321.95
357.473	336.64
357.855	347.72
358.238	336.19
358.62	321.95
359.002	311.79
359.384	341.16
359.766	331.9
360.148	335.51
360.53	313.82
360.912	350.88
361.294	342.29
361.676	332.8
362.057	340.71
362.439	320.6
362.821	334.84
363.203	332.58
363.584	311.11
363.966	314.27
364.348	300.94
364.729	308.17
365.111	321.5
365.493	314.27
365.874	311.79
366.256	304.78
366.637	301.84
367.019	305.01
367.4	319.92
367.781	318.79
368.163	314.27
368.544	323.54
368.925	310.88
369.306	319.24
369.688	316.08
370.069	311.11
370.45	320.37
370.831	316.53
371.212	308.62
371.593	312.01
371.974	309.75
372.355	314.5
372.736	311.11
373.117	308.62
373.498	325.12
373.879	309.53
374.26	310.66
374.641	307.04
375.021	312.69
375.402	330.09
375.783	319.47
376.163	311.79
376.544	330.77
376.925	325.12
377.305	298.23
377.686	317.44
378.066	319.92
378.447	333.03
378.827	321.73
379.208	332.8
379.588	333.03
379.968	314.95
380.349	331.45
380.729	304.33
381.109	323.31
381.489	318.11
381.87	323.99
382.25	323.99
382.63	312.69
383.01	330.09
383.39	340.49
383.77	348.62
384.15	323.99
384.53	344.1
384.91	326.25
385.29	326.25
385.67	335.06
386.049	360.15
386.429	341.62
386.809	369.86
387.189	340.26
387.568	341.16
387.948	346.36
388.328	332.35
388.707	349.52
389.087	359.69
389.466	340.71
389.846	339.81
390.225	382.74
390.605	356.08
390.984	361.28
391.363	354.72
391.743	377.77
392.122	376.42
392.501	392.24
392.881	366.7
393.26	379.58
393.639	382.97
394.018	378.9
394.397	363.08
394.776	382.07
395.155	384.78
395.534	388.39
395.913	376.64
396.292	392.46
396.671	389.07
397.05	384.1
397.429	395.4
397.808	382.29
398.186	395.85
398.565	406.92
398.944	405.12
399.323	400.82
399.701	416.87
400.08	411.44
400.458	405.34
400.837	420.94
401.215	429.3
401.594	421.39
401.972	422.52
402.351	408.73
402.729	430.65
403.107	443.99
403.486	430.88
403.864	442.63
404.242	433.59
404.62	441.73
404.999	460.93
405.377	442.86
405.755	451.89
406.133	446.7
406.511	442.63
406.889	441.05
407.267	469.52
407.645	477.88
408.023	476.53
408.401	470.65
408.779	477.88
409.156	487.37
409.534	494.83
409.912	477.2
410.29	502.97
410.667	493.93
411.045	508.84
411.422	503.42
411.8	523.53
412.178	503.87
412.555	543.87
412.933	545.68
413.31	559.91
413.687	556.75
414.065	560.82
414.442	568.05
414.819	593.36
415.197	586.81
415.574	591.55
415.951	577.32
416.328	593.81
416.705	602.85
417.082	599.01
417.46	603.53
417.837	617.31
418.214	605.11
418.591	639.91
418.967	632.91
419.344	649.18
419.721	630.65
420.098	649.4
420.475	647.37
420.852	661.61
421.228	660.93
421.605	682.62
421.982	699.12
422.358	668.39
422.735	697.99
423.111	742.28
423.488	751.1
423.864	723.75
424.241	764.2
424.617	774.15
424.994	771.66
425.37	766.69
425.746	808.5
426.123	795.16
426.499	815.28
426.875	812.56
427.251	815.28
427.627	846.01
428.003	844.2
428.379	847.36
428.756	853.47
429.132	860.92
429.507	877.19
429.883	899.11
430.259	918.1
430.635	916.97
431.011	913.58
431.387	936.4
431.763	930.3
432.138	942.5
432.514	967.14
432.89	966.46
433.265	1015.72
433.641	1021.37
434.016	1024.76
434.392	1029.73
434.767	1059.34
435.143	1068.15
435.518	1084.65
435.894	1080.8
436.269	1121.93
436.644	1109.28
437.02	1135.27
437.395	1140.46
437.77	1153.12
438.145	1155.83
438.52	1180.92
438.895	1191.99
439.271	1185.66
439.646	1240.12
440.021	1240.57
440.395	1271.99
440.77	1242.61
441.145	1270.18
441.52	1296.84
441.895	1305.88
442.27	1308.14
442.645	1324.87
443.019	1346.11
443.394	1332.55
443.769	1354.47
444.143	1368.93
444.518	1394.47
444.892	1385.2
445.267	1410.97
445.641	1411.19
446.016	1428.37
446.39	1434.47
446.764	1465.2
447.139	1461.36
447.513	1487.12
447.887	1480.34
448.262	1479.21
448.636	1467.24
449.01	1508.59
449.384	1497.74
449.758	1519.66
450.132	1560.34
450.506	1528.25
450.88	1556.72
451.254	1584.29
451.628	1591.53
452.002	1591.3
452.376	1618.87
452.75	1597.85
453.123	1667
453.497	1660.68
453.871	1679.21
454.244	1692.54
454.618	1708.59
454.992	1740.45
455.365	1739.32
455.739	1754.91
456.112	1825.42
456.486	1781.58
456.859	1822.93
457.232	1835.81
457.606	1834.23
457.979	1855.47
458.352	1918.97
458.725	1930.73
459.099	1924.17
459.472	1986.09
459.845	1987.45
460.218	2020.22
460.591	2011.63
460.964	2033.1
461.337	2034.23
461.71	2124.62
462.083	2138.86
462.456	2149.03
462.829	2108.12
463.201	2169.82
463.574	2167.56
463.947	2191.96
464.32	2236.93
464.692	2258.4
465.065	2262.47
465.438	2282.13
465.81	2345.63
466.183	2335.01
466.555	2387.89
466.928	2405.74
467.3	2434.89
467.672	2473.99
468.045	2520.54
468.417	2471.28
468.789	2522.8
469.161	2579.07
469.534	2592.18
469.906	2650.03
470.278	2621.1
470.65	2667.66
471.022	2761.44
471.394	2767.31
471.766	2775.22
472.138	2802.12
472.51	2878.5
472.882	2919.85
473.253	2936.12
473.625	2991.72
473.997	3011.15
474.369	3081.88
474.74	3046.85
475.112	3113.75
475.484	3146.74
475.855	3186.29
476.227	3225.38
476.598	3320.97
476.97	3293.63
477.341	3426.28
477.713	3446.17
478.084	3451.14
478.455	3581.98
478.827	3566.16
479.198	3672.6
479.569	3659.04
479.94	3794.86
480.311	3802.99
480.682	3864.01
481.053	3944.01
481.424	4042.31
481.795	4048.18
482.166	4066.49
482.537	4078.47
482.908	4210.67
483.279	4218.35
483.65	4293.15
484.021	4368.18
484.391	4423.09
484.762	4467.16
485.133	4493.82
485.503	4545.8
485.874	4628.73
486.244	4701.73
486.615	4702.18
486.985	4783.08
487.356	4854.72
487.726	4892.46
488.097	5005.22
488.467	5028.5
488.837	5048.38
489.207	5148.04
489.578	5190.3
489.948	5212
490.318	5293.12
490.688	5320.24
491.058	5406.79
491.428	5446.79
491.798	5492.89
492.168	5580.8
492.538	5614.02
492.908	5630.29
493.278	5723.39
493.648	5675.71
494.017	5786.44
494.387	5822.83
494.757	5853.56
495.126	5957.74
495.496	5902.6
495.866	5958.42
496.235	6011.07
496.605	6059.88
496.974	6143.72
497.344	6136.94
497.713	6212.87
498.082	6275.7
498.452	6293.32
498.821	6253.32
499.19	6274.79
499.559	6382.36
499.928	6374.23
500.298	6434.79
500.667	6430.27
501.036	6456.48
501.405	6484.73
501.774	6476.6
502.143	6554.33
502.512	6594.78
502.88	6597.27
503.249	6694.22
503.618	6675.91
503.987	6711.84
504.356	6704.16
504.724	6757.49
505.093	6738.96
505.462	6803.82
505.83	6811.05
506.199	6862.8
506.567	6897.6
506.936	6895.12
507.304	6996.13
507.672	6950.03
508.041	7034.32
508.409	7005.62
508.777	7072.96
509.145	7109.57
509.514	7132.4
509.882	7145.5
510.25	7159.06
510.618	7200.64
510.986	7205.39
511.354	7258.5
511.722	7331.71
512.09	7353.86
512.458	7354.54
512.826	7388.66
513.193	7401.54
513.561	7389.57
513.929	7438.83
514.297	7508.66
514.664	7454.65
515.032	7510.01
515.4	7571.48
515.767	7554.31
516.135	7603.12
516.502	7492.84
516.869	7652.38
517.237	7681.99
517.604	7644.02
517.972	7647.19
518.339	7753.4
518.706	7698.03
519.073	7716.34
519.44	7754.98
519.808	7790.68
520.175	7792.72
520.542	7843.34
520.909	7974.18
521.276	7866.84
521.643	7930.57
522.009	7921.75
522.376	7973.73
522.743	7962.43
523.11	8097.8
523.477	8074.07
523.843	8055.76
524.21	8131.92
524.577	8225.93
524.943	8154.97
525.31	8159.26
525.676	8282.65
526.043	8265.47
526.409	8310.9
526.776	8306.6
527.142	8319.03
527.508	8326.94
527.874	8309.54
528.241	8418.01
528.607	8441.74
528.973	8443.32
529.339	8404.91
529.705	8481.74
530.071	8482.19
530.437	8497.33
530.803	8486.49
531.169	8554.73
531.535	8484.9
531.901	8498.69
532.267	8524.45
532.632	8617.33
532.998	8520.84
533.364	8547.5
533.73	8572.81
534.095	8563.32
534.461	8632.02
534.826	8648.06
535.192	8693.03
535.557	8693.94
535.923	8610.32
536.288	8669.76
536.653	8626.82
537.019	8597.44
537.384	8669.31
537.749	8642.87
538.114	8685.58
538.479	8647.39
538.845	8622.53
539.21	8658.68
539.575	8631.57
539.94	8642.19
540.305	8667.05
540.67	8638.12
541.034	8620.49
541.399	8653.04
541.764	8604.45
542.129	8610.55
542.494	8676.09
542.858	8568.74
543.223	8587.05
543.587	8636.76
543.952	8609.42
544.316	8589.08
544.681	8603.54
545.045	8624.79
545.41	8668.4
545.774	8587.27
546.138	8601.96
546.503	8566.03
546.867	8563.55
547.231	8662.75
547.595	8629.08
547.959	8616.65
548.324	8580.04
548.688	8582.3
549.052	8603.32
549.416	8573.49
549.779	8635.18
550.143	8603.32
550.507	8640.38
550.871	8611.91
551.235	8588.86
551.599	8661.62
551.962	8643.09
552.326	8600.83
552.689	8633.83
553.053	8585.69
553.417	8536.2
553.78	8654.84
554.143	8609.87
554.507	8640.61
554.87	8628.4
555.234	8740.49
555.597	8604
555.96	8623.43
556.323	8630.44
556.686	8617.56
557.05	8694.39
557.413	8696.65
557.776	8661.62
558.139	8763.77
558.502	8794.95
558.865	8699.36
559.228	8708.63
559.59	8804.9
559.953	8735.74
560.316	8893.25
560.679	8834.5
561.041	8821.17
561.404	8862.75
561.767	8877.44
562.129	8864.33
562.492	8976.64
562.854	8939.81
563.217	8851.45
563.579	8943.65
563.941	8987.04
564.304	9044.21
564.666	9043.99
565.028	8998.79
565.39	9006.7
565.753	9077.2
566.115	9060.03
566.477	9167.15
566.839	9143.19
567.201	9160.59
567.563	9228.84
567.925	9219.12
568.287	9159.46
568.648	9281.04
569.01	9328.72
569.372	9344.32
569.734	9324.66
570.095	9366.01
570.457	9395.61
570.819	9445.78
571.18	9389.96
571.542	9498.21
571.903	9455.95
572.265	9499.34
572.626	9558.77
572.987	9575.95
573.349	9550.64
573.71	9553.12
574.071	9596.97
574.432	9655.49
574.794	9707.92
575.155	9610.52
575.516	9626.79
575.877	9695.72
576.238	9712.67
576.599	9733.46
576.96	9747.92
577.32	9745.89
577.681	9799.45
578.042	9827.02
578.403	9827.02
578.763	9784.76
579.124	9833.57
579.485	9868.37
579.845	9941.36
580.206	9926.22
580.566	9936.17
580.927	9960.8
581.287	9863.62
581.648	9874.47
582.008	9998.31
582.368	9980.46
582.728	9958.09
583.089	10022.04
583.449	10072.43
583.809	10000.34
584.169	10141.81
584.529	10042.38
584.889	10095.94
585.249	10050.29
585.609	10028.82
585.969	10120.57
586.329	10096.84
586.688	10188.14
587.048	10161.47
587.408	10134.35
587.768	10088.25
588.127	10108.36
588.487	10163.5
588.846	10183.39
589.206	10225.65
589.565	10184.97
589.925	10200.11
590.284	10229.26
590.643	10204.63
591.003	10273.11
591.362	10254.58
591.721	10262.26
592.08	10241.24
592.44	10231.98
592.799	10201.24
593.158	10286.21
593.517	10253.9
593.876	10254.58
594.235	10197.4
594.593	10248.7
594.952	10305.65
595.311	10278.3
595.67	10301.81
596.029	10333.22
596.387	10356.27
596.746	10400.11
597.104	10282.14
597.463	10319.21
597.822	10341.58
598.18	10245.76
598.538	10318.75
598.897	10372.09
599.255	10337.06
599.613	10400.11
599.972	10349.49
600.33	10370.96
600.688	10361.46
601.046	10437.62
601.404	10412.31
601.762	10384.52
602.12	10422.71
602.478	10470.61
602.836	10451.86
603.194	10378.19
603.552	10524.85
603.91	10363.72
604.268	10423.61
604.625	10467.45
604.983	10483.95
605.341	10423.84
605.698	10476.94
606.056	10479.2
606.413	10444.17
606.771	10504.96
607.128	10530.05
607.485	10464.06
607.843	10521.46
608.2	10543.61
608.557	10617.5
608.914	10536.83
609.272	10505.87
609.629	10504.74
609.986	10630.84
610.343	10515.13
610.7	10679.2
611.057	10560.56
611.414	10629.48
611.771	10661.12
612.127	10654.56
612.484	10707.22
612.841	10740.66
613.198	10709.7
613.554	10649.37
613.911	10709.7
614.267	10755.13
614.624	10657.5
614.98	10677.16
615.337	10717.16
615.693	10722.81
616.05	10717.16
616.406	10810.94
616.762	10726.2
617.118	10726.88
617.475	10740.89
617.831	10779.08
618.187	10793.77
618.543	10815.24
618.899	10758.06
619.255	10792.64
619.611	10861.34
619.967	10863.6
620.323	10906.99
620.678	10788.57
621.034	10849.59
621.39	10814.79
621.746	10787.44
622.101	10974.1
622.457	10848.23
622.812	10855.92
623.168	10862.24
623.523	10804.62
623.879	10819.08
624.234	10780.21
624.589	10802.36
624.945	10886.42
625.3	10844.62
625.655	10789.48
626.01	10871.73
626.365	10821.79
626.72	10851.17
627.075	10802.81
627.43	10850.49
627.785	10777.5
628.14	10868.12
628.495	10797.61
628.85	10802.58
629.205	10787.67
629.559	10813.2
629.914	10797.39
630.269	10820.21
630.623	10783.83
630.978	10726.43
631.332	10748.12
631.687	10745.86
632.041	10727.78
632.396	10779.98
632.75	10723.49
633.104	10681.23
633.459	10687.56
633.813	10670.38
634.167	10596.26
634.521	10648.24
634.875	10711.06
635.229	10673.55
635.583	10551.29
635.937	10624.28
636.291	10543.15
636.645	10577.73
636.999	10529.14
637.352	10602.59
637.706	10523.95
638.06	10511.52
638.413	10500.22
638.767	10518.3
639.121	10449.82
639.474	10377.74
639.828	10478.52
640.181	10458.41
640.534	10488.24
640.888	10404.4
641.241	10382.48
641.594	10333.22
641.947	10344.74
642.301	10439.2
642.654	10388.58
643.007	10364.18
643.36	10395.14
643.713	10372.76
644.066	10456.6
644.419	10380.67
644.771	10253.67
645.124	10216.61
645.477	10145.43
645.83	10097.97
646.182	10056.61
646.535	9999.67
646.888	10029.04
647.24	9982.27
647.593	10054.13
647.945	9987.24
648.298	9874.92
648.65	9862.95
649.002	9872.44
649.355	9942.49
649.707	9923.06
650.059	9911.53
650.411	10043.51
650.763	10068.14
651.115	10186.33
651.467	10108.36
651.819	10128.93
652.171	10184.75
652.523	10115.37
652.875	10145.43
653.227	10071.53
653.578	10204.41
653.93	10143.62
654.282	10083.28
654.633	10154.69
654.985	10084.64
655.337	10094.58
655.688	10081.92
656.039	10172.32
656.391	10054.13
656.742	10074.01
657.094	10081.47
657.445	10067.69
657.796	10112.66
658.147	10049.38
658.498	10059.1
658.849	10106.1
659.2	10068.37
659.551	10076.5
659.902	10106.78
660.253	10096.39
660.604	10159.21
660.955	10092.77
661.306	10104.75
661.656	10064.52
662.007	10032.43
662.358	10081.7
662.708	10067.91
663.059	10096.16
663.409	10009.84
663.76	10112.43
664.11	10051.19
664.461	10041.25
664.811	10083.51
665.161	10049.16
665.511	10051.19
665.862	10109.72
666.212	10073.56
666.562	10098.19
666.912	10006.22
667.262	10015.49
667.612	10028.59
667.962	10057.29
668.312	9998.99
668.662	10095.26
669.011	10058.87
669.361	10073.34
669.711	9985.2
670.06	10032.43
670.41	10030.85
670.76	9975.03
671.109	10025.65
671.459	10051.64
671.808	9932.78
672.157	10011.87
672.507	9960.57
672.856	9908.82
673.205	9909.95
673.554	9954.24
673.904	9916.73
674.253	9942.04
674.602	9947.01
674.951	9846
675.3	9781.59
675.649	9909.95
675.998	9897.07
676.346	9949.95
676.695	9869.5
677.044	9808.94
677.393	9880.35
677.741	9820.24
678.09	9852.1
678.438	9822.5
678.787	9820.91
679.135	9828.6
679.484	9732.1
679.832	9798.09
680.181	9790.41
680.529	9841.25
680.877	9709.5
681.225	9690.3
681.573	9747.92
681.922	9650.07
682.27	9677.64
682.618	9637.19
682.966	9664.08
683.314	9676.29
683.661	9599.45
684.009	9491.21
684.357	9568.49
684.705	9515.39
685.053	9575.04
685.4	9501.83
685.748	9516.52
686.095	9475.61
686.443	9443.3
686.79	9474.26
687.138	9372.56
687.485	9380.93
687.832	9364.2
688.18	9404.88
688.527	9318.33
688.874	9360.59
689.221	9276.07
689.568	9174.83
689.915	9227.03
690.262	9246.01
690.609	9242.85
690.956	9160.14
691.303	9135.96
691.65	9043.31
691.997	9141.38
692.344	9058.45
692.69	8994.5
693.037	9009.86
693.383	8957.89
693.73	9011.9
694.077	8965.12
694.423	8956.08
694.769	8950.88
695.116	8774.16
695.462	8845.8
695.808	8755.86
696.155	8767.16
696.501	8746.59
696.847	8730.77
697.193	8690.77
697.539	8665.92
697.885	8624.34
698.231	8618.46
698.577	8573.04
698.923	8579.59
699.269	8599.93
699.614	8433.61
699.96	8449.88
700.306	8420.72
700.651	8408.07
700.997	8385.25
701.342	8374.85
701.688	8328.52
702.033	8377.79
702.379	8292.82
702.724	8279.03
703.069	8277.45
703.415	8146.16
703.76	8175.53
704.105	8172.37
704.45	8110
704.795	8149.09
705.14	8071.13
705.485	8080.17
705.83	8026.16
706.175	8062.54
706.52	8028.87
706.865	8045.14
707.209	7954.52
707.554	7918.59
707.899	7977.12
708.243	7922.88
708.588	7910.91
708.932	7788.65
709.277	7858.93
709.621	7817.12
709.966	7766.96
710.31	7809.44
710.654	7743.23
710.998	7727.64
711.342	7702.1
711.687	7717.69
712.031	7744.13
712.375	7694.19
712.719	7636.56
713.063	7616.68
713.407	7586.85
713.75	7653.29
714.094	7550.01
714.438	7501.88
714.782	7597.7
715.125	7556.11
715.469	7521.99
715.812	7496.46
716.156	7443.12
716.499	7453.52
716.843	7534.19
717.186	7433.41
717.53	7501.88
717.873	7386.85
718.216	7419.85
718.559	7424.59
718.902	7394.99
719.246	7378.72
719.589	7372.39
719.932	7329.91
720.275	7289.68
720.617	7331.49
720.96	7286.97
721.303	7289.46
721.646	7214.65
721.989	7253.75
722.331	7314.77
722.674	7202
723.016	7248.1
723.359	7243.35
723.701	7256.91
724.044	7235.45
724.386	7195.22
724.729	7197.03
725.071	7187.76
725.413	7158.84
725.755	7218.04
726.097	7155.67
726.439	7096.01
726.782	7117.26
727.124	7101.66
727.465	7119.06
727.807	7119.06
728.149	7098.05
728.491	7081.1
728.833	7097.14
729.175	7066.86
729.516	7065.51
729.858	7042.68
730.199	7100.99
730.541	7138.27
730.882	7052.17
731.224	7058.73
731.565	7035.45
731.906	7066.86
732.248	7079.52
732.589	7012.63
732.93	6993.64
733.271	6981.89
733.612	7036.81
733.953	7023.25
734.294	7036.81
734.635	6969.69
734.976	7054.89
735.317	7013.76
735.658	6985.28
735.999	7000.65
736.339	7060.08
736.68	7044.94
737.021	7037.03
737.361	7024.38
737.702	6999.97
738.042	6968.11
738.383	6987.99
738.723	7010.37
739.063	6992.74
739.404	7044.72
739.744	7017.82
740.084	7000.42
740.424	6999.75
740.764	6987.54
741.104	7032.06
741.444	7027.54
741.784	7076.35
742.124	7009.01
742.464	7030.93
742.804	7019.63
743.143	7049.69
743.483	7075.22
743.823	7084.49
744.162	7059.4
744.502	7103.92
744.841	7104.15
745.181	7133.75
745.52	7102.12
745.86	7140.08
746.199	7183.7
746.538	7152.74
746.877	7243.13
747.216	7252.17
747.556	7257.82
747.895	7356.12
748.234	7295.78
748.573	7313.86
748.911	7374.2
749.25	7355.22
749.589	7401.09
749.928	7507.08
750.267	7530.58
750.605	7583.68
750.944	7570.13
751.283	7643.57
751.621	7696
751.96	7755.66
752.298	7736.68
752.636	7873.17
752.975	7845.82
753.313	7922.43
753.651	8048.08
753.989	8058.7
754.327	8088.53
754.666	8138.92
755.004	8253.27
755.342	8254.85
755.679	8372.59
756.017	8451.91
756.355	8610.55
756.693	8537.11
757.031	8719.02
757.368	8654.39
757.706	8820.26
758.044	8862.3
758.381	8999.47
758.719	9076.98
759.056	9124.66
759.394	9225.45
759.731	9305.67
760.068	9387.48
760.405	9508.83
760.743	9544.31
761.08	9669.96
761.417	9751.76
761.754	9817.98
762.091	9882.38
762.428	9982.04
762.765	10029.72
763.102	10204.63
763.438	10255.03
763.775	10304.52
764.112	10406.66
764.449	10569.82
764.785	10619.54
765.122	10660.89
765.458	10673.32
765.795	10712.42
766.131	10802.58
766.467	10952.86
766.804	10922.35
767.14	11074.67
767.476	11186.08
767.812	11136.59
768.148	11232.85
768.485	11266.3
768.821	11312.17
769.157	11395.79
769.492	11447.99
769.828	11483.02
770.164	11449.12
770.5	11560.98
770.836	11557.37
771.171	11572.73
771.507	11687.53
771.842	11641.21
772.178	11683.01
772.513	11762.33
772.849	11824.03
773.184	11864.02
773.519	11817.92
773.855	11832.39
774.19	11913.74
774.525	11918.49
774.86	11932.05
775.195	11972.72
775.53	12044.13
775.865	12028.54
776.2	12006.85
776.535	11933.17
776.87	11935.66
777.205	11939.73
777.539	12045.94
777.874	12037.35
778.209	11985.6
778.543	12080.06
778.878	12026.51
779.212	12035.77
779.547	12059.05
779.881	12075.54
780.215	11972.04
780.55	12010.46
780.884	12079.39
781.218	11974.76
781.552	12020.63
781.886	11957.58
782.22	11905.15
782.554	11977.47
782.888	11806.85
783.222	11890.69
783.556	11868.54
783.889	11816.12
784.223	11775.89
784.557	11762.78
784.89	11834.19
785.224	11716.91
785.557	11811.14
785.891	11721.66
786.224	11817.25
786.558	11664.93
786.891	11591.49
787.224	11601.43
787.557	11658.15
787.891	11656.12
788.224	11647.53
788.557	11649.57
788.89	11586.97
789.223	11599.17
789.556	11536.58
789.888	11501.55
790.221	11490.25
790.554	11402.79
790.887	11420.42
791.219	11442.79
791.552	11335.45
791.884	11326.86
792.217	11357.14
792.549	11328.9
792.882	11277.6
793.214	11232.85
793.546	11302.91
793.879	11160.77
794.211	11207.54
794.543	11271.05
794.875	11057.94
795.207	11210.26
795.539	11083.25
795.871	11104.04
796.203	11057.49
796.535	11029.92
796.867	10861.34
797.198	10871.73
797.53	10972.52
797.862	10858.17
798.193	10872.86
798.525	10912.41
798.856	10880.77
799.188	10794.45
799.519	10673.55
799.85	10704.73
800.182	10715.35
800.513	10714
800.844	10676.71
801.175	10743.6
801.506	10659.76
801.837	10567.34
802.168	10537.96
802.499	10595.13
802.83	10498.18
803.161	10440.11
803.491	10459.54
803.822	10471.74
804.153	10445.98
804.483	10374.12
804.814	10335.7
805.145	10304.52
805.475	10279.43
805.805	10246.67
806.136	10268.81
806.466	10253.22
806.796	10236.95
807.126	10188.14
807.457	10187.46
807.787	10197.18
808.117	10079.44
808.447	10106.33
808.777	10160.79
809.107	10029.72
809.436	10069.5
809.766	9971.42
810.096	9992.66
810.426	9944.98
810.755	9973.23
811.085	10043.96
811.414	9933
811.744	9850.29
812.073	9862.49
812.403	9871.53
812.732	9766.9
813.061	9834.47
813.39	9789.28
813.719	9749.05
814.049	9727.58
814.378	9690.97
814.707	9667.02
815.036	9635.61
815.365	9608.26
815.693	9557.19
816.022	9572.56
816.351	9556.51
816.68	9514.26
817.008	9528.94
817.337	9485.1
817.665	9489.4
817.994	9545.67
818.322	9425.22
818.651	9399.91
818.979	9415.5
819.307	9383.19
819.636	9386.12
819.964	9304.54
820.292	9393.81
820.62	9408.27
820.948	9337.09
821.276	9357.88
821.604	9382.73
821.932	9384.54
822.259	9332.57
822.587	9370.3
822.915	9339.12
823.243	9321.72
823.57	9328.05
823.898	9284.88
824.225	9303.19
824.553	9357.2
824.88	9317.88
825.207	9367.59
825.535	9363.3
825.862	9343.64
826.189	9291.21
826.516	9330.98
826.843	9384.09
827.17	9328.5
827.497	9354.71
827.824	9362.17
828.151	9382.96
828.478	9277.43
828.805	9383.64
829.131	9312.9
829.458	9285.33
829.785	9297.76
830.111	9317.2
830.438	9327.82
830.764	9321.72
831.09	9334.15
831.417	9266.8
831.743	9326.24
832.069	9332.79
832.395	9288.72
832.722	9316.75
833.048	9280.82
833.374	9275.39
833.7	9309.52
834.026	9267.03
834.351	9292.79
834.677	9226.35
835.003	9262.51
835.329	9257.99
835.654	9290.76
835.98	9269.29
836.306	9293.47
836.631	9192.91
836.956	9286.24
837.282	9300.93
837.607	9170.08
837.932	9146.58
838.258	9196.52
838.583	9105
838.908	9132.57
839.233	9123.08
839.558	9091.67
839.883	9096.41
840.208	9025.91
840.533	9022.07
840.858	9045.34
841.182	8986.36
841.507	9022.07
841.832	8900.71
842.156	8928.28
842.481	8902.07
842.805	8861.62
843.13	8851.9
843.454	8916.76
843.778	8834.95
844.103	8861.62
844.427	8845.8
844.751	8813.26
845.075	8758.34
845.399	8761.51
845.723	8666.59
846.047	8695.97
846.371	8635.63
846.695	8642.87
847.019	8575.3
847.343	8600.61
847.666	8533.26
847.99	8518.8
848.313	8473.38
848.637	8454.17
848.96	8385.47
849.284	8356.32
849.607	8347.73
849.931	8282.65
850.254	8273.38
850.577	8298.47
850.9	8172.6
851.223	8159.26
851.546	8107.51
851.869	8049.21
852.192	8160.62
852.515	8033.16
852.838	7981.19
853.161	8030.68
853.483	7983.45
853.806	7993.84
854.129	7944.81
854.451	7994.75
854.774	7823
855.096	7741.87
855.419	7849.67
855.741	7807.41
856.063	7807.86
856.385	7767.63
856.708	7703.68
857.03	7725.83
857.352	7716.79
857.674	7662.78
857.996	7638.15
858.318	7561.31
858.64	7545.49
858.961	7557.92
859.283	7554.31
859.605	7493.97
859.926	7575.78
860.248	7480.41
860.57	7512.73
860.891	7462.56
861.212	7416.46
861.534	7420.98
861.855	7465.72
862.176	7420.07
862.498	7393.41
862.819	7388.21
863.14	7408.77
863.461	7342.56
863.782	7310.02
864.103	7374.2
864.424	7313.18
864.745	7279.74
865.065	7244.71
865.386	7264.6
865.707	7266.18
866.027	7223.24
866.348	7262.56
866.668	7234.32
866.989	7213.3
867.309	7141.44
867.63	7195.22
867.95	7133.75
868.27	7111.61
868.59	7110.93
868.91	7123.13
869.23	7146.18
869.55	7061.66
869.87	7066.86
870.19	7117.26
870.51	7051.5
870.83	7141.66
871.15	7053.76
871.469	7074.77
871.789	7097.82
872.109	7066.41
872.428	7014.43
872.748	7034.55
873.067	6927.66
873.386	7060.99
873.706	6985.96
874.025	7022.8
874.344	6941.44
874.663	6982.8
874.982	6939.63
875.301	6901.22
875.62	6936.24
875.939	6903.25
876.258	6923.14
876.577	6886.3
876.896	6882.91
877.214	6834.33
877.533	6861.67
877.852	6864.83
878.17	6837.26
878.489	6816.47
878.807	6789.58
879.125	6746.19
879.444	6824.16
879.762	6818.06
880.08	6746.19
880.398	6757.94
880.716	6703.03
881.034	6708
881.352	6676.82
881.67	6670.71
881.988	6708.68
882.306	6682.92
882.624	6695.57
882.941	6577.84
883.259	6616.7
883.577	6611.73
883.894	6605.18
884.212	6586.42
884.529	6590.49
884.846	6519.31
885.164	6550.27
885.481	6534.67
885.798	6540.77
886.115	6488.8
886.432	6489.02
886.75	6452.42
887.067	6467.78
887.383	6417.84
887.7	6468.01
888.017	6379.87
888.334	6435.92
888.651	6348.24
888.967	6400.67
889.284	6309.37
889.6	6372.87
889.917	6336.94
890.233	6294.45
890.55	6298.97
890.866	6276.83
891.182	6221.46
891.498	6196.6
891.815	6231.86
892.131	6152.76
892.447	6179.2
892.763	6119.54
893.079	6080.45
893.395	6148.69
893.71	6068.47
894.026	6082.93
894.342	6084.74
894.657	6022.37
894.973	5991.18
895.289	6031.18
895.604	6010.84
895.92	5973.33
896.235	5960.22
896.55	5907.57
896.865	5930.39
897.181	5901.02
897.496	5972.2
897.811	5866.67
898.126	5863.28
898.441	5861.47
898.756	5840.23
899.071	5783.51
899.386	5777.86
899.7	5708.71
900.015	5699.89
900.33	5710.06
900.644	5691.31
900.959	5675.71
901.273	5630.06
901.588	5542.16
901.902	5549.39
902.216	5554.13
902.531	5556.85
902.845	5555.49
903.159	5523.63
903.473	5499.9
903.787	5466.23
904.101	5454.48
904.415	5462.61
904.729	5474.36
905.042	5461.48
905.356	5424.65
905.67	5408.6
905.984	5376.96
906.297	5350.98
906.611	5322.05
906.924	5304.42
907.237	5249.28
907.551	5240.92
907.864	5291.09
908.177	5221.71
908.491	5229.4
908.804	5181.26
909.117	5143.52
909.43	5151.43
909.743	5095.84
910.056	5120.7
910.368	5123.64
910.681	5074.15
910.994	5068.5
911.307	5064.65
911.619	5008.39
911.932	5007.26
912.244	4958.22
912.557	4938.1
912.869	4913.02
913.181	4936.52
913.494	4909.63
913.806	4911.44
914.118	4885.45
914.43	4831.89
914.742	4822.85
915.054	4789.18
915.366	4800.71
915.678	4771.1
915.99	4732.23
916.302	4736.08
916.613	4689.3
916.925	4694.04
917.236	4676.42
917.548	4631.45
917.859	4646.59
918.171	4608.17
918.482	4564.78
918.794	4615.85
919.105	4538.12
919.416	4480.72
919.727	4497.44
920.038	4521.62
920.349	4518.91
920.66	4493.82
920.971	4422.19
921.282	4451.56
921.593	4416.76
921.903	4381.96
922.214	4376.09
922.525	4360.04
922.835	4318.23
923.146	4291.12
923.456	4303.32
923.767	4281.4
924.077	4313.26
924.387	4259.48
924.697	4245.92
925.008	4226.03
925.318	4224.9
925.628	4222.42
925.938	4165.47
926.248	4154.17
926.558	4130.67
926.867	4133.15
927.177	4117.79
927.487	4101.74
927.796	4042.08
928.106	4066.94
928.416	4049.54
928.725	4015.87
929.034	4000.05
929.344	3993.5
929.653	3973.84
929.962	3973.38
930.271	3976.32
930.581	3895.87
930.89	3907.85
931.199	3914.63
931.508	3891.8
931.817	3914.63
932.125	3878.7
932.434	3861.3
932.743	3823.78
933.051	3786.04
933.36	3788.98
933.669	3797.34
933.977	3758.93
934.286	3751.02
934.594	3729.55
934.902	3735.88
935.21	3668.99
935.519	3666.05
935.827	3681.87
936.135	3683.22
936.443	3663.34
936.751	3616.78
937.059	3613.17
937.367	3662.21
937.674	3639.38
937.982	3562.32
938.29	3526.84
938.597	3573.85
938.905	3499.05
939.213	3497.69
939.52	3504.24
939.827	3494.75
940.135	3495.66
940.442	3439.84
940.749	3453.62
941.056	3451.82
941.363	3414.75
941.67	3436.45
941.977	3413.17
942.284	3345.83
942.591	3359.84
942.898	3355.32
943.205	3315.77
943.511	3335.21
943.818	3302.22
944.125	3298.83
944.431	3318.03
944.738	3253.63
945.044	3265.83
945.35	3252.5
945.657	3214.53
945.963	3228.32
946.269	3174.76
946.575	3193.52
946.881	3170.92
947.187	3159.17
947.493	3134.08
947.799	3130.92
948.105	3125.72
948.41	3139.96
948.716	3092.28
949.022	3115.78
949.327	3048.44
949.633	3040.98
949.938	3043.47
950.244	3064.71
950.549	3043.92
950.854	3019.51
951.16	3007.53
951.465	2967.08
951.77	3012.51
952.075	2953.75
952.38	2978.83
952.685	2947.87
952.99	2903.58
953.294	2906.07
953.599	2931.15
953.904	2884.83
954.209	2875.33
954.513	2890.7
954.818	2829.91
955.122	2798.73
955.426	2814.77
955.731	2831.27
956.035	2832.4
956.339	2759.18
956.643	2777.94
956.948	2753.08
957.252	2739.74
957.556	2745.39
957.86	2734.32
958.163	2716.02
958.467	2742.91
958.771	2693.42
959.075	2657.26
959.378	2653.19
959.682	2700.2
959.985	2693.87
960.289	2653.64
960.592	2640.31
960.896	2587.66
961.199	2609.58
961.502	2607.32
961.805	2605.06
962.108	2583.14
962.411	2572.29
962.714	2587.88
963.017	2535.68
963.32	2563.7
963.623	2534.55
963.926	2537.04
964.228	2513.08
964.531	2502.46
964.833	2497.49
965.136	2454.55
965.438	2510.15
965.741	2477.38
966.043	2459.98
966.345	2429.92
966.648	2422.24
966.95	2432.18
967.252	2393.54
967.554	2394.67
967.856	2408.45
968.158	2378.4
968.46	2323.94
968.761	2379.08
969.063	2357.38
969.365	2373.88
969.666	2339.08
969.968	2331.85
970.269	2304.73
970.571	2315.57
970.872	2291.17
971.174	2315.12
971.475	2278.74
971.776	2284.16
972.077	2246.88
972.378	2274.22
972.679	2274.45
972.98	2226.76
973.281	2249.59
973.582	2215.46
973.883	2202.36
974.183	2189.02
974.484	2179.76
974.785	2203.26
975.085	2155.35
975.386	2160.1
975.686	2152.19
975.986	2147.67
976.287	2157.61
976.587	2118.74
976.887	2148.35
977.187	2135.24
977.487	2121.23
977.787	2139.76
978.087	2084.39
978.387	2080.33
978.687	2120.78
978.987	2079.2
979.286	2078.52
979.586	2053.66
979.885	2056.37
980.185	2020.67
980.484	2020.44
980.784	1992.42
981.083	2025.41
981.382	2005.98
981.682	1984.96
981.981	1965.53
982.28	1964.85
982.579	1966.66
982.878	1966.88
983.177	1964.85
983.475	1956.49
983.774	1935.25
984.073	1905.87
984.372	1919.2
984.67	1895.02
984.969	1891.86
985.267	1921.91
985.566	1911.29
985.864	1878.98
986.162	1884.17
986.461	1870.16
986.759	1844.63
987.057	1809.15
987.355	1857.06
987.653	1816.83
987.951	1816.6
988.249	1797.4
988.547	1771.18
988.844	1797.17
989.142	1791.07
989.44	1754.23
989.737	1778.19
990.035	1784.74
990.332	1737.06
990.63	1763.95
990.927	1728.7
991.224	1724.86
991.521	1733.9
991.819	1729.38
992.116	1699.55
992.413	1717.4
992.71	1680.79
993.006	1685.53
993.303	1671.07
993.6	1670.62
993.897	1687.79
994.193	1646.89
994.49	1661.81
994.787	1624.07
995.083	1643.5
995.379	1648.93
995.676	1629.49
995.972	1623.39
996.268	1611.86
996.565	1603.73
996.861	1622.71
997.157	1570.06
997.453	1556.72
997.749	1576.61
998.044	1575.03
998.34	1539.32
998.636	1541.81
998.932	1555.59
999.227	1548.82
999.523	1513.79
999.818	1528.48
1000.114	1538.87
1000.409	1508.36
1000.704	1501.36
1001	1524.41
1001.295	1504.3
1001.59	1463.39
1001.885	1483.28
1002.18	1445.09
1002.475	1471.53
1002.77	1438.76
1003.065	1433.79
1003.359	1457.52
1003.654	1436.28
1003.949	1428.82
1004.243	1401.25
1004.538	1412.55
1004.832	1384.3
1005.127	1389.5
1005.421	1408.48
1005.715	1378.65
1006.009	1379.55
1006.304	1380.46
1006.598	1357.41
1006.892	1332.55
1007.186	1333.91
1007.48	1327.13
1007.773	1337.07
1008.067	1313.57
1008.361	1342.49
1008.655	1343.85
1008.948	1296.39
1009.242	1300.69
1009.535	1281.93
1009.829	1275.6
1010.122	1292.55
1010.415	1290.06
1010.708	1273.57
1011.001	1239.67
1011.295	1262.72
1011.588	1242.16
1011.881	1224.08
1012.173	1225.66
1012.466	1224.98
1012.759	1215.04
1013.052	1209.16
1013.344	1186.11
1013.637	1191.08
1013.93	1203.74
1014.222	1190.18
1014.514	1166.23
1014.807	1182.05
1015.099	1173.91
1015.391	1169.39
1015.683	1156.51
1015.976	1155.38
1016.268	1155.83
1016.56	1150.41
1016.851	1124.65
1017.143	1129.39
1017.435	1118.32
1017.727	1104.99
1018.018	1115.83
1018.31	1106.34
1018.602	1101.14
1018.893	1085.32
1019.185	1106.11
1019.476	1059.79
1019.767	1056.4
1020.058	1059.11
1020.35	1046.91
1020.641	1013.01
1020.932	1062.27
1021.223	1017.98
1021.514	1050.98
1021.804	1035.16
1022.095	1043.52
1022.386	1005.78
1022.677	1015.27
1022.967	996.97
1023.258	1000.81
1023.548	1000.58
1023.839	979.56
1024.129	982.5
1024.419	978.66
1024.709	972.11
1025	964.88
1025.29	967.59
1025.58	946.35
1025.87	939.57
1026.16	935.27
1026.449	937.08
1026.739	932.33
1027.029	923.52
1027.319	914.93
1027.608	902.28
1027.898	937.53
1028.187	894.14
1028.477	902.5
1028.766	874.26
1029.055	900.02
1029.344	900.47
1029.634	864.77
1029.923	874.03
1030.212	855.95
1030.501	874.03
1030.79	875.84
1031.078	859.57
1031.367	843.07
1031.656	852.34
1031.945	838.1
1032.233	829.06
1032.522	826.57
1032.81	823.41
1033.099	823.18
1033.387	836.29
1033.675	812.34
1033.963	816.63
1034.251	801.49
1034.54	818.21
1034.828	799.91
1035.116	770.3
1035.403	784.77
1035.691	786.35
1035.979	770.76
1036.267	765.11
1036.554	789.51
1036.842	781.38
1037.129	759.01
1037.417	738.22
1037.704	750.64
1037.992	768.95
1038.279	739.8
1038.566	767.14
1038.853	767.14
1039.14	767.14
