Data from hue_240_FLMS001491_00044.txt Node
Date: Tue Feb 07 16:35:32 GMT 2017
User: dcchb
Spectrometer: FLMS00149
Trigger mode: 0
Integration Time (sec): 2.000000E-2
Scans to average: 10
Electric dark correction enabled: true
Nonlinearity correction enabled: false
Boxcar width: 0
XAxis mode: Wavelengths
Number of Pixels in Spectrum: 2048
>>>>>Begin Spectral Data<<<<<
341.393	-0.89
341.776	-0.89
342.16	-0.89
342.543	-69.14
342.927	-66.88
343.31	-74.33
343.693	-79.98
344.077	-41.34
344.46	-73.2
344.843	-53.54
345.226	-34.79
345.61	-26.2
345.993	-25.97
346.376	-15.35
346.759	7.02
347.142	35.49
347.525	37.53
347.908	59.22
348.291	79.11
348.674	105.77
349.057	100.58
349.44	120.46
349.823	141.25
350.206	169.05
350.588	183.29
350.971	211.99
351.354	212.21
351.737	232.1
352.119	244.53
352.502	242.04
352.884	283.17
353.267	267.35
353.65	300.8
354.032	301.02
354.414	289.72
354.797	280.68
355.179	299.44
355.562	310.97
355.944	315.94
356.326	333.34
356.709	323.4
357.091	319.55
357.473	343.73
357.855	317.07
358.238	340.57
358.62	336.5
359.002	350.74
359.384	332.43
359.766	331.08
360.148	337.18
360.53	322.72
360.912	342.15
361.294	336.28
361.676	332.43
362.057	326.79
362.439	342.38
362.821	327.01
363.203	309.38
363.584	331.08
363.966	327.69
364.348	315.03
364.729	322.72
365.111	309.38
365.493	305.54
365.874	332.21
366.256	310.97
366.637	306.22
367.019	300.57
367.4	298.09
367.781	287.92
368.163	307.35
368.544	321.81
368.925	313.9
369.306	307.58
369.688	296.5
370.069	293.11
370.45	325.43
370.831	303.51
371.212	308.71
371.593	302.61
371.974	291.53
372.355	334.69
372.736	311.19
373.117	314.81
373.498	307.12
373.879	307.35
374.26	311.87
374.641	312.55
375.021	315.71
375.402	301.02
375.783	315.71
376.163	310.74
376.544	316.84
376.925	323.4
377.305	325.2
377.686	329.72
378.066	329.05
378.447	315.03
378.827	343.28
379.208	337.86
379.588	336.05
379.968	328.37
380.349	310.29
380.729	327.92
381.109	308.25
381.489	343.73
381.87	325.43
382.25	318.42
382.63	352.32
383.01	330.85
383.39	332.43
383.77	335.82
384.15	359.33
384.53	349.38
384.91	335.37
385.29	333.11
385.67	320.46
386.049	337.86
386.429	333.34
386.809	350.06
387.189	359.78
387.568	356.84
387.948	339.21
388.328	360.23
388.707	355.71
389.087	368.37
389.466	363.62
389.846	361.13
390.225	360.91
390.605	341.47
390.984	353.45
391.363	357.07
391.743	369.72
392.122	374.02
392.501	354.81
392.881	396.16
393.26	355.71
393.639	374.24
394.018	361.59
394.397	369.04
394.776	380.34
395.155	374.92
395.534	388.03
395.913	374.24
396.292	371.08
396.671	377.86
397.05	404.75
397.429	377.18
397.808	403.85
398.186	400.91
398.565	384.41
398.944	421.25
399.323	392.32
399.701	402.04
400.08	399.33
400.458	399.78
400.837	380.12
401.215	416.5
401.594	380.8
401.972	409.49
402.351	401.13
402.729	397.07
403.107	425.09
403.486	410.62
403.864	425.77
404.242	414.69
404.62	419.66
404.999	425.99
405.377	439.1
405.755	415.6
406.133	448.59
406.511	452.21
406.889	450.62
407.267	454.92
407.645	445.65
408.023	469.15
408.401	458.99
408.779	476.61
409.156	472.54
409.534	480.45
409.912	489.94
410.29	500.79
410.667	485.88
411.045	486.78
411.422	522.71
411.8	524.75
412.178	519.1
412.555	508.93
412.933	517.97
413.31	535.37
413.687	565.42
414.065	532.43
414.442	542.37
414.819	563.16
415.197	568.81
415.574	574.01
415.951	602.71
416.328	576.72
416.705	588.47
417.082	599.55
417.46	599.55
417.837	609.94
418.214	597.29
418.591	608.59
418.967	611.98
419.344	634.57
419.721	616.72
420.098	649.04
420.475	633.44
420.852	653.78
421.228	675.25
421.605	664.4
421.982	663.5
422.358	698.75
422.735	693.56
423.111	714.12
423.488	710.28
423.864	714.12
424.241	736.49
424.617	738.3
424.994	750.73
425.37	751.63
425.746	759.09
426.123	767.23
426.499	781.91
426.875	772.42
427.251	805.19
427.627	814.23
428.003	809.94
428.379	822.59
428.756	849.03
429.132	861.91
429.507	869.6
429.883	862.59
430.259	883.38
430.635	855.58
431.011	897.39
431.387	889.48
431.763	911.4
432.138	915.92
432.514	949.82
432.89	953.21
433.265	959.54
433.641	1002.7
434.016	994.34
434.392	994.11
434.767	1028.69
435.143	1017.61
435.518	1040.44
435.894	1078.18
436.269	1085.18
436.644	1088.57
437.02	1103.71
437.395	1099.65
437.77	1126.76
438.145	1133.09
438.52	1152.3
438.895	1157.5
439.271	1171.06
439.646	1202.92
440.021	1214.22
440.395	1237.95
440.77	1221
441.145	1248.57
441.52	1252.18
441.895	1277.27
442.27	1303.48
442.645	1279.3
443.019	1301.45
443.394	1288.79
443.769	1302.35
444.143	1289.25
444.518	1339.87
444.892	1332.18
445.267	1333.54
445.641	1374.44
446.016	1384.16
446.39	1395.23
446.764	1418.96
447.139	1416.47
447.513	1390.71
447.887	1425.97
448.262	1428
448.636	1436.81
449.01	1466.19
449.384	1438.62
449.758	1490.82
450.132	1498.51
450.506	1503.93
450.88	1500.99
451.254	1484.04
451.628	1514.32
452.002	1538.05
452.376	1544.38
452.75	1587.32
453.123	1565.62
453.497	1592.74
453.871	1610.59
454.244	1631.16
454.618	1619.63
454.992	1649.91
455.365	1680.2
455.739	1712.96
456.112	1715.9
456.486	1737.14
456.859	1743.25
457.232	1768.1
457.606	1754.32
457.979	1762
458.352	1805.39
458.725	1838.38
459.099	1869.57
459.472	1882
459.845	1898.72
460.218	1917.25
460.591	1924.71
460.964	1900.3
461.337	1970.13
461.71	2023.92
462.083	2022.79
462.456	2003.13
462.829	2008.77
463.201	2052.84
463.574	2060.75
463.947	2119.96
464.32	2142.33
464.692	2144.14
465.065	2172.61
465.438	2204.48
465.81	2235.89
466.183	2227.98
466.555	2280.86
466.928	2294.64
467.3	2280.63
467.672	2336.9
468.045	2363.12
468.417	2378.93
468.789	2416
469.161	2453.51
469.534	2485.82
469.906	2481.98
470.278	2524.69
470.65	2557.69
471.022	2590.91
471.394	2627.52
471.766	2653.73
472.138	2685.14
472.51	2757.91
472.882	2768.53
473.253	2767.17
473.625	2810.11
473.997	2898.02
474.369	2893.27
474.74	2885.36
475.112	2977.56
475.484	2979.6
475.855	3053.49
476.227	3087.62
476.598	3174.85
476.97	3204.9
477.341	3239.7
477.713	3258.91
478.084	3306.59
478.455	3386.37
478.827	3355.86
479.198	3455.29
479.569	3436.99
479.94	3564.44
480.311	3596.08
480.682	3649.86
481.053	3735.06
481.424	3749.29
481.795	3817.09
482.166	3815.28
482.537	3868.39
482.908	3984.77
483.279	4019.34
483.65	4011.21
484.021	4121.49
484.391	4202.62
484.762	4189.28
485.133	4176.18
485.503	4257.3
485.874	4330.75
486.244	4318.54
486.615	4420.91
486.985	4476.96
487.356	4550.85
487.726	4597.41
488.097	4650.51
488.467	4722.38
488.837	4749.72
489.207	4808.25
489.578	4856.84
489.948	4860.9
490.318	4923.5
490.688	4983.16
491.058	5020
491.428	5094.8
491.798	5114
492.168	5246.66
492.538	5193.78
492.908	5305.19
493.278	5339.99
493.648	5331.85
494.017	5398.74
494.387	5411.4
494.757	5480.1
495.126	5553.99
495.496	5558.74
495.866	5562.58
496.235	5609.36
496.605	5665.63
496.974	5682.58
497.344	5697.49
497.713	5752.86
498.082	5812.29
498.452	5832.63
498.821	5859.52
499.19	5833.53
499.559	5927.54
499.928	5893.42
500.298	6005.05
500.667	6063.58
501.036	6032.4
501.405	6021.78
501.774	6046.63
502.143	6120.53
502.512	6131.38
502.88	6137.71
503.249	6148.33
503.618	6122.34
503.987	6170.02
504.356	6226.97
504.724	6284.37
505.093	6280.75
505.462	6317.59
505.83	6320.3
506.199	6322.11
506.567	6400.3
506.936	6396.68
507.304	6411.14
507.672	6472.16
508.041	6460.86
508.409	6468.32
508.777	6572.5
509.145	6587.19
509.514	6577.92
509.882	6607.07
510.25	6631.7
510.618	6664.02
510.986	6627.41
511.354	6683.45
511.722	6735.66
512.09	6746.28
512.458	6760.51
512.826	6794.64
513.193	6812.04
513.561	6783.34
513.929	6857.01
514.297	6924.8
514.664	6891.58
515.032	6918.7
515.4	6913.28
515.767	6929.55
516.135	6978.36
516.502	6878.25
516.869	6958.02
517.237	7006.61
517.604	7009.32
517.972	7031.92
518.339	7071.24
518.706	7031.92
519.073	7119.83
519.44	7068.98
519.808	7134.52
520.175	7137.91
520.542	7198.24
520.909	7137.68
521.276	7155.31
521.643	7226.72
522.009	7225.13
522.376	7211.8
522.743	7292.25
523.11	7302.2
523.477	7384
523.843	7325.02
524.21	7441.63
524.577	7462.19
524.943	7431.23
525.31	7449.99
525.676	7480.04
526.043	7519.14
526.409	7532.02
526.776	7582.19
527.142	7548.97
527.508	7592.58
527.874	7570.44
528.241	7617.44
528.607	7597.55
528.973	7633.71
529.339	7610.44
529.705	7694.28
530.071	7698.12
530.437	7659.93
530.803	7718.68
531.169	7763.65
531.535	7681.17
531.901	7698.12
532.267	7693.6
532.632	7709.64
532.998	7794.61
533.364	7763.2
533.73	7751.9
534.095	7775.85
534.461	7773.6
534.826	7790.09
535.192	7742.18
535.557	7825.8
535.923	7709.19
536.288	7802.52
536.653	7827.15
537.019	7724.56
537.384	7749.19
537.749	7720.94
538.114	7774.95
538.479	7714.84
538.845	7786.48
539.21	7666.71
539.575	7670.77
539.94	7740.6
540.305	7791.9
540.67	7705.12
541.034	7696.31
541.399	7703.31
541.764	7701.73
542.129	7658.34
542.494	7706.03
542.858	7676.87
543.223	7707.61
543.587	7698.57
543.952	7630.1
544.316	7673.26
544.681	7639.59
545.045	7629.19
545.41	7653.15
545.774	7665.35
546.138	7619.93
546.503	7680.26
546.867	7625.12
547.231	7662.86
547.595	7661.06
547.959	7678.23
548.324	7631.45
548.688	7606.14
549.052	7578.57
549.416	7670.77
549.779	7549.87
550.143	7578.12
550.507	7626.48
550.871	7601.62
551.235	7553.71
551.599	7572.92
551.962	7545.35
552.326	7568.63
552.689	7562.98
553.053	7534.73
553.417	7530.44
553.78	7634.62
554.143	7622.19
554.507	7615.63
554.87	7558.23
555.234	7646.37
555.597	7604.56
555.96	7596.42
556.323	7561.17
556.686	7554.39
557.05	7588.74
557.413	7588.97
557.776	7652.47
558.139	7621.96
558.502	7673.94
558.865	7616.31
559.228	7630.1
559.59	7643.88
559.953	7634.84
560.316	7711
560.679	7637.33
561.041	7749.19
561.404	7705.35
561.767	7713.48
562.129	7727.49
562.492	7767.72
562.854	7755.29
563.217	7780.37
563.579	7792.13
563.941	7812.01
564.304	7826.02
564.666	7830.77
565.028	7856.53
565.39	7911.9
565.753	7908.96
566.115	7905.12
566.477	7993.02
566.839	7906.25
567.201	7994.38
567.563	8043.87
567.925	8001.16
568.287	7961.84
568.648	8058.33
569.01	8070.31
569.372	8041.16
569.734	8043.42
570.095	8108.28
570.457	8089.29
570.819	8095.85
571.18	8103.76
571.542	8168.84
571.903	8212.45
572.265	8218.1
572.626	8262.62
572.987	8246.35
573.349	8298.55
573.71	8256.07
574.071	8287.48
574.432	8260.81
574.794	8334.26
575.155	8351.66
575.516	8377.42
575.877	8351.88
576.238	8378.55
576.599	8411.54
576.96	8371.32
577.32	8454.26
577.681	8403.41
578.042	8446.35
578.403	8464.65
578.763	8555.27
579.124	8475.27
579.485	8550.3
579.845	8554.37
580.206	8556.17
580.566	8593.91
580.927	8542.16
581.287	8671.88
581.648	8599.79
582.008	8631.65
582.368	8679.79
582.728	8682.72
583.089	8637.98
583.449	8670.52
583.809	8657.87
584.169	8673.01
584.529	8701.03
584.889	8787.58
585.249	8662.16
585.609	8716.62
585.969	8764.98
586.329	8732.89
586.688	8836.84
587.048	8709.84
587.408	8764.3
587.768	8787.58
588.127	8749.16
588.487	8775.15
588.846	8826.45
589.206	8801.14
589.565	8835.04
589.925	8772.21
590.284	8779.22
590.643	8810.86
591.003	8813.34
591.362	8896.73
591.721	8929.5
592.08	8884.07
592.44	8912.1
592.799	8941.7
593.158	8923.62
593.517	8897.63
593.876	8911.42
594.235	8904.41
594.593	8926.33
594.952	8966.56
595.311	8991.64
595.67	8963.39
596.029	9010.85
596.387	8992.32
596.746	9005.43
597.104	8922.27
597.463	8984.86
597.822	9024.41
598.18	9037.74
598.538	8993
598.897	8995.48
599.255	8996.39
599.613	9067.12
599.972	9037.29
600.33	9089.94
600.688	9010.4
601.046	9048.59
601.404	9055.6
601.762	9047.91
602.12	9103.73
602.478	9064.86
602.836	9131.53
603.194	9073.22
603.552	9116.16
603.91	9103.05
604.268	9079.78
604.625	9092.66
604.983	9103.96
605.341	9033.22
605.698	9145.99
606.056	9155.25
606.413	9136.95
606.771	9201.58
607.128	9126.78
607.485	9159.1
607.843	9137.63
608.2	9187.57
608.557	9207.68
608.914	9142.82
609.272	9251.3
609.629	9154.12
609.986	9226.89
610.343	9189.6
610.7	9245.87
611.057	9198.64
611.414	9168.81
611.771	9216.49
612.127	9232.54
612.484	9225.99
612.841	9291.52
613.198	9266.66
613.554	9273.44
613.911	9341.01
614.267	9284.97
614.624	9285.65
614.98	9319.54
615.337	9342.59
615.693	9258.3
616.05	9305.31
616.406	9406.55
616.762	9315.25
617.118	9353.89
617.475	9414.68
617.831	9387.34
618.187	9324.74
618.543	9434.34
618.899	9424.63
619.255	9383.27
619.611	9340.33
619.967	9439.77
620.323	9462.59
620.678	9418.07
621.034	9394.34
621.39	9428.01
621.746	9434.12
622.101	9440.9
622.457	9454.68
622.812	9411.52
623.168	9468.01
623.523	9438.18
623.879	9491.52
624.234	9423.72
624.589	9428.92
624.945	9481.57
625.3	9481.8
625.655	9421.91
626.01	9410.16
626.365	9487
626.72	9420.56
627.075	9376.72
627.43	9482.7
627.785	9415.13
628.14	9510.95
628.495	9449.26
628.85	9405.64
629.205	9421.46
629.559	9443.16
629.914	9348.92
630.269	9405.87
630.623	9390.95
630.978	9418.98
631.332	9387.56
631.687	9396.83
632.041	9391.41
632.396	9306.66
632.75	9366.1
633.104	9360.9
633.459	9297.62
633.813	9312.76
634.167	9345.98
634.521	9311.41
634.875	9308.24
635.229	9255.14
635.583	9217.4
635.937	9190.28
636.291	9215.14
636.645	9207
636.999	9240.45
637.352	9196.83
637.706	9148.93
638.06	9204.97
638.413	9128.59
638.767	9110.74
639.121	9095.59
639.474	9164.07
639.828	9115.25
640.181	9177.17
640.534	9124.75
640.888	9058.08
641.241	9001.36
641.594	9049.27
641.947	9109.83
642.301	8986.67
642.654	9097.18
643.007	9083.17
643.36	9044.75
643.713	9078.65
644.066	9024.18
644.419	8983.28
644.771	8922.72
645.124	8832.55
645.477	8843.85
645.83	8770.18
646.182	8770.86
646.535	8767.02
646.888	8702.61
647.24	8681.14
647.593	8760.01
647.945	8725.89
648.298	8689.5
648.65	8669.84
649.002	8622.16
649.355	8660.13
649.707	8694.7
650.059	8803.17
650.411	8755.49
650.763	8833.68
651.115	8903.51
651.467	8825.54
651.819	8873.23
652.171	8901.93
652.523	8846.34
652.875	8867.13
653.227	8842.49
653.578	8820.8
653.93	8864.64
654.282	8751.42
654.633	8815.38
654.985	8833.91
655.337	8915.26
655.688	8817.64
656.039	8883.62
656.391	8787.81
656.742	8783.29
657.094	8843.62
657.445	8822.83
657.796	8770.63
658.147	8828.26
658.498	8872.78
658.849	8808.37
659.2	8734.7
659.551	8800.01
659.902	8867.8
660.253	8811.08
660.604	8768.82
660.955	8788.71
661.306	8866.9
661.656	8804.08
662.007	8792.78
662.358	8855.83
662.708	8880.23
663.059	8862.83
663.409	8755.94
663.76	8871.65
664.11	8845.43
664.461	8847.24
664.811	8889.95
665.161	8858.76
665.511	8817.41
665.862	8812.89
666.212	8857.41
666.562	8865.09
666.912	8869.84
667.262	8844.08
667.612	8837.07
667.962	8872.1
668.312	8847.24
668.662	8818.77
669.011	8834.36
669.361	8844.98
669.711	8777.18
670.06	8833.91
670.41	8796.39
670.76	8758.2
671.109	8803.4
671.459	8767.24
671.808	8786.45
672.157	8803.4
672.507	8694.7
672.856	8730.86
673.205	8766.79
673.554	8738.54
673.904	8784.87
674.253	8776.05
674.602	8746
674.951	8693.34
675.3	8580.13
675.649	8741.03
675.998	8669.16
676.346	8677.98
676.695	8718.65
677.044	8685.89
677.393	8694.93
677.741	8685.89
678.09	8617.87
678.438	8626.68
678.787	8645.44
679.135	8704.64
679.484	8584.42
679.832	8550.75
680.181	8593.46
680.529	8609.05
680.877	8620.35
681.225	8544.42
681.573	8635.04
681.922	8587.13
682.27	8487.7
682.618	8541.94
682.966	8470.07
683.314	8495.16
683.661	8456.51
684.009	8450.64
684.357	8423.07
684.705	8383.52
685.053	8411.32
685.4	8330.42
685.748	8347.14
686.095	8324.32
686.443	8313.69
686.79	8324.77
687.138	8291.55
687.485	8337.65
687.832	8280.93
688.18	8212.91
688.527	8239.35
688.874	8212.45
689.221	8162.74
689.568	8196.18
689.915	8143.75
690.262	8091.55
690.609	8120.48
690.956	8101.27
691.303	8042.29
691.65	8023.76
691.997	8045.68
692.344	7983.76
692.69	7887.26
693.037	7974.04
693.383	7870.32
693.73	7871.67
694.077	7830.32
694.423	7840.94
694.769	7797.55
695.116	7829.41
695.462	7794.16
695.808	7776.53
696.155	7740.6
696.501	7698.57
696.847	7717.33
697.193	7561.62
697.539	7593.03
697.885	7519.14
698.231	7531.34
698.577	7561.4
698.923	7563.21
699.269	7415.86
699.614	7433.49
699.96	7431.91
700.306	7448.86
700.651	7411.57
700.997	7364.79
701.342	7325.7
701.688	7345.36
702.033	7325.47
702.379	7310.56
702.724	7280.27
703.069	7228.98
703.415	7193.27
703.76	7110.11
704.105	7167.51
704.45	7133.84
704.795	7082.77
705.14	7074.86
705.485	7096.1
705.83	7054.29
706.175	7020.85
706.52	7035.99
706.865	7019.26
707.209	6939.49
707.554	6949.66
707.899	6940.85
708.243	6856.11
708.588	6905.82
708.932	6852.94
709.277	6866.5
709.621	6883
709.966	6801.87
710.31	6826.95
710.654	6763.9
710.998	6748.54
711.342	6784.24
711.687	6741.53
712.031	6732.72
712.375	6674.87
712.719	6741.08
713.063	6713.74
713.407	6671.48
713.75	6650.01
714.094	6670.57
714.438	6596.22
714.782	6647.07
715.125	6575.66
715.469	6616.11
715.812	6601.2
716.156	6560.29
716.499	6542.89
716.843	6491.59
717.186	6549.67
717.53	6556.23
717.873	6559.16
718.216	6540.63
718.559	6507.41
718.902	6452.05
719.246	6524.81
719.589	6468.09
719.932	6439.17
720.275	6420.64
720.617	6404.37
720.96	6468.77
721.303	6453.86
721.646	6446.62
721.989	6370.24
722.331	6436.68
722.674	6379.96
723.016	6363.69
723.359	6383.8
723.701	6410.69
724.044	6356.91
724.386	6299.28
724.729	6401.43
725.071	6325.5
725.413	6319.62
725.755	6332.95
726.097	6275.1
726.439	6317.14
726.782	6300.41
727.124	6333.86
727.465	6270.81
727.807	6306.06
728.149	6250.25
728.491	6325.05
728.833	6256.35
729.175	6239.62
729.516	6255.22
729.858	6236.23
730.199	6261.32
730.541	6254.54
730.882	6252.96
731.224	6256.12
731.565	6226.74
731.906	6303.13
732.248	6253.64
732.589	6218.38
732.93	6189.23
733.271	6236.91
733.612	6243.24
733.953	6259.51
734.294	6204.6
734.635	6233.52
734.976	6277.14
735.317	6207.53
735.658	6197.37
735.999	6201.88
736.339	6190.13
736.68	6217.03
737.021	6223.81
737.361	6173.19
737.702	6276.46
738.042	6226.97
738.383	6205.05
738.723	6213.41
739.063	6244.6
739.404	6258.83
739.744	6262.67
740.084	6251.38
740.424	6213.18
740.764	6236.23
741.104	6248.44
741.444	6178.16
741.784	6249.12
742.124	6293.41
742.464	6310.36
742.804	6271.26
743.143	6312.62
743.483	6381.99
743.823	6355.78
744.162	6298.38
744.502	6417.25
744.841	6396.46
745.181	6424.48
745.52	6436.46
745.86	6456.12
746.199	6433.07
746.538	6508.77
746.877	6524.14
747.216	6477.13
747.556	6523.68
747.895	6591.48
748.234	6605.72
748.573	6584.47
748.911	6702.89
749.25	6687.97
749.589	6703.34
749.928	6761.64
750.267	6769.1
750.605	6852.94
750.944	6891.81
751.283	6868.53
751.621	7009.77
751.96	6991.02
752.298	7065.14
752.636	7149.66
752.975	7191.92
753.313	7186.72
753.651	7306.04
753.989	7323.66
754.327	7381.29
754.666	7415.19
755.004	7471.46
755.342	7668.51
755.679	7718.91
756.017	7724.78
756.355	7901.05
756.693	7911.22
757.031	8036.41
757.368	8016.98
757.706	8186.69
758.044	8223.98
758.381	8307.14
758.719	8445.44
759.056	8550.75
759.394	8613.8
759.731	8620.35
760.068	8753
760.405	8825.32
760.743	8918.65
761.08	9076.39
761.417	9109.15
761.754	9166.1
762.091	9332.42
762.428	9364.29
762.765	9431.86
763.102	9579.88
763.438	9606.77
763.775	9673.21
764.112	9883.37
764.449	9959.75
764.785	9940.77
765.122	9993.2
765.458	10150.71
765.795	10179.18
766.131	10268.9
766.467	10343.24
766.804	10424.37
767.14	10472.96
767.476	10578.04
767.812	10661.88
768.148	10706.63
768.485	10721.31
768.821	10738.26
769.157	10831.14
769.492	10892.16
769.828	11009.22
770.164	10929.9
770.5	11020.06
770.836	11069.33
771.171	11070.01
771.507	11130.79
771.842	11135.09
772.178	11234.07
772.513	11244.46
772.849	11256.89
773.184	11354.97
773.519	11347.96
773.855	11344.35
774.19	11447.62
774.525	11403.33
774.86	11469.77
775.195	11514.97
775.53	11504.8
775.865	11546.83
776.2	11474.51
776.535	11461.18
776.87	11549.54
777.205	11532.14
777.539	11562.87
777.874	11595.19
778.209	11517.45
778.543	11557.22
778.878	11535.53
779.212	11612.59
779.547	11578.92
779.881	11649.65
780.215	11603.1
780.55	11632.93
780.884	11608.3
781.218	11606.71
781.552	11604.68
781.886	11542.54
782.22	11547.96
782.554	11600.61
782.888	11474.29
783.222	11540.73
783.556	11466.61
783.889	11514.97
784.223	11404.91
784.557	11409.66
784.89	11400.84
785.224	11432.93
785.557	11367.62
785.891	11395.19
786.224	11385.93
786.558	11378.47
786.891	11299.6
787.224	11204.47
787.557	11187.97
787.891	11217.57
788.224	11298.02
788.557	11234.52
788.89	11258.7
789.223	11247.4
789.556	11241.75
789.888	11161.3
790.221	11125.15
790.554	11029.78
790.887	11054.86
791.219	11108.42
791.552	10970.35
791.884	10997.24
792.217	10950.01
792.549	10985.04
792.882	10933.06
793.214	10916.11
793.546	10919.95
793.879	10866.62
794.211	10803.57
794.543	10857.36
794.875	10802.22
795.207	10840.18
795.539	10789.79
795.871	10784.36
796.203	10722.9
796.535	10603.13
796.867	10576.91
797.198	10652.16
797.53	10667.08
797.862	10594.99
798.193	10521.55
798.525	10510.02
798.856	10524.71
799.188	10396.35
799.519	10385.5
799.85	10279.29
800.182	10333.3
800.513	10330.14
800.844	10326.07
801.175	10269.12
801.506	10338.73
801.837	10256.24
802.168	10290.59
802.499	10190.93
802.83	10220.99
803.161	10141.44
803.491	10142.8
803.822	10106.87
804.153	10125.4
804.483	10000.88
804.814	10031.16
805.145	9992.52
805.475	9986.19
805.805	9978.28
806.136	9961.11
806.466	9966.31
806.796	9953.88
807.126	9865.52
807.457	9814.67
807.787	9871.17
808.117	9820.55
808.447	9753.88
808.777	9766.09
809.107	9791.62
809.436	9681.79
809.766	9741.23
810.096	9701
810.426	9632.76
810.755	9668.23
811.085	9650.61
811.414	9548.46
811.744	9550.05
812.073	9587.33
812.403	9543.27
812.732	9472.08
813.061	9494.45
813.39	9442.25
813.719	9441.57
814.049	9502.59
814.378	9465.75
814.707	9348.24
815.036	9401.8
815.365	9340.11
815.693	9309.83
816.022	9285.42
816.351	9294.23
816.68	9256.04
817.008	9281.13
817.337	9107.35
817.665	9132.66
817.994	9192.31
818.322	9162.94
818.651	9105.99
818.979	9088.36
819.307	9126.1
819.636	9113.22
819.964	9063.05
820.292	9115.93
820.62	9105.09
820.948	8990.29
821.276	9057.4
821.604	9098.53
821.932	9046.33
822.259	9137.85
822.587	9055.6
822.915	9016.73
823.243	9012.43
823.57	9050.85
823.898	9003.62
824.225	9003.85
824.553	8940.57
824.88	9051.08
825.207	9051.3
825.535	9004.07
825.862	9096.72
826.189	8984.64
826.516	9073.9
826.843	9104.86
827.17	9088.14
827.497	9081.13
827.824	9020.34
828.151	9057.86
828.478	9062.6
828.805	9081.13
829.131	9096.27
829.458	9096.27
829.785	9021.25
830.111	9014.69
830.438	9090.62
830.764	9054.47
831.09	9104.41
831.417	9065.09
831.743	9034.8
832.069	8968.82
832.395	9050.17
832.722	9043.62
833.048	9012.21
833.374	9124.52
833.7	8986.22
834.026	9045.65
834.351	9022.6
834.677	8945.77
835.003	9046.1
835.329	9002.26
835.654	8970.17
835.98	8929.27
836.306	8975.6
836.631	8955.48
836.956	8933.79
837.282	8930.17
837.607	8877.75
837.932	8913.9
838.258	8934.69
838.583	8880.91
838.908	8844.75
839.233	8844.08
839.558	8802.95
839.883	8800.46
840.208	8795.26
840.533	8710.07
840.858	8736.06
841.182	8788.94
841.507	8783.74
841.832	8733.57
842.156	8691.31
842.481	8650.18
842.805	8712.1
843.13	8661.71
843.454	8615.83
843.778	8574.03
844.103	8583.29
844.427	8568.6
844.751	8592.78
845.075	8538.55
845.399	8528.15
845.723	8477.98
846.047	8403.86
846.371	8396.86
846.695	8400.02
847.019	8388.95
847.343	8319.8
847.666	8303.3
847.99	8266.69
848.313	8275.95
848.637	8216.3
848.96	8235.96
849.284	8167.03
849.607	8116.18
849.931	8128.84
850.254	8023.08
850.577	8054.94
850.9	7937.66
851.223	7987.83
851.546	7886.59
851.869	7824.67
852.192	7875.51
852.515	7836.42
852.838	7789.64
853.161	7789.64
853.483	7758.68
853.806	7706.25
854.129	7724.1
854.451	7674.61
854.774	7565.92
855.096	7650.66
855.419	7559.59
855.741	7553.04
856.063	7534.28
856.385	7532.02
856.708	7486.14
857.03	7504.45
857.352	7443.21
857.674	7441.4
857.996	7420.38
858.318	7378.8
858.64	7321.18
858.961	7389.2
859.283	7337.9
859.605	7286.6
859.926	7302.65
860.248	7263.1
860.57	7269.88
860.891	7254.29
861.212	7249.99
861.534	7239.15
861.855	7205.93
862.176	7226.26
862.498	7224.46
862.819	7167.06
863.14	7106.95
863.461	7125.7
863.782	7143.78
864.103	7122.54
864.424	7061.75
864.745	7048.87
865.065	7088.64
865.386	7125.48
865.707	7080.51
866.027	7054.29
866.348	7051.81
866.668	6986.72
866.989	7019.26
867.309	6941.07
867.63	6967.51
867.95	7033.05
868.27	6909.66
868.59	6945.82
868.91	6909.66
869.23	6880.06
869.55	6905.37
869.87	6921.41
870.19	6904.69
870.51	6887.74
870.83	6903.56
871.15	6849.33
871.469	6876.44
871.789	6886.61
872.109	6825.6
872.428	6788.08
872.748	6853.17
873.067	6838.25
873.386	6825.15
873.706	6821.3
874.025	6741.31
874.344	6735.66
874.663	6713.28
874.982	6731.36
875.301	6732.27
875.62	6708.99
875.939	6647.07
876.258	6704.7
876.577	6617.47
876.896	6703.11
877.214	6634.19
877.533	6632.16
877.852	6649.56
878.17	6622.89
878.489	6623.57
878.807	6578.15
879.125	6588.54
879.444	6612.5
879.762	6588.32
880.08	6567.53
880.398	6541.76
880.716	6522.55
881.034	6529.33
881.352	6499.28
881.67	6519.16
881.988	6502.44
882.306	6507.19
882.624	6476.91
882.941	6451.6
883.259	6445.04
883.577	6421.77
883.894	6443.69
884.212	6407.98
884.529	6385.16
884.846	6408.21
885.164	6346.06
885.481	6321.66
885.798	6318.94
886.115	6321.2
886.432	6359.85
886.75	6324.59
887.067	6285.72
887.383	6220.19
887.7	6262.22
888.017	6189.91
888.334	6230.81
888.651	6174.54
888.967	6166.86
889.284	6222
889.6	6128.89
889.917	6124.37
890.233	6112.17
890.55	6152.62
890.866	6108.55
891.182	6038.73
891.498	6069.91
891.815	6020.42
892.131	5979.07
892.447	5941.78
892.763	5980.2
893.079	5944.72
893.395	5935.9
893.71	5937.26
894.026	5920.99
894.342	5906.75
894.657	5867.43
894.973	5836.7
895.289	5793.08
895.604	5841.22
895.92	5786.08
896.235	5802.57
896.55	5744.5
896.865	5787.43
897.181	5714.21
897.496	5688.23
897.811	5722.35
898.126	5710.82
898.441	5673.09
898.756	5603.48
899.071	5578.62
899.386	5613.2
899.7	5571.39
900.015	5533.43
900.33	5507.21
900.644	5494.11
900.959	5509.25
901.273	5476.25
901.588	5471.73
901.902	5434.67
902.216	5411.17
902.531	5400.55
902.845	5427.22
903.159	5325.98
903.473	5347.22
903.787	5313.32
904.101	5313.55
904.415	5277.39
904.729	5306.09
905.042	5238.07
905.356	5201.01
905.67	5158.3
905.984	5240.78
906.297	5224.96
906.611	5153.78
906.924	5167.79
907.237	5132.31
907.551	5088.24
907.864	5104.74
908.177	5073.1
908.491	5058.19
908.804	5077.39
909.117	4971.18
909.43	5022.48
909.743	4932.99
910.056	5002.59
910.368	4933.67
910.681	4891.64
910.994	4921.24
911.307	4883.28
911.619	4869.04
911.932	4861.36
912.244	4795.82
912.557	4819.32
912.869	4761.92
913.181	4723.05
913.494	4773.22
913.806	4691.19
914.118	4706.33
914.43	4678.31
914.742	4645.99
915.054	4608.71
915.366	4669.5
915.678	4652.32
915.99	4614.36
916.302	4549.5
916.613	4536.17
916.925	4537.52
917.236	4539.33
917.548	4500.01
917.859	4489.84
918.171	4458.43
918.482	4443.29
918.794	4449.39
919.105	4444.87
919.416	4378.2
919.727	4348.83
920.038	4387.24
920.349	4352.44
920.66	4344.98
920.971	4309.51
921.282	4323.06
921.593	4276.51
921.903	4286
922.214	4286.68
922.525	4204.2
922.835	4229.28
923.146	4199.9
923.456	4147.7
923.767	4149.51
924.077	4169.17
924.387	4154.93
924.697	4145.22
925.008	4128.72
925.318	4073.35
925.628	4107.25
925.938	4049.17
926.248	4070.42
926.558	3998.78
926.867	3997.42
927.177	4022.96
927.487	3984.77
927.796	3953.36
928.106	3921.27
928.416	3894.83
928.725	3908.61
929.034	3924.66
929.344	3904.09
929.653	3865.45
929.962	3884.66
930.271	3866.58
930.581	3827.94
930.89	3843.53
931.199	3822.74
931.508	3800.37
931.817	3794.94
932.125	3734.38
932.434	3771.67
932.743	3661.39
933.051	3694.15
933.36	3693.02
933.669	3619.58
933.977	3641.5
934.286	3622.97
934.594	3656.19
934.902	3602.63
935.21	3589.07
935.519	3582.29
935.827	3577.1
936.135	3593.37
936.443	3549.53
936.751	3547.27
937.059	3550.66
937.367	3518.11
937.674	3499.13
937.982	3502.29
938.29	3453.93
938.597	3455.52
938.905	3370.1
939.213	3411.68
939.52	3407.16
939.827	3420.94
940.135	3373.48
940.442	3351.11
940.749	3346.14
941.056	3314.28
941.363	3277.67
941.67	3302.53
941.977	3317.44
942.284	3278.8
942.591	3269.31
942.898	3254.84
943.205	3234.51
943.511	3216.65
943.818	3219.14
944.125	3213.26
944.431	3181.17
944.738	3185.47
945.044	3166.03
945.35	3159.93
945.657	3118.8
945.963	3150.44
946.269	3148.86
946.575	3113.83
946.881	3113.38
947.187	3068.86
947.493	3092.59
947.799	3012.82
948.105	3029.76
948.41	3017.11
948.716	3049.43
949.022	2989.99
949.327	2981.86
949.633	2977.79
949.938	2927.39
950.244	2938.02
950.549	2953.61
950.854	2969.43
951.16	2942.54
951.465	2919.49
951.77	2905.02
952.075	2888.07
952.38	2864.35
952.685	2865.25
952.99	2804.23
953.294	2852.37
953.599	2850.11
953.904	2789.55
954.209	2822.54
954.513	2795.65
954.818	2820.5
955.122	2746.61
955.426	2796.78
955.731	2736.67
956.035	2744.8
956.339	2759.04
956.643	2746.38
956.948	2691.02
957.252	2682.2
957.556	2679.72
957.86	2699.15
958.163	2638.36
958.467	2659.15
958.771	2632.94
959.075	2651.24
959.378	2632.71
959.682	2600.85
959.985	2583.68
960.289	2575.99
960.592	2566.95
960.896	2557.24
961.199	2562.43
961.502	2557.01
961.805	2531.47
962.108	2536.67
962.411	2523.11
962.714	2493.51
963.017	2475.2
963.32	2507.74
963.623	2474.07
963.926	2467.75
964.228	2471.14
964.531	2428.42
964.833	2414.41
965.136	2423.23
965.438	2406.96
965.741	2400.63
966.043	2373.96
966.345	2405.37
966.648	2391.59
966.95	2367.18
967.252	2367.86
967.554	2321.99
967.856	2317.69
968.158	2333.06
968.46	2290.58
968.761	2334.87
969.063	2314.53
969.365	2281.54
969.666	2261.65
969.968	2274.76
970.269	2248.54
970.571	2250.12
970.872	2226.4
971.174	2206.06
971.475	2218.71
971.776	2221.88
972.077	2234.31
972.378	2185.49
972.679	2201.99
972.98	2159.73
973.281	2171.71
973.582	2169.45
973.883	2178.49
974.183	2155.44
974.484	2169.22
974.785	2132.39
975.085	2158.38
975.386	2126.51
975.686	2064.59
975.986	2087.19
976.287	2091.71
976.587	2093.07
976.887	2052.39
977.187	2077.93
977.487	2044.71
977.787	2051.03
978.087	2030.92
978.387	1998.61
978.687	2009.68
978.987	2034.99
979.286	2010.81
979.586	1976.01
979.885	1952.28
980.185	1970.13
980.484	1973.52
980.784	1967.87
981.083	1950.92
981.382	1948.89
981.682	1921.09
981.981	1906.63
982.28	1929.45
982.579	1912.96
982.878	1879.74
983.177	1913.18
983.475	1887.42
983.774	1907.08
984.073	1882
984.372	1879.74
984.67	1848.55
984.969	1870.7
985.267	1838.84
985.566	1849.01
985.864	1817.37
986.162	1857.82
986.461	1798.84
986.759	1823.69
987.057	1790.93
987.355	1771.49
987.653	1782.79
987.951	1766.52
988.249	1760.65
988.547	1782.57
988.844	1768.56
989.142	1762.68
989.44	1750.25
989.737	1716.58
990.035	1705.96
990.332	1726.75
990.63	1710.7
990.927	1749.57
991.224	1686.52
991.521	1695.34
991.819	1690.14
992.116	1713.87
992.413	1681.78
992.71	1646.98
993.006	1661.44
993.303	1646.98
993.6	1635.23
993.897	1633.64
994.193	1624.15
994.49	1621.21
994.787	1598.16
995.083	1614.66
995.379	1601.55
995.676	1614.66
995.972	1602.46
996.268	1577.83
996.565	1583.48
996.861	1562.91
997.157	1554.32
997.453	1554.1
997.749	1558.84
998.044	1544.83
998.34	1548.67
998.636	1537.83
998.932	1515
999.227	1506.19
999.523	1496.47
999.818	1475.23
1000.114	1487.43
1000.409	1487.66
1000.704	1471.84
1001	1443.59
1001.295	1457.38
1001.59	1476.13
1001.885	1448.79
1002.18	1455.57
1002.475	1425.97
1002.77	1437.49
1003.065	1406.98
1003.359	1397.27
1003.654	1403.82
1003.949	1390.26
1004.243	1386.19
1004.538	1383.93
1004.832	1354.1
1005.127	1361.11
1005.421	1353.65
1005.715	1339.64
1006.009	1339.41
1006.304	1355.91
1006.598	1315.46
1006.892	1303.26
1007.186	1292.41
1007.48	1321.56
1007.773	1306.65
1008.067	1310.04
1008.361	1282.92
1008.655	1287.66
1008.948	1284.5
1009.242	1270.49
1009.535	1239.53
1009.829	1272.98
1010.122	1249.47
1010.415	1249.7
1010.708	1240.43
1011.001	1202.24
1011.295	1228.91
1011.588	1217.38
1011.881	1196.82
1012.173	1205.41
1012.466	1209.47
1012.759	1179.64
1013.052	1179.87
1013.344	1179.64
1013.637	1183.94
1013.93	1161.34
1014.222	1146.42
1014.514	1155.24
1014.807	1131.06
1015.099	1156.14
1015.391	1122.47
1015.683	1147.33
1015.976	1152.3
1016.268	1107.1
1016.56	1098.97
1016.851	1116.14
1017.143	1095.58
1017.435	1096.26
1017.727	1048.12
1018.018	1076.14
1018.31	1067.1
1018.602	1087.44
1018.893	1072.75
1019.185	1039.08
1019.476	1050.16
1019.767	1054.9
1020.058	1040.66
1020.35	1024.17
1020.641	1031.63
1020.932	1010.84
1021.223	1037.73
1021.514	1007.67
1021.804	1005.86
1022.095	994.34
1022.386	1028.01
1022.677	1001.12
1022.967	996.15
1023.258	978.97
1023.548	984.17
1023.839	967.67
1024.129	986.43
1024.419	959.08
1024.709	929.03
1025	934.68
1025.29	956.15
1025.58	937.39
1025.87	925.41
1026.16	914.11
1026.449	923.15
1026.739	900.1
1027.029	925.41
1027.319	907.56
1027.608	909.37
1027.898	896.26
1028.187	898.97
1028.477	866.88
1028.766	878.64
1029.055	876.15
1029.344	888.13
1029.634	881.57
1029.923	863.04
1030.212	843.83
1030.501	864.4
1030.79	861.23
1031.078	842.7
1031.367	828.69
1031.656	829.6
1031.945	840.44
1032.233	825.53
1032.522	816.72
1032.81	825.08
1033.099	818.07
1033.387	791.86
1033.675	801.57
1033.963	790.73
1034.251	778.07
1034.54	773.33
1034.828	781.01
1035.116	769.71
1035.403	758.64
1035.691	742.59
1035.979	774.91
1036.267	794.12
1036.554	750.28
1036.842	740.33
1037.129	757.06
1037.417	741.01
1037.704	739.43
1037.992	732.65
1038.279	723.61
1038.566	729.94
1038.853	729.94
1039.14	729.94
