Data from hue_20_FLMS001491_77.txt Node
Date: Mon Feb 06 15:34:38 GMT 2017
User: dcchb
Spectrometer: FLMS00149
Trigger mode: 0
Integration Time (sec): 2.000000E-2
Scans to average: 10
Electric dark correction enabled: true
Nonlinearity correction enabled: false
Boxcar width: 0
XAxis mode: Wavelengths
Number of Pixels in Spectrum: 2048
>>>>>Begin Spectral Data<<<<<
341.393	-19.52
341.776	-19.52
342.16	-19.52
342.543	-77.14
342.927	-69.69
343.31	-79.4
343.693	-46.41
344.077	-53.19
344.46	-65.85
344.843	-73.53
345.226	-43.7
345.61	-25.62
345.993	-27.43
346.376	-9.35
346.759	-7.09
347.142	26.13
347.525	27.49
347.908	57.09
348.291	91.44
348.674	100.7
349.057	128.73
349.44	126.92
349.823	122.85
350.206	175.05
350.588	186.8
350.971	199.46
351.354	237.88
351.737	236.97
352.119	234.94
352.502	258.21
352.884	283.3
353.267	272.45
353.65	290.53
354.032	295.05
354.414	339.34
354.797	333.92
355.179	329.85
355.562	340.02
355.944	335.05
356.326	344.76
356.709	335.95
357.091	363.3
357.473	350.41
357.855	322.39
358.238	342.51
358.62	359.45
359.002	349.06
359.384	355.84
359.766	346.57
360.148	354.71
360.53	340.47
360.912	349.74
361.294	344.09
361.676	360.58
362.057	344.99
362.439	336.63
362.821	314.94
363.203	344.31
363.584	332.11
363.966	353.58
364.348	337.76
364.729	321.71
365.111	344.31
365.493	349.51
365.874	314.26
366.256	333.01
366.637	314.48
367.019	322.17
367.4	319.91
367.781	303.86
368.163	325.1
368.544	324.2
368.925	334.82
369.306	344.76
369.688	326.01
370.069	327.82
370.45	320.58
370.831	321.04
371.212	313.13
371.593	322.39
371.974	314.94
372.355	327.82
372.736	328.72
373.117	324.88
373.498	335.95
373.879	327.14
374.26	333.24
374.641	341.6
375.021	322.84
375.402	340.02
375.783	330.3
376.163	329.17
376.544	346.35
376.925	331.88
377.305	321.94
377.686	326.46
378.066	322.17
378.447	331.43
378.827	353.58
379.208	341.15
379.588	335.5
379.968	353.8
380.349	354.48
380.729	340.92
381.109	360.13
381.489	336.63
381.87	338.89
382.25	343.64
382.63	345.89
383.01	366.69
383.39	350.87
383.77	342.05
384.15	382.28
384.53	339.79
384.91	344.31
385.29	351.32
385.67	365.56
386.049	370.08
386.429	350.41
386.809	370.08
387.189	366.46
387.568	378.66
387.948	367.36
388.328	334.6
388.707	358.55
389.087	362.39
389.466	359.68
389.846	387.02
390.225	365.33
390.605	382.05
390.984	364.88
391.363	382.5
391.743	401.71
392.122	397.42
392.501	400.13
392.881	396.97
393.26	393.13
393.639	384.76
394.018	400.36
394.397	398.1
394.776	393.13
395.155	383.63
395.534	399.45
395.913	407.36
396.292	390.87
396.671	410.53
397.05	380.24
397.429	403.97
397.808	393.8
398.186	394.48
398.565	406.46
398.944	414.59
399.323	422.95
399.701	414.82
400.08	417.76
400.458	415.27
400.837	425.67
401.215	404.65
401.594	431.77
401.972	430.19
402.351	443.07
402.729	431.99
403.107	421.37
403.486	429.28
403.864	425.21
404.242	442.62
404.62	436.97
404.999	439.45
405.377	429.73
405.755	441.03
406.133	446.01
406.511	442.62
406.889	457.98
407.267	437.42
407.645	461.82
408.023	454.82
408.401	453.69
408.779	454.14
409.156	440.58
409.534	450.98
409.912	477.87
410.29	516.06
410.667	488.49
411.045	480.13
411.422	499.11
411.8	481.94
412.178	478.55
412.555	481.71
412.933	502.95
413.31	505.44
413.687	519
414.065	490.75
414.442	510.41
414.819	491.88
415.197	502.73
415.574	496.63
415.951	516.29
416.328	518.77
416.705	502.95
417.082	542.73
417.46	545.66
417.837	536.4
418.214	523.97
418.591	529.62
418.967	535.95
419.344	534.59
419.721	556.51
420.098	550.18
420.475	544.31
420.852	543.4
421.228	586.34
421.605	571.43
421.982	585.89
422.358	550.86
422.735	574.82
423.111	577.53
423.488	571.88
423.864	561.03
424.241	591.99
424.617	596.28
424.994	598.32
425.37	583.18
425.746	590.86
426.123	622.72
426.499	581.37
426.875	603.97
427.251	601.48
427.627	639.67
428.003	608.03
428.379	635.6
428.756	653.23
429.132	626.79
429.507	678.32
429.883	664.3
430.259	670.63
430.635	690.29
431.011	654.14
431.387	677.19
431.763	691.2
432.138	702.95
432.514	686.9
432.89	697.3
433.265	697.98
433.641	713.79
434.016	690.97
434.392	745.66
434.767	730.74
435.143	714.47
435.518	737.97
435.894	736.17
436.269	740.23
436.644	757.18
437.02	758.77
437.395	773.91
437.77	762.61
438.145	772.1
438.52	770.52
438.895	801.02
439.271	788.37
439.646	801.93
440.021	801.7
440.395	816.62
440.77	789.27
441.145	793.34
441.52	828.82
441.895	787.47
442.27	851.42
442.645	832.21
443.019	856.62
443.394	841.02
443.769	844.64
444.143	841.48
444.518	854.58
444.892	858.88
445.267	873.11
445.641	872.89
446.016	889.84
446.39	867.92
446.764	847.12
447.139	889.38
447.513	889.38
447.887	880.12
448.262	876.05
448.636	895.94
449.01	935.48
449.384	919.44
449.758	896.61
450.132	926.44
450.506	941.13
450.88	934.81
451.254	946.33
451.628	967.57
452.002	960.12
452.376	982.71
452.75	995.14
453.123	975.48
453.497	1009.61
453.871	978.19
454.244	1016.16
454.618	1028.36
454.992	1013.22
455.365	1018.65
455.739	1086.67
456.112	1065.2
456.486	1068.14
456.859	1101.58
457.232	1091.19
457.606	1103.62
457.979	1087.12
458.352	1091.86
458.725	1126.21
459.099	1159.88
459.472	1165.99
459.845	1174.8
460.218	1194.46
460.591	1179.77
460.964	1199.43
461.337	1194.01
461.71	1229.49
462.083	1240.33
462.456	1252.76
462.829	1239.88
463.201	1289.6
463.574	1271.07
463.947	1285.76
464.32	1325.53
464.692	1335.7
465.065	1327.79
465.438	1337.96
465.81	1364.63
466.183	1387.45
466.555	1420.22
466.928	1415.02
467.3	1410.5
467.672	1423.61
468.045	1440.56
468.417	1495.7
468.789	1484.85
469.161	1530.95
469.534	1542.47
469.906	1577.73
470.278	1592.87
470.65	1578.63
471.022	1632.87
471.394	1628.35
471.766	1641.68
472.138	1693.66
472.51	1695.46
472.882	1717.38
473.253	1729.59
473.625	1789.92
473.997	1807.33
474.369	1817.27
474.74	1874.67
475.112	1885.74
475.484	1904.5
475.855	1958.96
476.227	1982.01
476.598	2032.63
476.97	2029.47
477.341	2062.69
477.713	2118.96
478.084	2131.61
478.455	2199.18
478.827	2228.56
479.198	2267.43
479.569	2307.43
479.94	2349.91
480.311	2404.15
480.682	2400.53
481.053	2455.67
481.424	2531.6
481.795	2576.57
482.166	2591.49
482.537	2642.11
482.908	2708.77
483.279	2738.6
483.65	2774.98
484.021	2860.18
484.391	2884.81
484.762	2918.48
485.133	2938.6
485.503	2993.06
485.874	3050.68
486.244	3127.06
486.615	3142.43
486.985	3166.16
487.356	3275.54
487.726	3272.37
488.097	3407.51
488.467	3388.98
488.837	3496.32
489.207	3508.07
489.578	3569.99
489.948	3636.66
490.318	3637.56
490.688	3674.17
491.058	3746.94
491.428	3784.9
491.798	3860.15
492.168	3892.24
492.538	3918.23
492.908	3984.67
493.278	4058.34
493.648	4061.96
494.017	4132.46
494.387	4194.16
494.757	4209.3
495.126	4298.79
495.496	4235.51
495.866	4284.32
496.235	4339.69
496.605	4440.48
496.974	4442.96
497.344	4475.96
497.713	4510.31
498.082	4546.91
498.452	4609.29
498.821	4611.55
499.19	4617.65
499.559	4696.74
499.928	4739
500.298	4714.14
500.667	4821.48
501.036	4817.19
501.405	4867.81
501.774	4893.8
502.143	4946.68
502.512	4907.58
502.88	4984.64
503.249	5033
503.618	5008.37
503.987	5049.27
504.356	5100.57
504.724	5131.31
505.093	5159.55
505.462	5170.63
505.83	5184.64
506.199	5216.95
506.567	5243.62
506.936	5308.25
507.304	5343.28
507.672	5369.04
508.041	5398.64
508.409	5433.22
508.777	5423.5
509.145	5482.71
509.514	5475.03
509.882	5554.12
510.25	5527.23
510.618	5604.29
510.986	5626.89
511.354	5678.41
511.722	5649.48
512.09	5752.08
512.458	5693.1
512.826	5791.4
513.193	5733.55
513.561	5753.44
513.929	5877.27
514.297	5860.55
514.664	5924.51
515.032	5888.35
515.4	5976.93
515.767	5980.55
516.135	6001.11
516.502	5999.76
516.869	6077.27
517.237	6057.16
517.604	6093.99
517.972	6157.49
518.339	6161.34
518.706	6234.33
519.073	6213.09
519.44	6225.97
519.808	6281.78
520.175	6311.61
520.542	6334.44
520.909	6401.1
521.276	6338.73
521.643	6444.27
522.009	6482.91
522.376	6526.3
522.743	6537.37
523.11	6590.7
523.477	6612.4
523.843	6630.7
524.21	6715.44
524.577	6773.75
524.943	6740.53
525.31	6814.2
525.676	6905.72
526.043	6930.13
526.409	6936.46
526.776	7025.04
527.142	7079.5
527.508	7050.58
527.874	7135.09
528.241	7204.25
528.607	7173.96
528.973	7183.46
529.339	7259.84
529.705	7287.86
530.071	7334.41
530.437	7362.89
530.803	7435.65
531.169	7449.44
531.535	7461.19
531.901	7506.38
532.267	7523.79
532.632	7601.98
532.998	7643.1
533.364	7679.49
533.73	7683.78
534.095	7712.03
534.461	7758.13
534.826	7797.22
535.192	7825.47
535.557	7941.18
535.923	7920.38
536.288	7959.48
536.653	7965.81
537.019	7960.38
537.384	8018.24
537.749	8051.23
538.114	8102.3
538.479	8149.76
538.845	8178.68
539.21	8113.83
539.575	8149.53
539.94	8225.01
540.305	8251.68
540.67	8291.45
541.034	8318.11
541.399	8311.34
541.764	8379.36
542.129	8400.37
542.494	8422.74
542.858	8521.27
543.223	8511.78
543.587	8595.4
543.952	8551.78
544.316	8652.12
544.681	8617.32
545.045	8617.77
545.41	8723.3
545.774	8799.23
546.138	8788.38
546.503	8764.88
546.867	8744.54
547.231	8944.09
547.595	8901.15
547.959	8985.67
548.324	8898.66
548.688	8961.94
549.052	9019.79
549.416	9036.97
549.779	9050.75
550.143	9067.25
550.507	9186.34
550.871	9256.17
551.235	9179.56
551.599	9283.74
551.962	9330.52
552.326	9311.99
552.689	9354.47
553.053	9314.47
553.417	9392.89
553.78	9508.59
554.143	9528.93
554.507	9504.75
554.87	9524.64
555.234	9598.53
555.597	9535.71
555.96	9609.83
556.323	9636.05
556.686	9614.8
557.05	9767.57
557.413	9748.81
557.776	9774.8
558.139	9831.52
558.502	9902.71
558.865	9875.59
559.228	9918.98
559.59	10036.94
559.953	9969.14
560.316	10105.41
560.679	10055.47
561.041	10082.59
561.404	10129.37
561.767	10200.33
562.129	10182.92
562.492	10318.51
562.854	10309.47
563.217	10365.29
563.579	10356.48
563.941	10393.09
564.304	10453.43
564.666	10479.19
565.028	10519.41
565.39	10604.16
565.753	10669.47
566.115	10668.79
566.477	10727.54
566.839	10748.56
567.201	10787.65
567.563	10800.54
567.925	10919.85
568.287	10914.2
568.648	10912.62
569.01	10964.15
569.372	11139.51
569.734	10996.91
570.095	11146.74
570.457	11183.58
570.819	11232.84
571.18	11286.17
571.542	11268.77
571.903	11319.39
572.265	11408.88
572.626	11478.71
572.987	11491.36
573.349	11580.4
573.71	11659.72
574.071	11624.69
574.432	11802.09
574.794	11869.43
575.155	11845.03
575.516	11860.62
575.877	11919.15
576.238	12036.21
576.599	12094.96
576.96	12158.69
577.32	12249.31
577.681	12350.1
578.042	12438.01
578.403	12572.01
578.763	12582.64
579.124	12638.45
579.485	12893.81
579.845	12960.7
580.206	13012.23
580.566	13095.84
580.927	13198.44
581.287	13399.11
581.648	13478.2
582.008	13727.46
582.368	13793.68
582.728	13915.03
583.089	14034.57
583.449	14171.07
583.809	14273.44
584.169	14528.8
584.529	14599.98
584.889	14981.22
585.249	15050.59
585.609	15170.82
585.969	15435.44
586.329	15648.77
586.688	15940.51
587.048	16030.91
587.408	16239.94
587.768	16584.56
588.127	16847.38
588.487	17004.67
588.846	17433.58
589.206	17472.9
589.565	17810.97
589.925	18180.45
590.284	18427
590.643	18700.67
591.003	19065.4
591.362	19394.66
591.721	19555.56
592.08	19829.68
592.44	20248.87
592.799	20451.35
593.158	20733.61
593.517	21069.19
593.876	21369.75
594.235	21669.18
594.593	22064.42
594.952	22378.31
595.311	22657.85
595.67	22996.82
596.029	23485.17
596.387	23846.97
596.746	24116.12
597.104	24433.62
597.463	24761.3
597.822	25180.95
598.18	25353.82
598.538	25615.74
598.897	26255.5
599.255	26421.37
599.613	27100.9
599.972	27162.14
600.33	27598.29
600.688	27755.12
601.046	28250.92
601.404	28531.14
601.762	28856.11
602.12	29358.69
602.478	29712.58
602.836	29880.94
603.194	30165.22
603.552	30601.6
603.91	30786.45
604.268	31195.93
604.625	31505.3
604.983	31921.11
605.341	32047.43
605.698	32599.74
606.056	32889.9
606.413	32954.3
606.771	33375.08
607.128	33693.49
607.485	33758.12
607.843	34108.4
608.2	34486.69
608.557	34867.02
608.914	35071.08
609.272	35374.35
609.629	35748.58
609.986	36033.32
610.343	36182.92
610.7	36617.94
611.057	36766.63
611.414	36913.29
611.771	37129.11
612.127	37710.79
612.484	37784.01
612.841	37970.22
613.198	38086.15
613.554	38438
613.911	38672.12
614.267	38836.63
614.624	38988.49
614.98	39274.36
615.337	39569.72
615.693	39743.73
616.05	39980.33
616.406	40218.74
616.762	40255.58
617.118	40492.86
617.475	40600.66
617.831	40828.22
618.187	41172.62
618.543	41282.22
618.899	41564.25
619.255	41515.66
619.611	41730.8
619.967	41934.63
620.323	42080.39
620.678	42190.9
621.034	42137.34
621.39	42409.2
621.746	42413.72
622.101	42992.46
622.457	42669.98
622.812	43034.49
623.168	43110.19
623.523	43181.6
623.879	43504.76
624.234	43227.71
624.589	43403.75
624.945	43587.47
625.3	43747.01
625.655	43761.48
626.01	43766
626.365	43894.81
626.72	43937.07
627.075	43990.17
627.43	44109.72
627.785	44091.64
628.14	44342.03
628.495	44325.53
628.85	44378.64
629.205	44329.37
629.559	44631.51
629.914	44595.8
630.269	44497.28
630.623	44458.63
630.978	44612.75
631.332	44854.33
631.687	44808
632.041	44782.92
632.396	44860.43
632.75	44634.67
633.104	44894.55
633.459	44756.03
633.813	44801
634.167	44845.29
634.521	44815.23
634.875	44858.85
635.229	44926.42
635.583	44821.34
635.937	44761.9
636.291	44698.17
636.645	44812.75
636.999	44877.38
637.352	45039.18
637.706	44817.49
638.06	44972.97
638.413	44831.05
638.767	44828.34
639.121	44829.47
639.474	44787.44
639.828	44770.49
640.181	44866.76
640.534	44776.82
640.888	44640.55
641.241	44653.66
641.594	44725.52
641.947	44852.97
642.301	44676.71
642.654	44721.45
643.007	44690.04
643.36	44804.84
643.713	44487.56
644.066	44804.61
644.419	44390.61
644.771	44248.92
645.124	43982.26
645.477	43836.73
645.83	43621.14
646.182	43547.47
646.535	43370.98
646.888	43613.01
647.24	43368.94
647.593	43611.42
647.945	43499.56
648.298	43263.18
648.65	43153.36
649.002	43120.36
649.355	43301.15
649.707	43205.56
650.059	43500.69
650.411	43972.09
650.763	43929.38
651.115	44397.62
651.467	44310.39
651.819	44252.09
652.171	44112.43
652.523	44149.71
652.875	44290.05
653.227	44050.96
653.578	44293.89
653.93	44148.81
654.282	43954.24
654.633	43991.53
654.985	44043.05
655.337	44023.62
655.688	44113.11
656.039	44060.68
656.391	43727.81
656.742	43944.52
657.094	43855.03
657.445	44045.54
657.796	43888.25
658.147	43871.53
658.498	43878.31
658.849	43782.49
659.2	43751.31
659.551	43817.97
659.902	43827.92
660.253	43676.28
660.604	43949.49
660.955	43747.01
661.306	43901.13
661.656	43723.74
662.007	43761.93
662.358	43646.68
662.708	43667.92
663.059	43802.38
663.409	43577.53
663.76	43774.13
664.11	43739.1
664.461	43785.43
664.811	43777.3
665.161	43665.21
665.511	43837.63
665.862	43724.64
666.212	43755.15
666.562	43805.77
666.912	43800.35
667.262	43617.07
667.612	43763.51
667.962	43775.94
668.312	43638.99
668.662	43650.74
669.011	43667.69
669.361	43580.01
669.711	43568.94
670.06	43617.75
670.41	43492.33
670.76	43502.27
671.109	43685.55
671.459	43611.88
671.808	43502.05
672.157	43640.8
672.507	43363.29
672.856	43370.75
673.205	43470.64
673.554	43403.75
673.904	43285.1
674.253	43541.14
674.602	43122.17
674.951	42712.24
675.3	42619.13
675.649	43188.38
675.998	43192.23
676.346	43202.62
676.695	43357.65
677.044	43011.89
677.393	43175.73
677.741	43137.99
678.09	43048.73
678.438	42985.68
678.787	42936.64
679.135	43020.48
679.484	42803.99
679.832	42895.51
680.181	42737.32
680.529	42921.95
680.877	42862.74
681.225	42808.51
681.573	42988.84
681.922	42646.93
682.27	42394.28
682.618	42554.5
682.966	42498.68
683.314	42519.25
683.661	42281.29
684.009	42293.49
684.357	42222.76
684.705	42154.29
685.053	42138.24
685.4	41990.22
685.748	41893.73
686.095	41963.78
686.443	41691.25
686.79	41759.5
687.138	41852.83
687.485	41677.46
687.832	41581.87
688.18	41601.08
688.527	41136.69
688.874	41482.89
689.221	41286.06
689.568	41212.62
689.915	41083.35
690.262	41110.7
690.609	40869.35
690.956	40846.98
691.303	40803.14
691.65	40626.19
691.997	40712.07
692.344	40259.2
692.69	40429.36
693.037	40451.96
693.383	40126.09
693.73	40215.81
694.077	39927.23
694.423	39987.11
694.769	39830.96
695.116	39858.08
695.462	39848.81
695.808	39639.1
696.155	39702.15
696.501	39489.5
696.847	39350.29
697.193	39107.14
697.539	39304.64
697.885	38990.53
698.231	38898.1
698.577	38936.29
698.923	38756.64
699.269	38642.97
699.614	38602.52
699.96	38348.96
700.306	38400.94
700.651	38369.3
700.997	38256.76
701.342	38165.01
701.688	38150.32
702.033	37972.93
702.379	37844.12
702.724	37825.36
703.069	37855.19
703.415	37445.03
703.76	37530.23
704.105	37529.32
704.45	37471.02
704.795	37154.87
705.14	37064.25
705.485	37161.42
705.83	36866.52
706.175	37026.74
706.52	36854.31
706.865	36657.26
707.209	36763.47
707.554	36495.23
707.899	36747.65
708.243	36455.91
708.588	36416.13
708.932	36168.46
709.277	36047.1
709.621	36156.25
709.966	36026.09
710.31	36119.64
710.654	35704.06
710.998	35786.09
711.342	35658.19
711.687	35726.43
712.031	35514.69
712.375	35350.17
712.719	35473.78
713.063	35314.69
713.407	35498.19
713.75	35307.91
714.094	35328.03
714.438	35114.02
714.782	35058.65
715.125	34892.78
715.469	34989.73
715.812	34870.18
716.156	34637.65
716.499	34665.9
716.843	34682.62
717.186	34586.12
717.53	34662.96
717.873	34636.07
718.216	34439.91
718.559	34335.74
718.902	34097.1
719.246	34330.99
719.589	34162.86
719.932	33973.94
720.275	34065.46
720.617	34091.9
720.96	33854.62
721.303	34048.29
721.646	34022.3
721.989	33647.39
722.331	33705.02
722.674	33594.51
723.016	33608.98
723.359	33574.63
723.701	33593.83
724.044	33376.44
724.386	33224.8
724.729	33360.85
725.071	33329.89
725.413	33292.15
725.755	33357.91
726.097	33092.83
726.439	32997.24
726.782	33011.93
727.124	33082.21
727.465	32941.65
727.807	32883.8
728.149	32825.27
728.491	32758.83
728.833	32819.39
729.175	32602
729.516	32567.87
729.858	32560.64
730.199	32412.85
730.541	32544.6
730.882	32439.06
731.224	32482.9
731.565	32252.4
731.906	32222.8
732.248	32255.11
732.589	32050.6
732.93	32056.93
733.271	32053.08
733.612	31992.97
733.953	31998.4
734.294	31930.15
734.635	31823.94
734.976	31887.44
735.317	31676.14
735.658	31694.68
735.999	31718.18
736.339	31572.64
736.68	31711.62
737.021	31554.57
737.361	31397.73
737.702	31620.55
738.042	31451.52
738.383	31490.61
738.723	31509.14
739.063	31329.94
739.404	31334.46
739.744	31282.71
740.084	31138.76
740.424	31157.06
740.764	31237.06
741.104	31201.13
741.444	30967.01
741.784	30837.07
742.124	31121.36
742.464	30898.76
742.804	30828.48
743.143	30711.88
743.483	30837.75
743.823	30618.32
744.162	30651.54
744.502	30646.79
744.841	30509.85
745.181	30646.57
745.52	30506.68
745.86	30558.89
746.199	30501.03
746.538	30461.49
746.877	30372.68
747.216	30379.68
747.556	30339.46
747.895	30347.37
748.234	30142.4
748.573	30078.67
748.911	30121.84
749.25	30095.85
749.589	29871.45
749.928	29993.25
750.267	29923.65
750.605	29932.24
750.944	29959.35
751.283	29741.96
751.621	29896.76
751.96	29706.03
752.298	29572.92
752.636	29617.22
752.975	29405.24
753.313	29403.66
753.651	29588.29
753.989	29339.26
754.327	29336.09
754.666	29197.11
755.004	29206.83
755.342	29132.71
755.679	29115.99
756.017	28890
756.355	28976.33
756.693	28815.88
757.031	28876.67
757.368	28706.73
757.706	28754.41
758.044	28673.74
758.381	28646.39
758.719	28545.15
759.056	28505.15
759.394	28342.45
759.731	28270.36
760.068	28237.14
760.405	28082.57
760.743	28034.66
761.08	28030.82
761.417	27870.82
761.754	27896.36
762.091	27847.54
762.428	27725.29
762.765	27533.65
763.102	27582.24
763.438	27495.69
763.775	27296.82
764.112	27336.6
764.449	27368.01
764.785	27162.82
765.122	27038.75
765.458	26917.63
765.795	27008.7
766.131	26945.65
766.467	26748.59
766.804	26740.68
767.14	26605.77
767.476	26542.49
767.812	26326.91
768.148	26417.53
768.485	26296.4
768.821	26135.05
769.157	26088.72
769.492	25983.64
769.828	26039.91
770.164	25801.5
770.5	25775.51
770.836	25785.45
771.171	25466.82
771.507	25494.16
771.842	25316.54
772.178	25342.75
772.513	25392.69
772.849	25192.7
773.184	25020.27
773.519	25093.04
773.855	25005.81
774.19	24822.31
774.525	24711.58
774.86	24702.99
775.195	24671.58
775.53	24559.5
775.865	24462.32
776.2	24258.49
776.535	24062.33
776.87	24179.17
777.205	24140.52
777.539	23915.9
777.874	23912.73
778.209	23691.04
778.543	23674.55
778.878	23529.47
779.212	23570.14
779.547	23380.32
779.881	23528.56
780.215	23277.5
780.55	23322.01
780.884	23152.3
781.218	23089.7
781.552	23013.55
781.886	22934
782.22	22888.8
782.554	22768.81
782.888	22521.13
783.222	22523.84
783.556	22373.11
783.889	22370.85
784.223	22113.46
784.557	22239.78
784.89	22251.53
785.224	21979.68
785.557	21941.26
785.891	21842.96
786.224	21851.09
786.558	21896.51
786.891	21559.12
787.224	21641.38
787.557	21448.16
787.891	21475.96
788.224	21446.36
788.557	21298.56
788.89	21253.37
789.223	21275.74
789.556	21043.66
789.888	20972.25
790.221	21090.21
790.554	20761.18
790.887	20824.9
791.219	20734.96
791.552	20662.42
791.884	20544.46
792.217	20450.9
792.549	20423.79
792.882	20385.59
793.214	20205.03
793.546	20310.12
793.879	20078.94
794.211	20115.54
794.543	20123.68
794.875	19986.73
795.207	19921.65
795.539	19849.11
795.871	19885.95
796.203	19727.53
796.535	19656.12
796.867	19648.21
797.198	19540.64
797.53	19549.01
797.862	19358.05
798.193	19381.55
798.525	19233.76
798.856	19297.71
799.188	19054.56
799.519	19120.09
799.85	18968.91
800.182	18906.31
800.513	18967.1
800.844	18730.04
801.175	18843.49
801.506	18796.71
801.837	18694.34
802.168	18562.59
802.499	18563.95
802.83	18529.82
803.161	18390.39
803.491	18358.98
803.822	18382.71
804.153	18382.26
804.483	18293.9
804.814	17993.11
805.145	18150.85
805.475	18082.6
805.805	18035.83
806.136	17958.09
806.466	17868.6
806.796	17852.33
807.126	17777.75
807.457	17701.14
807.787	17721.71
808.117	17571.2
808.447	17613.92
808.777	17696.17
809.107	17514.93
809.436	17436.97
809.766	17477.42
810.096	17453.92
810.426	17288.05
810.755	17319.91
811.085	17188.39
811.414	17161.5
811.744	17080.14
812.073	17048.05
812.403	17058.45
812.732	17022.52
813.061	16954.27
813.39	16836.76
813.719	16956.98
814.049	16897.1
814.378	16828.85
814.707	16763.54
815.036	16756.99
815.365	16547.73
815.693	16454.62
816.022	16494.17
816.351	16410.56
816.68	16410.11
817.008	16404.46
817.337	16308.19
817.665	16261.41
817.994	16196.33
818.322	16240.62
818.651	16234.97
818.979	16042.21
819.307	16259.6
819.636	16185.25
819.964	16021.87
820.292	16078.81
820.62	16061.64
820.948	15974.18
821.276	16023.22
821.604	15945.94
821.932	15942.55
822.259	16032.94
822.587	15946.16
822.915	15851.48
823.243	15968.99
823.57	15891.25
823.898	15977.12
824.225	15902.55
824.553	15865.49
824.88	15987.29
825.207	15921.98
825.535	15762.89
825.862	15939.16
826.189	15844.02
826.516	15929.44
826.843	15885.6
827.17	15886.5
827.497	15999.04
827.824	15902.1
828.151	15931.93
828.478	15833.62
828.805	15841.31
829.131	15938.48
829.458	15784.58
829.785	15725.83
830.111	15849.22
830.438	15824.81
830.764	15850.57
831.09	15839.5
831.417	15803.34
831.743	15858.48
832.069	15780.97
832.395	15738.26
832.722	15754.53
833.048	15732.61
833.374	15729.9
833.7	15696.9
834.026	15752.5
834.351	15681.31
834.677	15701.2
835.003	15639.05
835.329	15694.64
835.654	15645.61
835.98	15565.83
836.306	15531.03
836.631	15609.22
836.956	15649.45
837.282	15632.72
837.607	15524.03
837.932	15355.9
838.258	15504.82
838.583	15384.14
838.908	15372.39
839.233	15422.11
839.558	15461.2
839.883	15207.2
840.208	15296.24
840.533	15252.62
840.858	15216.46
841.182	15220.76
841.507	15251.72
841.832	15130.14
842.156	14994.78
842.481	15103.47
842.805	15015.11
843.13	15027.32
843.454	15025.51
843.778	14898.28
844.103	14852.41
844.427	14822.12
844.751	14902.8
845.075	14834.55
845.399	14738.06
845.723	14630.27
846.047	14744.16
846.371	14512.98
846.695	14626.65
847.019	14478.86
847.343	14398.41
847.666	14268.24
847.99	14241.12
848.313	14272.99
848.637	14114.8
848.96	14109.37
849.284	14092.2
849.607	13974.69
849.931	13901.24
850.254	13896.05
850.577	13724.53
850.9	13692.44
851.223	13695.37
851.546	13579.67
851.869	13566.11
852.192	13588.03
852.515	13481.14
852.838	13392.56
853.161	13437.75
853.483	13331.99
853.806	13325.21
854.129	13305.78
854.451	13232.34
854.774	13152.11
855.096	13067.14
855.419	13040.7
855.741	13027.14
856.063	12993.7
856.385	12928.39
856.708	12951.89
857.03	12884.32
857.352	12842.52
857.674	12813.36
857.996	12771.56
858.318	12697.89
858.64	12801.16
858.961	12727.49
859.283	12633.48
859.605	12588.51
859.926	12535.18
860.248	12529.08
860.57	12456.08
860.891	12511.22
861.212	12446.59
861.534	12422.41
861.855	12438.01
862.176	12397.78
862.498	12342.19
862.819	12423.32
863.14	12288.63
863.461	12228.97
863.782	12163.89
864.103	12169.99
864.424	12172.25
864.745	12195.98
865.065	12093.83
865.386	12135.64
865.707	12040.73
866.027	12063.55
866.348	12028.75
866.668	11989.88
866.989	12031.46
867.309	11824.69
867.63	11935.42
867.95	12042.54
868.27	11820.85
868.59	11884.12
868.91	11904.69
869.23	11811.13
869.55	11819.49
869.87	11841.19
870.19	11794.18
870.51	11849.77
870.83	11800.28
871.15	11692.49
871.469	11673.51
871.789	11712.6
872.109	11679.38
872.428	11565.26
872.748	11674.41
873.067	11586.05
873.386	11640.51
873.706	11648.65
874.025	11552.15
874.344	11506.73
874.663	11541.53
874.982	11546.96
875.301	11485.04
875.62	11413.17
875.939	11396.68
876.258	11398.71
876.577	11460.86
876.896	11394.64
877.214	11312.39
877.533	11357.81
877.852	11236.46
878.17	11292.27
878.489	11309.45
878.807	11300.41
879.125	11212.73
879.444	11247.3
879.762	11247.76
880.08	11154.65
880.398	11098.61
880.716	11108.32
881.034	11050.02
881.352	11139.96
881.67	11066.74
881.988	11086.86
882.306	10955.56
882.624	10994.88
882.941	10919.63
883.259	10984.03
883.577	10953.07
883.894	10892.51
884.212	10835.34
884.529	10871.95
884.846	10821.78
885.164	10822.46
885.481	10819.52
885.798	10804.38
886.115	10666.75
886.432	10650.71
886.75	10627.21
887.067	10731.61
887.383	10615.23
887.7	10628.11
888.017	10519.64
888.334	10518.73
888.651	10523.48
888.967	10506.98
889.284	10435.8
889.6	10464.72
889.917	10339.08
890.233	10356.25
890.55	10285.52
890.866	10272.64
891.182	10306.08
891.498	10199.65
891.815	10207.78
892.131	10212.75
892.447	10130.27
892.763	10095.24
893.079	10174.34
893.395	10051.85
893.71	10024.06
894.026	9962.37
894.342	10048.69
894.657	9933.67
894.973	9919.65
895.289	9881.01
895.604	9864.29
895.92	9837.85
896.235	9727.8
896.55	9768.7
896.865	9787
897.181	9780.45
897.496	9706.55
897.811	9621.36
898.126	9648.48
898.441	9599.66
898.756	9596.27
899.071	9537.07
899.386	9496.84
899.7	9470.85
900.015	9419.33
900.33	9341.36
900.644	9317.41
900.959	9350.63
901.273	9275.6
901.588	9253.01
901.902	9194.93
902.216	9103.86
902.531	9151.54
902.845	9112.44
903.159	9074.93
903.473	9058.43
903.787	8993.35
904.101	8973.46
904.415	8963.07
904.729	9002.84
905.042	8877.87
905.356	8885.33
905.67	8795.84
905.984	8773.24
906.297	8807.14
906.611	8724.88
906.924	8686.47
907.237	8668.61
907.551	8552.23
907.864	8556.53
908.177	8551.33
908.491	8557.2
908.804	8487.15
909.117	8470.2
909.43	8464.1
909.743	8345.68
910.056	8335.06
910.368	8339.58
910.681	8286.93
910.994	8258.46
911.307	8225.69
911.619	8148.85
911.932	8154.05
912.244	8023.66
912.557	8079.7
912.869	7998.57
913.181	7996.09
913.494	7978.01
913.806	7967.62
914.118	7894.62
914.43	7866.38
914.742	7866.6
915.054	7796.55
915.366	7761.52
915.678	7743.21
915.99	7700.28
916.302	7671.13
916.613	7644.46
916.925	7634.06
917.236	7563.78
917.548	7542.77
917.859	7573.73
918.171	7513.84
918.482	7441.75
918.794	7402.66
919.105	7400.85
919.416	7333.96
919.727	7361.98
920.038	7353.39
920.349	7288.31
920.66	7217.58
920.971	7181.87
921.282	7192.04
921.593	7157.92
921.903	7091.25
922.214	7107.07
922.525	7074.53
922.835	6999.51
923.146	6985.04
923.456	7029.56
923.767	6921.54
924.077	6975.78
924.387	6910.92
924.697	6912.05
925.008	6836.57
925.318	6842
925.628	6792.28
925.938	6711.6
926.248	6679.74
926.558	6677.71
926.867	6639.74
927.177	6581.44
927.487	6592.96
927.796	6543.7
928.106	6487.43
928.416	6472.97
928.725	6537.82
929.034	6482
929.344	6429.8
929.653	6401.55
929.962	6339.18
930.271	6336.25
930.581	6274.33
930.89	6313.65
931.199	6260.77
931.508	6233.42
931.817	6275
932.125	6258.51
932.434	6184.61
932.743	6110.26
933.051	6090.15
933.36	6011.73
933.669	6074.78
933.977	5999.08
934.286	6050.6
934.594	5980.55
934.902	5935.58
935.21	5947.1
935.519	5946.88
935.827	5854.68
936.135	5821.46
936.443	5839.99
936.751	5745.75
937.059	5763.83
937.367	5765.87
937.674	5715.25
937.982	5665.3
938.29	5708.47
938.597	5622.59
938.905	5625.98
939.213	5611.52
939.52	5589.6
939.827	5554.8
940.135	5572.42
940.442	5468.47
940.749	5491.97
941.056	5455.14
941.363	5379.43
941.67	5410.62
941.977	5396.38
942.284	5341.92
942.591	5339.44
942.898	5318.65
943.205	5342.37
943.511	5237.29
943.818	5267.35
944.125	5193.9
944.431	5223.51
944.738	5194.35
945.044	5186.67
945.35	5103.96
945.657	5038.43
945.963	5091.08
946.269	5044.75
946.575	5091.98
946.881	4972.21
947.187	5051.99
947.493	4952.55
947.799	4996.62
948.105	4946.68
948.41	4936.28
948.716	4919.11
949.022	4852.67
949.327	4879.56
949.633	4821.03
949.938	4807.92
950.244	4821.48
950.549	4805.89
950.854	4739.9
951.16	4742.16
951.465	4710.98
951.77	4660.13
952.075	4650.41
952.38	4617.65
952.685	4636.86
952.99	4619
953.294	4564.54
953.599	4554.37
953.904	4534.94
954.209	4531.1
954.513	4519.57
954.818	4517.76
955.122	4488.84
955.426	4436.63
955.731	4416.07
956.035	4382.4
956.339	4411.1
956.643	4425.56
956.948	4354.38
957.252	4269.86
957.556	4307.82
957.86	4294.72
958.163	4298.11
958.467	4268.96
958.771	4234.83
959.075	4198
959.378	4205.23
959.682	4190.77
959.985	4170.88
960.289	4155.51
960.592	4134.5
960.896	4146.7
961.199	4109.19
961.502	4101.95
961.805	4050.66
962.108	4046.59
962.411	4019.7
962.714	4008.17
963.017	3969.75
963.32	3968.17
963.623	3934.73
963.926	3924.11
964.228	3897.89
964.531	3905.8
964.833	3867.16
965.136	3884.56
965.438	3811.11
965.741	3842.75
966.043	3837.55
966.345	3785.35
966.648	3792.81
966.95	3732.7
967.252	3699.93
967.554	3759.59
967.856	3710.78
968.158	3709.65
968.46	3701.29
968.761	3649.31
969.063	3645.47
969.365	3635.98
969.666	3625.58
969.968	3607.96
970.269	3609.54
970.571	3530.22
970.872	3544
971.174	3538.81
971.475	3522.53
971.776	3496.55
972.077	3461.75
972.378	3474.17
972.679	3446.6
972.98	3431.24
973.281	3435.08
973.582	3427.62
973.883	3383.78
974.183	3367.28
974.484	3369.54
974.785	3346.04
975.085	3329.09
975.386	3342.65
975.686	3327.74
975.986	3315.76
976.287	3306.72
976.587	3259.94
976.887	3253.39
977.187	3271.24
977.487	3232.6
977.787	3223.11
978.087	3202.09
978.387	3183.11
978.687	3212.26
978.987	3132.04
979.286	3119.16
979.586	3158.02
979.885	3136.78
980.185	3085.03
980.484	3057.46
980.784	3077.35
981.083	3017.46
981.382	3076.22
981.682	3030.57
981.981	2987.18
982.28	2976.79
982.579	2999.84
982.878	2963.23
983.177	2995.09
983.475	2940.85
983.774	2941.53
984.073	2908.99
984.372	2901.99
984.67	2922.78
984.969	2903.57
985.267	2848.2
985.566	2882.1
985.864	2857.92
986.162	2851.37
986.461	2817.69
986.759	2806.4
987.057	2769.79
987.355	2786.51
987.653	2795.55
987.951	2776.57
988.249	2761.65
988.547	2732.95
988.844	2705.38
989.142	2713.06
989.44	2703.57
989.737	2701.54
990.035	2693.4
990.332	2668.77
990.63	2614.76
990.927	2640.3
991.224	2596.23
991.521	2610.02
991.819	2586.97
992.116	2582.45
992.413	2580.64
992.71	2561.2
993.006	2560.98
993.303	2587.87
993.6	2520.3
993.897	2476.69
994.193	2492.96
994.49	2451.83
994.787	2457.25
995.083	2433.52
995.379	2462
995.676	2448.89
995.972	2431.04
996.268	2403.69
996.565	2415.44
996.861	2384.49
997.157	2351.94
997.453	2370.7
997.749	2374.77
998.044	2342.23
998.34	2322.57
998.636	2329.12
998.932	2304.94
999.227	2261.1
999.523	2300.19
999.818	2308.56
1000.114	2283.92
1000.409	2269.01
1000.704	2266.07
1001	2241.89
1001.295	2207.31
1001.59	2213.42
1001.885	2189.46
1002.18	2187.65
1002.475	2217.94
1002.77	2154.89
1003.065	2131.84
1003.359	2129.58
1003.654	2144.27
1003.949	2135.9
1004.243	2111.27
1004.538	2108.56
1004.832	2087.77
1005.127	2052.74
1005.421	2044.38
1005.715	2069.01
1006.009	2059.97
1006.304	2032.86
1006.598	2038.05
1006.892	2031.95
1007.186	1999.86
1007.48	1958.73
1007.773	1966.64
1008.067	1908.34
1008.361	1909.47
1008.655	1935.46
1008.948	1920.32
1009.242	1897.49
1009.535	1870.83
1009.829	1904.27
1010.122	1896.14
1010.415	1883.26
1010.708	1883.03
1011.001	1839.87
1011.295	1838.74
1011.588	1804.84
1011.881	1795.57
1012.173	1798.96
1012.466	1807.33
1012.759	1791.28
1013.052	1761.9
1013.344	1765.74
1013.637	1739.53
1013.93	1759.19
1014.222	1736.59
1014.514	1756.03
1014.807	1707.89
1015.099	1683.49
1015.391	1685.07
1015.683	1686.42
1015.976	1677.16
1016.268	1655.24
1016.56	1656.37
1016.851	1637.16
1017.143	1660.44
1017.435	1641.68
1017.727	1625.41
1018.018	1578.63
1018.31	1600.78
1018.602	1588.12
1018.893	1547.67
1019.185	1568.91
1019.476	1539.76
1019.767	1532.98
1020.058	1568.91
1020.35	1535.69
1020.641	1519.2
1020.932	1514.68
1021.223	1489.37
1021.514	1487.11
1021.804	1464.74
1022.095	1474
1022.386	1455.7
1022.677	1438.97
1022.967	1439.2
1023.258	1436.04
1023.548	1441.46
1023.839	1415.25
1024.129	1387
1024.419	1380.22
1024.709	1384.96
1025	1360.56
1025.29	1361.46
1025.58	1362.37
1025.87	1355.81
1026.16	1348.81
1026.449	1329.6
1026.739	1340.44
1027.029	1304.97
1027.319	1291.18
1027.608	1307.68
1027.898	1289.82
1028.187	1272.88
1028.477	1262.25
1028.766	1271.97
1029.055	1244.63
1029.344	1217.96
1029.634	1226.32
1029.923	1240.33
1030.212	1243.72
1030.501	1215.93
1030.79	1215.48
1031.078	1205.31
1031.367	1184.74
1031.656	1157.62
1031.945	1151.52
1032.233	1158.53
1032.522	1188.13
1032.81	1128.7
1033.099	1134.8
1033.387	1114.01
1033.675	1128.02
1033.963	1129.15
1034.251	1094.35
1034.54	1105.2
1034.828	1093.9
1035.116	1092.09
1035.403	1095.71
1035.691	1082.37
1035.979	1048.48
1036.267	1050.51
1036.554	1056.61
1036.842	1066.1
1037.129	1015.93
1037.417	1068.36
1037.704	1018.65
1037.992	1028.14
1038.279	1038.98
1038.566	1006.89
1038.853	1006.89
1039.14	1006.89
