Data from hue_280_FLMS001491_00033.txt Node
Date: Tue Feb 07 15:55:11 GMT 2017
User: dcchb
Spectrometer: FLMS00149
Trigger mode: 0
Integration Time (sec): 2.000000E-2
Scans to average: 10
Electric dark correction enabled: true
Nonlinearity correction enabled: false
Boxcar width: 0
XAxis mode: Wavelengths
Number of Pixels in Spectrum: 2048
>>>>>Begin Spectral Data<<<<<
341.393	-22.84
341.776	-22.84
342.16	-22.84
342.543	-41.37
342.927	-57.41
343.31	-59.45
343.693	-57.64
344.077	-67.58
344.46	-66.23
344.843	-75.04
345.226	-49.96
345.61	-27.58
345.993	-20.13
346.376	-9.96
346.759	16.71
347.142	12.64
347.525	69.14
347.908	39.53
348.291	91.51
348.674	95.58
349.057	108.46
349.44	142.81
349.823	125.86
350.206	145.07
350.588	183.94
350.971	204.27
351.354	247.21
351.737	223.71
352.119	216.93
352.502	251.5
352.884	270.71
353.267	272.75
353.65	265.29
354.032	288.11
354.414	308.9
354.797	297.61
355.179	285.63
355.562	308.45
355.944	311.39
356.326	301.22
356.709	329.24
357.091	326.08
357.473	329.69
357.855	322.46
358.238	328.11
358.62	328.56
359.002	321.79
359.384	362.24
359.766	318.17
360.148	331.28
360.53	323.14
360.912	333.31
361.294	320.43
361.676	322.46
362.057	320.2
362.439	300.32
362.821	313.65
363.203	308
363.584	317.04
363.966	326.76
364.348	322.46
364.729	304.38
365.111	306.87
365.493	307.1
365.874	315.46
366.256	318.62
366.637	293.09
367.019	308
367.4	338.28
367.781	288.57
368.163	311.84
368.544	298.74
368.925	297.61
369.306	322.01
369.688	334.89
370.069	309.36
370.45	308.68
370.831	292.18
371.212	308
371.593	308.68
371.974	312.29
372.355	295.57
372.736	303.25
373.117	305.51
373.498	316.81
373.879	310.49
374.26	292.18
374.641	303.25
375.021	312.29
375.402	308.9
375.783	302.12
376.163	324.05
376.544	329.69
376.925	321.11
377.305	339.41
377.686	344.16
378.066	317.27
378.447	332.63
378.827	299.86
379.208	317.04
379.588	305.06
379.968	311.84
380.349	340.09
380.729	338.28
381.109	333.08
381.489	342.12
381.87	338.51
382.25	316.81
382.63	317.94
383.01	324.5
383.39	336.7
383.77	342.58
384.15	336.93
384.53	338.06
384.91	353.42
385.29	359.3
385.67	343.48
386.049	362.46
386.429	343.25
386.809	347.1
387.189	345.74
387.568	351.84
387.948	340.77
388.328	371.73
388.707	362.01
389.087	358.17
389.466	362.91
389.846	374.44
390.225	353.2
390.605	342.58
390.984	370.82
391.363	381.9
391.743	371.95
392.122	372.18
392.501	370.82
392.881	394.55
393.26	370.6
393.639	374.44
394.018	376.47
394.397	390.94
394.776	398.39
395.155	378.28
395.534	363.82
395.913	402.69
396.292	363.37
396.671	384.38
397.05	375.34
397.429	384.83
397.808	388
398.186	391.61
398.565	410.37
398.944	419.41
399.323	386.42
399.701	417.38
400.08	391.84
400.458	428.45
400.837	417.83
401.215	420.31
401.594	405.17
401.972	409.47
402.351	419.86
402.729	434.32
403.107	429.81
403.486	434.32
403.864	425.29
404.242	435.45
404.62	437.49
404.999	436.36
405.377	424.16
405.755	453.08
406.133	468.67
406.511	462.8
406.889	463.02
407.267	476.13
407.645	470.71
408.023	485.62
408.401	498.5
408.779	471.84
409.156	489.46
409.534	486.75
409.912	491.5
410.29	514.55
410.667	521.1
411.045	523.59
411.422	536.47
411.8	524.27
412.178	540.99
412.555	533.53
412.933	562.68
413.31	583.7
413.687	562.23
414.065	570.59
414.442	578.73
414.819	603.59
415.197	581.67
415.574	601.33
415.951	595
416.328	613.3
416.705	591.38
417.082	604.04
417.46	617.6
417.837	630.48
418.214	623.92
418.591	649.23
418.967	680.19
419.344	657.14
419.721	692.17
420.098	703.7
420.475	686.75
420.852	696.24
421.228	705.5
421.605	709.8
421.982	712.06
422.358	728.78
422.735	770.14
423.111	746.86
423.488	753.64
423.864	754.32
424.241	771.49
424.617	790.47
424.994	801.32
425.37	795.9
425.746	792.06
426.123	804.26
426.499	804.03
426.875	839.74
427.251	868.21
427.627	857.14
428.003	866.86
428.379	870.92
428.756	899.17
429.132	880.87
429.507	928.32
429.883	889
430.259	924.71
430.635	937.59
431.011	952.05
431.387	975.33
431.763	973.52
432.138	984.82
432.514	986.85
432.89	993.63
433.265	1034.08
433.641	1051.26
434.016	1038.38
434.392	1063.69
434.767	1119.96
435.143	1097.58
435.518	1092.16
435.894	1119.28
436.269	1112.72
436.644	1165.6
437.02	1130.35
437.395	1176
437.77	1213.51
438.145	1202.44
438.52	1208.54
438.895	1238.15
439.271	1219.61
439.646	1259.61
440.021	1296.45
440.395	1275.66
440.77	1272.04
441.145	1272.95
441.52	1308.43
441.895	1332.61
442.27	1312.95
442.645	1325.37
443.019	1336
443.394	1348.2
443.769	1371.7
444.143	1358.82
444.518	1383.23
444.892	1344.81
445.267	1376.45
445.641	1393.85
446.016	1397.01
446.39	1429.78
446.764	1411.93
447.139	1430.68
447.513	1456.22
447.887	1442.66
448.262	1439.95
448.636	1460.74
449.01	1459.61
449.384	1474.3
449.758	1443.79
450.132	1486.05
450.506	1516.1
450.88	1523.34
451.254	1526.05
451.628	1498.25
452.002	1517.01
452.376	1555.88
452.75	1552.26
453.123	1530.12
453.497	1599.04
453.871	1615.08
454.244	1634.07
454.618	1609.44
454.992	1639.26
455.365	1639.04
455.739	1663.44
456.112	1704.35
456.486	1696.44
456.859	1710.22
457.232	1728.08
457.606	1723.78
457.979	1758.81
458.352	1768.75
458.725	1759.71
459.099	1772.59
459.472	1829.32
459.845	1838.36
460.218	1875.64
460.591	1864.8
460.964	1868.64
461.337	1895.08
461.71	1927.39
462.083	1950.22
462.456	1947.05
462.829	1943.44
463.201	1958.13
463.574	1971.46
463.947	1995.19
464.32	2048.75
464.692	2034.73
465.065	2071.12
465.438	2100.04
465.81	2130.33
466.183	2114.51
466.555	2155.41
466.928	2144.34
467.3	2153.38
467.672	2194.73
468.045	2253.03
468.417	2248.97
468.789	2252.36
469.161	2291.45
469.534	2331.68
469.906	2365.35
470.278	2373.03
470.65	2357.44
471.022	2406.48
471.394	2431.79
471.766	2462.75
472.138	2430.88
472.51	2480.15
472.882	2535.06
473.253	2603.31
473.625	2570.09
473.997	2665.45
474.369	2653.48
474.74	2649.63
475.112	2665.68
475.484	2702.74
475.855	2736.19
476.227	2756.3
476.598	2846.69
476.97	2861.61
477.341	2918.78
477.713	2909.29
478.084	2931.89
478.455	3036.52
478.827	3061.6
479.198	3084.2
479.569	3096.85
479.94	3181.82
480.311	3190.41
480.682	3267.24
481.053	3282.16
481.424	3306.79
481.795	3322.84
482.166	3394.47
482.537	3422.72
482.908	3496.84
483.279	3523.28
483.65	3538.42
484.021	3609.61
484.391	3627.24
484.762	3648.03
485.133	3702.71
485.503	3705.43
485.874	3773.22
486.244	3803.95
486.615	3888.92
486.985	3903.61
487.356	3924.85
487.726	3958.53
488.097	4017.06
488.467	4042.82
488.837	4092.08
489.207	4121.91
489.578	4168.69
489.948	4229.93
490.318	4244.62
490.688	4261.34
491.058	4300.44
491.428	4336.6
491.798	4405.29
492.168	4467.89
492.538	4441.45
492.908	4506.31
493.278	4516.48
493.648	4574.33
494.017	4583.82
494.387	4625.85
494.757	4655.68
495.126	4699.75
495.496	4698.39
495.866	4721.22
496.235	4761.89
496.605	4788.11
496.974	4835.34
497.344	4853.19
497.713	4851.61
498.082	4902
498.452	4934.77
498.821	4963.02
499.19	4945.39
499.559	5023.36
499.928	4958.27
500.298	5053.64
500.667	5143.35
501.036	5052.28
501.405	5061.32
501.774	5041.21
502.143	5097.03
502.512	5167.76
502.88	5164.14
503.249	5112.39
503.618	5234.88
503.987	5164.6
504.356	5221.77
504.724	5244.82
505.093	5251.15
505.462	5297.93
505.83	5326.17
506.199	5288.66
506.567	5344.7
506.936	5381.31
507.304	5430.8
507.672	5383.35
508.041	5448.2
508.409	5514.64
508.777	5505.6
509.145	5560.52
509.514	5476.45
509.882	5504.02
510.25	5538.82
510.618	5561.2
510.986	5583.12
511.354	5608.88
511.722	5614.08
512.09	5682.1
512.458	5657.24
512.826	5689.33
513.193	5682.77
513.561	5697.24
513.929	5781.98
514.297	5767.52
514.664	5764.58
515.032	5772.49
515.4	5819.72
515.767	5874.41
516.135	5848.42
516.502	5827.4
516.869	5890.68
517.237	5849.1
517.604	5853.62
517.972	5895.2
518.339	5898.59
518.706	5930.9
519.073	5937.91
519.44	6015.19
519.808	5988.08
520.175	6022.43
520.542	6066.27
520.909	6108.53
521.276	6072.82
521.643	6105.81
522.009	6122.76
522.376	6158.24
522.743	6128.19
523.11	6239.82
523.477	6298.8
523.843	6294.06
524.21	6289.54
524.577	6346.94
524.943	6379.03
525.31	6368.41
525.676	6394.85
526.043	6435.07
526.409	6411.79
526.776	6473.49
527.142	6439.82
527.508	6470.32
527.874	6577.67
528.241	6586.93
528.607	6537.22
528.973	6625.12
529.339	6619.25
529.705	6720.94
530.071	6715.52
530.437	6742.86
530.803	6695.63
531.169	6783.54
531.535	6715.29
531.901	6799.81
532.267	6779.92
532.632	6819.92
532.998	6823.31
533.364	6873.25
533.73	6873.03
534.095	6920.03
534.461	6947.15
534.826	6957.54
535.192	6987.6
535.557	6980.82
535.923	6969.52
536.288	7011.1
536.653	7009.97
537.019	7041.16
537.384	7042.29
537.749	7049.97
538.114	7060.14
538.479	7120.02
538.845	7122.96
539.21	7103.3
539.575	7084.09
539.94	7156.18
540.305	7156.86
540.67	7114.6
541.034	7160.93
541.399	7172
541.764	7248.38
542.129	7221.94
542.494	7241.6
542.858	7240.02
543.223	7291.77
543.587	7338.78
543.952	7303.52
544.316	7324.99
544.681	7302.62
545.045	7397.08
545.41	7372
545.774	7324.31
546.138	7410.86
546.503	7399.11
546.867	7408.83
547.231	7454.03
547.595	7500.13
547.959	7491.54
548.324	7431.43
548.688	7517.75
549.052	7503.74
549.416	7538.54
549.779	7515.27
550.143	7527.47
550.507	7586.23
550.871	7628.49
551.235	7560.24
551.599	7683.4
551.962	7559.34
552.326	7623.06
552.689	7648.15
553.053	7629.16
553.417	7587.58
553.78	7746.22
554.143	7678.2
554.507	7689.28
554.87	7692.89
555.234	7786.67
555.597	7666.9
555.96	7825.77
556.323	7787.8
556.686	7836.62
557.05	7856.95
557.413	7876.84
557.776	7874.36
558.139	7899.21
558.502	7957.06
558.865	7882.04
559.228	7981.92
559.59	8028.25
559.953	7954.13
560.316	8078.87
560.679	8057.18
561.041	8068.25
561.404	8164.06
561.767	8173.33
562.129	8093.56
562.492	8205.87
562.854	8232.54
563.217	8157.06
563.579	8283.38
563.941	8263.72
564.304	8236.38
564.666	8323.61
565.028	8367.22
565.39	8332.42
565.753	8447
566.115	8459.65
566.477	8437.96
566.839	8458.52
567.201	8515.02
567.563	8495.36
567.925	8576.71
568.287	8656.26
568.648	8592.75
569.01	8639.53
569.372	8659.87
569.734	8642.47
570.095	8722.02
570.457	8799.53
570.819	8815.57
571.18	8779.64
571.542	8875.91
571.903	8839.53
572.265	8904.84
572.626	8943.03
572.987	8931.73
573.349	8912.97
573.71	8971.05
574.071	8957.72
574.432	9062.57
574.794	9152.06
575.155	9171.04
575.516	9156.81
575.877	9253.3
576.238	9217.14
576.599	9268.67
576.96	9327.2
577.32	9311.83
577.681	9386.86
578.042	9409.68
578.403	9512.5
578.763	9527.87
579.124	9558.38
579.485	9632.27
579.845	9654.42
580.206	9660.3
580.566	9686.74
580.927	9686.96
581.287	9796.34
581.648	9782.33
582.008	9951.59
582.368	9890.35
582.728	9997.69
583.089	10060.29
583.449	10020.29
583.809	10150.23
584.169	10202.66
584.529	10200.62
584.889	10387.74
585.249	10315.87
585.609	10272.48
585.969	10444.23
586.329	10415.08
586.688	10583.66
587.048	10565.58
587.408	10622.08
587.768	10714.28
588.127	10764.22
588.487	10813.49
588.846	10996.76
589.206	10899.59
589.565	10971.22
589.925	11140.26
590.284	11121.05
590.643	11199.47
591.003	11275.4
591.362	11410.53
591.721	11486.92
592.08	11518.33
592.44	11609.62
592.799	11590.87
593.158	11727.81
593.517	11751.99
593.876	11858.66
594.235	11834.02
594.593	11904.98
594.952	12036.05
595.311	12050.74
595.67	12100.46
596.029	12323.5
596.387	12293.22
596.746	12330.51
597.104	12381.81
597.463	12353.56
597.822	12443.73
598.18	12465.19
598.538	12502.26
598.897	12726.43
599.255	12588.36
599.613	12892.75
599.972	12802.59
600.33	12840.55
600.688	12946.09
601.046	12979.31
601.404	13091.17
601.762	13049.36
602.12	13196.93
602.478	13158.74
602.836	13255.46
603.194	13213.88
603.552	13318.28
603.91	13322.12
604.268	13413.64
604.625	13375.45
604.983	13511.5
605.341	13458.39
605.698	13492.74
606.056	13595.33
606.413	13572.06
606.771	13650.93
607.128	13718.72
607.485	13651.6
607.843	13762.56
608.2	13793.52
608.557	13897.02
608.914	13868.55
609.272	13901.32
609.629	13956
609.986	14072.16
610.343	13984.93
610.7	14123.91
611.057	14065.83
611.414	14178.14
611.771	14247.07
612.127	14174.08
612.484	14290.01
612.841	14274.86
613.198	14248.2
613.554	14332.49
613.911	14478.93
614.267	14415.65
614.624	14399.61
614.98	14410
615.337	14455.2
615.693	14524.35
616.05	14482.09
616.406	14593.5
616.762	14513.73
617.118	14528.19
617.475	14546.27
617.831	14644.8
618.187	14655.87
618.543	14665.59
618.899	14707.4
619.255	14783.55
619.611	14745.59
619.967	14799.82
620.323	14856.77
620.678	14845.47
621.034	14858.35
621.39	14779.26
621.746	14724.34
622.101	14932.25
622.457	14784.46
622.812	14851.8
623.168	15000.95
623.523	14867.84
623.879	14927.73
624.234	14858.8
624.589	14958.46
624.945	14968.18
625.3	14944.45
625.655	15017.44
626.01	14979.7
626.365	14989.42
626.72	14983.77
627.075	15011.79
627.43	14973.6
627.785	14901.51
628.14	15010.66
628.495	15036.88
628.85	15002.3
629.205	14983.77
629.559	15037.78
629.914	14897.45
630.269	15072.81
630.623	14961.85
630.978	14938.35
631.332	14991.46
631.687	14964.56
632.041	14882.08
632.396	14965.24
632.75	14912.81
633.104	14899.26
633.459	14840.95
633.813	14870.33
634.167	14812.03
634.521	14804.34
634.875	14822.65
635.229	14774.74
635.583	14801.4
635.937	14750.56
636.291	14720.5
636.645	14827.17
636.999	14747.85
637.352	14680.73
637.706	14730.45
638.06	14771.12
638.413	14660.39
638.767	14685.93
639.121	14756.21
639.474	14609.32
639.828	14600.51
640.181	14646.38
640.534	14620.84
640.888	14570.9
641.241	14539.72
641.594	14591.24
641.947	14654.52
642.301	14568.64
642.654	14536.78
643.007	14544.01
643.36	14625.82
643.713	14587.85
644.066	14547.4
644.419	14527.97
644.771	14401.87
645.124	14261.31
645.477	14298.37
645.83	14187.86
646.182	14137.02
646.535	14146.73
646.888	14193.06
647.24	14033.06
647.593	14155.55
647.945	14083.68
648.298	14117.35
648.65	14040.07
649.002	14022.67
649.355	14119.16
649.707	14113.06
650.059	14133.85
650.411	14258.37
650.763	14352.38
651.115	14483.45
651.467	14386.5
651.819	14359.61
652.171	14406.16
652.523	14337.91
652.875	14433.05
653.227	14374.75
653.578	14475.76
653.93	14424.01
654.282	14430.11
654.633	14368.65
654.985	14306.95
655.337	14369.1
655.688	14411.36
656.039	14431.92
656.391	14407.52
656.742	14415.43
657.094	14364.81
657.445	14375.88
657.796	14395.54
658.147	14410
658.498	14348.31
658.849	14487.06
659.2	14357.8
659.551	14363.45
659.902	14479.15
660.253	14386.27
660.604	14437.8
660.955	14317.12
661.306	14469.21
661.656	14403.67
662.007	14439.61
662.358	14511.69
662.708	14386.95
663.059	14483.22
663.409	14425.14
663.76	14492.49
664.11	14452.04
664.461	14555.99
664.811	14578.81
665.161	14488.64
665.511	14500.4
665.862	14589.43
666.212	14499.04
666.562	14538.59
666.912	14577.91
667.262	14514.63
667.612	14500.17
667.962	14544.24
668.312	14564.8
668.662	14551.69
669.011	14497.46
669.361	14470.79
669.711	14463.33
670.06	14432.6
670.41	14483.22
670.76	14448.65
671.109	14430.57
671.459	14450.45
671.808	14475.09
672.157	14468.08
672.507	14339.5
672.856	14395.09
673.205	14341.76
673.554	14359.61
673.904	14343.56
674.253	14369.55
674.602	14316.22
674.951	14144.92
675.3	14164.59
675.649	14266.96
675.998	14240.52
676.346	14313.28
676.695	14317.12
677.044	14192.16
677.393	14252.49
677.741	14281.42
678.09	14214.08
678.438	14118.71
678.787	14218.14
679.135	14161.65
679.484	14081.2
679.832	14094.98
680.181	14084.36
680.529	14110.8
680.877	14069.45
681.225	14008.43
681.573	14188.99
681.922	13941.54
682.27	13958.94
682.618	13954.65
682.966	13885.04
683.314	13907.87
683.661	13967.3
684.009	13883.46
684.357	13742
684.705	13709
685.053	13818.61
685.4	13773.18
685.748	13748.1
686.095	13629.01
686.443	13683.24
686.79	13600.98
687.138	13655.67
687.485	13622.9
687.832	13418.84
688.18	13541.1
688.527	13418.16
688.874	13488.44
689.221	13390.82
689.568	13317.6
689.915	13248.23
690.262	13329.13
690.609	13342.91
690.956	13234.44
691.303	13196.02
691.65	13157.38
691.997	13215.46
692.344	13038.97
692.69	12996.93
693.037	13104.73
693.383	12859.53
693.73	12936.82
694.077	12831.29
694.423	12892.98
694.769	12837.16
695.116	12794.9
695.462	12786.54
695.808	12685.53
696.155	12650.95
696.501	12607.56
696.847	12581.12
697.193	12515.14
697.539	12547.23
697.885	12459.55
698.231	12363.95
698.577	12406.21
698.923	12326.22
699.269	12275.14
699.614	12169.61
699.96	12130.51
700.306	12183.62
700.651	12132.1
700.997	11983.85
701.342	12014.13
701.688	12043.06
702.033	11911.99
702.379	11819.11
702.724	11845.32
703.069	11887.81
703.415	11709.73
703.76	11743.63
704.105	11796.74
704.45	11742.95
704.795	11557.87
705.14	11572.34
705.485	11540.02
705.83	11504.99
706.175	11481.27
706.52	11453.24
706.865	11373.92
707.209	11388.84
707.554	11349.74
707.899	11372.12
708.243	11309.07
708.588	11290.76
708.932	11181.61
709.277	11183.87
709.621	11183.42
709.966	11075.17
710.31	11098.23
710.654	11091.45
710.998	11050.54
711.342	11016.19
711.687	10994.73
712.031	10892.13
712.375	10918.12
712.719	10929.64
713.063	10865.24
713.407	10866.59
713.75	10914.73
714.094	10819.14
714.438	10747.73
714.782	10845.58
715.125	10717.9
715.469	10754.51
715.812	10650.78
716.156	10601.52
716.499	10676.54
716.843	10651.01
717.186	10555.87
717.53	10656.2
717.873	10583.44
718.216	10575.75
718.559	10531.91
718.902	10476.32
719.246	10552.02
719.589	10441.07
719.932	10469.77
720.275	10444.01
720.617	10479.48
720.96	10493.27
721.303	10440.39
721.646	10392.03
721.989	10418.24
722.331	10458.47
722.674	10368.53
723.016	10431.35
723.359	10398.36
723.701	10307.29
724.044	10349.77
724.386	10247.63
724.729	10237.46
725.071	10355.87
725.413	10279.26
725.755	10288.08
726.097	10239.72
726.439	10200.85
726.782	10185.71
727.124	10208.98
727.465	10185.25
727.807	10210.34
728.149	10124.92
728.491	10227.06
728.833	10289.88
729.175	10193.84
729.516	10166.05
729.858	10153.84
730.199	10175.09
730.541	10116.33
730.882	10153.84
731.224	10135.99
731.565	10076.33
731.906	10131.47
732.248	10137.8
732.589	10109.78
732.93	10091.02
733.271	10151.13
733.612	10181.41
733.953	10192.49
734.294	10128.76
734.635	10208.08
734.976	10164.46
735.317	10066.84
735.658	10082.43
735.999	10114.3
736.339	10093.28
736.68	10147.29
737.021	10077.46
737.361	10123.56
737.702	10163.11
738.042	10223.45
738.383	10143
738.723	10120.62
739.063	10139.61
739.404	10216.44
739.744	10198.14
740.084	10151.58
740.424	10219.15
740.764	10190.23
741.104	10270.68
741.444	10215.08
741.784	10221.41
742.124	10262.31
742.464	10257.34
742.804	10226.61
743.143	10291.24
743.483	10282.2
743.823	10314.52
744.162	10381.86
744.502	10393.61
744.841	10340.05
745.181	10478.81
745.52	10466.6
745.86	10538.47
746.199	10600.39
746.538	10613.72
746.877	10640.38
747.216	10670.21
747.556	10723.55
747.895	10835.41
748.234	10805.8
748.573	10836.54
748.911	10923.09
749.25	10997.66
749.589	10997.89
749.928	11112.69
750.267	11269.97
750.605	11216.87
750.944	11302.74
751.283	11381.61
751.621	11516.75
751.96	11506.8
752.298	11586.35
752.636	11680.36
752.975	11755.38
753.313	11784.53
753.651	12025.88
753.989	12078.54
754.327	12154.92
754.666	12187.01
755.004	12332.77
755.342	12478.53
755.679	12622.48
756.017	12677.62
756.355	12794.68
756.693	12958.06
757.031	13023.82
757.368	13124.39
757.706	13361.67
758.044	13443.93
758.381	13602.11
758.719	13687.76
759.056	13876.91
759.394	14004.82
759.731	13990.58
760.068	14220.63
760.405	14398.25
760.743	14407.97
761.08	14652.93
761.417	14814.96
761.754	14956.2
762.091	15107.61
762.428	15127.05
762.765	15249.75
763.102	15405.46
763.438	15597.77
763.775	15636.86
764.112	15897.65
764.449	15974.26
764.785	16121.82
765.122	16174.02
765.458	16294.47
765.795	16485.88
766.131	16586.89
766.467	16569.49
766.804	16733.56
767.14	16821.24
767.476	16963.38
767.812	16956.6
768.148	17122.93
768.485	17198.4
768.821	17348.68
769.157	17451.73
769.492	17510.49
769.828	17593.87
770.164	17564.04
770.5	17712.06
770.836	17729.46
771.171	17714.55
771.507	17903.7
771.842	17816.92
772.178	17980.98
772.513	17959.06
772.849	18054.88
773.184	18016.91
773.519	18323.8
773.855	18266.4
774.19	18277.02
774.525	18248.32
774.86	18284.02
775.195	18375.77
775.53	18217.59
775.865	18350.24
776.2	18276.79
776.535	18297.58
776.87	18404.7
777.205	18340.07
777.539	18310.24
777.874	18404.02
778.209	18258.94
778.543	18363.34
778.878	18272.05
779.212	18416
779.547	18354.98
779.881	18512.72
780.215	18365.38
780.55	18394.76
780.884	18311.37
781.218	18382.78
781.552	18448.54
781.886	18366.96
782.22	18239.96
782.554	18267.75
782.888	18110.7
783.222	18215.78
783.556	18086.29
783.889	18121.54
784.223	18140.3
784.557	18111.15
784.89	18105.72
785.224	17959.97
785.557	17977.59
785.891	17940.53
786.224	17919.97
786.558	17962.68
786.891	17764.26
787.224	17729.01
787.557	17752.29
787.891	17857.14
788.224	17785.96
788.557	17723.14
788.89	17721.55
789.223	17769.91
789.556	17688.56
789.888	17574.21
790.221	17559.3
790.554	17454.22
790.887	17431.62
791.219	17429.58
791.552	17441.34
791.884	17405.18
792.217	17329.25
792.549	17284.96
792.882	17180.78
793.214	17159.08
793.546	17187.56
793.879	17098.75
794.211	17044.96
794.543	17043.83
794.875	16916.38
795.207	17103.49
795.539	16918.86
795.871	16893.33
796.203	16847.45
796.535	16714.35
796.867	16641.13
797.198	16650.4
797.53	16666.67
797.862	16543.51
798.193	16512.77
798.525	16476.39
798.856	16488.37
799.188	16341.48
799.519	16413.11
799.85	16275.72
800.182	16263.29
800.513	16267.35
800.844	16099.22
801.175	16260.58
801.506	16150.75
801.837	16114.82
802.168	16096.51
802.499	16055.83
802.83	15971.77
803.161	16038.43
803.491	15978.1
803.822	15936.97
804.153	15835.5
804.483	15668.27
804.814	15664.43
805.145	15694.94
805.475	15749.85
805.805	15508.28
806.136	15551.67
806.466	15647.48
806.796	15544.89
807.126	15476.87
807.457	15378.11
807.787	15415.4
808.117	15358.9
808.447	15256.08
808.777	15360.49
809.107	15240.49
809.436	15203.2
809.766	15148.06
810.096	15142.86
810.426	15111.68
810.755	15033.26
811.085	15084.34
811.414	15028.74
811.744	14926.83
812.073	14894.06
812.403	14948.29
812.732	14879.82
813.061	14887.96
813.39	14834.4
813.719	14732.03
814.049	14744.46
814.378	14703.1
814.707	14674.4
815.036	14734.29
815.365	14678.47
815.693	14355.31
816.022	14517.8
816.351	14428.53
816.68	14348.99
817.008	14480.96
817.337	14298.82
817.665	14364.58
817.994	14312.83
818.322	14407.52
818.651	14192.83
818.979	14188.77
819.307	14291.59
819.636	14201.65
819.964	14129.33
820.292	14197.35
820.62	14223.34
820.948	14229.67
821.276	14192.83
821.604	14058.6
821.932	14111.48
822.259	14096.11
822.587	14164.36
822.915	14111.71
823.243	14127.07
823.57	14105.38
823.898	14177.24
824.225	14029.67
824.553	14076.45
824.88	14120.97
825.207	14119.84
825.535	14096.11
825.862	14049.79
826.189	14092.5
826.516	14196.45
826.843	14207.3
827.17	14109.22
827.497	14179.27
827.824	14137.92
828.151	14141.53
828.478	14090.01
828.805	14205.04
829.131	14069.9
829.458	14123.91
829.785	14012.72
830.111	14036.9
830.438	14140.86
830.764	14120.52
831.09	14093.63
831.417	14077.13
831.743	14124.36
832.069	14078.94
832.395	14059.05
832.722	14028.77
833.048	13987.19
833.374	14001.2
833.7	13915.55
834.026	13923.46
834.351	13999.62
834.677	14032.61
835.003	13956.91
835.329	14005.27
835.654	13977.25
835.98	13814.54
836.306	13924.37
836.631	13946.29
836.956	13926.17
837.282	13873.52
837.607	13817.7
837.932	13775.67
838.258	13790.13
838.583	13767.76
838.908	13670.81
839.233	13693.86
839.558	13663.81
839.883	13634.66
840.208	13589.23
840.533	13603.7
840.858	13603.92
841.182	13655.22
841.507	13548.33
841.832	13503.36
842.156	13420.65
842.481	13498.61
842.805	13387.43
843.13	13319.86
843.454	13426.07
843.778	13299.3
844.103	13318.96
844.427	13233.31
844.751	13235.57
845.075	13173.42
845.399	13071.05
845.723	13143.37
846.047	13072.18
846.371	13038.74
846.695	12972.3
847.019	12858.86
847.343	12874.45
847.666	12825.41
847.99	12758.52
848.313	12686.66
848.637	12587.9
848.96	12597.85
849.284	12606.66
849.607	12455.25
849.931	12448.25
850.254	12398.76
850.577	12353.33
850.9	12298.87
851.223	12316.95
851.546	12244.86
851.869	12155.6
852.192	12231.53
852.515	12062.49
852.838	11994.7
853.161	12034.02
853.483	11965.55
853.806	11956.06
854.129	11911.09
854.451	11862.05
854.774	11827.47
855.096	11845.1
855.419	11775.27
855.741	11716.51
856.063	11672.22
856.385	11611.88
856.708	11587.25
857.03	11510.64
857.352	11576.63
857.674	11453.02
857.996	11467.48
858.318	11398.1
858.64	11472.68
858.961	11331.21
859.283	11325.79
859.605	11286.24
859.926	11307.26
860.248	11228.62
860.57	11185.91
860.891	11213.48
861.212	11231.33
861.534	11081.73
861.855	11115.4
862.176	11095.74
862.498	11083.99
862.819	11096.87
863.14	10967.16
863.461	11010.54
863.782	10948.4
864.103	10959.92
864.424	10930.77
864.745	10947.04
865.065	10859.59
865.386	10818.23
865.707	10816.65
866.027	10861.85
866.348	10802.41
866.668	10864.11
866.989	10801.51
867.309	10693.04
867.63	10722.87
867.95	10653.49
868.27	10660.04
868.59	10684.68
868.91	10652.81
869.23	10608.52
869.55	10542.99
869.87	10637.9
870.19	10601.52
870.51	10645.36
870.83	10596.54
871.15	10484.68
871.469	10490.78
871.789	10515.42
872.109	10494.63
872.428	10486.04
872.748	10439.26
873.067	10408.75
873.386	10422.76
873.706	10484.23
874.025	10357
874.344	10271.81
874.663	10387.28
874.982	10327.62
875.301	10241.07
875.62	10258.47
875.939	10287.85
876.258	10316.1
876.577	10250.34
876.896	10279.04
877.214	10296.89
877.533	10203.33
877.852	10225.48
878.17	10187.97
878.489	10172.83
878.807	10156.33
879.125	10124.47
879.444	10080.4
879.762	10122.88
880.08	10121.3
880.398	10012.83
880.716	9997.69
881.034	10031.59
881.352	10018.71
881.67	9902.32
881.988	9909.33
882.306	9935.09
882.624	9865.49
882.941	9863.23
883.259	9837.92
883.577	9787.75
883.894	9725.15
884.212	9754.08
884.529	9756.11
884.846	9695.32
885.164	9666.17
885.481	9632.05
885.798	9665.72
886.115	9624.37
886.432	9604.03
886.75	9622.78
887.067	9501.2
887.383	9492.39
887.7	9582.56
888.017	9485.16
888.334	9448.33
888.651	9427.53
888.967	9444.48
889.284	9363.36
889.6	9366.75
889.917	9307.76
890.233	9338.95
890.55	9253.08
890.866	9286.75
891.182	9247.43
891.498	9202.46
891.815	9190.7
892.131	9202.68
892.447	9167.88
892.763	9125.85
893.079	9110.93
893.395	9027.09
893.71	9029.8
894.026	9017.38
894.342	8962.01
894.657	8943.48
894.973	8916.59
895.289	8903.48
895.604	8885.63
895.92	8824.61
896.235	8818.29
896.55	8787.33
896.865	8783.26
897.181	8710.27
897.496	8685.18
897.811	8655.8
898.126	8655.8
898.441	8577.39
898.756	8573.09
899.071	8547.56
899.386	8498.97
899.7	8418.07
900.015	8391.18
900.33	8393.66
900.644	8365.64
900.959	8397.96
901.273	8321.12
901.588	8291.75
901.902	8294.01
902.216	8220.56
902.531	8183.27
902.845	8146.44
903.159	8048.36
903.473	8080
903.787	8023.05
904.101	7999.32
904.415	8021.92
904.729	7946.9
905.042	7841.81
905.356	7855.37
905.67	7884.07
905.984	7863.96
906.297	7824.19
906.611	7785.09
906.924	7789.61
907.237	7773.34
907.551	7716.39
907.864	7679.78
908.177	7677.75
908.491	7625.32
908.804	7588.03
909.117	7547.13
909.43	7532.9
909.743	7498.77
910.056	7503.52
910.368	7423.29
910.681	7382.84
910.994	7328.83
911.307	7317.08
911.619	7270.53
911.932	7270.98
912.244	7241.6
912.557	7281.15
912.869	7138.33
913.181	7193.47
913.494	7094.94
913.806	7108.27
914.118	7037.77
914.43	6996.86
914.742	6981.95
915.054	6957.32
915.366	6952.35
915.678	6926.36
915.99	6896.08
916.302	6841.16
916.613	6800.03
916.925	6799.58
917.236	6803.65
917.548	6748.51
917.859	6728.62
918.171	6679.58
918.482	6654.5
918.794	6600.49
919.105	6610.89
919.416	6565.46
919.727	6562.75
920.038	6569.08
920.349	6555.29
920.66	6488.18
920.971	6426.71
921.282	6414.28
921.593	6375.64
921.903	6342.42
922.214	6341.29
922.525	6283.66
922.835	6258.13
923.146	6239.37
923.456	6276.21
923.767	6211.57
924.077	6176.55
924.387	6180.61
924.697	6118.24
925.008	6129.77
925.318	6108.3
925.628	6079.6
925.938	6066.27
926.248	6009.77
926.558	6028.53
926.867	5946.72
927.177	5925.03
927.487	5884.12
927.796	5866.5
928.106	5838.02
928.416	5847.52
928.725	5851.36
929.034	5801.64
929.344	5797.12
929.653	5745.15
929.962	5727.52
930.271	5693.62
930.581	5655.43
930.89	5683.9
931.199	5653.4
931.508	5637.58
931.817	5632.15
932.125	5562.33
932.434	5572.49
932.743	5459.05
933.051	5444.81
933.36	5490.01
933.669	5364.59
933.977	5418.37
934.286	5388.09
934.594	5380.86
934.902	5348.32
935.21	5337.7
935.519	5303.12
935.827	5351.48
936.135	5264.25
936.443	5207.98
936.751	5199.4
937.059	5165.95
937.367	5167.99
937.674	5143.58
937.982	5119.85
938.29	5113.75
938.597	5106.07
938.905	5025.62
939.213	4994.66
939.52	4996.01
939.827	5006.86
940.135	5016.13
940.442	4942.23
940.749	4923.92
941.056	4931.16
941.363	4896.13
941.67	4869.46
941.977	4857.94
942.284	4780.43
942.591	4784.94
942.898	4768.45
943.205	4825.4
943.511	4785.17
943.818	4697.49
944.125	4693.87
944.431	4691.16
944.738	4674.21
945.044	4652.52
945.35	4633.54
945.657	4597.61
945.963	4554.22
946.269	4571.84
946.575	4582.24
946.881	4566.87
947.187	4478.51
947.493	4465.18
947.799	4471.28
948.105	4450.49
948.41	4363.94
948.716	4463.15
949.022	4375.46
949.327	4343.83
949.633	4343.37
949.938	4296.14
950.244	4328.69
950.549	4279.2
950.854	4252.08
951.16	4270.61
951.465	4237.39
951.77	4192.64
952.075	4215.69
952.38	4189.93
952.685	4209.37
952.99	4130.27
953.294	4136.37
953.599	4103.38
953.904	4111.29
954.209	4055.02
954.513	4097.28
954.818	4053.21
955.122	4056.38
955.426	3999.88
955.731	3994.01
956.035	3988.36
956.339	3937.51
956.643	3942.26
956.948	3928.24
957.252	3904.52
957.556	3879.43
957.86	3902.03
958.163	3911.07
958.467	3857.74
958.771	3860.9
959.075	3815.93
959.378	3809.15
959.682	3832.65
959.985	3761.92
960.289	3745.65
960.592	3748.14
960.896	3697.52
961.199	3688.25
961.502	3670.62
961.805	3666.33
962.108	3639.89
962.411	3623.85
962.714	3598.31
963.017	3602.6
963.32	3605.09
963.623	3523.51
963.926	3590.4
964.228	3551.53
964.531	3510.4
964.833	3538.65
965.136	3476.5
965.438	3451.19
965.741	3472.66
966.043	3451.87
966.345	3431.99
966.648	3441.93
966.95	3424.75
967.252	3365.32
967.554	3403.51
967.856	3370.74
968.158	3306.34
968.46	3315.15
968.761	3293.91
969.063	3303.18
969.365	3272.44
969.666	3293.23
969.968	3277.87
970.269	3221.82
970.571	3217.98
970.872	3228.15
971.174	3176.4
971.475	3178.89
971.776	3195.38
972.077	3155.16
972.378	3156.97
972.679	3174.37
972.98	3164.42
973.281	3096.85
973.582	3118.1
973.883	3058.66
974.183	3049.85
974.484	3060.92
974.785	2997.65
975.085	3033.35
975.386	3050.75
975.686	2977.08
975.986	2982.28
976.287	2958.78
976.587	2961.26
976.887	2942.28
977.187	2934.82
977.487	2935.5
977.787	2879.23
978.087	2896.41
978.387	2873.36
978.687	2901.6
978.987	2856.18
979.286	2841.27
979.586	2834.04
979.885	2844.2
980.185	2774.38
980.484	2815.73
980.784	2741.16
981.083	2759.01
981.382	2760.14
981.682	2787.48
981.981	2728.73
982.28	2742.74
982.579	2691.89
982.878	2713.81
983.177	2732.57
983.475	2688.95
983.774	2621.39
984.073	2624.1
984.372	2633.36
984.67	2617.77
984.969	2609.41
985.267	2611.67
985.566	2585.23
985.864	2593.82
986.162	2566.02
986.461	2559.24
986.759	2521.95
987.057	2504.1
987.355	2567.6
987.653	2501.16
987.951	2502.07
988.249	2510.43
988.547	2463.2
988.844	2412.8
989.142	2437.66
989.44	2468.62
989.737	2435.85
990.035	2429.98
990.332	2378.91
990.63	2373.26
990.927	2362.41
991.224	2363.77
991.521	2371.67
991.819	2320.83
992.116	2342.52
992.413	2314.28
992.71	2323.99
993.006	2322.41
993.303	2307.72
993.6	2273.37
993.897	2286.71
994.193	2243.54
994.49	2254.62
994.787	2261.85
995.083	2229.53
995.379	2239.7
995.676	2228.63
995.972	2185.69
996.268	2193.37
996.565	2174.84
996.861	2145.69
997.157	2152.92
997.453	2115.41
997.749	2119.03
998.044	2103.21
998.34	2111.12
998.636	2095.3
998.932	2063.21
999.227	2069.54
999.523	2080.16
999.818	2022.76
1000.114	2035.19
1000.409	2043.32
1000.704	2021.63
1001	2014.17
1001.295	1992.7
1001.59	1980.95
1001.885	2002.19
1002.18	1987.05
1002.475	1989.09
1002.77	1945.02
1003.065	1937.11
1003.359	1959.93
1003.654	1977.56
1003.949	1913.83
1004.243	1909.09
1004.538	1881.52
1004.832	1865.47
1005.127	1887.17
1005.421	1859.15
1005.715	1846.72
1006.009	1843.33
1006.304	1828.86
1006.598	1823.21
1006.892	1801.29
1007.186	1798.58
1007.48	1765.14
1007.773	1766.72
1008.067	1749.54
1008.361	1748.87
1008.655	1748.41
1008.948	1712.48
1009.242	1710.45
1009.535	1738.92
1009.829	1690.56
1010.122	1705.7
1010.415	1673.84
1010.708	1675.2
1011.001	1677
1011.295	1662.32
1011.588	1651.24
1011.881	1646.27
1012.173	1648.08
1012.466	1627.06
1012.759	1607.63
1013.052	1592.71
1013.344	1592.26
1013.637	1560.62
1013.93	1587.97
1014.222	1572.15
1014.514	1550.91
1014.807	1536.22
1015.099	1535.99
1015.391	1535.31
1015.683	1518.14
1015.976	1523.11
1016.268	1505.26
1016.56	1478.14
1016.851	1466.16
1017.143	1466.61
1017.435	1494.86
1017.727	1435.65
1018.018	1437.69
1018.31	1425.49
1018.602	1413.06
1018.893	1424.36
1019.185	1396.79
1019.476	1417.58
1019.767	1384.36
1020.058	1393.4
1020.35	1350.23
1020.641	1338.03
1020.932	1352.04
1021.223	1337.58
1021.514	1342.78
1021.804	1334.41
1022.095	1320.63
1022.386	1319.95
1022.677	1307.75
1022.967	1292.83
1023.258	1274.53
1023.548	1301.42
1023.839	1264.13
1024.129	1267.98
1024.419	1252.38
1024.709	1256.68
1025	1235.21
1025.29	1225.04
1025.58	1236.79
1025.87	1224.81
1026.16	1199.73
1026.449	1216.45
1026.739	1185.04
1027.029	1197.92
1027.319	1188.88
1027.608	1178.71
1027.898	1192.5
1028.187	1153.85
1028.477	1173.97
1028.766	1126.96
1029.055	1138.94
1029.344	1144.14
1029.634	1112.95
1029.923	1101.88
1030.212	1099.84
1030.501	1072.73
1030.79	1075.89
1031.078	1082.22
1031.367	1073.63
1031.656	1074.99
1031.945	1064.82
1032.233	1053.97
1032.522	1032.73
1032.81	1031.82
1033.099	1025.5
1033.387	1025.04
1033.675	1023.24
1033.963	1004.71
1034.251	1006.97
1034.54	996.34
1034.828	993.18
1035.116	1003.35
1035.403	983.91
1035.691	987.53
1035.979	964.93
1036.267	945.05
1036.554	983.01
1036.842	949.57
1037.129	943.01
1037.417	959.96
1037.704	943.69
1037.992	951.83
1038.279	936.23
1038.566	924.03
1038.853	924.03
1039.14	924.03
