Data from hue_22_FLMS001491_00070.txt Node
Date: Tue Feb 07 17:10:30 GMT 2017
User: dcchb
Spectrometer: FLMS00149
Trigger mode: 0
Integration Time (sec): 2.000000E-2
Scans to average: 10
Electric dark correction enabled: true
Nonlinearity correction enabled: false
Boxcar width: 0
XAxis mode: Wavelengths
Number of Pixels in Spectrum: 2048
>>>>>Begin Spectral Data<<<<<
341.393	-11.86
341.776	-11.86
342.16	-11.86
342.543	-71.52
342.927	-88.02
343.31	-63.39
343.693	-60.68
344.077	-60.45
344.46	-76.27
344.843	-45.76
345.226	-46.21
345.61	-40.56
345.993	-22.26
346.376	5.99
346.759	9.38
347.142	24.29
347.525	36.27
347.908	57.74
348.291	62.94
348.674	110.39
349.057	108.58
349.44	107
349.823	134.12
350.206	132.31
350.588	185.64
350.971	202.37
351.354	227
351.737	248.69
352.119	259.32
352.502	257.96
352.884	280.78
353.267	271.07
353.65	279.88
354.032	295.92
354.414	311.29
354.797	311.52
355.179	302.03
355.562	313.1
355.944	330.27
356.326	346.09
356.709	340.44
357.091	327.56
357.473	348.58
357.855	339.09
358.238	351.74
358.62	355.81
359.002	341.57
359.384	342.93
359.766	343.15
360.148	353.55
360.53	351.06
360.912	347.22
361.294	340.67
361.676	332.08
362.057	331.86
362.439	336.83
362.821	315.81
363.203	340.67
363.584	332.31
363.966	316.26
364.348	326.88
364.729	315.13
365.111	327.79
365.493	314.46
365.874	307.45
366.256	328.92
366.637	323.27
367.019	303.16
367.4	333.21
367.781	339.09
368.163	318.07
368.544	328.69
368.925	332.08
369.306	316.26
369.688	337.28
370.069	306.32
370.45	293.66
370.831	312.42
371.212	318.97
371.593	307
371.974	308.58
372.355	314
372.736	320.56
373.117	321.23
373.498	325.53
373.879	341.35
374.26	318.97
374.641	341.8
375.021	334.57
375.402	334.12
375.783	323.27
376.163	340.22
376.544	364.17
376.925	314
377.305	321.91
377.686	334.79
378.066	332.99
378.447	328.01
378.827	346.54
379.208	342.48
379.588	340.22
379.968	322.36
380.349	345.41
380.729	329.37
381.109	319.43
381.489	345.64
381.87	350.84
382.25	332.53
382.63	343.38
383.01	332.53
383.39	349.26
383.77	345.87
384.15	379.54
384.53	356.71
384.91	367.56
385.29	347.22
385.67	353.1
386.049	363.72
386.429	366.43
386.809	346.32
387.189	363.27
387.568	363.27
387.948	356.04
388.328	346.77
388.707	386.09
389.087	368.24
389.466	372.08
389.846	388.35
390.225	386.09
390.605	366.88
390.984	379.09
391.363	396.03
391.743	366.43
392.122	368.46
392.501	388.58
392.881	396.94
393.26	388.13
393.639	379.76
394.018	397.16
394.397	391.06
394.776	389.26
395.155	387.67
395.534	394.9
395.913	379.99
396.292	412.31
396.671	372.53
397.05	397.84
397.429	411.18
397.808	417.5
398.186	388.58
398.565	407.33
398.944	405.07
399.323	403.27
399.701	415.7
400.08	414.34
400.458	414.11
400.837	426.77
401.215	410.5
401.594	408.69
401.972	416.83
402.351	412.31
402.729	421.34
403.107	428.8
403.486	425.19
403.864	430.84
404.242	440.33
404.62	443.04
404.999	411.4
405.377	462.93
405.755	432.19
406.133	439.88
406.511	449.37
406.889	458.41
407.267	438.52
407.645	461.12
408.023	455.69
408.401	479.65
408.779	447.33
409.156	474.22
409.534	469.71
409.912	482.13
410.29	460.89
410.667	485.75
411.045	491.17
411.422	469.71
411.8	485.98
412.178	498.86
412.555	510.38
412.933	495.02
413.31	498.4
413.687	492.08
414.065	509.25
414.442	509.25
414.819	518.74
415.197	521
415.574	514.68
415.951	520.55
416.328	529.14
416.705	535.47
417.082	549.7
417.46	561.68
417.837	534.56
418.214	511.96
418.591	534.79
418.967	522.59
419.344	549.93
419.721	542.02
420.098	530.72
420.475	536.82
420.852	555.8
421.228	571.17
421.605	582.02
421.982	553.32
422.358	585.86
422.735	596.93
423.111	583.37
423.488	589.25
423.864	607.78
424.241	591.51
424.617	588.8
424.994	611.85
425.37	607.55
425.746	610.49
426.123	611.4
426.499	599.87
426.875	636.93
427.251	599.42
427.627	620.44
428.003	641.68
428.379	643.49
428.756	647.55
429.132	646.88
429.507	670.83
429.883	664.73
430.259	664.5
430.635	678.97
431.011	663.82
431.387	689.81
431.763	690.72
432.138	700.43
432.514	718.51
432.89	694.56
433.265	703.6
433.641	728.23
434.016	736.59
434.392	756.48
434.767	748.34
435.143	751.73
435.518	787.44
435.894	768
436.269	782.92
436.644	791.96
437.02	791.28
437.395	792.41
437.77	817.27
438.145	798.51
438.52	803.03
438.895	804.39
439.271	806.19
439.646	820.2
440.021	835.57
440.395	848.23
440.77	833.99
441.145	841.22
441.52	858.17
441.895	851.62
442.27	893.87
442.645	840.54
443.019	839.86
443.394	837.61
443.769	862.01
444.143	888.23
444.518	873.99
444.892	883.48
445.267	909.47
445.641	929.58
446.016	874.89
446.39	923.7
446.764	927.09
447.139	929.35
447.513	952.18
447.887	907.89
448.262	929.58
448.636	953.99
449.01	965.96
449.384	952.86
449.758	961.67
450.132	961.67
450.506	953.31
450.88	987.88
451.254	982.91
451.628	987.66
452.002	997.15
452.376	1003.25
452.75	1007.09
453.123	1015.68
453.497	1038.5
453.871	1038.05
454.244	1066.98
454.618	1052.29
454.992	1080.76
455.365	1067.66
455.739	1057.49
456.112	1127.77
456.486	1122.8
456.859	1109.01
457.232	1136.81
457.606	1149.46
457.979	1175
458.352	1172.96
458.725	1201.66
459.099	1210.7
459.472	1229.69
459.845	1220.65
460.218	1215
460.591	1225.62
460.964	1258.16
461.337	1240.08
461.71	1287.99
462.083	1313.98
462.456	1318.95
462.829	1329.8
463.201	1372.73
463.574	1337.03
463.947	1352.85
464.32	1399.17
464.692	1405.95
465.065	1407.31
465.438	1428.55
465.81	1468.32
466.183	1469.23
466.555	1473.29
466.928	1486.18
467.3	1508.55
467.672	1544.93
468.045	1571.82
468.417	1599.17
468.789	1555.1
469.161	1567.76
469.534	1611.82
469.906	1671.26
470.278	1704.47
470.65	1724.81
471.022	1712.16
471.394	1772.04
471.766	1768.43
472.138	1798.26
472.51	1840.52
472.882	1854.53
473.253	1878.03
473.625	1892.72
473.997	1945.6
474.369	1961.42
474.74	1993.96
475.112	2010
475.484	2077.12
475.855	2085.93
476.227	2118.93
476.598	2155.54
476.97	2210.68
477.341	2261.07
477.713	2294.97
478.084	2295.42
478.455	2368.86
478.827	2374.06
479.198	2459.71
479.569	2508.07
479.94	2523.89
480.311	2537.45
480.682	2623.77
481.053	2702.41
481.424	2721.4
481.795	2801.4
482.166	2814.05
482.537	2887.72
482.908	2917.78
483.279	2946.48
483.65	3030.32
484.021	3092.01
484.391	3147.37
484.762	3191.89
485.133	3176.75
485.503	3286.81
485.874	3355.05
486.244	3388.5
486.615	3437.31
486.985	3464.65
487.356	3556.18
487.726	3596.63
488.097	3670.07
488.467	3707.36
488.837	3755.27
489.207	3857.41
489.578	3899.45
489.948	3932.89
490.318	4006.56
490.688	4045.88
491.058	4022.61
491.428	4166.11
491.798	4202.04
492.168	4282.49
492.538	4333.11
492.908	4353.44
493.278	4420.79
493.648	4414.01
494.017	4521.35
494.387	4558.19
494.757	4570.61
495.126	4611.07
495.496	4668.69
495.866	4697.39
496.235	4749.82
496.605	4778.29
496.974	4889.25
497.344	4872.75
497.713	4907.33
498.082	4948.01
498.452	5057.83
498.821	5046.53
499.19	5080.21
499.559	5177.15
499.928	5185.06
500.298	5207.43
500.667	5248.34
501.036	5258.05
501.405	5307.32
501.774	5286.53
502.143	5320.2
502.512	5386.86
502.88	5420.08
503.249	5430.93
503.618	5501.89
503.987	5552.51
504.356	5555.45
504.724	5627.54
505.093	5559.74
505.462	5611.04
505.83	5653.3
506.199	5688.78
506.567	5791.15
506.936	5753.86
507.304	5854.87
507.672	5888.09
508.041	5925.83
508.409	5969.67
508.777	5985.04
509.145	6001.31
509.514	6020.52
509.882	6008.09
510.25	6074.98
510.618	6138.93
510.986	6077.69
511.354	6152.49
511.722	6188.88
512.09	6245.6
512.458	6223.23
512.826	6246.5
513.193	6325.6
513.561	6376.22
513.929	6340.51
514.297	6478.59
514.664	6454.18
515.032	6422.99
515.4	6539.6
515.767	6498.93
516.135	6547.74
516.502	6532.6
516.869	6620.05
517.237	6620.28
517.604	6630.45
517.972	6632.48
518.339	6721.07
518.706	6737.79
519.073	6712.03
519.44	6793.61
519.808	6876.32
520.175	6847.39
520.542	6859.14
520.909	6913.83
521.276	6914.51
521.643	7017.33
522.009	7052.36
522.376	7104.11
522.743	7106.82
523.11	7158.34
523.477	7252.13
523.843	7209.19
524.21	7291.45
524.577	7368.05
524.943	7289.64
525.31	7421.84
525.676	7512.23
526.043	7495.06
526.409	7524.21
526.776	7588.61
527.142	7587.48
527.508	7611.21
527.874	7741.38
528.241	7791.09
528.607	7759.23
528.973	7872.67
529.339	7869.74
529.705	7938.21
530.071	7989.51
530.437	8012.56
530.803	8070.64
531.169	8120.58
531.535	8113.35
531.901	8141.37
532.267	8173.46
532.632	8243.96
532.998	8202.61
533.364	8282.83
533.73	8299.33
534.095	8420.68
534.461	8422.94
534.826	8447.57
535.192	8497.97
535.557	8603.73
535.923	8535.71
536.288	8543.17
536.653	8686.44
537.019	8609.15
537.384	8697.06
537.749	8712.43
538.114	8714.91
538.479	8745.87
538.845	8818.64
539.21	8817.73
539.575	8835.81
539.94	8912.87
540.305	8947
540.67	8903.61
541.034	8954
541.399	9010.72
541.764	9083.26
542.129	9146.09
542.494	9139.08
542.858	9165.3
543.223	9182.92
543.587	9285.07
543.952	9262.92
544.316	9347.44
544.681	9293.2
545.045	9390.6
545.41	9390.15
545.774	9461.11
546.138	9517.83
546.503	9541.78
546.867	9518.73
547.231	9658.16
547.595	9618.17
547.959	9668.56
548.324	9647.54
548.688	9704.94
549.052	9723.93
549.416	9781.32
549.779	9744.94
550.143	9762.34
550.507	9886.18
550.871	9918.5
551.235	9913.52
551.599	9916.46
551.962	9986.52
552.326	10000.08
552.689	10085.05
553.053	10017.93
553.417	10123.69
553.78	10271.03
554.143	10188.32
554.507	10254.31
554.87	10312.61
555.234	10403.46
555.597	10291.14
555.96	10329.78
556.323	10392.16
556.686	10495.43
557.05	10555.77
557.413	10522.1
557.776	10545.82
558.139	10590.79
558.502	10584.47
558.865	10600.29
559.228	10688.19
559.59	10735.88
559.953	10748.76
560.316	10755.54
560.679	10827.62
561.041	10962.54
561.404	10988.75
561.767	10970.22
562.129	11003.89
562.492	11064
562.854	11163.89
563.217	11106.94
563.579	11132.93
563.941	11240.27
564.304	11281.4
564.666	11308.06
565.028	11351
565.39	11365.24
565.753	11367.05
566.115	11391
566.477	11503.31
566.839	11522.97
567.201	11590.77
567.563	11712.12
567.925	11700.14
568.287	11760.48
568.648	11709.41
569.01	11845.45
569.372	11829.63
569.734	11824.43
570.095	11965.45
570.457	12018.78
570.819	12054.03
571.18	11962.96
571.542	12124.54
571.903	12144.65
572.265	12199.34
572.626	12239.34
572.987	12351.65
573.349	12458.99
573.71	12384.87
574.071	12510.97
574.432	12546.68
574.794	12698.76
575.155	12799.55
575.516	12668.93
575.877	12815.82
576.238	12957.96
576.599	12975.82
576.96	13069.6
577.32	13096.49
577.681	13185.3
578.042	13330.84
578.403	13360.21
578.763	13443.15
579.124	13546.88
579.485	13700.77
579.845	13790.03
580.206	13844.04
580.566	14026.18
580.927	14173.07
581.287	14326.06
581.648	14387.76
582.008	14606.73
582.368	14775.54
582.728	14866.61
583.089	15080.85
583.449	15242.2
583.809	15356.32
584.169	15569.42
584.529	15723.77
584.889	16014.61
585.249	16085.57
585.609	16290.76
585.969	16595.16
586.329	16763.06
586.688	16994.47
587.048	17204.86
587.408	17371.41
587.768	17626.32
588.127	17954.9
588.487	18113.31
588.846	18533.86
589.206	18651.83
589.565	18896.57
589.925	19259.27
590.284	19479.83
590.643	19756.43
591.003	20170.66
591.362	20387.37
591.721	20602.96
592.08	20918.21
592.44	21312.55
592.799	21554.35
593.158	21816.71
593.517	22144.16
593.876	22566.3
594.235	22822.34
594.593	23255.32
594.952	23462.77
595.311	23743.9
595.67	24043.55
596.029	24622.29
596.387	24903.41
596.746	25179.34
597.104	25440.57
597.463	25761.02
597.822	26165.07
598.18	26424.05
598.538	26742.91
598.897	27248.66
599.255	27247.53
599.613	28073.73
599.972	28080.05
600.33	28552.81
600.688	28660.83
601.046	29218.1
601.404	29517.75
601.762	29712.55
602.12	30204.74
602.478	30362.7
602.836	30835.01
603.194	30951.84
603.552	31358.16
603.91	31466.4
604.268	31917.92
604.625	32040.63
604.983	32439.94
605.341	32699.37
605.698	33207.15
606.056	33468.39
606.413	33615.05
606.771	34009.61
607.128	34289.15
607.485	34439.89
607.843	34662.25
608.2	35169.13
608.557	35363.93
608.914	35550.59
609.272	35991.71
609.629	36211.82
609.986	36424.24
610.343	36623.78
610.7	37194.16
611.057	37117.1
611.414	37287.27
611.771	37518
612.127	37961.15
612.484	38061.71
612.841	38473
613.198	38510.06
613.554	38704.86
613.911	39039.09
614.267	39202.92
614.624	39315.24
614.98	39600.2
615.337	39988.89
615.693	39973.53
616.05	40115.89
616.406	40378.26
616.762	40484.47
617.118	40675.88
617.475	40947.51
617.831	41047.85
618.187	41308.41
618.543	41476.08
618.899	41804.89
619.255	41698.68
619.611	41947.94
619.967	42246.23
620.323	42327.14
620.678	42414.14
621.034	42457.75
621.39	42480.58
621.746	42602.83
622.101	43130.05
622.457	42968.47
622.812	43179.09
623.168	43251.18
623.523	43370.72
623.879	43672.86
624.234	43388.8
624.589	43677.61
624.945	43670.15
625.3	43810.03
625.655	43842.58
626.01	43923.48
626.365	44098.39
626.72	44184.04
627.075	44285.05
627.43	44242.34
627.785	44278.27
628.14	44357.82
628.495	44497.93
628.85	44432.17
629.205	44434.2
629.559	44681.88
629.914	44531.37
630.269	44634.42
630.623	44545.61
630.978	44715.1
631.332	44887.75
631.687	45108.98
632.041	44910.12
632.396	44987.63
632.75	44814.08
633.104	44964.58
633.459	44870.12
633.813	44888.42
634.167	44962.32
634.521	45055.65
634.875	45072.6
635.229	45108.08
635.583	44839.16
635.937	44916.67
636.291	44969.78
636.645	44981.53
636.999	45021.98
637.352	45139.49
637.706	44854.07
638.06	45073.5
638.413	44980.17
638.767	44844.13
639.121	44956.22
639.474	44636.23
639.828	44901.53
640.181	44995.77
640.534	45014.97
640.888	44875.77
641.241	44738.6
641.594	44937.24
641.947	44927.52
642.301	44838.26
642.654	44877.58
643.007	44923.68
643.36	44810.01
643.713	44788.77
644.066	44928.88
644.419	44746.28
644.771	44676.68
645.124	44228.55
645.477	44224.71
645.83	43925.06
646.182	43775.69
646.535	43677.83
646.888	43838.06
647.24	43598.74
647.593	43932.29
647.945	43757.15
648.298	43632.64
648.65	43647.55
649.002	43344.28
649.355	43669.25
649.707	43606.2
650.059	43817.72
650.411	44281.66
650.763	44284.6
651.115	44683.23
651.467	44546.74
651.819	44546.74
652.171	44423.13
652.523	44408.66
652.875	44475.78
653.227	44313.75
653.578	44548.77
653.93	44403.24
654.282	44283.02
654.633	44128.67
654.985	44219.52
655.337	44299.29
655.688	44437.59
656.039	44462.45
656.391	44228.78
656.742	44209.57
657.094	44267.2
657.445	44297.71
657.796	44304.94
658.147	44242.34
658.498	43990.59
658.849	44299.74
659.2	44240.31
659.551	44123.92
659.902	44329.79
660.253	44205.5
660.604	44318.72
660.955	44026.75
661.306	44240.53
661.656	44103.81
662.007	44151.04
662.358	44124.15
662.708	44206.86
663.059	44221.1
663.409	43873.76
663.76	44119.63
664.11	44155.56
664.461	44199.18
664.811	44103.13
665.161	44010.71
665.511	44023.14
665.862	44036.24
666.212	43972.74
666.562	44049.58
666.912	43843.48
667.262	44045.73
667.612	44075.34
667.962	44050.71
668.312	44044.83
668.662	44203.24
669.011	44097.94
669.361	43917.6
669.711	43878.06
670.06	43964.15
670.41	43890.71
670.76	43748.34
671.109	43919.64
671.459	43775.46
671.808	43793.99
672.157	44151.04
672.507	43630.15
672.856	43773.88
673.205	43876.47
673.554	43761.9
673.904	43591.96
674.253	43966.87
674.602	43751.28
674.951	43259.54
675.3	42957.4
675.649	43816.36
675.998	43572.98
676.346	43671.96
676.695	43701.11
677.044	43455.69
677.393	43546.99
677.741	43669.7
678.09	43517.16
678.438	43408.46
678.787	43561.45
679.135	43464.96
679.484	43285.08
679.832	43364.62
680.181	43208.92
680.529	43343.61
680.877	43313.32
681.225	43227
681.573	43461.57
681.922	43077.62
682.27	43034.91
682.618	42979.77
682.966	42815.26
683.314	42923.5
683.661	42748.37
684.009	42608.94
684.357	42594.02
684.705	42512.44
685.053	42546.34
685.4	42564.42
685.748	42460.69
686.095	42270.19
686.443	42226.8
686.79	42055.5
687.138	42092.34
687.485	42219.57
687.832	41995.84
688.18	42115.62
688.527	41961.04
688.874	41883.53
689.221	41977.09
689.568	41795.62
689.915	41574.84
690.262	41628.62
690.609	41558.34
690.956	41427.27
691.303	41211.91
691.65	41170.1
691.997	41138.69
692.344	40909.09
692.69	40999.26
693.037	40877.68
693.383	40462.78
693.73	40713.84
694.077	40623
694.423	40500.74
694.769	40449.22
695.116	40435.43
695.462	40312.95
695.808	40210.58
696.155	40196.8
696.501	39874.32
696.847	39902.34
697.193	39594.78
697.539	39800.42
697.885	39490.83
698.231	39489.47
698.577	39527.21
698.923	39525.63
699.269	39163.6
699.614	39082.48
699.96	38903.72
700.306	39065.07
700.651	38821.24
700.997	38743.95
701.342	38549.61
701.688	38683.39
702.033	38321.59
702.379	38414.92
702.724	38333.79
703.069	38420.35
703.415	37945.1
703.76	37973.58
704.105	37996.85
704.45	37952.34
704.795	37750.31
705.14	37621.72
705.485	37655.62
705.83	37509.41
706.175	37619.46
706.52	37357.1
706.865	37174.95
707.209	37179.47
707.554	37150.55
707.899	37134.28
708.243	36871.23
708.588	36884.57
708.932	36784.23
709.277	36741.52
709.621	36681.18
709.966	36454.52
710.31	36455.65
710.654	36354.41
710.998	36278.03
711.342	36259.27
711.687	36093.85
712.031	35989.9
712.375	35852.5
712.719	35974.08
713.063	35948.09
713.407	35894.99
713.75	35670.81
714.094	35619.06
714.438	35766.63
714.782	35540.87
715.125	35426.75
715.469	35574.09
715.812	35435.79
716.156	35112.41
716.499	35145.4
716.843	35194.89
717.186	35102.69
717.53	35214.55
717.873	35166.65
718.216	35075.12
718.559	34828.12
718.902	34594.46
719.246	34881.91
719.589	34551.07
719.932	34452.31
720.275	34619.99
720.617	34554.68
720.96	34451.86
721.303	34401.24
721.646	34457.74
721.989	34128.26
722.331	34252.32
722.674	34107.24
723.016	34064.53
723.359	33987.02
723.701	34039.9
724.044	33887.58
724.386	33652.34
724.729	33881.26
725.071	33714.25
725.413	33796.29
725.755	33727.36
726.097	33540.7
726.439	33351.78
726.782	33477.65
727.124	33688.04
727.465	33344.77
727.807	33372.34
728.149	33261.84
728.491	33224.32
728.833	33221.16
729.175	33226.36
729.516	33058.45
729.858	33119.69
730.199	33080.83
730.541	33072.46
730.882	32931.45
731.224	32978.91
731.565	32780.72
731.906	32686.26
732.248	32701.4
732.589	32623.89
732.93	32608.52
733.271	32631.57
733.612	32577.11
733.953	32484.23
734.294	32266.84
734.635	32387.74
734.976	32415.53
735.317	32258.47
735.658	32300.05
735.999	32289.43
736.339	32317.46
736.68	32308.87
737.021	32238.14
737.361	32067.52
737.702	32145.93
738.042	32071.81
738.383	31987.07
738.723	31981.19
739.063	31898.03
739.404	32133.96
739.744	32006.28
740.084	31836.79
740.424	31825.94
740.764	31767.41
741.104	31832.5
741.444	31670.01
741.784	31491.49
742.124	31581.43
742.464	31515.89
742.804	31470.47
743.143	31448.1
743.483	31446.29
743.823	31260.31
744.162	31159.97
744.502	31230.03
744.841	31080.65
745.181	31266.64
745.52	31088.79
745.86	31156.13
746.199	31033.42
746.538	31028
746.877	31045.85
747.216	31058.73
747.556	30857.61
747.895	30908.68
748.234	30709.81
748.573	30716.59
748.911	30698.29
749.25	30738.29
749.589	30538.97
749.928	30685.63
750.267	30613.09
750.605	30623.71
750.944	30449.26
751.283	30424.85
751.621	30397.05
751.96	30242.93
752.298	30266.44
752.636	30224.18
752.975	30090.62
753.313	29972.43
753.651	30042.94
753.989	30014.24
754.327	29867.58
754.666	29725.66
755.004	29732.44
755.342	29757.97
755.679	29731.53
756.017	29576.96
756.355	29591.2
756.693	29448.15
757.031	29567.92
757.368	29329.74
757.706	29322.51
758.044	29248.61
758.381	29274.6
758.719	29275.73
759.056	29250.42
759.394	29169.52
759.731	28985.57
760.068	28925
760.405	28745.35
760.743	28640.72
761.08	28774.27
761.417	28554.62
761.754	28513.49
762.091	28472.81
762.428	28307.17
762.765	28202.76
763.102	28305.13
763.438	28047.96
763.775	27939.49
764.112	28004.12
764.449	27969.32
764.785	27881.41
765.122	27663.79
765.458	27560.07
765.795	27596.9
766.131	27627.86
766.467	27449.11
766.804	27301.99
767.14	27160.3
767.476	27152.17
767.812	27095.9
768.148	27086.18
768.485	26901.1
768.821	26781.56
769.157	26777.26
769.492	26755.79
769.828	26677.38
770.164	26424.73
770.5	26362.13
770.836	26395.8
771.171	26166.66
771.507	26146.54
771.842	25951.3
772.178	25943.84
772.513	25987.45
772.849	25752.66
773.184	25674.01
773.519	25640.12
773.855	25539.78
774.19	25448.48
774.525	25419.56
774.86	25327.13
775.195	25351.99
775.53	25144.54
775.865	25030.87
776.2	24920.14
776.535	24668.84
776.87	24541.39
777.205	24595.62
777.539	24502.29
777.874	24553.82
778.209	24301.17
778.543	24339.13
778.878	24136.2
779.212	24120.16
779.547	23993.83
779.881	23926.49
780.215	23769.88
780.55	23882.65
780.884	23666.84
781.218	23664.35
781.552	23673.39
781.886	23496.22
782.22	23260.97
782.554	23261.87
782.888	23154.31
783.222	23027.76
783.556	22943.69
783.889	22926.52
784.223	22709.8
784.557	22643.36
784.89	22718.61
785.224	22547.77
785.557	22535.57
785.891	22470.26
786.224	22400.2
786.558	22317.27
786.891	22054
787.224	22040.89
787.557	22030.49
787.891	22009.7
788.224	21988.24
788.557	21815.58
788.89	21786.88
789.223	21809.71
789.556	21636.61
789.888	21532.65
790.221	21489.72
790.554	21421.7
790.887	21223.74
791.219	21122.04
791.552	21109.61
791.884	21060.35
792.217	20913.24
792.549	20954.14
792.882	20809.06
793.214	20789.62
793.546	20753.47
793.879	20693.13
794.211	20496.07
794.543	20651.1
794.875	20477.77
795.207	20475.73
795.539	20412.23
795.871	20381.05
796.203	20186.93
796.535	20130.88
796.867	20123.65
797.198	19983.77
797.53	19942.41
797.862	19826.48
798.193	19890.21
798.525	19772.7
798.856	19707.17
799.188	19559.82
799.519	19443.44
799.85	19314.18
800.182	19470.11
800.513	19392.15
800.844	19231.02
801.175	19348.3
801.506	19285.93
801.837	19209.1
802.168	19055.88
802.499	19007.3
802.83	18922.55
803.161	18897.47
803.491	18870.35
803.822	18849.33
804.153	18818.6
804.483	18635.1
804.814	18568.44
805.145	18538.38
805.475	18543.13
805.805	18425.84
806.136	18510.59
806.466	18470.81
806.796	18370.7
807.126	18218.84
807.457	18202.12
807.787	18189.92
808.117	18063.14
808.447	18030.83
808.777	18059.98
809.107	17930.94
809.436	17873.32
809.766	17883.03
810.096	17818.18
810.426	17709.03
810.755	17786.99
811.085	17738.63
811.414	17622.7
811.744	17459.99
812.073	17476.72
812.403	17574.11
812.732	17474
813.061	17338.41
813.39	17241.24
813.719	17272.2
814.049	17279.88
814.378	17221.36
814.707	17147.23
815.036	17119.44
815.365	16992.21
815.693	16910.63
816.022	16955.6
816.351	16944.75
816.68	16791.08
817.008	16843.51
817.337	16675.38
817.665	16732.78
817.994	16796.06
818.322	16654.82
818.651	16581.6
818.979	16487.36
819.307	16622.5
819.636	16546.57
819.964	16419.34
820.292	16459.57
820.62	16489.17
820.948	16445.33
821.276	16405.11
821.604	16344.32
821.932	16532.56
822.259	16381.83
822.587	16357.42
822.915	16382.51
823.243	16463.86
823.57	16254.83
823.898	16371.66
824.225	16301.83
824.553	16182.96
824.88	16362.85
825.207	16332.11
825.535	16251.44
825.862	16267.26
826.189	16267.03
826.516	16305.22
826.843	16395.16
827.17	16288.5
827.497	16283.53
827.824	16318.1
828.151	16292.57
828.478	16334.15
828.805	16456.18
829.131	16246.24
829.458	16209.86
829.785	16187.48
830.111	16195.17
830.438	16331.89
830.764	16229.97
831.09	16297.31
831.417	16161.5
831.743	16159.91
832.069	16223.87
832.395	16100.71
832.722	16343.19
833.048	16069.29
833.374	16124.21
833.7	16074.49
834.026	16120.14
834.351	16147.49
834.677	16164.43
835.003	16094.15
835.329	16014.38
835.654	16047.37
835.98	15915.63
836.306	16002.86
836.631	16005.34
836.956	15968.51
837.282	15954.27
837.607	15970.54
837.932	15867.94
838.258	15940.26
838.583	15811
838.908	15789.3
839.233	15735.29
839.558	15723.54
839.883	15622.3
840.208	15528.07
840.533	15551.12
840.858	15585.69
841.182	15554.51
841.507	15565.81
841.832	15563.32
842.156	15530.1
842.481	15465.47
842.805	15389.31
843.13	15375.3
843.454	15354.29
843.778	15303.89
844.103	15253.27
844.427	15248.07
844.751	15217.57
845.075	15258.02
845.399	15072.03
845.723	14978.48
846.047	15055.76
846.371	14862.55
846.695	14941.64
847.019	14816.9
847.343	14729.67
847.666	14674.98
847.99	14612.38
848.313	14608.99
848.637	14460.75
848.96	14495.55
849.284	14398.15
849.607	14373.75
849.931	14272.05
850.254	14196.8
850.577	14201.1
850.9	13997.26
851.223	14058.27
851.546	13935.34
851.869	13953.87
852.192	13980.31
852.515	13748.45
852.838	13764.95
853.161	13747.55
853.483	13654.9
853.806	13719.07
854.129	13576.71
854.451	13520.44
854.774	13458.97
855.096	13495.8
855.419	13472.53
855.741	13369.93
856.063	13254
856.385	13305.53
856.708	13299.2
857.03	13093.1
857.352	13180.33
857.674	13166.55
857.996	13013.78
858.318	13014.01
858.64	13072.54
858.961	12968.13
859.283	12975.59
859.605	12907.8
859.926	12887.23
860.248	12818.53
860.57	12773.34
860.891	12749.61
861.212	12740.79
861.534	12720.68
861.855	12683.17
862.176	12680.68
862.498	12611.98
862.819	12560.91
863.14	12641.81
863.461	12618.54
863.782	12445.89
864.103	12520.24
864.424	12457.86
864.745	12469.84
865.065	12445.89
865.386	12326.79
865.707	12406.79
866.027	12353.46
866.348	12259.9
866.668	12396.17
866.989	12291.54
867.309	12146.23
867.63	12266.46
867.95	12259.68
868.27	12042.06
868.59	12141.26
868.91	12125.67
869.23	12147.82
869.55	12057.65
869.87	12206.8
870.19	12042.51
870.51	12065.78
870.83	12135.84
871.15	11957.54
871.469	11975.39
871.789	12017.2
872.109	11978.56
872.428	11873.02
872.748	11936.52
873.067	11926.58
873.386	11854.04
873.706	11841.16
874.025	11812.91
874.344	11724.1
874.663	11783.98
874.982	11814.94
875.301	11782.4
875.62	11698.11
875.939	11632.8
876.258	11760.48
876.577	11600.94
876.896	11705.57
877.214	11571.11
877.533	11666.92
877.852	11685
878.17	11567.49
878.489	11586.48
878.807	11565.01
879.125	11520.26
879.444	11528.85
879.762	11471
880.08	11526.82
880.398	11369.98
880.716	11443.65
881.034	11374.28
881.352	11358.46
881.67	11370.66
881.988	11365.69
882.306	11339.7
882.624	11286.37
882.941	11265.58
883.259	11143.32
883.577	11150.78
883.894	11163.89
884.212	11190.55
884.529	11150.78
884.846	11170.44
885.164	11013.38
885.481	10985.81
885.798	11009.54
886.115	10939.94
886.432	10926.38
886.75	10851.58
887.067	10939.94
887.383	10890.22
887.7	10990.56
888.017	10882.09
888.334	10850.45
888.651	10741.53
888.967	10708.31
889.284	10669.21
889.6	10596.44
889.917	10604.13
890.233	10598.7
890.55	10535.66
890.866	10572.72
891.182	10469.89
891.498	10480.97
891.815	10386.73
892.131	10404.13
892.447	10389.22
892.763	10358.03
893.079	10403.91
893.395	10315.32
893.71	10314.42
894.026	10214.76
894.342	10130.24
894.657	10154.87
894.973	10157.36
895.289	10195.78
895.604	10141.09
895.92	10024.71
896.235	9995.56
896.55	9974.31
896.865	9885.05
897.181	9931.83
897.496	9965.95
897.811	9871.49
898.126	9865.84
898.441	9796.24
898.756	9820.42
899.071	9750.82
899.386	9728.9
899.7	9712.4
900.015	9622.01
900.33	9515.79
900.644	9487.32
900.959	9500.43
901.273	9512.18
901.588	9481.22
901.902	9369.58
902.216	9352.41
902.531	9359.41
902.845	9410.04
903.159	9245.75
903.473	9276.03
903.787	9172.53
904.101	9154.9
904.415	9177.72
904.729	9089.82
905.042	9059.08
905.356	9077.39
905.67	8985.87
905.984	9009.14
906.297	8969.14
906.611	9015.24
906.924	8961.01
907.237	8849.6
907.551	8791.07
907.864	8806.44
908.177	8758.53
908.491	8789.94
908.804	8704.06
909.117	8637.17
909.43	8625.87
909.743	8591.53
910.056	8546.55
910.368	8481.25
910.681	8421.59
910.994	8490.51
911.307	8383.62
911.619	8347.24
911.932	8387.92
912.244	8281.25
912.557	8255.49
912.869	8212.33
913.181	8217.75
913.494	8153.34
913.806	8128.26
914.118	8146.79
914.43	8062.5
914.742	8054.82
915.054	7987.25
915.366	7956.06
915.678	8011.2
915.99	7864.31
916.302	7837.42
916.613	7849.62
916.925	7798.33
917.236	7802.62
917.548	7720.36
917.859	7761.49
918.171	7689.18
918.482	7666.8
918.794	7598.78
919.105	7627.94
919.416	7510.65
919.727	7545.68
920.038	7442.18
920.349	7496.19
920.66	7436.08
920.971	7390.88
921.282	7378.22
921.593	7338.68
921.903	7260.71
922.214	7279.47
922.525	7253.26
922.835	7226.82
923.146	7139.81
923.456	7096.88
923.767	7102.07
924.077	7085.8
924.387	7009.42
924.697	7047.61
925.008	6997.22
925.318	6948.63
925.628	6922.19
925.938	6877.22
926.248	6860.05
926.558	6865.92
926.867	6763.1
927.177	6789.76
927.487	6794.51
927.796	6649.88
928.106	6661.41
928.416	6647.17
928.725	6615.31
929.034	6573.5
929.344	6547.51
929.653	6583.22
929.962	6516.78
930.271	6482.88
930.581	6439.49
930.89	6462.77
931.199	6372.37
931.508	6345.26
931.817	6363.11
932.125	6431.13
932.434	6316.33
932.743	6258.03
933.051	6192.27
933.36	6204.24
933.669	6199.27
933.977	6125.15
934.286	6135.77
934.594	6125.6
934.902	6105.94
935.21	6083.79
935.519	6059.16
935.827	6007.19
936.135	6000.86
936.443	5943.69
936.751	5899.62
937.059	5880.86
937.367	5880.41
937.674	5872.5
937.982	5887.87
938.29	5783.46
938.597	5834.99
938.905	5719.96
939.213	5772.39
939.52	5666.86
939.827	5698.04
940.135	5649.91
940.442	5611.04
940.749	5635.22
941.056	5613.07
941.363	5561.77
941.67	5537.59
941.977	5518.39
942.284	5405.39
942.591	5418.28
942.898	5460.76
943.205	5426.86
943.511	5353.87
943.818	5357.26
944.125	5291.5
944.431	5333.08
944.738	5256.92
945.044	5237.04
945.35	5249.92
945.657	5265.51
945.963	5205.4
946.269	5182.58
946.575	5175.57
946.881	5123.82
947.187	5124.5
947.493	5074.1
947.799	5102.35
948.105	5091.73
948.41	4999.08
948.716	5011.05
949.022	5024.84
949.327	4981.45
949.633	4961.79
949.938	4890.83
950.244	4920.66
950.549	4867.1
950.854	4851.96
951.16	4880.66
951.465	4763.15
951.77	4808.57
952.075	4748.24
952.38	4722.93
952.685	4720.21
952.99	4675.47
953.294	4701.23
953.599	4675.7
953.904	4648.13
954.209	4598.41
954.513	4603.38
954.818	4588.01
955.122	4548.92
955.426	4530.39
955.731	4538.98
956.035	4443.16
956.339	4471.63
956.643	4483.61
956.948	4427.12
957.252	4449.26
957.556	4369.04
957.86	4384.18
958.163	4373.56
958.467	4343.28
958.771	4360
959.075	4301.24
959.378	4264.41
959.682	4302.15
959.985	4245.2
960.289	4215.6
960.592	4184.86
960.896	4189.38
961.199	4172.88
961.502	4165.65
961.805	4114.36
962.108	4141.92
962.411	4106.67
962.714	4053.11
963.017	4058.54
963.32	4046.56
963.623	4021.7
963.926	4048.37
964.228	3986.45
964.531	3960.46
964.833	3961.14
965.136	3946.45
965.438	3914.59
965.741	3948.26
966.043	3910.07
966.345	3898.09
966.648	3900.35
966.95	3856.06
967.252	3823.29
967.554	3829.16
967.856	3795.27
968.158	3789.39
968.46	3799.11
968.761	3715.27
969.063	3735.16
969.365	3698.55
969.666	3702.61
969.968	3668.94
970.269	3666.01
970.571	3683.63
970.872	3609.74
971.174	3612.22
971.475	3606.12
971.776	3581.49
972.077	3571.09
972.378	3547.14
972.679	3578.32
972.98	3513.69
973.281	3479.57
973.582	3495.61
973.883	3497.87
974.183	3442.73
974.484	3464.88
974.785	3407.26
975.085	3430.08
975.386	3450.64
975.686	3396.86
975.986	3321.61
976.287	3354.83
976.587	3333.81
976.887	3345.34
977.187	3317.31
977.487	3337.2
977.787	3271.67
978.087	3261.5
978.387	3273.7
978.687	3232.34
978.987	3243.42
979.286	3198.9
979.586	3155.96
979.885	3176.53
980.185	3150.99
980.484	3156.87
980.784	3167.04
981.083	3122.06
981.382	3117.77
981.682	3084.1
981.981	3058.56
982.28	3087.26
982.579	3049.75
982.878	3044.78
983.177	3023.31
983.475	3019.69
983.774	2996.42
984.073	3011.11
984.372	2971.11
984.67	2972.69
984.969	2964.55
985.267	2938.57
985.566	2938.11
985.864	2908.51
986.162	2910.09
986.461	2915.06
986.759	2839.13
987.057	2834.16
987.355	2808.4
987.653	2801.17
987.951	2796.88
988.249	2777.89
988.547	2800.04
988.844	2820.83
989.142	2826.93
989.44	2758.01
989.737	2738.12
990.035	2751.68
990.332	2710.32
990.63	2706.71
990.927	2696.54
991.224	2708.74
991.521	2657.44
991.819	2651.57
992.116	2685.69
992.413	2655.18
992.71	2601.4
993.006	2579.71
993.303	2585.81
993.6	2553.94
993.897	2581.06
994.193	2557.56
994.49	2546.94
994.787	2518.01
995.083	2505.36
995.379	2518.69
995.676	2481.86
995.972	2493.83
996.268	2485.7
996.565	2461.97
996.861	2438.47
997.157	2413.16
997.453	2444.12
997.749	2404.12
998.044	2401.18
998.34	2391.01
998.636	2378.13
998.932	2365.02
999.227	2374.51
999.523	2321.41
999.818	2309.2
1000.114	2310.79
1000.409	2302.2
1000.704	2293.39
1001	2280.73
1001.295	2277.57
1001.59	2226.5
1001.885	2257.68
1002.18	2200.06
1002.475	2240.96
1002.77	2218.59
1003.065	2184.69
1003.359	2193.5
1003.654	2186.72
1003.949	2157.34
1004.243	2139.94
1004.538	2160.51
1004.832	2105.37
1005.127	2146.95
1005.421	2108.76
1005.715	2096.33
1006.009	2057.01
1006.304	2045.71
1006.598	2038.7
1006.892	2049.32
1007.186	2053.17
1007.48	2024.92
1007.773	1987.41
1008.067	2027.4
1008.361	1972.26
1008.655	1948.99
1008.948	1967.74
1009.242	1922.32
1009.535	1968.2
1009.829	1898.59
1010.122	1939.95
1010.415	1868.99
1010.708	1889.78
1011.001	1857.01
1011.295	1854.3
1011.588	1855.43
1011.881	1871.25
1012.173	1828.09
1012.466	1809.56
1012.759	1804.81
1013.052	1825.15
1013.344	1780.63
1013.637	1784.47
1013.93	1773.63
1014.222	1759.39
1014.514	1766.62
1014.807	1747.86
1015.099	1716.9
1015.391	1718.71
1015.683	1689.11
1015.976	1688.66
1016.268	1683.91
1016.56	1675.78
1016.851	1680.97
1017.143	1654.31
1017.435	1647.53
1017.727	1645.27
1018.018	1656.34
1018.31	1602.78
1018.602	1639.62
1018.893	1586.06
1019.185	1575.89
1019.476	1558.04
1019.767	1571.82
1020.058	1566.85
1020.35	1565.5
1020.641	1538.38
1020.932	1518.72
1021.223	1520.75
1021.514	1509.45
1021.804	1499.96
1022.095	1503.58
1022.386	1461.77
1022.677	1474.2
1022.967	1459.96
1023.258	1462
1023.548	1450.47
1023.839	1415.22
1024.129	1389.68
1024.419	1393.07
1024.709	1396.01
1025	1393.97
1025.29	1356.91
1025.58	1360.98
1025.87	1346.07
1026.16	1361.89
1026.449	1341.32
1026.739	1306.29
1027.029	1341.32
1027.319	1306.29
1027.608	1326.41
1027.898	1321.43
1028.187	1306.75
1028.477	1279.85
1028.766	1270.59
1029.055	1263.13
1029.344	1238.95
1029.634	1235.33
1029.923	1253.87
1030.212	1257.71
1030.501	1240.98
1030.79	1211.15
1031.078	1200.08
1031.367	1223.58
1031.656	1198.05
1031.945	1181.55
1032.233	1191.72
1032.522	1171.83
1032.81	1144.94
1033.099	1165.05
1033.387	1139.52
1033.675	1131.83
1033.963	1140.87
1034.251	1135.22
1034.54	1131.61
1034.828	1124.83
1035.116	1088.9
1035.403	1127.31
1035.691	1094.32
1035.979	1080.99
1036.267	1088.45
1036.554	1065.4
1036.842	1067.66
1037.129	1049.12
1037.417	1052.29
1037.704	1056.81
1037.992	1010.48
1038.279	1017.26
1038.566	1003.48
1038.853	1003.48
1039.14	1003.48
