Data from hue_350_FLMS001491_1.txt Node
Date: Mon Feb 06 15:37:28 GMT 2017
User: dcchb
Spectrometer: FLMS00149
Trigger mode: 0
Integration Time (sec): 2.000000E-2
Scans to average: 10
Electric dark correction enabled: true
Nonlinearity correction enabled: false
Boxcar width: 0
XAxis mode: Wavelengths
Number of Pixels in Spectrum: 2048
>>>>>Begin Spectral Data<<<<<
341.393	-12.54
341.776	-12.54
342.16	-12.54
342.543	-53.22
342.927	-67.46
343.31	-76.72
343.693	-69.04
344.077	-57.96
344.46	-73.11
344.843	-57.96
345.226	-41.24
345.61	-36.27
345.993	-25.42
346.376	0.34
346.759	-10.28
347.142	34.91
347.525	53.9
347.908	57.51
348.291	84.63
348.674	96.38
349.057	120.34
349.44	108.81
349.823	156.27
350.206	169.6
350.588	203.72
350.971	188.58
351.354	217.51
351.737	221.8
352.119	242.37
352.502	238.75
352.884	278.07
353.267	264.29
353.65	289.82
354.032	296.38
354.414	302.93
354.797	298.41
355.179	296.83
355.562	333.89
355.944	318.97
356.326	334.57
356.709	338.64
357.091	326.88
357.473	332.76
357.855	347.9
358.238	354.68
358.62	324.62
359.002	320.1
359.384	342.93
359.766	341.8
360.148	342.7
360.53	313.78
360.912	313.33
361.294	345.19
361.676	340.22
362.057	337.73
362.439	343.38
362.821	333.89
363.203	342.25
363.584	328.69
363.966	330.73
364.348	320.78
364.729	321.23
365.111	308.58
365.493	307.22
365.874	332.31
366.256	310.39
366.637	315.36
367.019	304.74
367.4	305.87
367.781	320.1
368.163	307.9
368.544	301.12
368.925	296.38
369.306	297.96
369.688	309.03
370.069	310.39
370.45	301.12
370.831	321.46
371.212	323.27
371.593	320.1
371.974	303.16
372.355	302.93
372.736	312.2
373.117	318.52
373.498	315.13
373.879	300.67
374.26	315.81
374.641	311.52
375.021	335.92
375.402	316.04
375.783	297.05
376.163	337.51
376.544	345.41
376.925	323.49
377.305	317.17
377.686	314.23
378.066	346.09
378.447	345.41
378.827	320.1
379.208	325.3
379.588	344.28
379.968	307
380.349	319.43
380.729	334.57
381.109	332.08
381.489	344.06
381.87	334.57
382.25	337.96
382.63	330.05
383.01	330.5
383.39	329.6
383.77	339.77
384.15	361.23
384.53	328.47
384.91	323.72
385.29	349.71
385.67	338.18
386.049	321.46
386.429	337.73
386.809	342.48
387.189	340.89
387.568	326.88
387.948	355.58
388.328	347.22
388.707	351.29
389.087	344.74
389.466	364.62
389.846	355.58
390.225	369.82
390.605	348.13
390.984	374.79
391.363	362.14
391.743	370.05
392.122	367.79
392.501	363.95
392.881	394
393.26	370.05
393.639	359.2
394.018	371.85
394.397	370.72
394.776	371.4
395.155	382.7
395.534	382.93
395.913	375.7
396.292	387
396.671	386.09
397.05	377.5
397.429	374.34
397.808	390.39
398.186	386.32
398.565	392.65
398.944	396.26
399.323	364.62
399.701	407.79
400.08	390.39
400.458	388.13
400.837	390.61
401.215	415.02
401.594	404.17
401.972	396.71
402.351	386.09
402.729	385.41
403.107	397.39
403.486	424.06
403.864	401.01
404.242	417.5
404.62	403.49
404.999	401.46
405.377	410.95
405.755	413.66
406.133	439.65
406.511	408.92
406.889	408.01
407.267	419.09
407.645	428.12
408.023	432.42
408.401	442.59
408.779	445.75
409.156	426.77
409.534	425.64
409.912	444.62
410.29	432.42
410.667	461.12
411.045	467.67
411.422	472.19
411.8	466.54
412.178	458.18
412.555	467.22
412.933	453.66
413.31	486.43
413.687	478.97
414.065	464.06
414.442	496.6
414.819	478.52
415.197	497.95
415.574	482.59
415.951	501.12
416.328	504.51
416.705	512.19
417.082	485.52
417.46	527.78
417.837	529.59
418.214	509.25
418.591	539.08
418.967	517.39
419.344	526.2
419.721	530.27
420.098	530.72
420.475	542.92
420.852	532.98
421.228	540.44
421.605	534.56
421.982	570.49
422.358	555.58
422.735	556.71
423.111	579.53
423.488	568.23
423.864	551.51
424.241	589.02
424.617	563.49
424.994	572.08
425.37	582.47
425.746	584.73
426.123	579.31
426.499	582.47
426.875	589.93
427.251	622.47
427.627	626.76
428.003	626.31
428.379	625.86
428.756	635.12
429.132	657.27
429.507	625.86
429.883	643.03
430.259	645.97
430.635	655.69
431.011	660.43
431.387	664.05
431.763	663.6
432.138	666.08
432.514	667.21
432.89	686.87
433.265	698.17
433.641	699.08
434.016	698.4
434.392	685.29
434.767	724.61
435.143	712.64
435.518	686.42
435.894	735.46
436.269	731.62
436.644	756.48
437.02	771.39
437.395	742.01
437.77	747.21
438.145	775.01
438.52	769.36
438.895	800.09
439.271	780.88
439.646	774.78
440.021	784.95
440.395	785.86
440.77	789.24
441.145	787.66
441.52	812.75
441.895	801.67
442.27	815.68
442.645	808.45
443.019	842.8
443.394	811.17
443.769	830.15
444.143	851.62
444.518	847.55
444.892	833.99
445.267	832.41
445.641	862.92
446.016	881.22
446.39	879.19
446.764	860.43
447.139	864.27
447.513	884.61
447.887	879.19
448.262	886.64
448.636	897.72
449.01	891.39
449.384	883.71
449.758	903.37
450.132	888.45
450.506	922.57
450.88	912.86
451.254	913.08
451.628	925.74
452.002	938.85
452.376	927.32
452.75	942.69
453.123	950.37
453.497	966.19
453.871	946.53
454.244	981.1
454.618	981.56
454.992	966.64
455.365	1015
455.739	1003.93
456.112	1020.43
456.486	1015.45
456.859	1033.31
457.232	1056.81
457.606	1057.49
457.979	1051.16
458.352	1072.4
458.725	1088.9
459.099	1124.15
459.472	1098.16
459.845	1113.3
460.218	1135.68
460.591	1131.61
460.964	1151.04
461.337	1173.19
461.71	1152.17
462.083	1202.57
462.456	1207.31
462.829	1194.21
463.201	1216.13
463.574	1221.78
463.947	1229.23
464.32	1240.76
464.692	1240.76
465.065	1263.36
465.438	1292.96
465.81	1295.45
466.183	1299.29
466.555	1311.94
466.928	1324.6
467.3	1334.99
467.672	1368.66
468.045	1388.1
468.417	1393.3
468.789	1396.69
469.161	1396.01
469.534	1439.17
469.906	1454.31
470.278	1440.53
470.65	1491.83
471.022	1509.23
471.394	1531.37
471.766	1561.65
472.138	1552.84
472.51	1566.85
472.882	1618.15
473.253	1620.64
473.625	1652.27
473.997	1673.29
474.369	1679.39
474.74	1748.77
475.112	1779.28
475.484	1733.4
475.855	1828.99
476.227	1820.4
476.598	1865.83
476.97	1881.19
477.341	1937.92
477.713	1930.68
478.084	1928.42
478.455	2015.2
478.827	2019.72
479.198	2045.48
479.569	2079.61
479.94	2146.27
480.311	2174.29
480.682	2208.64
481.053	2263.56
481.424	2294.29
481.795	2296.55
482.166	2315.53
482.537	2368.41
482.908	2433.72
483.279	2434.17
483.65	2482.53
484.021	2526.83
484.391	2600.72
484.762	2591.68
485.133	2591.91
485.503	2645.02
485.874	2748.29
486.244	2763.66
486.615	2780.6
486.985	2843.88
487.356	2867.38
487.726	2883.88
488.097	2971.33
488.467	2957.32
488.837	3034.38
489.207	3050.2
489.578	3110.77
489.948	3174.49
490.318	3161.16
490.688	3244.32
491.058	3270.76
491.428	3338.56
491.798	3345.34
492.168	3414.71
492.538	3416.29
492.908	3484.09
493.278	3561.6
493.648	3492
494.017	3596.63
494.387	3585.1
494.757	3656.51
495.126	3630.53
495.496	3681.15
495.866	3714.14
496.235	3756.85
496.605	3755.49
496.974	3855.83
497.344	3850.18
497.713	3917.98
498.082	3937.18
498.452	3951.42
498.821	3963.62
499.19	4000.46
499.559	4021.02
499.928	3998.88
500.298	4090.17
500.667	4090.4
501.036	4114.36
501.405	4135.6
501.774	4171.53
502.143	4193.9
502.512	4264.41
502.88	4268.02
503.249	4245.43
503.618	4250.62
503.987	4298.53
504.356	4323.84
504.724	4323.84
505.093	4383.05
505.462	4397.51
505.83	4443.61
506.199	4459.2
506.567	4438.87
506.936	4458.75
507.304	4570.84
507.672	4487.23
508.041	4607.45
508.409	4595.47
508.777	4615.81
509.145	4645.64
509.514	4648.35
509.882	4684.06
510.25	4636.83
510.618	4756.6
510.986	4715.24
511.354	4820.78
511.722	4769.93
512.09	4829.59
512.458	4814.22
512.826	4824.84
513.193	4873.21
513.561	4845.64
513.929	4877.72
514.297	4931.73
514.664	4920.89
515.032	4941.23
515.4	4989.81
515.767	4975.8
516.135	5025.07
516.502	5042.01
516.869	5055.12
517.237	5106.19
517.604	5024.16
517.972	5104.16
518.339	5171.28
518.706	5145.97
519.073	5209.47
519.44	5203.14
519.808	5298.73
520.175	5258.73
520.542	5324.49
520.909	5334.89
521.276	5292.4
521.643	5371.05
522.009	5364.94
522.376	5372.85
522.743	5411.72
523.11	5436.13
523.477	5523.81
523.843	5552.28
524.21	5574.43
524.577	5613.75
524.943	5595.67
525.31	5597.48
525.676	5666.18
526.043	5708.21
526.409	5753.63
526.776	5806.74
527.142	5796.12
527.508	5809.9
527.874	5818.27
528.241	5907.75
528.607	5890.35
528.973	5926.28
529.339	5931.93
529.705	5994.08
530.071	6030.01
530.437	6091.25
530.803	6113.85
531.169	6172.38
531.535	6129.67
531.901	6151.82
532.267	6215.54
532.632	6242.66
532.998	6263.45
533.364	6245.37
533.73	6294.64
534.095	6321.3
534.461	6345.93
534.826	6361.08
535.192	6397.46
535.557	6441.3
535.923	6427.74
536.288	6434.75
536.653	6540.51
537.019	6469.1
537.384	6512.71
537.749	6579.15
538.114	6627.51
538.479	6655.08
538.845	6665.7
539.21	6648.53
539.575	6677.9
539.94	6691.46
540.305	6757.22
540.67	6754.29
541.034	6760.16
541.399	6871.8
541.764	6857.33
542.129	6858.69
542.494	6821.4
542.858	6921.06
543.223	6900.95
543.587	7039.02
543.952	6961.96
544.316	6985.01
544.681	7039.25
545.045	7071.34
545.41	7114.73
545.774	7173.94
546.138	7138.68
546.503	7158.79
546.867	7145.01
547.231	7248.06
547.595	7281.05
547.959	7281.28
548.324	7314.5
548.688	7375.29
549.052	7355.85
549.416	7373.25
549.779	7379.81
550.143	7445.79
550.507	7416.64
550.871	7481.95
551.235	7485.34
551.599	7553.59
551.962	7586.13
552.326	7555.17
552.689	7614.15
553.053	7580.93
553.417	7659.57
553.78	7750.87
554.143	7658.67
554.507	7710.87
554.87	7760.36
555.234	7869.28
555.597	7787.25
555.96	7785.45
556.323	7848.04
556.686	7913.35
557.05	7936.18
557.413	7917.64
557.776	7909.96
558.139	7972.33
558.502	8034.7
558.865	7993.12
559.228	8050.3
559.59	8131.42
559.953	8158.77
560.316	8241.03
560.679	8180.69
561.041	8246.9
561.404	8323.06
561.767	8247.35
562.129	8281.48
562.492	8379.33
562.854	8374.13
563.217	8366.9
563.579	8385.43
563.941	8438.99
564.304	8458.65
564.666	8525.99
565.028	8595.82
565.39	8561.7
565.753	8533
566.115	8611.86
566.477	8638.98
566.839	8657.06
567.201	8679.43
567.563	8774.57
567.925	8806.89
568.287	8793.1
568.648	8864.06
569.01	8888.92
569.372	8918.97
569.734	8914.91
570.095	8954.68
570.457	9015.7
570.819	9090.72
571.18	9145.18
571.542	9135.92
571.903	9219.08
572.265	9275.35
572.626	9223.83
572.987	9307.44
573.349	9429.02
573.71	9406.19
574.071	9423.37
574.432	9466.98
574.794	9558.96
575.155	9673.76
575.516	9604.83
575.877	9656.13
576.238	9857.25
576.599	9813.19
576.96	9930.02
577.32	9929.12
577.681	10074.65
578.042	10113.97
578.403	10154.87
578.763	10281.42
579.124	10381.08
579.485	10508.76
579.845	10593.73
580.206	10661.98
580.566	10799.15
580.927	10921.63
581.287	11017.22
581.648	11106.04
582.008	11311.23
582.368	11399.59
582.728	11545.57
583.089	11641.39
583.449	11756.64
583.809	11930.65
584.169	12162.51
584.529	12192.79
584.889	12446.79
585.249	12531.31
585.609	12719.55
585.969	12954.35
586.329	13106.44
586.688	13374.9
587.048	13519.76
587.408	13669.36
587.768	13932.85
588.127	14225.95
588.487	14338.49
588.846	14668.88
589.206	14758.14
589.565	15032.03
589.925	15367.39
590.284	15551.79
590.643	15786.59
591.003	16128.28
591.362	16368.95
591.721	16544.31
592.08	16900.91
592.44	17160.34
592.799	17447.34
593.158	17652.08
593.517	17992.63
593.876	18241.89
594.235	18466.29
594.593	18737.25
594.952	19050.91
595.311	19247.74
595.67	19598.47
596.029	19976.31
596.387	20307.15
596.746	20540.82
597.104	20732.9
597.463	21107.13
597.822	21342.15
598.18	21606.78
598.538	21778.3
598.897	22158.85
599.255	22293.31
599.613	22911.83
599.972	23019.85
600.33	23280.86
600.688	23521.75
601.046	23850.33
601.404	24129.87
601.762	24360.6
602.12	24754.49
602.478	24924.43
602.836	25225.21
603.194	25353.57
603.552	25686.9
603.91	25755.59
604.268	26196.03
604.625	26358.29
604.983	26760.09
605.341	26834.66
605.698	27232.39
606.056	27421.54
606.413	27747.18
606.771	27954.18
607.128	28286.83
607.485	28338.35
607.843	28532.24
608.2	28935.85
608.557	29143.98
608.914	29368.15
609.272	29631.65
609.629	29800.91
609.986	30154.57
610.343	30182.37
610.7	30602.7
611.057	30697.84
611.414	30756.37
611.771	31119.97
612.127	31306.86
612.484	31351.38
612.841	31759.05
613.198	31686.96
613.554	31928.31
613.911	32210.57
614.267	32301.64
614.624	32407.85
614.98	32638.12
615.337	32896.42
615.693	32977.78
616.05	33057.32
616.406	33406.47
616.762	33435.84
617.118	33406.01
617.475	33753.58
617.831	33773.69
618.187	34020.69
618.543	34209.38
618.899	34453.44
619.255	34639.2
619.611	34616.83
619.967	34872.64
620.323	35010.49
620.678	35015.69
621.034	34932.98
621.39	35071.51
621.746	35217.27
622.101	35628.55
622.457	35414.32
622.812	35499.29
623.168	35888.89
623.523	35879.85
623.879	36079.84
624.234	35856.12
624.589	36139.05
624.945	36208.2
625.3	36228.31
625.655	36347.41
626.01	36395.09
626.365	36457.23
626.72	36503.11
627.075	36575.2
627.43	36659.26
627.785	36598.25
628.14	36746.04
628.495	36806.6
628.85	36775.87
629.205	36750.33
629.559	37111.91
629.914	37067.16
630.269	37091.34
630.623	36987.16
630.978	36947.39
631.332	37084.79
631.687	37333.59
632.041	36996.88
632.396	37202.52
632.75	37066.71
633.104	37161.85
633.459	36999.37
633.813	37172.69
634.167	37090.89
634.521	37194.39
634.875	37380.15
635.229	37297.21
635.583	37186.71
635.937	37095.18
636.291	37168.85
636.645	37218.57
636.999	37091.34
637.352	37286.59
637.706	37108.97
638.06	37238.68
638.413	37263.77
638.767	37196.88
639.121	37268.96
639.474	37120.72
639.828	37250.88
640.181	37100.38
640.534	37241.85
640.888	37103.32
641.241	36925.92
641.594	37150.55
641.947	37242.52
642.301	37072.36
642.654	37052.7
643.007	37128.4
643.36	36984
643.713	37034.85
644.066	37158.91
644.419	36933.15
644.771	36588.76
645.124	36424.24
645.477	36436.44
645.83	36248.65
646.182	36069.9
646.535	35962.78
646.888	35938.6
647.24	35890.92
647.593	36016.12
647.945	36024.93
648.298	35782.67
648.65	35721.43
649.002	35793.97
649.355	35920.07
649.707	35747.87
650.059	36006.4
650.411	36406.16
650.763	36475.76
651.115	36949.42
651.467	36714.85
651.819	36694.52
652.171	36582.88
652.523	36579.94
652.875	36684.57
653.227	36481.87
653.578	36734.74
653.93	36467.85
654.282	36498.14
654.633	36486.84
654.985	36572.26
655.337	36424.47
655.688	36436.22
656.039	36578.81
656.391	36399.16
656.742	36324.58
657.094	36445.71
657.445	36455.88
657.796	36435.77
658.147	36332.04
658.498	36387.18
658.849	36432.83
659.2	36480.96
659.551	36349.44
659.902	36538.36
660.253	36396.67
660.604	36534.29
660.955	36186.51
661.306	36419.27
661.656	36294.53
662.007	36231.93
662.358	36318.93
662.708	36311.47
663.059	36366.16
663.409	36069.22
663.76	36202.32
664.11	36264.47
664.461	36259.95
664.811	36242.55
665.161	36327.07
665.511	36123.91
665.862	36036.45
666.212	36386.05
666.562	36331.59
666.912	36138.6
667.262	36068.54
667.612	36106.06
667.962	36290.46
668.312	36157.35
668.662	36213.62
669.011	36090.92
669.361	35998.04
669.711	36119.16
670.06	36056.11
670.41	35938.83
670.76	35971.14
671.109	36125.94
671.459	36048.2
671.808	36023.57
672.157	36003.69
672.507	35871.26
672.856	35894.54
673.205	35938.15
673.554	36086.4
673.904	35978.15
674.253	36148.99
674.602	35854.54
674.951	35442.12
675.3	35322.12
675.649	35838.27
675.998	35777.03
676.346	35833.75
676.695	35895.44
677.044	35724.6
677.393	35712.62
677.741	35821.54
678.09	35749.23
678.438	35532.96
678.787	35923.46
679.135	35737.03
679.484	35401.67
679.832	35648.67
680.181	35330.48
680.529	35434.44
680.877	35450.48
681.225	35348.79
681.573	35543.59
681.922	35219.3
682.27	35202.8
682.618	35223.59
682.966	35164.61
683.314	35152.18
683.661	34908.12
684.009	34855.69
684.357	34930.49
684.705	34821.34
685.053	34825.41
685.4	34786.32
685.748	34597.4
686.095	34764.62
686.443	34559.43
686.79	34631.97
687.138	34613.67
687.485	34484.63
687.832	34459.09
688.18	34493.44
688.527	34333.9
688.874	34346.1
689.221	34194.24
689.568	34060.46
689.915	33990.63
690.262	34022.27
690.609	34017.3
690.956	33841.03
691.303	33709.51
691.65	33563.75
691.997	33579.12
692.344	33447.82
692.69	33408.95
693.037	33409.4
693.383	33094.61
693.73	33238.79
694.077	32958.34
694.423	33073.37
694.769	32927.16
695.116	32884.45
695.462	32850.55
695.808	32823.66
696.155	32752.02
696.501	32523.55
696.847	32509.99
697.193	32280.85
697.539	32398.13
697.885	32206.95
698.231	32101.64
698.577	31984.81
698.923	31953.17
699.269	31900.52
699.614	31821.88
699.96	31736.23
700.306	31689.45
700.651	31667.3
700.997	31515.89
701.342	31354.99
701.688	31489.91
702.033	31357.93
702.379	31285.84
702.724	31086.53
703.069	31206.98
703.415	30929.47
703.76	30888.34
704.105	30972.63
704.45	30840.88
704.795	30635.01
705.14	30642.25
705.485	30527.45
705.83	30498.07
706.175	30396.38
706.52	30475.92
706.865	30291.29
707.209	30190.73
707.554	29974.92
707.899	30198.64
708.243	30066.22
708.588	29893.34
708.932	29847.46
709.277	29788.48
709.621	29737.86
709.966	29478.66
710.31	29728.82
710.654	29420.36
710.998	29524.08
711.342	29412
711.687	29382.17
712.031	29274.82
712.375	29069.86
712.719	29236.41
713.063	29085.68
713.407	29171.78
713.75	29016.3
714.094	29078.22
714.438	28880.94
714.782	28969.29
715.125	28736.31
715.469	28803.42
715.812	28674.39
716.156	28611.11
716.499	28596.88
716.843	28589.42
717.186	28318.92
717.53	28586.48
717.873	28538.12
718.216	28367.5
718.559	28399.14
718.902	28179.26
719.246	28109.88
719.589	28132.93
719.932	28032.37
720.275	28128.41
720.617	27919.15
720.96	27876.22
721.303	27918.02
721.646	27854.07
721.989	27638.48
722.331	27768.87
722.674	27680.06
723.016	27703.57
723.359	27589.67
723.701	27604.81
724.044	27326.85
724.386	27209.79
724.729	27572.5
725.071	27301.54
725.413	27286.4
725.755	27333.86
726.097	27142.22
726.439	27042.57
726.782	27137.93
727.124	27143.35
727.465	27017.71
727.807	27028.55
728.149	26992.85
728.491	26960.08
728.833	26915.79
729.175	26851.84
729.516	26740.65
729.858	26711.28
730.199	26765.51
730.541	26748.79
730.882	26785.17
731.224	26794.21
731.565	26598.96
731.906	26617.94
732.248	26571.84
732.589	26431.96
732.93	26348.57
733.271	26342.47
733.612	26388.8
733.953	26392.87
734.294	26227.45
734.635	26251.4
734.976	26326.65
735.317	26095.25
735.658	26014.8
735.999	26144.74
736.339	26106.32
736.68	26049.6
737.021	26047.56
737.361	25879.88
737.702	26108.81
738.042	25871.07
738.383	25747.91
738.723	25950.39
739.063	25731.64
739.404	25841.24
739.744	25875.14
740.084	25707.69
740.424	25680.34
740.764	25582.04
741.104	25678.31
741.444	25538.88
741.784	25551.76
742.124	25522.15
742.464	25458.65
742.804	25362.84
743.143	25360.58
743.483	25360.12
743.823	25328.03
744.162	25298.88
744.502	25291.2
744.841	25132.56
745.181	25197.64
745.52	25172.11
745.86	25206.68
746.199	25208.26
746.538	25045.56
746.877	25040.13
747.216	25136.4
747.556	24928.72
747.895	24990.64
748.234	24830.87
748.573	24821.61
748.911	24887.59
749.25	24775.51
749.589	24692.57
749.928	24744.55
750.267	24725.79
750.605	24621.16
750.944	24619.13
751.283	24491.22
751.621	24542.07
751.96	24420.49
752.298	24382.07
752.636	24399.92
752.975	24291.68
753.313	24235.41
753.651	24321.51
753.989	24178.46
754.327	24098.69
754.666	23976.88
755.004	24034.96
755.342	24082.42
755.679	24037.9
756.017	23946.15
756.355	23907.28
756.693	23803.55
757.031	23857.79
757.368	23805.36
757.706	23736.89
758.044	23717.46
758.381	23728.53
758.719	23489.66
759.056	23619.83
759.394	23413.51
759.731	23188.88
760.068	23211.48
760.405	23243.34
760.743	23151.82
761.08	23152.72
761.417	23059.62
761.754	22981.43
762.091	22941.66
762.428	22871.15
762.765	22671.16
763.102	22803.58
763.438	22563.81
763.775	22485.62
764.112	22579.18
764.449	22540.76
764.785	22472.97
765.122	22318.85
765.458	22098.74
765.795	22155.91
766.131	22202.47
766.467	22014.45
766.804	21996.82
767.14	21910.72
767.476	22014.68
767.812	21759.31
768.148	21770.39
768.485	21618.08
768.821	21483.62
769.157	21570.62
769.492	21369.49
769.828	21339.66
770.164	21152.78
770.5	21207.46
770.836	21109.61
771.171	20991.43
771.507	21084.98
771.842	20917.53
772.178	20865.55
772.513	20837.98
772.849	20793.69
773.184	20634.37
773.519	20671.89
773.855	20586.01
774.19	20455.17
774.525	20380.37
774.86	20383.98
775.195	20273.25
775.53	20181.05
775.865	20146.25
776.2	19929.53
776.535	19884.34
776.87	19814.73
777.205	19821.29
777.539	19670.78
777.874	19784.23
778.209	19488.87
778.543	19450
778.878	19368.19
779.212	19396.21
779.547	19344.46
779.881	19297.01
780.215	19159.84
780.55	19188.99
780.884	19062.89
781.218	18979.27
781.552	18990.12
781.886	18884.59
782.22	18807.3
782.554	18629.45
782.888	18528.44
783.222	18478.72
783.556	18408.89
783.889	18436.01
784.223	18141.33
784.557	18270.59
784.89	18295.9
785.224	18116.02
785.557	18119.18
785.891	17942.01
786.224	18004.39
786.558	18002.8
786.891	17782.47
787.224	17746.31
787.557	17620.44
787.891	17707.22
788.224	17614.57
788.557	17570.05
788.89	17444.63
789.223	17482.37
789.556	17358.98
789.888	17293.67
790.221	17354.23
790.554	17146.78
790.887	17110.17
791.219	17045.77
791.552	17056.61
791.884	16903.62
792.217	16915.37
792.549	16753.12
792.882	16730.97
793.214	16679.45
793.546	16594.48
793.879	16522.84
794.211	16384.77
794.543	16521.26
794.875	16433.13
795.207	16453.69
795.539	16310.87
795.871	16375.05
796.203	16248.73
796.535	16080.37
796.867	16112.68
797.198	16036.75
797.53	16019.35
797.862	15978.68
798.193	16024.55
798.525	15861.62
798.856	15940.71
799.188	15663.88
799.519	15682.64
799.85	15547.05
800.182	15557.67
800.513	15577.56
800.844	15531
801.175	15444
801.506	15463.21
801.837	15342.08
802.168	15364.45
802.499	15285.81
802.83	15185.93
803.161	15135.31
803.491	15085.14
803.822	15117.46
804.153	14978.48
804.483	14961.98
804.814	14930.79
805.145	14887.18
805.475	14829.55
805.805	14860.29
806.136	14782.55
806.466	14826.84
806.796	14740.97
807.126	14616.23
807.457	14646.51
807.787	14498.04
808.117	14489.9
808.447	14426.17
808.777	14445.83
809.107	14396.12
809.436	14318.83
809.766	14320.41
810.096	14283.81
810.426	14273.64
810.755	14281.32
811.085	14217.37
811.414	14141.66
811.744	14115.22
812.073	13978.05
812.403	14012.4
812.732	14035
813.061	13959.52
813.39	13836.81
813.719	13778.73
814.049	13843.82
814.378	13842.46
814.707	13737.6
815.036	13806.53
815.365	13721.56
815.693	13617.16
816.022	13611.28
816.351	13580.09
816.68	13501.45
817.008	13522.24
817.337	13457.16
817.665	13358.86
817.994	13399.31
818.322	13413.09
818.651	13272.08
818.979	13228.47
819.307	13345.98
819.636	13234.57
819.964	13110.05
820.292	13213.32
820.62	13211.29
820.948	13144.63
821.276	13187.56
821.604	13204.51
821.932	13164.51
822.259	13161.12
822.587	13107.79
822.915	13093.33
823.243	13119.77
823.57	13139.2
823.898	13128.81
824.225	13009.94
824.553	13059.2
824.88	13077.51
825.207	13107.56
825.535	13002.48
825.862	13048.36
826.189	13029.37
826.516	13113.67
826.843	13134.68
827.17	13071.86
827.497	13087
827.824	13099.2
828.151	13061.69
828.478	13056.94
828.805	13026.21
829.131	12982.82
829.458	13007.91
829.785	12963.39
830.111	12982.6
830.438	13073.44
830.764	13046.78
831.09	13011.52
831.417	13013.1
831.743	13024.4
832.069	13079.77
832.395	12949.38
832.722	13077.51
833.048	13025.08
833.374	12982.82
833.7	12903.73
834.026	12890.17
834.351	12930.39
834.677	12912.32
835.003	12934.69
835.329	12818.98
835.654	12854.24
835.98	12798.19
836.306	12804.52
836.631	12734.47
836.956	12843.17
837.282	12794.13
837.607	12704.41
837.932	12682.04
838.258	12659.22
838.583	12632.78
838.908	12632.78
839.233	12631.19
839.558	12568.37
839.883	12564.08
840.208	12527.24
840.533	12469.39
840.858	12537.86
841.182	12490.41
841.507	12465.32
841.832	12402.95
842.156	12405.44
842.481	12451.99
842.805	12365.21
843.13	12307.59
843.454	12299
843.778	12293.12
844.103	12235.5
844.427	12217.64
844.751	12095.84
845.075	12151.88
845.399	12126.12
845.723	12038.44
846.047	12044.99
846.371	11983.98
846.695	12015.84
847.019	11892.23
847.343	11816.75
847.666	11677.55
847.99	11729.52
848.313	11699.47
848.637	11541.96
848.96	11591.9
849.284	11612.91
849.607	11500.15
849.931	11408.4
850.254	11334.73
850.577	11350.55
850.9	11294.96
851.223	11269.65
851.546	11239.14
851.869	11079.82
852.192	11191.68
852.515	11140.39
852.838	11064.23
853.161	11089.31
853.483	11004.34
853.806	10902.88
854.129	10911.92
854.451	10872.14
854.774	10880.96
855.096	10796.67
855.419	10800.96
855.741	10789.43
856.063	10621.08
856.385	10625.6
856.708	10534.75
857.03	10596.44
857.352	10633.73
857.674	10544.92
857.996	10525.49
858.318	10478.03
858.64	10398.26
858.961	10402.55
859.283	10415.43
859.605	10398.71
859.926	10432.61
860.248	10298.83
860.57	10257.47
860.891	10224.02
861.212	10226.06
861.534	10245.49
861.855	10226.06
862.176	10206.85
862.498	10120.3
862.819	10073.75
863.14	10071.94
863.461	10074.88
863.782	10005.05
864.103	10025.39
864.424	9991.26
864.745	9972.05
865.065	9951.04
865.386	9935.9
865.707	9972.05
866.027	9939.29
866.348	9887.99
866.668	9912.62
866.989	9832.85
867.309	9765.28
867.63	9808.44
867.95	9812.96
868.27	9768.9
868.59	9779.06
868.91	9811.61
869.23	9740.65
869.55	9715.11
869.87	9733.64
870.19	9702.23
870.51	9640.76
870.83	9742.23
871.15	9596.7
871.469	9643.7
871.789	9625.62
872.109	9570.26
872.428	9608.22
872.748	9577.71
873.067	9604.83
873.386	9620.2
873.706	9544.95
874.025	9473.99
874.344	9405.74
874.663	9498.85
874.982	9409.13
875.301	9417.27
875.62	9402.8
875.939	9363.93
876.258	9393.54
876.577	9379.98
876.896	9321.68
877.214	9303.82
877.533	9285.52
877.852	9307.44
878.17	9301.79
878.489	9280.55
878.807	9298.85
879.125	9232.64
879.444	9261.11
879.762	9171.85
880.08	9170.27
880.398	9130.95
880.716	9134.11
881.034	9157.61
881.352	9168.91
881.67	9123.04
881.988	9113.77
882.306	9078.07
882.624	9077.16
882.941	9000.55
883.259	8990.84
883.577	8985.87
883.894	8916.26
884.212	8929.37
884.529	8894.79
884.846	8937.51
885.164	8914
885.481	8844.17
885.798	8869.94
886.115	8789.49
886.432	8810.28
886.75	8803.5
887.067	8820.22
887.383	8741.58
887.7	8771.18
888.017	8645.76
888.334	8725.31
888.651	8647.8
888.967	8687.34
889.284	8627.68
889.6	8541.58
889.917	8493.22
890.233	8514.69
890.55	8485.77
890.866	8532.09
891.182	8459.1
891.498	8467.01
891.815	8408.03
892.131	8362.83
892.447	8357.86
892.763	8341.81
893.079	8307.92
893.395	8294.13
893.71	8281.93
894.026	8271.53
894.342	8232.66
894.657	8219.33
894.973	8161.25
895.289	8191.99
895.604	8161.25
895.92	8107.92
896.235	8011.65
896.55	8072.22
896.865	8038.55
897.181	8010.75
897.496	7973.01
897.811	7946.12
898.126	7907.25
898.441	7862.73
898.756	7930.53
899.071	7871.54
899.386	7821.15
899.7	7708.16
900.015	7762.85
900.33	7655.05
900.644	7663.41
900.959	7710.87
901.273	7617.09
901.588	7552.23
901.902	7578.67
902.216	7532.57
902.531	7490.31
902.845	7420.48
903.159	7450.31
903.473	7379.81
903.787	7370.54
904.101	7359.47
904.415	7354.72
904.729	7354.27
905.042	7270.43
905.356	7302.97
905.67	7225.01
905.984	7265.46
906.297	7231.11
906.611	7177.78
906.924	7151.34
907.237	7113.82
907.551	7123.54
907.864	7057.55
908.177	7015.52
908.491	6990.21
908.804	6987.27
909.117	6985.69
909.43	6911.12
909.743	6890.33
910.056	6885.81
910.368	6792.02
910.681	6825.02
910.994	6778.24
911.307	6772.59
911.619	6731.24
911.932	6717.22
912.244	6701.18
912.557	6688.75
912.869	6630
913.181	6642.2
913.494	6598.58
913.806	6545.25
914.118	6521.3
914.43	6489.43
914.742	6474.75
915.054	6397.01
915.366	6382.77
915.678	6383
915.99	6345.71
916.302	6296.44
916.613	6315.2
916.925	6275.2
917.236	6241.08
917.548	6217.58
917.859	6222.77
918.171	6142.78
918.482	6102.78
918.794	6141.87
919.105	6104.81
919.416	6075.89
919.727	6076.79
920.038	6015.1
920.349	5992.05
920.66	5969.45
920.971	5956.34
921.282	5931.03
921.593	5860.3
921.903	5842.67
922.214	5823.24
922.525	5846.29
922.835	5784.14
923.146	5782.56
923.456	5823.24
923.767	5727.42
924.077	5729.45
924.387	5660.08
924.697	5667.31
925.008	5653.98
925.318	5627.99
925.628	5603.13
925.938	5559.29
926.248	5501.21
926.558	5482.45
926.867	5498.5
927.177	5483.13
927.487	5487.2
927.796	5425.06
928.106	5438.61
928.416	5395.45
928.725	5393.64
929.034	5316.36
929.344	5370.37
929.653	5318.62
929.962	5280.43
930.271	5251.95
930.581	5219.18
930.89	5193.87
931.199	5140.77
931.508	5176.93
931.817	5145.29
932.125	5126.31
932.434	5137.61
932.743	5112.52
933.051	5048.79
933.36	5007.44
933.669	4957.04
933.977	5018.29
934.286	4948.46
934.594	4983.26
934.902	4941.68
935.21	4924.73
935.519	4905.97
935.827	4879.76
936.135	4891.96
936.443	4814.9
936.751	4751.85
937.059	4769.25
937.367	4734
937.674	4700.33
937.982	4682.02
938.29	4679.99
938.597	4682.7
938.905	4663.49
939.213	4628.24
939.52	4653.78
939.827	4611.74
940.135	4586.66
940.442	4550.95
940.749	4540.33
941.056	4544.85
941.363	4473.67
941.67	4447.23
941.977	4468.92
942.284	4445.19
942.591	4449.26
942.898	4428.7
943.205	4425.53
943.511	4385.99
943.818	4350.51
944.125	4366.55
944.431	4276.16
944.738	4310.51
945.044	4323.39
945.35	4273.45
945.657	4256.27
945.963	4239.78
946.269	4230.06
946.575	4214.92
946.881	4167.24
947.187	4147.57
947.493	4144.18
947.799	4105.99
948.105	4056.05
948.41	4068.71
948.716	4031.19
949.022	4066.9
949.327	4040.01
949.633	3983.29
949.938	3984.87
950.244	3996.39
950.549	3934.02
950.854	3908.03
951.16	3934.92
951.465	3875.04
951.77	3904.87
952.075	3895.6
952.38	3840.46
952.685	3883.85
952.99	3790.75
953.294	3821.26
953.599	3783.29
953.904	3811.31
954.209	3736.29
954.513	3775.61
954.818	3771.54
955.122	3713.46
955.426	3687.02
955.731	3662.84
956.035	3680.69
956.339	3647.47
956.643	3631.88
956.948	3641.37
957.252	3612.22
957.556	3631.66
957.86	3578.32
958.163	3582.17
958.467	3538.1
958.771	3573.8
959.075	3471.43
959.378	3486.35
959.682	3512.79
959.985	3494.94
960.289	3436.18
960.592	3455.16
960.896	3414.26
961.199	3411.1
961.502	3400.25
961.805	3385.11
962.108	3369.97
962.411	3325
962.714	3297.88
963.017	3327.26
963.32	3291.55
963.623	3313.02
963.926	3313.02
964.228	3317.77
964.531	3267.6
964.833	3240.93
965.136	3229.41
965.438	3180.14
965.741	3210.88
966.043	3207.03
966.345	3165.68
966.648	3177.88
966.95	3191.44
967.252	3120.26
967.554	3108.05
967.856	3108.05
968.158	3093.14
968.46	3092.69
968.761	3095.17
969.063	3032.12
969.365	3030.09
969.666	3022.18
969.968	3025.57
970.269	2998.23
970.571	2995.51
970.872	2977.21
971.174	2924.56
971.475	2940.83
971.776	2908.74
972.077	2935.4
972.378	2897.89
972.679	2922.75
972.98	2877.33
973.281	2880.04
973.582	2860.38
973.883	2851.34
974.183	2833.71
974.484	2843.65
974.785	2784.22
975.085	2833.94
975.386	2839.59
975.686	2776.09
975.986	2751
976.287	2727.95
976.587	2713.04
976.887	2753.26
977.187	2721.85
977.487	2694.28
977.787	2676.65
978.087	2704.22
978.387	2672.81
978.687	2640.04
978.987	2664
979.286	2638.69
979.586	2646.6
979.885	2595.07
980.185	2620.61
980.484	2562.53
980.784	2574.73
981.083	2564.57
981.382	2586.94
981.682	2548.97
981.981	2551.01
982.28	2550.55
982.579	2524.11
982.878	2492.7
983.177	2509.65
983.475	2488.18
983.774	2487.51
984.073	2416.55
984.372	2421.52
984.67	2427.62
984.969	2408.41
985.267	2423.55
985.566	2386.04
985.864	2392.59
986.162	2367.28
986.461	2389.88
986.759	2360.28
987.057	2345.36
987.355	2347.17
987.653	2348.07
987.951	2302.88
988.249	2319.6
988.547	2305.14
988.844	2287.28
989.142	2280.73
989.44	2272.14
989.737	2257.45
990.035	2266.49
990.332	2242.54
990.63	2202.99
990.927	2200.96
991.224	2216.33
991.521	2180.39
991.819	2208.19
992.116	2200.28
992.413	2184.91
992.71	2137.23
993.006	2137.23
993.303	2130.9
993.6	2127.29
993.897	2101.98
994.193	2136.1
994.49	2110.79
994.787	2088.65
995.083	2033.51
995.379	2024.24
995.676	2054.3
995.972	2028.99
996.268	2017.24
996.565	2014.3
996.861	2006.16
997.157	2016.11
997.453	1989.21
997.749	1985.6
998.044	1994.64
998.34	1988.76
998.636	2008.42
998.932	1944.92
999.227	1948.08
999.523	1949.21
999.818	1913.06
1000.114	1913.73
1000.409	1924.13
1000.704	1897.69
1001	1916.67
1001.295	1863.79
1001.59	1896.11
1001.885	1888.65
1002.18	1837.35
1002.475	1838.71
1002.77	1812.27
1003.065	1800.97
1003.359	1795.55
1003.654	1776.56
1003.949	1817.24
1004.243	1801.42
1004.538	1780.18
1004.832	1767.75
1005.127	1766.62
1005.421	1736.11
1005.715	1765.94
1006.009	1736.11
1006.304	1725.49
1006.598	1699.05
1006.892	1698.37
1007.186	1672.39
1007.48	1683.01
1007.773	1675.32
1008.067	1659.96
1008.361	1661.09
1008.655	1646.85
1008.948	1624.93
1009.242	1631.71
1009.535	1617.02
1009.829	1611.6
1010.122	1602.78
1010.415	1585.61
1010.708	1559.39
1011.001	1597.81
1011.295	1567.3
1011.588	1566.17
1011.881	1527.98
1012.173	1537.7
1012.466	1537.47
1012.759	1503.58
1013.052	1534.08
1013.344	1512.16
1013.637	1470.13
1013.93	1470.58
1014.222	1452.28
1014.514	1460.19
1014.807	1456.12
1015.099	1453.63
1015.391	1470.58
1015.683	1399.4
1015.976	1432.39
1016.268	1434.88
1016.56	1395.78
1016.851	1411.83
1017.143	1394.65
1017.435	1396.23
1017.727	1376.57
1018.018	1380.87
1018.31	1349.91
1018.602	1364.37
1018.893	1327.76
1019.185	1342
1019.476	1319.4
1019.767	1337.93
1020.058	1306.29
1020.35	1287.54
1020.641	1286.18
1020.932	1309.01
1021.223	1262
1021.514	1269.23
1021.804	1260.19
1022.095	1253.19
1022.386	1247.99
1022.677	1238.95
1022.967	1230.82
1023.258	1223.36
1023.548	1199.18
1023.839	1193.3
1024.129	1191.95
1024.419	1177.71
1024.709	1166.41
1025	1174.77
1025.29	1161.44
1025.58	1165.51
1025.87	1145.62
1026.16	1138.84
1026.449	1152.17
1026.739	1139.29
1027.029	1127.99
1027.319	1135.45
1027.608	1127.99
1027.898	1084.6
1028.187	1108.78
1028.477	1092.29
1028.766	1090.71
1029.055	1076.69
1029.344	1085.96
1029.634	1060.2
1029.923	1070.82
1030.212	1068.56
1030.501	1037.6
1030.79	1063.81
1031.078	1018.62
1031.367	1022.91
1031.656	988.56
1031.945	1036.02
1032.233	1025.4
1032.522	1012.97
1032.81	996.47
1033.099	998.05
1033.387	979.52
1033.675	983.14
1033.963	970.03
1034.251	976.81
1034.54	977.26
1034.828	972.29
1035.116	970.26
1035.403	945.17
1035.691	954.21
1035.979	931.39
1036.267	955.57
1036.554	947.21
1036.842	923.93
1037.129	883.48
1037.417	916.02
1037.704	902.91
1037.992	883.48
1038.279	887.1
1038.566	872.18
1038.853	872.18
1039.14	872.18
