Data from hue_36_FLMS001491_00086.txt Node
Date: Tue Feb 07 17:30:25 GMT 2017
User: dcchb
Spectrometer: FLMS00149
Trigger mode: 0
Integration Time (sec): 2.000000E-2
Scans to average: 10
Electric dark correction enabled: true
Nonlinearity correction enabled: false
Boxcar width: 0
XAxis mode: Wavelengths
Number of Pixels in Spectrum: 2048
>>>>>Begin Spectral Data<<<<<
341.393	-29.02
341.776	-29.02
342.16	-29.02
342.543	-74.9
342.927	-70.38
343.31	-83.03
343.693	-53.43
344.077	-65.18
344.46	-70.38
344.843	-49.59
345.226	-42.81
345.61	-20.66
345.993	-22.25
346.376	6.23
346.759	1.48
347.142	20.47
347.525	20.69
347.908	62.27
348.291	59.33
348.674	101.59
349.057	135.26
349.44	128.71
349.823	136.62
350.206	148.6
350.588	201.03
350.971	194.25
351.354	231.76
351.737	238.76
352.119	238.99
352.502	267.46
352.884	285.77
353.267	278.76
353.65	295.03
354.032	297.52
354.414	302.27
354.797	319.89
355.179	338.65
355.562	323.96
355.944	331.87
356.326	347.46
356.709	354.02
357.091	344.07
357.473	329.84
357.855	328.48
358.238	343.85
358.62	341.59
359.002	344.52
359.384	323.51
359.766	361.7
360.148	339.78
360.53	337.75
360.912	335.03
361.294	322.83
361.676	334.13
362.057	344.52
362.439	347.24
362.821	318.76
363.203	349.04
363.584	330.06
363.966	301.59
364.348	336.16
364.729	333
365.111	349.27
365.493	318.31
365.874	315.6
366.256	346.11
366.637	332.55
367.019	323.73
367.4	320.8
367.781	298.42
368.163	320.8
368.544	309.05
368.925	308.14
369.306	332.77
369.688	323.51
370.069	316.95
370.45	307.46
370.831	323.28
371.212	318.31
371.593	310.18
371.974	316.5
372.355	325.09
372.736	305.88
373.117	303.62
373.498	324.86
373.879	311.76
374.26	323.06
374.641	341.81
375.021	304.98
375.402	318.31
375.783	336.84
376.163	305.88
376.544	335.26
376.925	336.39
377.305	314.47
377.686	333.9
378.066	327.8
378.447	342.94
378.827	333.68
379.208	323.96
379.588	308.37
379.968	347.24
380.349	337.29
380.729	337.75
381.109	349.27
381.489	337.97
381.87	333.45
382.25	360.8
382.63	329.61
383.01	325.77
383.39	334.58
383.77	351.53
384.15	361.7
384.53	364.86
384.91	356.05
385.29	365.32
385.67	344.52
386.049	343.62
386.429	347.24
386.809	348.14
387.189	351.53
387.568	359.21
387.948	360.12
388.328	358.54
388.707	366.9
389.087	336.39
389.466	354.24
389.846	361.02
390.225	356.5
390.605	369.16
390.984	351.53
391.363	365.32
391.743	358.08
392.122	372.77
392.501	377.29
392.881	380.68
393.26	371.64
393.639	379.33
394.018	366.22
394.397	377.29
394.776	366.67
395.155	387.01
395.534	378.2
395.913	371.87
396.292	360.57
396.671	382.72
397.05	391.98
397.429	381.36
397.808	413
398.186	395.6
398.565	389.5
398.944	375.71
399.323	367.12
399.701	391.76
400.08	384.52
400.458	388.37
400.837	372.77
401.215	382.04
401.594	397.18
401.972	398.99
402.351	405.09
402.729	404.41
403.107	404.18
403.486	389.72
403.864	415.94
404.242	394.92
404.62	425.65
404.999	417.74
405.377	407.12
405.755	420.46
406.133	428.59
406.511	415.03
406.889	405.09
407.267	412.09
407.645	420
408.023	418.65
408.401	447.35
408.779	413.68
409.156	414.13
409.534	424.75
409.912	444.18
410.29	456.16
410.667	440.79
411.045	446.67
411.422	456.39
411.8	437.63
412.178	448.25
412.555	445.54
412.933	456.39
413.31	470.62
413.687	474.69
414.065	467.23
414.442	464.3
414.819	470.85
415.197	482.37
415.574	470.85
415.951	484.18
416.328	487.8
416.705	476.05
417.082	476.05
417.46	489.15
417.837	506.33
418.214	492.54
418.591	496.39
418.967	475.82
419.344	505.65
419.721	497.97
420.098	514.46
420.475	500.23
420.852	499.55
421.228	513.33
421.605	514.69
421.982	520.57
422.358	515.82
422.735	525.76
423.111	515.59
423.488	525.54
423.864	521.92
424.241	523.28
424.617	546.1
424.994	553.11
425.37	544.75
425.746	532.54
426.123	541.58
426.499	543.16
426.875	542.03
427.251	563.95
427.627	524.41
428.003	556.27
428.379	552.65
428.756	570.51
429.132	574.35
429.507	582.94
429.883	558.3
430.259	584.74
430.635	576.61
431.011	558.08
431.387	603.5
431.763	616.38
432.138	599.66
432.514	584.97
432.89	629.49
433.265	605.76
433.641	620
434.016	622.03
434.392	644.86
434.767	624.07
435.143	641.47
435.518	648.47
435.894	640.79
436.269	656.16
436.644	641.92
437.02	657.74
437.395	634.69
437.77	662.26
438.145	683.05
438.52	679.43
438.895	665.87
439.271	698.19
439.646	711.29
440.021	700.67
440.395	715.59
440.77	693.44
441.145	706.55
441.52	730.28
441.895	707.23
442.27	720.33
442.645	712.65
443.019	724.18
443.394	738.19
443.769	745.87
444.143	711.97
444.518	736.6
444.892	741.12
445.267	725.31
445.641	734.8
446.016	758.07
446.39	748.58
446.764	778.41
447.139	757.17
447.513	784.06
447.887	764.17
448.262	763.95
448.636	773.67
449.01	786.32
449.384	767.56
449.758	805.76
450.132	783.61
450.506	802.59
450.88	792.42
451.254	800.33
451.628	790.84
452.002	831.52
452.376	825.42
452.75	820.22
453.123	840.56
453.497	830.16
453.871	842.14
454.244	846.88
454.618	872.19
454.992	878.07
455.365	887.79
455.739	887.11
456.112	895.7
456.486	876.94
456.859	908.13
457.232	930.27
457.606	930.72
457.979	961.91
458.352	933.89
458.725	963.49
459.099	959.42
459.472	978.63
459.845	973.21
460.218	997.39
460.591	998.29
460.964	1012.08
461.337	1020.67
461.71	1008.24
462.083	1032.64
462.456	1055.92
462.829	1059.08
463.201	1058.4
463.574	1071.06
463.947	1094.34
464.32	1107.89
464.692	1117.39
465.065	1112.19
465.438	1144.73
465.81	1093.88
466.183	1168.46
466.555	1210.04
466.928	1199.42
467.3	1218.85
467.672	1237.61
468.045	1255.46
468.417	1247.55
468.789	1299.75
469.161	1274.22
469.534	1315.12
469.906	1335.69
470.278	1338.62
470.65	1382.69
471.022	1392.86
471.394	1407.55
471.766	1432.63
472.138	1435.57
472.51	1474.21
472.882	1551.5
473.253	1507.66
473.625	1579.97
473.997	1620.42
474.369	1636.47
474.74	1622.46
475.112	1666.3
475.484	1690.25
475.855	1758.27
476.227	1763.7
476.598	1830.81
476.97	1841.66
477.341	1940.64
477.713	1966.86
478.084	1986.29
478.455	2079.39
478.827	2101.09
479.198	2173.86
479.569	2168.43
479.94	2219.96
480.311	2322.1
480.682	2376.34
481.053	2414.98
481.424	2462.66
481.795	2545.6
482.166	2615.43
482.537	2656.78
482.908	2751.69
483.279	2779.94
483.65	2873.27
484.021	2979.26
484.391	2988.75
484.762	3074.85
485.133	3166.37
485.503	3159.59
485.874	3296.76
486.244	3369.98
486.615	3494.27
486.985	3540.37
487.356	3698.11
487.726	3731.55
488.097	3834.6
488.467	3884.77
488.837	3987.82
489.207	4065.33
489.578	4174.48
489.948	4244.76
490.318	4375.38
490.688	4463.51
491.058	4548.26
491.428	4626.9
491.798	4701.92
492.168	4880.68
492.538	4921.13
492.908	5025.08
493.278	5085.19
493.648	5142.14
494.017	5249.25
494.387	5361.12
494.757	5411.28
495.126	5509.59
495.496	5604.5
495.866	5635.23
496.235	5733.31
496.605	5911.84
496.974	5949.8
497.344	6037.71
497.713	6164.94
498.082	6191.83
498.452	6297.36
498.821	6366.29
499.19	6405.61
499.559	6463.01
499.928	6560.63
500.298	6657.35
500.667	6767.86
501.036	6831.59
501.405	6895.09
501.774	6922.88
502.143	6980.28
502.512	7065.03
502.88	7186.6
503.249	7193.61
503.618	7314.51
503.987	7304.12
504.356	7415.98
504.724	7445.36
505.093	7579.14
505.462	7584.79
505.83	7688.96
506.199	7733.94
506.567	7834.27
506.936	7879.02
507.304	8012.12
507.672	7977.54
508.041	8134.6
508.409	8185.67
508.777	8265.9
509.145	8355.39
509.514	8352.45
509.882	8498.89
510.25	8451.88
510.618	8520.13
510.986	8584.99
511.354	8651.2
511.722	8766.45
512.09	8923.28
512.458	8824.75
512.826	8889.61
513.193	8943.85
513.561	9013
513.929	9078.76
514.297	9142.26
514.664	9236.49
515.032	9286.89
515.4	9363.72
515.767	9358.07
516.135	9455.47
516.502	9344.97
516.869	9571.4
517.237	9626.77
517.604	9603.94
517.972	9663.83
518.339	9765.52
518.706	9787.89
519.073	9832.41
519.44	9922.58
519.808	9955.57
520.175	9936.36
520.542	10083.93
520.909	10186.3
521.276	10228.78
521.643	10333.19
522.009	10374.77
522.376	10455.45
522.743	10421.32
523.11	10546.97
523.477	10603.24
523.843	10622.67
524.21	10786.74
524.577	10836.68
524.943	10934.08
525.31	11001.87
525.676	11052.49
526.043	11134.52
526.409	11123
526.776	11292.94
527.142	11289.32
527.508	11402.09
527.874	11470.11
528.241	11563.21
528.607	11475.98
528.973	11681.85
529.339	11583.55
529.705	11855.86
530.071	11806.37
530.437	11907.38
530.803	11946.93
531.169	12059.92
531.535	12032.81
531.901	12063.31
532.267	12138.79
532.632	12225.12
532.998	12263.31
533.364	12299.46
533.73	12348.05
534.095	12460.14
534.461	12596.41
534.826	12605.9
535.192	12626.46
535.557	12790.53
535.923	12737.87
536.288	12749.17
536.653	12856.06
537.019	12790.53
537.384	12923.18
537.749	12967.7
538.114	12952.33
538.479	13064.87
538.845	13106
539.21	13207.01
539.575	13246.11
539.94	13256.05
540.305	13353.22
540.67	13365.43
541.034	13349.15
541.399	13498.76
541.764	13500.34
542.129	13583.72
542.494	13646.77
542.858	13731.52
543.223	13644.97
543.587	13792.08
543.952	13759.31
544.316	13839.54
544.681	13829.82
545.045	13984.17
545.41	14069.36
545.774	14126.76
546.138	14056.25
546.503	14239.53
546.867	14152.52
547.231	14392.29
547.595	14256.02
547.959	14359.07
548.324	14351.61
548.688	14494.66
549.052	14487.88
549.416	14586.86
549.779	14518.39
550.143	14598.16
550.507	14756.12
550.871	14785.95
551.235	14834.31
551.599	14795.9
551.962	14901.2
552.326	14927.42
552.689	15110.01
553.053	15047.64
553.417	15001.99
553.78	15235.88
554.143	15222.55
554.507	15267.3
554.87	15291.48
555.234	15369.44
555.597	15363.56
555.96	15413.06
556.323	15510.68
556.686	15566.72
557.05	15601.98
557.413	15722.88
557.776	15698.47
558.139	15868.18
558.502	15780.28
558.865	15859.15
559.228	15998.58
559.59	16119.93
559.953	16053.04
560.316	16199.48
560.679	16156.99
561.041	16257.78
561.404	16295.74
561.767	16423.88
562.129	16403.31
562.492	16602.18
562.854	16553.82
563.217	16571.44
563.579	16633.36
563.941	16807.82
564.304	16756.97
564.666	16956.74
565.028	16978.66
565.39	16933.69
565.753	17175.49
566.115	17156.74
566.477	17220.01
566.839	17126.68
567.201	17330.52
567.563	17396.51
567.925	17530.51
568.287	17560.57
568.648	17573.9
569.01	17691.87
569.372	17754.24
569.734	17688.48
570.095	17817.06
570.457	17955.81
570.819	17973.67
571.18	18099.09
571.542	18203.94
571.903	18224.73
572.265	18286.88
572.626	18379.08
572.987	18457.04
573.349	18516.7
573.71	18596.25
574.071	18664.5
574.432	18798.95
574.794	18982.68
575.155	18977.03
575.516	18939.97
575.877	19085.05
576.238	19227.19
576.599	19271.26
576.96	19422.89
577.32	19478.71
577.681	19682.1
578.042	19837.8
578.403	19793.96
578.763	20014.06
579.124	20095.42
579.485	20295.19
579.845	20343.77
580.206	20543.54
580.566	20628.96
580.927	20765.68
581.287	20958.9
581.648	21019.91
582.008	21336.97
582.368	21411.77
582.728	21578.32
583.089	21746.67
583.449	21886.11
583.809	22111.41
584.169	22246.55
584.529	22344.4
584.889	22740.55
585.249	22669.59
585.609	22894.44
585.969	23223.47
586.329	23354.77
586.688	23471.83
587.048	23755.89
587.408	23858.93
587.768	24118.14
588.127	24346.38
588.487	24479.71
588.846	25008.51
589.206	24839.25
589.565	25189.07
589.925	25576.4
590.284	25653.69
590.643	25855.04
591.003	25959.44
591.362	26341.36
591.721	26524.85
592.08	26676.49
592.44	26987.89
592.799	27180.43
593.158	27288
593.517	27492.29
593.876	27907.87
594.235	27939.28
594.593	28267.18
594.952	28465.82
595.311	28620.62
595.67	28844.57
596.029	29340.15
596.387	29520.03
596.746	29616.07
597.104	29697.2
597.463	30007.25
597.822	30181.25
598.18	30370.4
598.538	30622.82
598.897	30923.83
599.255	30940.1
599.613	31490.82
599.972	31403.82
600.33	31844.04
600.688	31712.97
601.046	31952.73
601.404	32365.83
601.762	32425.26
602.12	32671.81
602.478	32848.3
602.836	32984.8
603.194	32943.67
603.552	33235.19
603.91	33374.84
604.268	33754.72
604.625	33694.16
604.983	33932.34
605.341	33965.34
605.698	34163.07
606.056	34539.11
606.413	34465.66
606.771	34816.39
607.128	35043.5
607.485	34939.55
607.843	35041.47
608.2	35450.49
608.557	35461.57
608.914	35510.83
609.272	35784.27
609.629	36028.11
609.986	36194.43
610.343	36251.15
610.7	36532.05
611.057	36422.9
611.414	36574.08
611.771	36767.07
612.127	36986.95
612.484	37184.91
612.841	37287.96
613.198	37233.05
613.554	37452.48
613.911	37647.27
614.267	37766.37
614.624	37646.82
614.98	37937.21
615.337	38189.18
615.693	38197.99
616.05	38229.86
616.406	38433.92
616.762	38571.54
617.118	38472.11
617.475	38472.56
617.831	38648.83
618.187	38872.33
618.543	38863.29
618.899	39149.61
619.255	39075.48
619.611	39153.9
619.967	39265.99
620.323	39448.36
620.678	39336.27
621.034	39309.15
621.39	39246.55
621.746	39392.99
622.101	39788.46
622.457	39633.44
622.812	39776.03
623.168	39817.16
623.523	39984.84
623.879	40098.73
624.234	39863.26
624.589	40086.53
624.945	40041.56
625.3	40339.18
625.655	40275.23
626.01	40244.72
626.365	40279.52
626.72	40302.34
627.075	40334.21
627.43	40386.41
627.785	40395.68
628.14	40510.25
628.495	40509.12
628.85	40568.33
629.205	40430.48
629.559	40574.2
629.914	40545.73
630.269	40648.1
630.623	40381.66
630.978	40582.79
631.332	40623.47
631.687	40814.42
632.041	40507.08
632.396	40514.32
632.75	40639.74
633.104	40664.82
633.459	40456.69
633.813	40460.76
634.167	40493.53
634.521	40539.17
634.875	40735.33
635.229	40634.31
635.583	40351.83
635.937	40418.27
636.291	40475.67
636.645	40517.03
636.999	40436.8
637.352	40473.64
637.706	40277.03
638.06	40564.26
638.413	40516.58
638.767	40121.11
639.121	40566.07
639.474	40199.97
639.828	40232.06
640.181	40133.08
640.534	40415.11
640.888	40324.94
641.241	40111.39
641.594	40160.43
641.947	40299.18
642.301	40182.8
642.654	40113.2
643.007	40204.04
643.36	40201.33
643.713	40080.2
644.066	40290.59
644.419	39992.97
644.771	39805.18
645.124	39457.39
645.477	39349.15
645.83	39103.73
646.182	39027.8
646.535	38818.99
646.888	39108.25
647.24	39014.02
647.593	39048.37
647.945	38883.62
648.298	38743.97
648.65	38753.23
649.002	38837.07
649.355	38870.74
649.707	38779.22
650.059	38896.73
650.411	39397.74
650.763	39383.72
651.115	39809.7
651.467	39632.08
651.819	39630.5
652.171	39479.77
652.523	39523.38
652.875	39445.64
653.227	39243.16
653.578	39542.59
653.93	39565.41
654.282	39329.71
654.633	39176.95
654.985	39346.21
655.337	39394.12
655.688	39430.5
656.039	39657.62
656.391	39192.32
656.742	39308.47
657.094	39262.6
657.445	39479.99
657.796	39322.93
658.147	39232.54
658.498	39201.13
658.849	39291.3
659.2	39139.21
659.551	39058.08
659.902	39219.43
660.253	39272.54
660.604	39331.07
660.955	39063.73
661.306	39167.68
661.656	39261.47
662.007	39224.63
662.358	39189.15
662.708	39110.06
663.059	39073.22
663.409	38885.43
663.76	39157.06
664.11	39231.86
664.461	39194.58
664.811	39159.78
665.161	39189.38
665.511	39127.69
665.862	39105.77
666.212	39092.43
666.562	39045.88
666.912	39112.09
667.262	39071.42
667.612	39049.5
667.962	39172.43
668.312	38981.7
668.662	39208.36
669.011	39130.4
669.361	39028.25
669.711	39079.33
670.06	38881.14
670.41	38966.33
670.76	38875.49
671.109	39013.79
671.459	38837.52
671.808	38919.33
672.157	39011.98
672.507	38673.01
672.856	38663.97
673.205	38694.7
673.554	38776.28
673.904	38691.31
674.253	38978.09
674.602	38815.38
674.951	38278.67
675.3	38185.34
675.649	38760.46
675.998	38633.46
676.346	38685.44
676.695	38635.95
677.044	38390.98
677.393	38641.6
677.741	38589.17
678.09	38574.48
678.438	38551.88
678.787	38537.19
679.135	38482.73
679.484	38276.18
679.832	38477.31
680.181	38307.82
680.529	38376.52
680.877	38219.24
681.225	38266.47
681.573	38353.69
681.922	38119.8
682.27	38063.53
682.618	37989.64
682.966	37936.3
683.314	38008.39
683.661	37958.45
684.009	37743.54
684.357	37594.39
684.705	37577.67
685.053	37692.7
685.4	37566.82
685.748	37442.76
686.095	37391.91
686.443	37355.53
686.79	37238.02
687.138	37325.7
687.485	37264.01
687.832	37220.84
688.18	37203.67
688.527	37153.95
688.874	37029.44
689.221	36968.42
689.568	36734.98
689.915	36709.22
690.262	36757.8
690.609	36773.85
690.956	36499.96
691.303	36555.1
691.65	36329.79
691.997	36326.4
692.344	36253.86
692.69	36226.75
693.037	36231.49
693.383	35888.22
693.73	35979.07
694.077	35827.66
694.423	35769.13
694.769	35749.47
695.116	35599.42
695.462	35583.37
695.808	35336.6
696.155	35417.73
696.501	35281.69
696.847	35269.48
697.193	35010.28
697.539	35235.58
697.885	34863.84
698.231	34693
698.577	34787.01
698.923	34767.8
699.269	34516.06
699.614	34341.37
699.96	34138.21
700.306	34492.33
700.651	34299.34
700.997	34062.96
701.342	34104.99
701.688	34090.3
702.033	33853.47
702.379	33932.34
702.724	33869.52
703.069	33775.06
703.415	33372.58
703.76	33531.45
704.105	33359.02
704.45	33342.75
704.795	33231.57
705.14	33118.8
705.485	33241.96
705.83	33037.9
706.175	33077.45
706.52	33034.96
706.865	32812.6
707.209	32768.08
707.554	32764.46
707.899	32661.19
708.243	32475.21
708.588	32541.42
708.932	32341.42
709.277	32308.66
709.621	32487.63
709.966	32110.47
710.31	32253.06
710.654	31867.99
710.998	31973.75
711.342	31945.05
711.687	31930.81
712.031	31686.53
712.375	31693.08
712.719	31646.98
713.063	31616.47
713.407	31571.5
713.75	31566.08
714.094	31457.38
714.438	31299.87
714.782	31298.97
715.125	31242.92
715.469	31293.32
715.812	31156.37
716.156	30912.53
716.499	30968.58
716.843	31035.47
717.186	30786.66
717.53	30990.05
717.873	30974.23
718.216	30797.51
718.559	30713.22
718.902	30473.22
719.246	30590.06
719.589	30466.44
719.932	30399.55
720.275	30374.02
720.617	30276.39
720.96	30292.21
721.303	30304.87
721.646	30235.26
721.989	30001.6
722.331	30061.26
722.674	30046.57
723.016	30075.49
723.359	29885.22
723.701	30072.56
724.044	29976.97
724.386	29583.76
724.729	29948.94
725.071	29720.25
725.413	29698.56
725.755	29619.69
726.097	29496.98
726.439	29428.28
726.782	29471.44
727.124	29593.02
727.465	29308.74
727.807	29410.88
728.149	29338.34
728.491	29200.94
728.833	29295.18
729.175	29208.4
729.516	29231.45
729.858	29172.69
730.199	29117.78
730.541	28935.64
730.882	29040.04
731.224	29025.58
731.565	28727.51
731.906	28944.45
732.248	28815.87
732.589	28721.63
732.93	28582.43
733.271	28674.85
733.612	28680.5
733.953	28648.87
734.294	28629.88
734.635	28530.22
734.976	28576.78
735.317	28392.15
735.658	28447.51
735.999	28457.01
736.339	28332.94
736.68	28386.95
737.021	28268.08
737.361	28239.38
737.702	28372.49
738.042	28239.61
738.383	28127.52
738.723	28143.12
739.063	27996.45
739.404	28049.79
739.744	28025.15
740.084	27932.95
740.424	27954.19
740.764	27837.14
741.104	27954.65
741.444	27810.47
741.784	27754.2
742.124	27812.96
742.464	27758.72
742.804	27582.23
743.143	27480.08
743.483	27537.48
743.823	27385.62
744.162	27418.62
744.502	27485.96
744.841	27404.15
745.181	27379.29
745.52	27298.84
745.86	27348.33
746.199	27342.46
746.538	27279.86
746.877	27258.17
747.216	27240.99
747.556	27167.1
747.895	27094.33
748.234	26942.7
748.573	27003.71
748.911	26889.36
749.25	26956.48
749.589	26753.1
749.928	26786.99
750.267	26730.5
750.605	26717.84
750.944	26551.07
751.283	26546.77
751.621	26584.74
751.96	26537.28
752.298	26454.57
752.636	26561.24
752.975	26381.35
753.313	26271.75
753.651	26402.37
753.989	26262.94
754.327	26126.22
754.666	26076.5
755.004	26123.96
755.342	26084.64
755.679	26121.47
756.017	25966.22
756.355	25870.41
756.693	25889.84
757.031	25877.64
757.368	25694.59
757.706	25693.01
758.044	25645.55
758.381	25593.58
758.719	25537.76
759.056	25572.56
759.394	25390.87
759.731	25124.44
760.068	25252.8
760.405	25145.23
760.743	25007.15
761.08	25066.81
761.417	24986.59
761.754	24925.57
762.091	24888.51
762.428	24776.65
762.765	24708.63
763.102	24726.93
763.438	24639.48
763.775	24519.26
764.112	24479.26
764.449	24418.47
764.785	24410.33
765.122	24312.03
765.458	24018.25
765.795	24152.03
766.131	24225.7
766.467	23924.24
766.804	23918.37
767.14	23675.21
767.476	23848.77
767.812	23597.47
768.148	23699.16
768.485	23469.11
768.821	23367.65
769.157	23333.52
769.492	23245.39
769.828	23259.4
770.164	23077.49
770.5	22968.79
770.836	22911.84
771.171	22872.29
771.507	22941.44
771.842	22657.16
772.178	22589.36
772.513	22559.99
772.849	22508.24
773.184	22386.21
773.519	22455.58
773.855	22208.36
774.19	22210.62
774.525	22028.93
774.86	22081.81
775.195	22078.64
775.53	21967.91
775.865	21782.15
776.2	21705.09
776.535	21653.8
776.87	21503.29
777.205	21466
777.539	21423.52
777.874	21433.24
778.209	21178.78
778.543	21195.95
778.878	21063.75
779.212	20973.36
779.547	20913.93
779.881	20879.58
780.215	20814.27
780.55	20870.31
780.884	20673.48
781.218	20640.71
781.552	20629.42
781.886	20492.24
782.22	20366.6
782.554	20359.37
782.888	20165.02
783.222	20182.2
783.556	20072.59
783.889	19959.38
784.223	19867.63
784.557	19812.04
784.89	19791.02
785.224	19734.3
785.557	19641.42
785.891	19571.36
786.224	19480.97
786.558	19405.04
786.891	19391.26
787.224	19373.85
787.557	19159.85
787.891	19099.96
788.224	19172.96
788.557	19140.87
788.89	19023.36
789.223	19115.1
789.556	18791.72
789.888	18770.03
790.221	18745.4
790.554	18555.57
790.887	18663.82
791.219	18568.68
791.552	18394.22
791.884	18370.94
792.217	18403.94
792.549	18335.92
792.882	18164.85
793.214	18132.08
793.546	18138.63
793.879	17962.14
794.211	17914.91
794.543	17910.62
794.875	17914.46
795.207	17884.63
795.539	17753.56
795.871	17782.71
796.203	17545.65
796.535	17525.09
796.867	17456.17
797.198	17530.74
797.53	17462.72
797.862	17379.33
798.193	17233.57
798.525	17231.31
798.856	17311.31
799.188	17065.44
799.519	16983.41
799.85	16919
800.182	16853.92
800.513	16953.58
800.844	16791.32
801.175	16923.3
801.506	16814.37
801.837	16673.81
802.168	16611.89
802.499	16571.44
802.83	16449.19
803.161	16481.28
803.491	16477.43
803.822	16509.75
804.153	16330.77
804.483	16204.45
804.814	16162.41
805.145	16265.46
805.475	16177.55
805.805	16073.83
806.136	16137.78
806.466	16057.11
806.796	15956.09
807.126	15868.18
807.457	15868.18
807.787	15872.25
808.117	15811.91
808.447	15722.88
808.777	15690.56
809.107	15601.52
809.436	15620.96
809.766	15671.35
810.096	15490.34
810.426	15424.81
810.755	15504.35
811.085	15474.52
811.414	15398.14
811.744	15313.17
812.073	15270.01
812.403	15212.16
812.732	15111.82
813.061	15241.76
813.39	15057.13
813.719	15089.67
814.049	15102.33
814.378	15083.8
814.707	14987.3
815.036	14977.59
815.365	14936.91
815.693	14784.15
816.022	14782.56
816.351	14755.67
816.68	14705.5
817.008	14678.84
817.337	14514.1
817.665	14492.85
817.994	14512.97
818.322	14489.69
818.651	14437.71
818.979	14458.5
819.307	14531.95
819.636	14480.42
819.964	14379.18
820.292	14353.87
820.62	14355
820.948	14252.41
821.276	14352.52
821.604	14296.7
821.932	14315.91
822.259	14274.1
822.587	14269.58
822.915	14199.3
823.243	14283.37
823.57	14252.86
823.898	14160.21
824.225	14167.21
824.553	14162.69
824.88	14182.58
825.207	14294.89
825.535	14192.75
825.862	14269.58
826.189	14103.94
826.516	14228.68
826.843	14277.49
827.17	14241.79
827.497	14355.91
827.824	14207.44
828.151	14232.3
828.478	14232.52
828.805	14269.58
829.131	14160.88
829.458	14193.88
829.785	14091.06
830.111	14163.82
830.438	14212.41
830.764	14151.17
831.09	14196.14
831.417	14079.3
831.743	14163.6
832.069	14212.86
832.395	14077.72
832.722	14051.51
833.048	14078.18
833.374	14131.51
833.7	13997.27
834.026	14026.2
834.351	14003.83
834.677	13976.48
835.003	14050.38
835.329	13997.5
835.654	14020.55
835.98	13863.04
836.306	14002.02
836.631	13865.75
836.956	13992.08
837.282	14023.49
837.607	13855.58
837.932	13817.62
838.258	13799.31
838.583	13799.31
838.908	13703.5
839.233	13722.7
839.558	13736.94
839.883	13653.55
840.208	13605.19
840.533	13627.79
840.858	13661.24
841.182	13602.93
841.507	13616.72
841.832	13557.74
842.156	13534.01
842.481	13480
842.805	13529.04
843.13	13417.85
843.454	13385.99
843.778	13354.58
844.103	13331.98
844.427	13284.07
844.751	13274.58
845.075	13222.38
845.399	13263.51
845.723	13124.98
846.047	13115.04
846.371	13010.18
846.695	13003.63
847.019	12858.77
847.343	12906
847.666	12738.55
847.99	12763.63
848.313	12742.39
848.637	12674.82
848.96	12652.9
849.284	12643.18
849.607	12496.75
849.931	12553.24
850.254	12410.65
850.577	12422.85
850.9	12285
851.223	12290.88
851.546	12183.99
851.869	12129.53
852.192	12132.01
852.515	12081.39
852.838	12006.59
853.161	11974.28
853.483	11991
853.806	11885.69
854.129	11827.61
854.451	11837.78
854.774	11741.97
855.096	11733.38
855.419	11734.96
855.741	11744.9
856.063	11618.8
856.385	11576.09
856.708	11558.69
857.03	11518.24
857.352	11516.43
857.674	11505.14
857.996	11424.69
858.318	11344.01
858.64	11368.64
858.961	11339.04
859.283	11289.55
859.605	11220.62
859.926	11230.11
860.248	11246.39
860.57	11075.09
860.891	11168.42
861.212	11138.59
861.534	11003.23
861.855	10998.26
862.176	10996.67
862.498	11035.54
862.819	11037.8
863.14	10927.52
863.461	10973.62
863.782	10943.12
864.103	10825.38
864.424	10846.85
864.745	10942.44
865.065	10795.78
865.386	10809.11
865.707	10830.12
866.027	10775.66
866.348	10779.28
866.668	10743.12
866.989	10751.03
867.309	10657.7
867.63	10755.1
867.95	10679.85
868.27	10608.44
868.59	10637.14
868.91	10604.82
869.23	10623.12
869.55	10550.58
869.87	10654.08
870.19	10563.92
870.51	10604.59
870.83	10509
871.15	10509.68
871.469	10513.07
871.789	10478.27
872.109	10531.6
872.428	10449.34
872.748	10417.71
873.067	10411.83
873.386	10491.6
873.706	10444.82
874.025	10385.62
874.344	10304.04
874.663	10316.01
874.982	10330.02
875.301	10346.07
875.62	10264.26
875.939	10231.72
876.258	10214.77
876.577	10231.5
876.896	10197.83
877.214	10114.66
877.533	10262.68
877.852	10168.45
878.17	10133.65
878.489	10145.17
878.807	10173.42
879.125	10127.54
879.444	10080.31
879.762	10039.19
880.08	10064.5
880.398	9996.93
880.716	9951.05
881.034	10006.64
881.352	9999.86
881.67	9945.63
881.988	9889.13
882.306	9880.55
882.624	9858.17
882.941	9843.26
883.259	9779.08
883.577	9795.35
883.894	9726.88
884.212	9745.63
884.529	9748.57
884.846	9685.75
885.164	9727.78
885.481	9652.3
885.798	9685.3
886.115	9616.82
886.432	9554
886.75	9570.95
887.067	9498.41
887.383	9561.68
887.7	9550.16
888.017	9479.65
888.334	9519.65
888.651	9444.4
888.967	9454.79
889.284	9351.29
889.6	9394.46
889.917	9287.34
890.233	9327.57
890.55	9247.79
890.866	9304.52
891.182	9191.75
891.498	9238.08
891.815	9189.04
892.131	9170.28
892.447	9047.57
892.763	9098.64
893.079	9076.72
893.395	9065.88
893.71	9022.71
894.026	9049.38
894.342	8983.85
894.657	8948.14
894.973	8923.96
895.289	8912.44
895.604	8911.08
895.92	8793.12
896.235	8817.75
896.55	8736.85
896.865	8766.68
897.181	8716.51
897.496	8664.08
897.811	8595.61
898.126	8575.04
898.441	8591.77
898.756	8590.41
899.071	8512.22
899.386	8498.21
899.7	8446.01
900.015	8424.31
900.33	8401.04
900.644	8314.03
900.959	8361.26
901.273	8360.81
901.588	8285.11
901.902	8274.94
902.216	8195.17
902.531	8152.68
902.845	8161.49
903.159	8073.36
903.473	8086.47
903.787	8086.47
904.101	8011.22
904.415	7967.83
904.729	8013.25
905.042	7994.04
905.356	7928.51
905.67	7904.78
905.984	7919.01
906.297	7805.12
906.611	7789.98
906.924	7812.13
907.237	7747.72
907.551	7776.19
907.864	7749.3
908.177	7636.08
908.491	7641.96
908.804	7584.11
909.117	7536.88
909.43	7538.46
909.743	7497.78
910.056	7482.19
910.368	7457.78
910.681	7390.67
910.994	7319.93
911.307	7371.46
911.619	7288.52
911.932	7298.92
912.244	7282.65
912.557	7237
912.869	7185.47
913.181	7240.16
913.494	7188.64
913.806	7176.21
914.118	7143.89
914.43	7072.71
914.742	7029.55
915.054	6969.89
915.366	6984.8
915.678	6962.88
915.99	6943
916.302	6892.6
916.613	6827.97
916.925	6813.51
917.236	6807.41
917.548	6740.29
917.859	6731.7
918.171	6762.44
918.482	6665.26
918.794	6678.14
919.105	6668.2
919.416	6614.64
919.727	6612.38
920.038	6515.66
920.349	6536
920.66	6499.17
920.971	6510.69
921.282	6442.22
921.593	6393.41
921.903	6357.02
922.214	6390.24
922.525	6374.87
922.835	6318.38
923.146	6227.31
923.456	6298.49
923.767	6243.8
924.077	6248.32
924.387	6199.74
924.697	6183.02
925.008	6132.62
925.318	6125.16
925.628	6118.16
925.938	6072.51
926.248	6026.18
926.558	6002.46
926.867	5974.89
927.177	5954.77
927.487	5948.22
927.796	5839.07
928.106	5938.28
928.416	5837.71
928.725	5882.91
929.034	5768.11
929.344	5822.35
929.653	5760.2
929.962	5719.52
930.271	5650.15
930.581	5651.05
930.89	5657.15
931.199	5603.37
931.508	5657.61
931.817	5580.55
932.125	5602.69
932.434	5579.42
932.743	5529.47
933.051	5468.46
933.36	5477.5
933.669	5438.18
933.977	5442.24
934.286	5383.94
934.594	5390.49
934.902	5310.95
935.21	5351.62
935.519	5275.02
935.827	5274.34
936.135	5267.33
936.443	5231.4
936.751	5194.34
937.059	5162.93
937.367	5211.06
937.674	5122.7
937.982	5137.85
938.29	5115.7
938.597	5110.73
938.905	5060.11
939.213	5049.49
939.52	5020.56
939.827	5007
940.135	4963.84
940.442	4944.63
940.749	4941.92
941.056	4915.25
941.363	4912.31
941.67	4882.03
941.977	4840.45
942.284	4830.96
942.591	4786.44
942.898	4737.4
943.205	4757.74
943.511	4756.61
943.818	4725.43
944.125	4696.95
944.431	4707.57
944.738	4673.68
945.044	4660.8
945.35	4590.06
945.657	4546
945.963	4579.22
946.269	4482.04
946.575	4549.84
946.881	4506
947.187	4472.78
947.493	4473.23
947.799	4466.68
948.105	4489.73
948.41	4410.63
948.716	4405.66
949.022	4355.72
949.327	4362.27
949.633	4300.58
949.938	4300.58
950.244	4303.74
950.549	4303.06
950.854	4267.81
951.16	4272.33
951.465	4174.71
951.77	4187.14
952.075	4161.37
952.38	4179.68
952.685	4142.62
952.99	4162.28
953.294	4148.49
953.599	4084.09
953.904	4087.93
954.209	4040.92
954.513	4066.01
954.818	4014.71
955.122	4018.33
955.426	4011.32
955.731	3950.53
956.035	3981.94
956.339	3953.24
956.643	3948.05
956.948	3912.57
957.252	3907.59
957.556	3930.65
957.86	3861.49
958.163	3863.98
958.467	3834.38
958.771	3871.44
959.075	3805.22
959.378	3786.47
959.682	3776.75
959.985	3746.02
960.289	3723.65
960.592	3751.21
960.896	3741.05
961.199	3703.08
961.502	3652.91
961.805	3669.18
962.108	3633.03
962.411	3577.43
962.714	3610.65
963.017	3602.52
963.32	3609.3
963.623	3544.21
963.926	3575.63
964.228	3578.11
964.531	3514.16
964.833	3541.95
965.136	3451.79
965.438	3493.37
965.741	3467.15
966.043	3456.76
966.345	3436.65
966.648	3398.46
966.95	3433.26
967.252	3415.86
967.554	3380.83
967.856	3384.67
968.158	3317.33
968.46	3343.77
968.761	3315.29
969.063	3301.28
969.365	3325.92
969.666	3274.39
969.968	3274.84
970.269	3224
970.571	3214.28
970.872	3193.26
971.174	3203.43
971.475	3166.82
971.776	3161.4
972.077	3173.83
972.378	3159.14
972.679	3090.67
972.98	3129.31
973.281	3110.1
973.582	3098.8
973.883	3082.98
974.183	3060.39
974.484	3023.1
974.785	3071.23
975.085	3034.62
975.386	3067.84
975.686	3053.83
975.986	3010.9
976.287	2991.91
976.587	2950.78
976.887	2946.26
977.187	2932.93
977.487	2913.72
977.787	2896.55
978.087	2883.67
978.387	2867.62
978.687	2883.44
978.987	2835.76
979.286	2833.72
979.586	2831.47
979.885	2816.1
980.185	2817.68
980.484	2784.91
980.784	2799.15
981.083	2747.85
981.382	2743.11
981.682	2765.7
981.981	2749.43
982.28	2767.29
982.579	2737.91
982.878	2674.41
983.177	2684.8
983.475	2696.1
983.774	2662.43
984.073	2642.32
984.372	2608.87
984.67	2623.79
984.969	2613.84
985.267	2617.91
985.566	2578.14
985.864	2547.86
986.162	2573.62
986.461	2531.36
986.759	2523.22
987.057	2512.6
987.355	2526.39
987.653	2501.53
987.951	2519.16
988.249	2536.11
988.547	2445.03
988.844	2487.52
989.142	2442.77
989.44	2431.7
989.737	2444.13
990.035	2434.19
990.332	2400.74
990.63	2380.63
990.927	2370.69
991.224	2373.62
991.521	2336.79
991.819	2327.3
992.116	2380.18
992.413	2332.72
992.71	2314.64
993.006	2308.99
993.303	2299.5
993.6	2301.08
993.897	2293.85
994.193	2288.43
994.49	2262.89
994.787	2257.02
995.083	2214.31
995.379	2216.57
995.676	2207.75
995.972	2199.62
996.268	2187.64
996.565	2193.52
996.861	2196.91
997.157	2173.86
997.453	2158.49
997.749	2138.38
998.044	2127.53
998.34	2109
998.636	2107.87
998.932	2092.28
999.227	2045.27
999.523	2101.09
999.818	2073.07
1000.114	2037.59
1000.409	2057.25
1000.704	2026.97
1001	2028.32
1001.295	1981.32
1001.59	2004.14
1001.885	2031.94
1002.18	2000.53
1002.475	1990.81
1002.77	1976.12
1003.065	1927.99
1003.359	1951.71
1003.654	1909
1003.949	1915.78
1004.243	1902.68
1004.538	1910.81
1004.832	1902.22
1005.127	1857.03
1005.421	1874.43
1005.715	1843.69
1006.009	1845.05
1006.304	1848.44
1006.598	1831.49
1006.892	1833.3
1007.186	1816.12
1007.48	1805.05
1007.773	1762.34
1008.067	1785.62
1008.361	1780.87
1008.655	1773.87
1008.948	1772.51
1009.242	1746.75
1009.535	1708.33
1009.829	1714.66
1010.122	1703.81
1010.415	1691.38
1010.708	1699.74
1011.001	1707.2
1011.295	1662.91
1011.588	1631.27
1011.881	1623.36
1012.173	1647.32
1012.466	1640.08
1012.759	1631.5
1013.052	1609.58
1013.344	1642.57
1013.637	1586.3
1013.93	1593.98
1014.222	1584.27
1014.514	1589.92
1014.807	1593.53
1015.099	1576.36
1015.391	1555.34
1015.683	1531.61
1015.976	1540.43
1016.268	1533.19
1016.56	1496.58
1016.851	1503.14
1017.143	1471.27
1017.435	1483.25
1017.727	1471.73
1018.018	1443.03
1018.31	1447.09
1018.602	1442.58
1018.893	1446.19
1019.185	1458.17
1019.476	1395.12
1019.767	1431.28
1020.058	1415.23
1020.35	1365.74
1020.641	1369.58
1020.932	1365.51
1021.223	1354.22
1021.514	1374.33
1021.804	1313.31
1022.095	1346.98
1022.386	1319.64
1022.677	1311.28
1022.967	1329.58
1023.258	1318.28
1023.548	1295.91
1023.839	1288.45
1024.129	1270.38
1024.419	1279.87
1024.709	1276.48
1025	1262.24
1025.29	1258.4
1025.58	1216.14
1025.87	1237.16
1026.16	1228.12
1026.449	1219.53
1026.739	1196.48
1027.029	1190.83
1027.319	1180.66
1027.608	1197.61
1027.898	1185.86
1028.187	1177.72
1028.477	1179.76
1028.766	1144.96
1029.055	1116.71
1029.344	1126.2
1029.634	1139.08
1029.923	1125.52
1030.212	1123.71
1030.501	1139.98
1030.79	1086.43
1031.078	1111.28
1031.367	1094.79
1031.656	1075.13
1031.945	1083.26
1032.233	1063.83
1032.522	1046.43
1032.81	1049.37
1033.099	1027.9
1033.387	1061.12
1033.675	1032.87
1033.963	1046.2
1034.251	1022.93
1034.54	1016.37
1034.828	993.32
1035.116	1007.33
1035.403	1004.39
1035.691	996.94
1035.979	1002.59
1036.267	993.32
1036.554	954.45
1036.842	947.9
1037.129	970.27
1037.417	968.92
1037.704	947.45
1037.992	934.34
1038.279	929.37
1038.566	927.33
1038.853	927.33
1039.14	927.33
