Data from hue_10_FLMS001491_59.txt Node
Date: Mon Feb 06 15:32:09 GMT 2017
User: dcchb
Spectrometer: FLMS00149
Trigger mode: 0
Integration Time (sec): 2.000000E-2
Scans to average: 10
Electric dark correction enabled: true
Nonlinearity correction enabled: false
Boxcar width: 0
XAxis mode: Wavelengths
Number of Pixels in Spectrum: 2048
>>>>>Begin Spectral Data<<<<<
341.393	-6.31
341.776	-6.31
342.16	-6.31
342.543	-66.2
342.927	-67.1
343.31	-54.67
343.693	-60.55
344.077	-76.82
344.46	-55.8
344.843	-73.2
345.226	-41.79
345.61	-41.79
345.993	-23.49
346.376	-1.57
346.759	33.23
347.142	48.37
347.525	47.24
347.908	39.79
348.291	61.93
348.674	86.57
349.057	112.55
349.44	113.01
349.823	132.21
350.206	140.58
350.588	200.69
350.971	191.87
351.354	217.41
351.737	235.26
352.119	254.24
352.502	247.01
352.884	261.93
353.267	273.91
353.65	281.81
354.032	292.44
354.414	305.99
354.797	310.51
355.179	321.36
355.562	326.33
355.944	306.45
356.326	321.14
356.709	319.1
357.091	342.15
357.473	320.91
357.855	326.79
358.238	334.92
358.62	323.17
359.002	342.6
359.384	336.73
359.766	324.07
360.148	312.55
360.53	315.49
360.912	336.95
361.294	329.95
361.676	327.46
362.057	327.24
362.439	322.94
362.821	341.25
363.203	332.89
363.584	301.02
363.966	304.19
364.348	324.98
364.729	337.86
365.111	306.9
365.493	295.15
365.874	294.02
366.256	304.64
366.637	323.62
367.019	304.19
367.4	296.5
367.781	319.1
368.163	301.93
368.544	312.55
368.925	317.29
369.306	332.89
369.688	308.03
370.069	287.69
370.45	314.36
370.831	327.46
371.212	309.84
371.593	311.64
371.974	292.66
372.355	305.09
372.736	310.74
373.117	303.96
373.498	311.42
373.879	289.72
374.26	311.87
374.641	319.1
375.021	305.54
375.402	310.74
375.783	334.92
376.163	308.71
376.544	331.76
376.925	301.7
377.305	296.5
377.686	318.42
378.066	315.03
378.447	327.92
378.827	319.55
379.208	332.21
379.588	317.29
379.968	311.87
380.349	317.29
380.729	315.71
381.109	311.42
381.489	335.37
381.87	336.28
382.25	314.81
382.63	326.56
383.01	332.21
383.39	329.05
383.77	336.5
384.15	337.18
384.53	340.34
384.91	336.05
385.29	325.66
385.67	334.02
386.049	341.93
386.429	343.73
386.809	339.21
387.189	336.05
387.568	320.01
387.948	369.95
388.328	329.95
388.707	330.4
389.087	322.49
389.466	359.33
389.846	355.71
390.225	360.46
390.605	343.28
390.984	351.42
391.363	339.89
391.743	338.76
392.122	357.07
392.501	346.22
392.881	358.42
393.26	355.71
393.639	374.47
394.018	352.1
394.397	370.17
394.776	370.63
395.155	360
395.534	358.42
395.913	369.5
396.292	352.1
396.671	349.16
397.05	371.08
397.429	367.01
397.808	350.74
398.186	384.18
398.565	375.15
398.944	402.94
399.323	369.04
399.701	383.05
400.08	357.52
400.458	364.52
400.837	392.32
401.215	383.96
401.594	381.47
401.972	376.28
402.351	384.64
402.729	395.48
403.107	379.89
403.486	380.34
403.864	367.01
404.242	402.04
404.62	398.42
404.999	386.22
405.377	394.81
405.755	413.56
406.133	386.22
406.511	403.17
406.889	399.1
407.267	406.11
407.645	394.35
408.023	411.53
408.401	388.93
408.779	417.63
409.156	407.46
409.534	421.02
409.912	417.4
410.29	415.6
410.667	417.86
411.045	404.07
411.422	409.95
411.8	445.43
412.178	428.03
412.555	437.06
412.933	426.22
413.31	444.52
413.687	449.72
414.065	425.09
414.442	466.89
414.819	451.3
415.197	455.6
415.574	446.1
415.951	464.86
416.328	444.07
416.705	478.65
417.082	455.82
417.46	462.83
417.837	472.32
418.214	466.67
418.591	462.83
418.967	487.68
419.344	472.54
419.721	492.43
420.098	486.33
420.475	497.18
420.852	499.44
421.228	483.39
421.605	495.59
421.982	493.11
422.358	489.72
422.735	477.06
423.111	496.95
423.488	501.92
423.864	520.68
424.241	514.8
424.617	501.02
424.994	513.9
425.37	513.45
425.746	515.03
426.123	534.69
426.499	503.96
426.875	511.64
427.251	523.84
427.627	534.69
428.003	556.61
428.379	529.27
428.756	550.28
429.132	563.84
429.507	554.8
429.883	544.41
430.259	542.37
430.635	583.05
431.011	578.08
431.387	556.61
431.763	569.49
432.138	594.57
432.514	590.06
432.89	586.21
433.265	586.21
433.641	605.2
434.016	605.65
434.392	604.74
434.767	621.01
435.143	601.35
435.518	609.26
435.894	641.35
436.269	609.94
436.644	630.51
437.02	634.35
437.395	635.93
437.77	655.14
438.145	657.62
438.52	663.27
438.895	667.34
439.271	659.66
439.646	672.76
440.021	698.3
440.395	670.5
440.77	683.84
441.145	690.17
441.52	687.68
441.895	703.05
442.27	680.22
442.645	692.88
443.019	719.09
443.394	718.41
443.769	715.48
444.143	680.22
444.518	714.57
444.892	707.34
445.267	713.44
445.641	724.29
446.016	733.33
446.39	737.85
446.764	729.71
447.139	733.1
447.513	758.64
447.887	728.58
448.262	785.76
448.636	745.76
449.01	750.95
449.384	772.88
449.758	773.33
450.132	750.95
450.506	766.55
450.88	753.67
451.254	762.25
451.628	798.41
452.002	787.79
452.376	792.31
452.75	805.64
453.123	819.43
453.497	803.83
453.871	825.08
454.244	816.04
454.618	830.73
454.992	842.03
455.365	821.91
455.739	848.35
456.112	870.27
456.486	845.87
456.859	890.16
457.232	874.34
457.606	858.07
457.979	901.69
458.352	911.63
458.725	903.95
459.099	923.61
459.472	931.06
459.845	933.1
460.218	950.27
460.591	960.21
460.964	961.8
461.337	974.45
461.71	989.59
462.083	988.91
462.456	1002.7
462.829	1023.94
463.201	1009.48
463.574	1024.62
463.947	1063.04
464.32	1047.9
464.692	1041.79
465.065	1048.35
465.438	1071.62
465.81	1095.13
466.183	1083.15
466.555	1117.5
466.928	1118.85
467.3	1108.91
467.672	1148.46
468.045	1183.94
468.417	1169.7
468.789	1165.86
469.161	1200.21
469.534	1188.46
469.906	1230.72
470.278	1257.38
470.65	1249.02
471.022	1296.7
471.394	1273.43
471.766	1307.32
472.138	1323.6
472.51	1359.98
472.882	1353.2
473.253	1377.83
473.625	1367.89
473.997	1417.83
474.369	1431.84
474.74	1438.39
475.112	1474.1
475.484	1490.14
475.855	1531.95
476.227	1533.53
476.598	1579.86
476.97	1611.95
477.341	1622.57
477.713	1617.82
478.084	1646.3
478.455	1727.2
478.827	1708.9
479.198	1769.91
479.569	1780.98
479.94	1823.69
480.311	1835.22
480.682	1890.81
481.053	1918.38
481.424	1932.17
481.795	1994.76
482.166	2033.86
482.537	2036.8
482.908	2098.94
483.279	2126.74
483.65	2166.28
484.021	2207.87
484.391	2249.22
484.762	2263.68
485.133	2278.82
485.503	2331.25
485.874	2390.91
486.244	2379.61
486.615	2440.85
486.985	2491.93
487.356	2508.2
487.726	2539.16
488.097	2599.27
488.467	2637.46
488.837	2681.98
489.207	2701.19
489.578	2741.86
489.948	2799.94
490.318	2794.29
490.688	2876.1
491.058	2935.76
491.428	2941.18
491.798	2988.18
492.168	3001.07
492.538	3027.73
492.908	3053.72
493.278	3108.63
493.648	3117.9
494.017	3193.83
494.387	3205.81
494.757	3284.67
495.126	3309.53
495.496	3282.41
495.866	3323.54
496.235	3352.92
496.605	3388.85
496.974	3446.7
497.344	3481.28
497.713	3435.86
498.082	3519.92
498.452	3559.24
498.821	3551.11
499.19	3543.65
499.559	3598.11
499.928	3648.73
500.298	3655.29
500.667	3683.76
501.036	3714.27
501.405	3754.04
501.774	3737.09
502.143	3769.86
502.512	3791.1
502.88	3785.68
503.249	3858.44
503.618	3822.51
503.987	3889.63
504.356	3897.31
504.724	3949.97
505.093	3914.71
505.462	3927.14
505.83	3977.76
506.199	3977.76
506.567	4043.52
506.936	4024.32
507.304	4095.95
507.672	4096.18
508.041	4127.36
508.409	4163.52
508.777	4164.65
509.145	4217.3
509.514	4209.85
509.882	4222.73
510.25	4197.42
510.618	4223.18
510.986	4251.43
511.354	4276.51
511.722	4343.63
512.09	4361.93
512.458	4330.3
512.826	4382.27
513.193	4363.52
513.561	4358.77
513.929	4406
514.297	4445.77
514.664	4478.31
515.032	4474.47
515.4	4526.67
515.767	4528.03
516.135	4540.46
516.502	4527.13
516.869	4543.4
517.237	4622.72
517.604	4575.04
517.972	4633.79
518.339	4634.92
518.706	4630.17
519.073	4643.73
519.44	4693.22
519.808	4736.84
520.175	4754.01
520.542	4790.4
520.909	4790.62
521.276	4778.87
521.643	4802.6
522.009	4854.35
522.376	4856.84
522.743	4891.41
523.11	4955.14
523.477	4934.12
523.843	4995.59
524.21	5013.22
524.577	5040.79
524.943	5073.78
525.31	5059.77
525.676	5095.93
526.043	5105.87
526.409	5158.75
526.776	5225.19
527.142	5226.09
527.508	5325.07
527.874	5292.53
528.241	5296.6
528.607	5332.3
528.973	5369.82
529.339	5319.65
529.705	5371.62
530.071	5451.17
530.437	5440.55
530.803	5472.19
531.169	5542.02
531.535	5547.44
531.901	5496.59
532.267	5525.52
532.632	5559.64
532.998	5589.02
533.364	5651.39
533.73	5627.89
534.095	5689.81
534.461	5725.97
534.826	5736.36
535.192	5789.69
535.557	5812.74
535.923	5807.32
536.288	5792.86
536.653	5923.47
537.019	5841.67
537.384	5924.38
537.749	5914.89
538.114	5955.56
538.479	5925.51
538.845	5980.65
539.21	5959.18
539.575	5971.61
539.94	6034.21
540.305	6088.22
540.67	6047.76
541.034	6135.22
541.399	6180.42
541.764	6161.66
542.129	6095.22
542.494	6223.58
542.858	6261.09
543.223	6278.72
543.587	6287.76
543.952	6304.03
544.316	6327.98
544.681	6318.94
545.045	6338.38
545.41	6383.58
545.774	6403.46
546.138	6384.03
546.503	6473.74
546.867	6492.27
547.231	6544.47
547.595	6581.54
547.959	6579.05
548.324	6550.12
548.688	6588.99
549.052	6629.67
549.416	6655.21
549.779	6657.47
550.143	6692.49
550.507	6691.59
550.871	6717.58
551.235	6710.8
551.599	6762.32
551.962	6826.5
552.326	6854.52
552.689	6902.43
553.053	6837.8
553.417	6876.22
553.78	6886.61
554.143	6968.87
554.507	6957.35
554.87	6971.81
555.234	6982.88
555.597	7039.15
555.96	6988.76
556.323	7040.06
556.686	7072.14
557.05	7095.42
557.413	7146.72
557.776	7168.41
558.139	7165.48
558.502	7220.39
558.865	7211.12
559.228	7314.4
559.59	7286.38
559.953	7320.95
560.316	7367.5
560.679	7383.32
561.041	7368.41
561.404	7410.44
561.767	7429.42
562.129	7432.59
562.492	7525.92
562.854	7476.2
563.217	7506.71
563.579	7539.7
563.941	7688.63
564.304	7613.15
564.666	7670.32
565.028	7706.48
565.39	7715.52
565.753	7726.36
566.115	7838.45
566.477	7750.32
566.839	7778.11
567.201	7805.68
567.563	7843.88
567.925	7935.17
568.287	7962.52
568.648	7968.84
569.01	7965.91
569.372	8037.77
569.734	7979.92
570.095	8110.99
570.457	8103.53
570.819	8108.95
571.18	8172
571.542	8301.49
571.903	8275.05
572.265	8308.27
572.626	8352.79
572.987	8388.27
573.349	8414.03
573.71	8370.87
574.071	8512.33
574.432	8518.66
574.794	8569.05
575.155	8583.07
575.516	8692.67
575.877	8734.93
576.238	8807.01
576.599	8871.42
576.96	8882.04
577.32	8986.22
577.681	9059.44
578.042	9177.63
578.403	9221.69
578.763	9191.86
579.124	9233.22
579.485	9446.55
579.845	9529.48
580.206	9619.42
580.566	9707.56
580.927	9811.06
581.287	9948.68
581.648	10039.07
582.008	10191.61
582.368	10247.2
582.728	10442.9
583.089	10487.65
583.449	10637.93
583.809	10773.97
584.169	10926.96
584.529	11046.73
584.889	11342.31
585.249	11350
585.609	11461.86
585.969	11674.74
586.329	11794.05
586.688	12075.63
587.048	12241.5
587.408	12461.38
587.768	12586.35
588.127	12818.43
588.487	12991.54
588.846	13280.57
589.206	13437.63
589.565	13677.17
589.925	13917.84
590.284	14094.33
590.643	14345.63
591.003	14635.11
591.362	14937.25
591.721	15132.5
592.08	15370.46
592.44	15662.65
592.799	15961.4
593.158	16105.35
593.517	16392.13
593.876	16663.76
594.235	16806.58
594.593	17153.46
594.952	17459.44
595.311	17660.79
595.67	17924.51
596.029	18393.88
596.387	18603.37
596.746	18948.22
597.104	19011.94
597.463	19338.71
597.822	19627.97
598.18	19913.61
598.538	20082.65
598.897	20543.2
599.255	20584.33
599.613	21192.23
599.972	21239.23
600.33	21556.96
600.688	21787.01
601.046	22053.67
601.404	22392.65
601.762	22641.68
602.12	23030.14
602.478	23271.49
602.836	23439.17
603.194	23598.04
603.552	23946.05
603.91	24191.24
604.268	24483.66
604.625	24597.79
604.983	24909.42
605.341	25055.63
605.698	25409.06
606.056	25633.69
606.413	25950.07
606.771	26288.14
607.128	26330.17
607.485	26483.39
607.843	26736.94
608.2	27119.3
608.557	27310.48
608.914	27479.97
609.272	27752.05
609.629	27964.48
609.986	28231.36
610.343	28281.08
610.7	28705.47
611.057	28723.1
611.414	28992.47
611.771	29194.27
612.127	29420.03
612.484	29550.88
612.841	29743.41
613.198	29919
613.554	30121.71
613.911	30380.91
614.267	30455.71
614.624	30583.62
614.98	30826.77
615.337	31121.46
615.693	31280.55
616.05	31294.56
616.406	31715.34
616.762	31559.86
617.118	31851.38
617.475	31872.62
617.831	32065.39
618.187	32260.18
618.543	32423.34
618.899	32684.8
619.255	32664.47
619.611	32778.14
619.967	32995.3
620.323	33137
620.678	33170.22
621.034	33196.88
621.39	33302.64
621.746	33320.95
622.101	33805.45
622.457	33661.05
622.812	33850.65
623.168	33930.42
623.523	34097.65
623.879	34171.77
624.234	33997.76
624.589	34158.21
624.945	34290.19
625.3	34466
625.655	34526.34
626.01	34478.88
626.365	34724.3
626.72	34653.79
627.075	34836.84
627.43	34824.41
627.785	34681.59
628.14	34861.24
628.495	35054.69
628.85	35050.84
629.205	34797.52
629.559	35141.91
629.914	34990.51
630.269	35258.75
630.623	34974.46
630.978	35051.97
631.332	35342.81
631.687	35490.83
632.041	35383.49
632.396	35406.09
632.75	35262.82
633.104	35290.84
633.459	35312.76
633.813	35271.18
634.167	35349.82
634.521	35503.26
634.875	35475.24
635.229	35438.86
635.583	35360.67
635.937	35419.65
636.291	35431.17
636.645	35319.31
636.999	35322.48
637.352	35496.48
637.706	35361.57
638.06	35502.13
638.413	35426.2
638.767	35280.44
639.121	35372.64
639.474	35239.09
639.828	35250.84
640.181	35437.27
640.534	35415.81
640.888	35286.32
641.241	35204.29
641.594	35337.16
641.947	35223.27
642.301	35215.59
642.654	35285.19
643.007	35242.93
643.36	35252.19
643.713	35216.72
644.066	35274.11
644.419	35165.42
644.771	34919.77
645.124	34609.95
645.477	34605.43
645.83	34381.71
646.182	34363.18
646.535	34167.93
646.888	34384.87
647.24	34079.57
647.593	34360.47
647.945	34346.23
648.298	34022.17
648.65	33998.44
649.002	33979.01
649.355	34186.23
649.707	34168.38
650.059	34254.48
650.411	34668.93
650.763	34646.11
651.115	34912.54
651.467	34931.75
651.819	34844.75
652.171	35001.58
652.523	34720.01
652.875	34774.47
653.227	34690.18
653.578	35014.46
653.93	34841.58
654.282	34675.26
654.633	34559.11
654.985	34678.65
655.337	34648.14
655.688	34718.42
656.039	34832.54
656.391	34415.38
656.742	34566.56
657.094	34615.15
657.445	34731.76
657.796	34762.26
658.147	34506.68
658.498	34653.57
658.849	34630.06
659.2	34621.25
659.551	34465.32
659.902	34692.89
660.253	34649.72
660.604	34574.7
660.955	34439.33
661.306	34562.04
661.656	34504.19
662.007	34461.48
662.358	34495.15
662.708	34412.89
663.059	34438.43
663.409	34258.32
663.76	34547.58
664.11	34322.73
664.461	34550.97
664.811	34466.9
665.161	34479.11
665.511	34305.1
665.862	34461.03
666.212	34626.9
666.562	34534.02
666.912	34439.11
667.262	34330.64
667.612	34410.41
667.962	34493.57
668.312	34457.41
668.662	34585.77
669.011	34360.69
669.361	34306
669.711	34338.55
670.06	34342.16
670.41	34302.84
670.76	34196.18
671.109	34395.95
671.459	34260.81
671.808	34309.62
672.157	34278.21
672.507	34103.75
672.856	34186.69
673.205	34214.26
673.554	34230.07
673.904	34140.59
674.253	34390.3
674.602	34058.55
674.951	33669.86
675.3	33555.97
675.649	34067.59
675.998	33998.89
676.346	33979.23
676.695	33987.82
677.044	33816.53
677.393	34017.2
677.741	33894.72
678.09	33880.71
678.438	33844.55
678.787	33809.29
679.135	34044.32
679.484	33689.07
679.832	33872.8
680.181	33635.97
680.529	33840.03
680.877	33611.11
681.225	33489.08
681.573	33782.63
681.922	33595.74
682.27	33465.12
682.618	33438.91
682.966	33422.86
683.314	33441.39
683.661	33404.79
684.009	33273.94
684.357	33161.85
684.705	33275.75
685.053	33161.63
685.4	33006.15
685.748	32960.96
686.095	32948.75
686.443	32897.23
686.79	32842.99
687.138	32827.17
687.485	32808.42
687.832	32709.44
688.18	32778.36
688.527	32577.24
688.874	32557.35
689.221	32565.49
689.568	32444.81
689.915	32259.96
690.262	32334.76
690.609	32227.19
690.956	32145.38
691.303	32188.32
691.65	32014.31
691.997	31829.91
692.344	31750.37
692.69	31694.77
693.037	31827.2
693.383	31425.85
693.73	31591.05
694.077	31455.01
694.423	31282.36
694.769	31253.88
695.116	31261.34
695.462	31226.99
695.808	31115.58
696.155	31019.99
696.501	31089.14
696.847	30954.23
697.193	30707
697.539	30809.15
697.885	30649.83
698.231	30534.13
698.577	30491.19
698.923	30441.7
699.269	30352.21
699.614	30279.9
699.96	30110.86
700.306	30178.2
700.651	30020.47
700.997	29931.43
701.342	29918.1
701.688	29842.17
702.033	29651.89
702.379	29726.24
702.724	29565.11
703.069	29697.54
703.415	29274.27
703.76	29357.89
704.105	29238.57
704.45	29273.82
704.795	29099.59
705.14	29094.62
705.485	29037.22
705.83	28948.18
706.175	28824.34
706.52	28810.78
706.865	28701.41
707.209	28710.45
707.554	28671.35
707.899	28609.43
708.243	28494.18
708.588	28541.18
708.932	28432.94
709.277	28309.1
709.621	28265.26
709.966	28017.58
710.31	28118.6
710.654	27940.52
710.998	27909.34
711.342	28012.61
711.687	27847.19
712.031	27806.29
712.375	27712.51
712.719	27609.91
713.063	27604.49
713.407	27649.91
713.75	27620.98
714.094	27548.67
714.438	27624.6
714.782	27573.98
715.125	27276.81
715.469	27358.62
715.812	27199.98
716.156	27083.14
716.499	27044.05
716.843	27144.39
717.186	27063.94
717.53	27140.54
717.873	27015.12
718.216	27048.57
718.559	26797.73
718.902	26665.3
719.246	26816.71
719.589	26651.06
719.932	26636.6
720.275	26587.34
720.617	26552.76
720.96	26541.92
721.303	26512.09
721.646	26483.16
721.989	26246.1
722.331	26361.81
722.674	26236.39
723.016	26231.87
723.359	26150.06
723.701	26221.47
724.044	26112.77
724.386	25987.13
724.729	25998.65
725.071	26029.84
725.413	25951.87
725.755	25917.07
726.097	25895.6
726.439	25768.38
726.782	25793.69
727.124	25869.39
727.465	25770.41
727.807	25743.74
728.149	25659.68
728.491	25658.32
728.833	25579.68
729.175	25567.25
729.516	25536.74
729.858	25380.82
730.199	25454.71
730.541	25315.28
730.882	25291.33
731.224	25353.02
731.565	25219.46
731.906	25245.68
732.248	25172.23
732.589	25220.37
732.93	25042.07
733.271	24998.45
733.612	25028.06
733.953	25009.53
734.294	24945.35
734.635	24835.97
734.976	24905.35
735.317	24766.14
735.658	24732.02
735.999	24823.32
736.339	24774.05
736.68	24776.09
737.021	24784
737.361	24649.31
737.702	24820.15
738.042	24637.11
738.383	24549.88
738.723	24726.14
739.063	24639.82
739.404	24521.86
739.744	24446.83
740.084	24477.11
740.424	24282.99
740.764	24341.75
741.104	24405.02
741.444	24278.25
741.784	24148.76
742.124	24231.24
742.464	24219.26
742.804	24219.72
743.143	24171.13
743.483	24159.15
743.823	23964.36
744.162	23957.58
744.502	24091.58
744.841	23951.02
745.181	24005.94
745.52	23911.7
745.86	23831.7
746.199	23851.14
746.538	23899.95
746.877	23868.31
747.216	23781.99
747.556	23795.55
747.895	23797.58
748.234	23699.96
748.573	23635.78
748.911	23545.84
749.25	23626.51
749.589	23580.19
749.928	23478.94
750.267	23570.92
750.605	23397.37
750.944	23350.36
751.283	23336.35
751.621	23466.29
751.96	23215.9
752.298	23195.11
752.636	23227.88
752.975	22954.89
753.313	22991.95
753.651	23165.73
753.989	23014.55
754.327	22915.12
754.666	22853.2
755.004	22968
755.342	22885.06
755.679	22908.56
756.017	22697.95
756.355	22885.74
756.693	22705.18
757.031	22768.68
757.368	22644.84
757.706	22718.06
758.044	22482.81
758.381	22566.43
758.719	22455.92
759.056	22413.21
759.394	22321.46
759.731	22257.73
760.068	22314.68
760.405	22236.94
760.743	22042.15
761.08	22108.13
761.417	21920.34
761.754	21906.33
762.091	21958.98
762.428	21817.29
762.765	21644.42
763.102	21822.94
763.438	21701.36
763.775	21464.53
764.112	21537.07
764.449	21527.36
764.785	21387.47
765.122	21329.85
765.458	21172.56
765.795	21216.86
766.131	21185.9
766.467	21157.42
766.804	21054.83
767.14	20937.54
767.476	20887.6
767.812	20811.22
768.148	20870.88
768.485	20598.34
768.821	20549.76
769.157	20505.92
769.492	20549.53
769.828	20449.19
770.164	20380.72
770.5	20275.19
770.836	20240.16
771.171	20127.85
771.507	20218.01
771.842	20015.76
772.178	20050.33
772.513	19953.61
772.849	19928.53
773.184	19799.49
773.519	19818.48
773.855	19602.89
774.19	19613.28
774.525	19494.42
774.86	19541.2
775.195	19345.95
775.53	19294.65
775.865	19237.93
776.2	19107.99
776.535	18999.51
776.87	18999.29
777.205	18898.27
777.539	18896.69
777.874	18842.46
778.209	18700.77
778.543	18645.63
778.878	18553.42
779.212	18495.57
779.547	18420.09
779.881	18433.88
780.215	18272.53
780.55	18243.15
780.884	18186.2
781.218	18138.97
781.552	18154.11
781.886	18026.66
782.22	17917.51
782.554	17840.67
782.888	17705.31
783.222	17702.15
783.556	17574.02
783.889	17653.34
784.223	17588.7
784.557	17456.73
784.89	17486.33
785.224	17341.93
785.557	17308.49
785.891	17339.45
786.224	17166.34
786.558	17143.52
786.891	17028.27
787.224	16914.15
787.557	16893.81
787.891	16858.55
788.224	16854.26
788.557	16855.39
788.89	16842.51
789.223	16717.31
789.556	16649.97
789.888	16573.82
790.221	16498.56
790.554	16374.5
790.887	16391.45
791.219	16303.31
791.552	16268.51
791.884	16186.03
792.217	16130.44
792.549	16059.7
792.882	16016.77
793.214	15958.92
793.546	16038.24
793.879	15832.37
794.211	15776.1
794.543	15897.45
794.875	15679.83
795.207	15774.74
795.539	15600.73
795.871	15654.29
796.203	15450.68
796.535	15482.54
796.867	15344.47
797.198	15344.02
797.53	15313.06
797.862	15259.05
798.193	15287.97
798.525	15098.83
798.856	15126.62
799.188	15041.65
799.519	14967.53
799.85	14870.13
800.182	14924.59
800.513	14881.2
800.844	14746.97
801.175	14752.62
801.506	14848.66
801.837	14620.42
802.168	14722.56
802.499	14656.35
802.83	14514.66
803.161	14460.42
803.491	14493.19
803.822	14452.74
804.153	14346.08
804.483	14294.78
804.814	14198.06
805.145	14265.85
805.475	14148.34
805.805	14186.76
806.136	14213.43
806.466	14162.35
806.796	14069.02
807.126	13979.08
807.457	13893.89
807.787	13957.61
808.117	13883.72
808.447	13864.28
808.777	13942.25
809.107	13794.91
809.436	13797.39
809.766	13724.63
810.096	13676.04
810.426	13593.78
810.755	13662.03
811.085	13541.8
811.414	13569.37
811.744	13417.51
812.073	13457.97
812.403	13416.84
812.732	13275.6
813.061	13396.72
813.39	13298.2
813.719	13213.68
814.049	13333.67
814.378	13235.6
814.707	13121.93
815.036	13132.55
815.365	13062.27
815.693	13039.9
816.022	13002.16
816.351	13032.21
816.68	12889.62
817.008	12991.08
817.337	12872.9
817.665	12802.16
817.994	12874.48
818.322	12800.13
818.651	12716.52
818.979	12693.47
819.307	12699.57
819.636	12756.97
819.964	12602.62
820.292	12663.41
820.62	12619.12
820.948	12650.98
821.276	12577.08
821.604	12539.57
821.932	12508.16
822.259	12628.38
822.587	12560.36
822.915	12460.93
823.243	12553.58
823.57	12527.82
823.898	12544.09
824.225	12526.46
824.553	12543.19
824.88	12471.78
825.207	12548.38
825.535	12511.32
825.862	12537.31
826.189	12528.72
826.516	12564.43
826.843	12509.74
827.17	12589.06
827.497	12552
827.824	12508.16
828.151	12531.66
828.478	12485.11
828.805	12579.57
829.131	12515.84
829.458	12524.2
829.785	12395.62
830.111	12478.56
830.438	12599.68
830.764	12530.31
831.09	12481.95
831.417	12461.16
831.743	12490.99
832.069	12432.68
832.395	12392.68
832.722	12441.49
833.048	12366.69
833.374	12375.06
833.7	12276.08
834.026	12361.27
834.351	12332.12
834.677	12380.93
835.003	12355.17
835.329	12330.54
835.654	12317.43
835.98	12185
836.306	12282.18
836.631	12220.03
836.956	12217.09
837.282	12272.01
837.607	12155.17
837.932	12119.02
838.258	12139.13
838.583	12085.8
838.908	12112.69
839.233	12086.93
839.558	12087.61
839.883	11948.85
840.208	11946.82
840.533	11989.3
840.858	11978
841.182	11917.44
841.507	11906.59
841.832	11903.43
842.156	11922.64
842.481	11882.41
842.805	11869.31
843.13	11839.48
843.454	11850.55
843.778	11716.09
844.103	11761.96
844.427	11702.53
844.751	11731.46
845.075	11699.59
845.399	11667.05
845.723	11559.71
846.047	11591.57
846.371	11461.18
846.695	11471.8
847.019	11396.1
847.343	11365.14
847.666	11315.2
847.99	11208.53
848.313	11220.06
848.637	11118.37
848.96	11136.44
849.284	11041.31
849.607	11043.57
849.931	10996.56
850.254	10941.2
850.577	10850.12
850.9	10786.62
851.223	10836.11
851.546	10685.16
851.869	10694.42
852.192	10781.2
852.515	10625.5
852.838	10585.5
853.161	10582.79
853.483	10504.82
853.806	10508.44
854.129	10421.66
854.451	10453.3
854.774	10434.77
855.096	10356.8
855.419	10231.16
855.741	10327.65
856.063	10254.89
856.385	10246.75
856.708	10206.53
857.03	10179.41
857.352	10143.7
857.674	10086.98
857.996	10087.21
858.318	10009.02
858.64	10039.52
858.961	9989.81
859.283	9989.13
859.605	9828
859.926	9968.57
860.248	9956.36
860.57	9887.21
860.891	9788.01
861.212	9722.02
861.534	9735.35
861.855	9804.5
862.176	9746.42
862.498	9726.09
862.819	9720.89
863.14	9648.35
863.461	9693.54
863.782	9643.15
864.103	9601.12
864.424	9650.38
864.745	9611.29
865.065	9557.28
865.386	9538.75
865.707	9479.99
866.027	9550.27
866.348	9518.86
866.668	9473.21
866.989	9488.13
867.309	9372.2
867.63	9379.65
867.95	9395.25
868.27	9377.17
868.59	9371.97
868.91	9347.34
869.23	9347.11
869.55	9221.24
869.87	9383.72
870.19	9357.96
870.51	9261.24
870.83	9353.44
871.15	9269.15
871.469	9167.46
871.789	9204.97
872.109	9219.66
872.428	9134.69
872.748	9254.69
873.067	9195.03
873.386	9148.25
873.706	9214.24
874.025	9119.1
874.344	9091.98
874.663	9164.97
874.982	9091.98
875.301	9070.51
875.62	9003.17
875.939	9002.26
876.258	9057.63
876.577	9028.7
876.896	9044.07
877.214	8980.57
877.533	8999.33
877.852	8912.77
878.17	8931.98
878.489	8913.45
878.807	8962.26
879.125	8889.95
879.444	8845.66
879.762	8888.37
880.08	8774.7
880.398	8809.73
880.716	8827.58
881.034	8770.4
881.352	8804.53
881.67	8721.59
881.988	8781.7
882.306	8745.32
882.624	8654.7
882.941	8681.59
883.259	8669.84
883.577	8604.31
883.894	8648.15
884.212	8559.56
884.529	8603.18
884.846	8466.46
885.164	8505.33
885.481	8554.82
885.798	8481.37
886.115	8381.26
886.432	8465.33
886.75	8407.25
887.067	8451.32
887.383	8360.7
887.7	8384.65
888.017	8314.15
888.334	8368.38
888.651	8317.31
888.967	8330.19
889.284	8204.09
889.6	8217.2
889.917	8148.73
890.233	8210.87
890.55	8189.86
890.866	8181.04
891.182	8115.05
891.498	8154.6
891.815	8074.83
892.131	8016.53
892.447	8056.3
892.763	8007.94
893.079	8002.74
893.395	7932.91
893.71	7965.91
894.026	7977.21
894.342	7963.42
894.657	7874.16
894.973	7836.87
895.289	7783.76
895.604	7849.3
895.92	7779.92
896.235	7731.11
896.55	7735.63
896.865	7682.3
897.181	7658.12
897.496	7664.22
897.811	7656.08
898.126	7606.59
898.441	7571.34
898.756	7557.33
899.071	7508.07
899.386	7481.17
899.7	7467.84
900.015	7431.91
900.33	7381.97
900.644	7370.67
900.959	7405.7
901.273	7304.45
901.588	7298.35
901.902	7296.32
902.216	7277.34
902.531	7210.22
902.845	7185.81
903.159	7151.24
903.473	7071.69
903.787	7083.67
904.101	7070.79
904.415	7104.01
904.729	7045.25
905.042	7006.38
905.356	6983.11
905.67	6962.77
905.984	6926.84
906.297	6956.89
906.611	6875.31
906.924	6866.5
907.237	6839.38
907.551	6847.29
907.864	6787.63
908.177	6762.1
908.491	6785.37
908.804	6700.4
909.117	6670.12
909.43	6623.12
909.743	6611.14
910.056	6614.98
910.368	6588.54
910.681	6558.94
910.994	6515.1
911.307	6456.12
911.619	6466.28
911.932	6454.31
912.244	6405.95
912.557	6373.86
912.869	6359.62
913.181	6374.08
913.494	6339.06
913.806	6259.96
914.118	6261.54
914.43	6247.08
914.742	6252.73
915.054	6182
915.366	6176.12
915.678	6175.67
915.99	6106.75
916.302	6073.07
916.613	6072.85
916.925	6027.88
917.236	6006.41
917.548	6020.42
917.859	5986.75
918.171	5968.22
918.482	5850.71
918.794	5942.68
919.105	5866.98
919.416	5793.53
919.727	5820.65
920.038	5819.3
920.349	5764.38
920.66	5751.95
920.971	5750.37
921.282	5687.32
921.593	5691.16
921.903	5658.62
922.214	5570.94
922.525	5628.57
922.835	5592.86
923.146	5555.12
923.456	5562.58
923.767	5483.03
924.077	5547.66
924.387	5439.87
924.697	5443.94
925.008	5452.75
925.318	5412.98
925.628	5395.35
925.938	5363.04
926.248	5309.48
926.558	5252.31
926.867	5281.01
927.177	5280.1
927.487	5228.35
927.796	5209.14
928.106	5251.18
928.416	5195.13
928.725	5157.39
929.034	5102.03
929.344	5164.4
929.653	5095.7
929.962	5095.02
930.271	5066.1
930.581	5029.94
930.89	4978.64
931.199	4970.05
931.508	4983.61
931.817	4972.99
932.125	4974.12
932.434	4881.47
932.743	4879.66
933.051	4845.99
933.36	4785.2
933.669	4802.83
933.977	4784.97
934.286	4812.99
934.594	4787.23
934.902	4735.26
935.21	4678.54
935.519	4703.85
935.827	4661.59
936.135	4631.3
936.443	4625.66
936.751	4640.57
937.059	4573.23
937.367	4581.36
937.674	4603.06
937.982	4544.3
938.29	4507.69
938.597	4529.84
938.905	4464.98
939.213	4429.28
939.52	4438.09
939.827	4441.71
940.135	4383.63
940.442	4424.3
940.749	4404.87
941.056	4361.71
941.363	4328.71
941.67	4335.27
941.977	4321.03
942.284	4246
942.591	4255.27
942.898	4272.22
943.205	4200.13
943.511	4184.99
943.818	4176.4
944.125	4170.3
944.431	4149.06
944.738	4136.85
945.044	4134.59
945.35	4089.4
945.657	4065.67
945.963	4032.68
946.269	4043.75
946.575	4017.76
946.881	3964.2
947.187	4017.31
947.493	3981.6
947.799	3959.91
948.105	3959.01
948.41	3947.93
948.716	3939.8
949.022	3942.06
949.327	3900.02
949.633	3858.44
949.938	3822.06
950.244	3845.11
950.549	3766.69
950.854	3779.35
951.16	3818.44
951.465	3794.49
951.77	3746.81
952.075	3735.51
952.38	3740.25
952.685	3714.49
952.99	3681.73
953.294	3666.81
953.599	3585.68
953.904	3638.11
954.209	3626.59
954.513	3639.47
954.818	3583.2
955.122	3586.13
955.426	3545.46
955.731	3501.62
956.035	3542.07
956.339	3537.55
956.643	3495.74
956.948	3526.48
957.252	3470.66
957.556	3467.72
957.86	3437.21
958.163	3433.37
958.467	3455.74
958.771	3375.52
959.075	3393.37
959.378	3364.67
959.682	3352.69
959.985	3345.24
960.289	3331
960.592	3308.63
960.896	3282.64
961.199	3265.92
961.502	3241.28
961.805	3235.41
962.108	3208.07
962.411	3211
962.714	3211.46
963.017	3202.42
963.32	3202.19
963.623	3181.63
963.926	3137.11
964.228	3127.62
964.531	3126.03
964.833	3102.53
965.136	3089.42
965.438	3063.21
965.741	3073.61
966.043	3042.87
966.345	3040.16
966.648	3021.18
966.95	3011.23
967.252	2987.28
967.554	3029.31
967.856	2972.14
968.158	2954.51
968.46	2962.87
968.761	2940.5
969.063	2932.82
969.365	2888.07
969.666	2922.2
969.968	2900.05
970.269	2853.27
970.571	2875.19
970.872	2842.88
971.174	2858.24
971.475	2865.25
971.776	2821.86
972.077	2805.82
972.378	2770.56
972.679	2765.59
972.98	2806.27
973.281	2821.63
973.582	2755.65
973.883	2760.17
974.183	2740.73
974.484	2733.73
974.785	2693.95
975.085	2717.68
975.386	2642.66
975.686	2656.22
975.986	2669.1
976.287	2649.21
976.587	2609.44
976.887	2648.98
977.187	2614.63
977.487	2613.96
977.787	2582.09
978.087	2578.93
978.387	2601.75
978.687	2581.19
978.987	2543.45
979.286	2549.33
979.586	2514.3
979.885	2511.13
980.185	2495.77
980.484	2486.73
980.784	2515.65
981.083	2478.37
981.382	2444.92
981.682	2478.59
981.981	2430.46
982.28	2438.14
982.579	2385.26
982.878	2418.26
983.177	2387.07
983.475	2385.71
983.774	2402.89
984.073	2331.25
984.372	2344.81
984.67	2354.3
984.969	2336.22
985.267	2360.63
985.566	2348.65
985.864	2287.41
986.162	2347.07
986.461	2289.45
986.759	2284.93
987.057	2284.25
987.355	2265.27
987.653	2252.84
987.951	2221.65
988.249	2187.98
988.547	2226.85
988.844	2197.92
989.142	2190.92
989.44	2166.28
989.737	2178.04
990.035	2190.24
990.332	2148.66
990.63	2145.72
990.927	2157.02
991.224	2176.45
991.521	2124.7
991.819	2119.28
992.116	2108.66
992.413	2110.69
992.71	2048.32
993.006	2058.27
993.303	2051.71
993.6	2062.78
993.897	2020.53
994.193	2008.55
994.49	2024.14
994.787	2001.77
995.083	1973.97
995.379	1988.89
995.676	1985.72
995.972	1985.5
996.268	1969.68
996.565	1942.79
996.861	1964.71
997.157	1932.84
997.453	1927.42
997.749	1947.76
998.044	1931.04
998.34	1908.44
998.636	1902.34
998.932	1896.91
999.227	1863.92
999.523	1870.02
999.818	1858.72
1000.114	1867.08
1000.409	1816.24
1000.704	1799.97
1001	1837.93
1001.295	1826.18
1001.59	1792.74
1001.885	1779.85
1002.18	1798.16
1002.475	1783.7
1002.77	1759.29
1003.065	1717.48
1003.359	1717.48
1003.654	1729.46
1003.949	1730.14
1004.243	1727.2
1004.538	1703.92
1004.832	1728.78
1005.127	1693.3
1005.421	1685.17
1005.715	1651.27
1006.009	1665.73
1006.304	1638.16
1006.598	1650.14
1006.892	1618.95
1007.186	1639.75
1007.48	1604.27
1007.773	1646.98
1008.067	1613.53
1008.361	1608.33
1008.655	1567.88
1008.948	1566.98
1009.242	1576.24
1009.535	1576.7
1009.829	1556.81
1010.122	1556.58
1010.415	1519.97
1010.708	1513.42
1011.001	1498.51
1011.295	1502.8
1011.588	1491.5
1011.881	1489.92
1012.173	1474.1
1012.466	1471.16
1012.759	1492.86
1013.052	1466.42
1013.344	1457.83
1013.637	1451.5
1013.93	1431.16
1014.222	1452.63
1014.514	1441.33
1014.807	1387.55
1015.099	1391.62
1015.391	1429.13
1015.683	1392.97
1015.976	1386.87
1016.268	1381.45
1016.56	1355.68
1016.851	1363.37
1017.143	1361.33
1017.435	1329.02
1017.727	1348.23
1018.018	1332.63
1018.31	1325.63
1018.602	1300.54
1018.893	1293.09
1019.185	1306.87
1019.476	1270.49
1019.767	1263.48
1020.058	1282.47
1020.35	1249.25
1020.641	1253.09
1020.932	1253.54
1021.223	1221.45
1021.514	1252.41
1021.804	1210.83
1022.095	1213.54
1022.386	1199.76
1022.677	1197.04
1022.967	1183.94
1023.258	1187.33
1023.548	1182.58
1023.839	1154.79
1024.129	1163.15
1024.419	1141
1024.709	1152.75
1025	1125.18
1025.29	1146.88
1025.58	1128.35
1025.87	1119.76
1026.16	1095.8
1026.449	1081.57
1026.739	1107.78
1027.029	1086.99
1027.319	1073.43
1027.608	1085.41
1027.898	1091.28
1028.187	1076.82
1028.477	1077.27
1028.766	1067.78
1029.055	1032.08
1029.344	1041.12
1029.634	1018.07
1029.923	1035.02
1030.212	1024.85
1030.501	1019.42
1030.79	993.43
1031.078	981.01
1031.367	998.41
1031.656	978.52
1031.945	978.97
1032.233	962.7
1032.522	973.1
1032.81	966.99
1033.099	958.41
1033.387	971.06
1033.675	963.6
1033.963	950.27
1034.251	942.59
1034.54	922.7
1034.828	907.56
1035.116	929.26
1035.403	919.76
1035.691	923.83
1035.979	899.88
1036.267	887.45
1036.554	884.06
1036.842	884.06
1037.129	861.01
1037.417	879.99
1037.704	868.92
1037.992	848.81
1038.279	856.71
1038.566	873.21
1038.853	873.21
1039.14	873.21
