Data from hue_300_FLMS001491_00004.txt Node
Date: Tue Feb 07 15:49:38 GMT 2017
User: dcchb
Spectrometer: FLMS00149
Trigger mode: 0
Integration Time (sec): 2.000000E-2
Scans to average: 10
Electric dark correction enabled: true
Nonlinearity correction enabled: false
Boxcar width: 0
XAxis mode: Wavelengths
Number of Pixels in Spectrum: 2048
>>>>>Begin Spectral Data<<<<<
341.393	4.25
341.776	4.25
342.16	4.25
342.543	-62.64
342.927	-76.2
343.31	-57.67
343.693	-82.53
344.077	-70.32
344.46	-59.48
344.843	-49.98
345.226	-47.05
345.61	-39.14
345.993	-6.6
346.376	-3.88
346.759	17.81
347.142	30.01
347.525	28.88
347.908	60.52
348.291	86.74
348.674	90.58
349.057	102.1
349.44	119.95
349.823	129.9
350.206	168.31
350.588	183.46
350.971	195.66
351.354	210.8
351.737	229.1
352.119	263.91
352.502	244.47
352.884	272.04
353.267	281.53
353.65	285.83
354.032	295.54
354.414	331.25
354.797	304.36
355.179	297.8
355.562	304.58
355.944	333.73
356.326	325.6
356.709	320.63
357.091	316.11
357.473	341.64
357.855	341.42
358.238	340.29
358.62	319.27
359.002	339.61
359.384	345.94
359.766	314.53
360.148	320.4
360.53	331.25
360.912	336.45
361.294	332.15
361.676	331.25
362.057	335.09
362.439	326.28
362.821	319.95
363.203	327.63
363.584	326.28
363.966	336.22
364.348	325.82
364.729	323.34
365.111	327.41
365.493	307.75
365.874	303
366.256	295.09
366.637	309.33
367.019	308.88
367.4	320.85
367.781	298.93
368.163	306.16
368.544	313.85
368.925	323.34
369.306	311.59
369.688	306.84
370.069	297.35
370.45	320.4
370.831	317.24
371.212	302.32
371.593	303.9
371.974	300.97
372.355	315.88
372.736	322.21
373.117	321.53
373.498	323.34
373.879	296.9
374.26	301.87
374.641	322.44
375.021	321.08
375.402	329.44
375.783	303.68
376.163	321.76
376.544	317.69
376.925	295.77
377.305	300.97
377.686	324.02
378.066	313.85
378.447	323.79
378.827	340.06
379.208	327.63
379.588	338.93
379.968	329.67
380.349	323.56
380.729	307.29
381.109	341.42
381.489	328.31
381.87	335.54
382.25	333.51
382.63	329.67
383.01	320.4
383.39	318.37
383.77	344.36
384.15	329.21
384.53	338.71
384.91	347.07
385.29	356.78
385.67	339.84
386.049	344.81
386.429	351.59
386.809	352.72
387.189	359.95
387.568	354.52
387.948	350.46
388.328	361.08
388.707	359.72
389.087	361.08
389.466	380.51
389.846	366.28
390.225	360.4
390.605	358.59
390.984	372.38
391.363	378.93
391.743	355.88
392.122	340.97
392.501	380.74
392.881	369.21
393.26	356.56
393.639	343.9
394.018	377.57
394.397	374.64
394.776	409.66
395.155	367.18
395.534	385.26
395.913	384.81
396.292	380.96
396.671	400.63
397.05	399.27
397.429	377.57
397.808	385.94
398.186	395.65
398.565	394.3
398.944	377.57
399.323	397.46
399.701	387.74
400.08	408.08
400.458	410.57
400.837	409.89
401.215	404.24
401.594	401.98
401.972	434.97
402.351	406.95
402.729	412.15
403.107	424.13
403.486	415.77
403.864	435.43
404.242	420.74
404.62	418.25
404.999	444.24
405.377	448.76
405.755	442.21
406.133	454.86
406.511	446.5
406.889	459.15
407.267	462.09
407.645	466.84
408.023	482.43
408.401	472.04
408.779	474.52
409.156	493.05
409.534	487.4
409.912	520.62
410.29	495.99
410.667	511.13
411.045	529.44
411.422	541.41
411.8	537.12
412.178	536.21
412.555	550.23
412.933	565.14
413.31	564.24
413.687	564.01
414.065	573.95
414.442	584.12
414.819	590.22
415.197	596.78
415.574	614.63
415.951	610.56
416.328	633.39
416.705	645.36
417.082	660.73
417.46	629.77
417.837	640.84
418.214	660.28
418.591	672.71
418.967	649.66
419.344	682.2
419.721	683.56
420.098	706.61
420.475	702.31
420.852	714.29
421.228	731.69
421.605	729.88
421.982	741.41
422.358	725.14
422.735	761.97
423.111	776.89
423.488	763.1
423.864	783.89
424.241	799.94
424.617	810.78
424.994	792.25
425.37	824.34
425.746	832.03
426.123	838.35
426.499	826.15
426.875	845.13
427.251	872.93
427.627	886.94
428.003	871.35
428.379	893.04
428.756	878.35
429.132	917
429.507	924.45
429.883	921.52
430.259	956.32
430.635	968.75
431.011	954.06
431.387	974.17
431.763	991.57
432.138	999.48
432.514	1008.29
432.89	1031.57
433.265	1027.05
433.641	1058.91
434.016	1062.98
434.392	1076.99
434.767	1088.29
435.143	1078.8
435.518	1088.52
435.894	1143.2
436.269	1126.71
436.644	1137.33
437.02	1182.75
437.395	1138.01
437.77	1168.97
438.145	1175.29
438.52	1189.53
438.895	1190.43
439.271	1199.93
439.646	1245.8
440.021	1206.93
440.395	1220.04
440.77	1240.38
441.145	1236.31
441.52	1247.38
441.895	1270.88
442.27	1286.93
442.645	1259.81
443.019	1244.22
443.394	1265.91
443.769	1309.08
444.143	1278.34
444.518	1291.68
444.892	1302.52
445.267	1328.06
445.641	1326.48
446.016	1312.47
446.39	1317.21
446.764	1327.38
447.139	1329.41
447.513	1336.65
447.887	1372.8
448.262	1362.41
448.636	1368.28
449.01	1373.03
449.384	1409.19
449.758	1377.32
450.132	1387.72
450.506	1382.97
450.88	1399.47
451.254	1402.86
451.628	1403.99
452.002	1417.77
452.376	1428.85
452.75	1431.33
453.123	1406.7
453.497	1443.99
453.871	1452.12
454.244	1482.4
454.618	1474.27
454.992	1472.01
455.365	1494.83
455.739	1512.23
456.112	1512.91
456.486	1558.79
456.859	1553.36
457.232	1542.29
457.606	1553.14
457.979	1583.19
458.352	1604.66
458.725	1635.17
459.099	1589.52
459.472	1647.15
459.845	1639.01
460.218	1646.24
460.591	1626.81
460.964	1637.65
461.337	1667.48
461.71	1719.01
462.083	1720.59
462.456	1707.26
462.829	1709.74
463.201	1749.06
463.574	1740.25
463.947	1744.54
464.32	1778.67
464.692	1803.98
465.065	1807.37
465.438	1805.56
465.81	1841.49
466.183	1865.67
466.555	1867.93
466.928	1899.34
467.3	1889.17
467.672	1870.64
468.045	1902.05
468.417	1925.1
468.789	1937.08
469.161	1965.56
469.534	1997.19
469.906	1970.08
470.278	1993.8
470.65	2034.71
471.022	2038.1
471.394	2092.56
471.766	2066.34
472.138	2102.95
472.51	2146.12
472.882	2174.82
473.253	2151.77
473.625	2222.95
473.997	2233.12
474.369	2216.4
474.74	2240.35
475.112	2240.35
475.484	2293.68
475.855	2321.7
476.227	2318.99
476.598	2379.78
476.97	2387.24
477.341	2397.41
477.713	2428.14
478.084	2430.63
478.455	2529.83
478.827	2474.92
479.198	2526.22
479.569	2557.86
479.94	2597.4
480.311	2636.5
480.682	2643.28
481.053	2699.55
481.424	2706.33
481.795	2735.7
482.166	2744.74
482.537	2807.57
482.908	2779.32
483.279	2814.8
483.65	2837.85
484.021	2893.44
484.391	2906.55
484.762	2954.23
485.133	2942.71
485.503	2979.09
485.874	3019.09
486.244	3043.49
486.615	3082.36
486.985	3120.1
487.356	3099.31
487.726	3128.46
488.097	3171.85
488.467	3182.7
488.837	3259.53
489.207	3275.35
489.578	3290.49
489.948	3353.32
490.318	3363.49
490.688	3345.86
491.058	3386.76
491.428	3418.62
491.798	3479.19
492.168	3505.63
492.538	3496.36
492.908	3529.13
493.278	3563.71
493.648	3586.53
494.017	3580.2
494.387	3623.82
494.757	3629.01
495.126	3666.53
495.496	3672.86
495.866	3683.02
496.235	3718.5
496.605	3721.22
496.974	3755.79
497.344	3791.95
497.713	3765.06
498.082	3822
498.452	3810.03
498.821	3845.05
499.19	3825.85
499.559	3871.95
499.928	3894.54
500.298	3917.59
500.667	3967.76
501.036	3903.36
501.405	3896.13
501.774	3962.57
502.143	4029.68
502.512	3973.64
502.88	4023.35
503.249	3963.24
503.618	4067.87
503.987	4030.36
504.356	4046.4
504.724	4048.66
505.093	4100.19
505.462	4100.41
505.83	4111.49
506.199	4079.62
506.567	4140.87
506.936	4121.88
507.304	4151.49
507.672	4222.67
508.041	4208.43
508.409	4240.3
508.777	4213.18
509.145	4269
509.514	4222.45
509.882	4278.94
510.25	4320.97
510.618	4306.06
510.986	4315.1
511.354	4319.39
511.722	4346.74
512.09	4346.28
512.458	4381.31
512.826	4362.1
513.193	4330.47
513.561	4420.41
513.929	4406.62
514.297	4400.97
514.664	4436.23
515.032	4416.11
515.4	4483.91
515.767	4487.52
516.135	4447.98
516.502	4415.89
516.869	4524.13
517.237	4534.98
517.604	4508.99
517.972	4511.25
518.339	4575.66
518.706	4559.39
519.073	4574.75
519.44	4598.48
519.808	4647.97
520.175	4602.32
520.542	4652.94
520.909	4664.69
521.276	4642.1
521.643	4663.56
522.009	4671.7
522.376	4727.06
522.743	4722.55
523.11	4791.7
523.477	4754.41
523.843	4820.4
524.21	4860.17
524.577	4884.12
524.943	4835.08
525.31	4887.29
525.676	4913.27
526.043	4932.48
526.409	4946.27
526.776	5001.63
527.142	5000.28
527.508	5027.85
527.874	5084.57
528.241	5076.43
528.607	5075.76
528.973	5169.99
529.339	5110.33
529.705	5165.7
530.071	5230.78
530.437	5210.22
530.803	5263.32
531.169	5273.27
531.535	5229.88
531.901	5277.33
532.267	5324.79
532.632	5285.24
532.998	5354.17
533.364	5383.32
533.73	5353.72
534.095	5452.24
534.461	5444.56
534.826	5451.79
535.192	5508.06
535.557	5478.01
535.923	5507.84
536.288	5585.57
536.653	5574.05
537.019	5562.3
537.384	5583.99
537.749	5632.8
538.114	5664.22
538.479	5686.14
538.845	5686.59
539.21	5668.96
539.575	5688.17
539.94	5705.12
540.305	5758.45
540.67	5770.43
541.034	5836.19
541.399	5839.13
541.764	5822.86
542.129	5869.18
542.494	5828.28
542.858	5962.74
543.223	5919.12
543.587	5959.57
543.952	5934.72
544.316	5965.68
544.681	6012.23
545.045	6047.03
545.41	6085.9
545.774	6105.56
546.138	6084.54
546.503	6101.94
546.867	6163.41
547.231	6196.18
547.595	6179
547.959	6195.5
548.324	6228.49
548.688	6280.02
549.052	6252.9
549.416	6285.22
549.779	6278.66
550.143	6340.13
550.507	6331.99
550.871	6400.02
551.235	6409.96
551.599	6382.84
551.962	6439.56
552.326	6483.4
552.689	6501.71
553.053	6436.62
553.417	6449.96
553.78	6572.21
554.143	6487.02
554.507	6570.86
554.87	6543.97
555.234	6666
555.597	6577.64
555.96	6665.09
556.323	6649.05
556.686	6646.79
557.05	6671.87
557.413	6677.97
557.776	6706.22
558.139	6721.59
558.502	6731.76
558.865	6809.95
559.228	6824.41
559.59	6840.68
559.953	6807.69
560.316	6912.09
560.679	6871.19
561.041	6948.7
561.404	6941.24
561.767	6968.81
562.129	6957.29
562.492	7040.45
562.854	6999.77
563.217	7009.49
563.579	7050.17
563.941	7094.46
564.304	7109.6
564.666	7176.72
565.028	7161.8
565.39	7190.73
565.753	7249.26
566.115	7211.07
566.477	7222.82
566.839	7342.82
567.201	7308.47
567.563	7335.36
567.925	7393.21
568.287	7419.88
568.648	7384.4
569.01	7482.7
569.372	7476.6
569.734	7474.56
570.095	7541
570.457	7581
570.819	7601.79
571.18	7652.41
571.542	7668.68
571.903	7723.82
572.265	7752.3
572.626	7772.86
572.987	7823.93
573.349	7854.89
573.71	7939.86
574.071	7947.77
574.432	8044.04
574.794	8133.98
575.155	8181.66
575.516	8124.94
575.877	8242.68
576.238	8284.26
576.599	8302.79
576.96	8401.54
577.32	8458.72
577.681	8486.74
578.042	8620.3
578.403	8709.79
578.763	8832.49
579.124	8841.53
579.485	9042.43
579.845	9130.57
580.206	9185.25
580.566	9342.76
580.927	9418.69
581.287	9573.04
581.648	9614.39
582.008	9847.83
582.368	9923.09
582.728	10123.31
583.089	10182.51
583.449	10401.94
583.809	10560.36
584.169	10655.04
584.529	10928.26
584.889	11142.49
585.249	11234.92
585.609	11442.82
585.969	11728.01
586.329	11865.18
586.688	12125.74
587.048	12340.65
587.408	12523.02
587.768	12745.16
588.127	13003.23
588.487	13170.01
588.846	13527.06
589.206	13744.68
589.565	14016.31
589.925	14226.7
590.284	14594.6
590.643	14854.71
591.003	15042.95
591.362	15371.98
591.721	15674.57
592.08	15885.42
592.44	16171.06
592.799	16540.54
593.158	16677.03
593.517	17105.27
593.876	17422.1
594.235	17577.12
594.593	17962.42
594.952	18260.04
595.311	18503.2
595.67	18843.53
596.029	19255.95
596.387	19522.38
596.746	19854.8
597.104	20037.62
597.463	20322.81
597.822	20676.48
598.18	20889.58
598.538	21271.71
598.897	21644.13
599.255	21730.01
599.613	22426.49
599.972	22462.64
600.33	22781.73
600.688	22970.2
601.046	23406.12
601.404	23822.16
601.762	23856.73
602.12	24390.95
602.478	24596.6
602.836	24797.05
603.194	24991.84
603.552	25296.69
603.91	25483.36
604.268	25952.27
604.625	26109.33
604.983	26361.52
605.341	26513.61
605.698	26902.75
606.056	27167.15
606.413	27438.11
606.771	27744.76
607.128	27970.07
607.485	27997.87
607.843	28215.71
608.2	28654.12
608.557	28931.17
608.914	28960.33
609.272	29352.86
609.629	29615.22
609.986	29909.23
610.343	29937.48
610.7	30373.17
611.057	30483.9
611.414	30620.62
611.771	30813.84
612.127	31043.21
612.484	31282.3
612.841	31505.12
613.198	31574.72
613.554	31837.09
613.911	32142.62
614.267	32196.4
614.624	32359.78
614.98	32496.05
615.337	32797.97
615.693	32931.52
616.05	32910.05
616.406	33304.84
616.762	33308.69
617.118	33384.39
617.475	33690.15
617.831	33736.7
618.187	33987.09
618.543	34067.31
618.899	34448.54
619.255	34404.7
619.611	34465.49
619.967	34559.73
620.323	34873.16
620.678	34842.66
621.034	34974.86
621.39	35098.47
621.746	35131.01
622.101	35588.4
622.457	35311.8
622.812	35556.99
623.168	35719.24
623.523	35830.43
623.879	36013.02
624.234	35902.97
624.589	36075.62
624.945	36191.77
625.3	36238.78
625.655	36241.26
626.01	36437.19
626.365	36520.35
626.72	36488.04
627.075	36606.45
627.43	36599.67
627.785	36497.08
628.14	36780.69
628.495	36781.59
628.85	36749.05
629.205	36628.37
629.559	37046.67
629.914	36826.79
630.269	36917.41
630.623	36915.37
630.978	36829.5
631.332	37078.53
631.687	37134.35
632.041	36991.75
632.396	37152.2
632.75	37096.16
633.104	37137.06
633.459	37163.05
633.813	37195.36
634.167	37269.03
634.521	37119.43
634.875	37313.1
635.229	37277.85
635.583	37161.47
635.937	37216.83
636.291	37257.06
636.645	37195.59
636.999	37191.3
637.352	37398.52
637.706	37124.86
638.06	37332.54
638.413	37245.31
638.767	37170.05
639.121	37220
639.474	36990.85
639.828	37114.01
640.181	37110.39
640.534	37214.12
640.888	37224.52
641.241	36928.25
641.594	37064.52
641.947	37079.21
642.301	37040.57
642.654	37192.88
643.007	37233.55
643.36	37152.88
643.713	37074.69
644.066	37259.54
644.419	37060.9
644.771	36855.71
645.124	36482.16
645.477	36409.62
645.83	36231.55
646.182	36093.47
646.535	36103.42
646.888	36181.15
647.24	35940.26
647.593	36183.86
647.945	36104.55
648.298	36118.33
648.65	35969.86
649.002	35839.92
649.355	36142.28
649.707	35936.41
650.059	36206.24
650.411	36495.27
650.763	36640.12
651.115	36838.54
651.467	36978.19
651.819	36925.31
652.171	36793.34
652.523	36847.12
652.875	36647.13
653.227	36509.28
653.578	36874.02
653.93	36723.51
654.282	36516.74
654.633	36530.3
654.985	36543.63
655.337	36836.96
655.688	36717.41
656.039	36852.77
656.391	36660.01
656.742	36486.91
657.094	36679.22
657.445	36741.14
657.796	36639.67
658.147	36596.51
658.498	36645.32
658.849	36617.3
659.2	36513.12
659.551	36459.11
659.902	36639.45
660.253	36597.41
660.604	36568.71
660.955	36334.14
661.306	36585.44
661.656	36510.18
662.007	36595.83
662.358	36605.32
662.708	36582.05
663.059	36556.51
663.409	36354.71
663.76	36656.17
664.11	36519
664.461	36576.17
664.811	36541.37
665.161	36539.79
665.511	36361.49
665.862	36534.14
666.212	36480.35
666.562	36547.02
666.912	36328.27
667.262	36446
667.612	36391.77
667.962	36392.45
668.312	36429.96
668.662	36667.24
669.011	36550.18
669.361	36403.75
669.711	36400.36
670.06	36323.97
670.41	36304.54
670.76	36301.38
671.109	36410.98
671.459	36370.98
671.808	36323.52
672.157	36418.44
672.507	36202.85
672.856	36289.62
673.205	36348.83
673.554	36309.96
673.904	36235.16
674.253	36379.34
674.602	36284.88
674.951	35798.79
675.3	35609.64
675.649	36116.97
675.998	35990.65
676.346	36051.21
676.695	36057.77
677.044	35998.11
677.393	36012.8
677.741	36048.05
678.09	36037.65
678.438	35827.26
678.787	35920.14
679.135	35964.66
679.484	35629.76
679.832	35875.85
680.181	35571.9
680.529	35675.86
680.877	35543.43
681.225	35613.48
681.573	35761.96
681.922	35572.13
682.27	35479.02
682.618	35535.97
682.966	35279.03
683.314	35434.73
683.661	35305.47
684.009	35240.61
684.357	35245.58
684.705	35030.67
685.053	35188.64
685.4	35148.64
685.748	34934.41
686.095	34984.12
686.443	34806.73
686.79	34686.73
687.138	34810.79
687.485	34864.58
687.832	34740.29
688.18	34754.75
688.527	34596.79
688.874	34533.29
689.221	34479.73
689.568	34301.65
689.915	34131.26
690.262	34250.36
690.609	34105.5
690.956	34051.04
691.303	33998.61
691.65	33913.19
691.997	33934.21
692.344	33608.11
692.69	33620.32
693.037	33586.19
693.383	33274.11
693.73	33484.95
694.077	33381.9
694.423	33406.08
694.769	33149.59
695.116	33084.29
695.462	32980.11
695.808	32976.27
696.155	33180.78
696.501	32771.07
696.847	32752.77
697.193	32644.52
697.539	32775.37
697.885	32461.25
698.231	32435.71
698.577	32545.32
698.923	32364.76
699.269	32098.32
699.614	31972.68
699.96	31951.66
700.306	31990.98
700.651	31854.94
700.997	31805.68
701.342	31832.11
701.688	31686.81
702.033	31582.86
702.379	31556.64
702.724	31412.69
703.069	31460.15
703.415	31175.86
703.76	31168.18
704.105	31200.27
704.45	31102.64
704.795	30970.67
705.14	30838.69
705.485	30956.43
705.83	30683.9
706.175	30739.49
706.52	30672.37
706.865	30570.68
707.209	30557.35
707.554	30512.15
707.899	30521.87
708.243	30305.83
708.588	30264.02
708.932	30044.59
709.277	30038.94
709.621	30002.33
709.966	29972.73
710.31	30014.31
710.654	29647.31
710.998	29750.36
711.342	29643.02
711.687	29593.3
712.031	29529.12
712.375	29467.66
712.719	29537.71
713.063	29361.22
713.407	29485.06
713.75	29220.21
714.094	29318.73
714.438	29116.25
714.782	29220.88
715.125	29014.11
715.469	29027.44
715.812	28944.51
716.156	28816.83
716.499	28816.83
716.843	28812.08
717.186	28573.22
717.53	28751.74
717.873	28756.49
718.216	28572.09
718.559	28455.71
718.902	28267.01
719.246	28355.14
719.589	28297.74
719.932	28204.87
720.275	28255.03
720.617	28160.35
720.96	28189.27
721.303	28085.32
721.646	28172.78
721.989	27984.31
722.331	28011.2
722.674	27907.02
723.016	28011.65
723.359	27787.93
723.701	27852.56
724.044	27715.39
724.386	27745.67
724.729	27661.15
725.071	27596.07
725.413	27536.41
725.755	27591.32
726.097	27522.85
726.439	27313.14
726.782	27410.76
727.124	27481.95
727.465	27317.43
727.807	27257.32
728.149	27305.45
728.491	27214.84
728.833	27161.5
729.175	27108.17
729.516	27133.03
729.858	27000.38
730.199	27044.67
730.541	27050.77
730.882	26969.64
731.224	27012.81
731.565	26864.56
731.906	26826.6
732.248	26989.3
732.589	26772.14
732.93	26754.96
733.271	26665.25
733.612	26637.45
733.953	26751.8
734.294	26608.3
734.635	26501.18
734.976	26601.52
735.317	26421.18
735.658	26422.54
735.999	26414.18
736.339	26358.59
736.68	26464.12
737.021	26415.53
737.361	26250.34
737.702	26412.14
738.042	26298.48
738.383	26105.49
738.723	26258.02
739.063	26143
739.404	26152.26
739.744	26152.94
740.084	26051.48
740.424	26082.66
740.764	26044.92
741.104	26060.74
741.444	25905.72
741.784	25940.97
742.124	25978.71
742.464	25816.91
742.804	25794.08
743.143	25770.58
743.483	25719.73
743.823	25705.27
744.162	25496.24
744.502	25608.78
744.841	25529.91
745.181	25634.99
745.52	25553.18
745.86	25608.55
746.199	25532.85
746.538	25502.11
746.877	25487.88
747.216	25600.87
747.556	25312.06
747.895	25380.53
748.234	25365.62
748.573	25317.94
748.911	25278.61
749.25	25299.63
749.589	25313.87
749.928	25332.85
750.267	25336.24
750.605	25205.4
750.944	25192.97
751.283	24960.88
751.621	25131.5
751.96	24962.69
752.298	24939.41
752.636	25060.99
752.975	24834.11
753.313	24846.76
753.651	24899.64
753.989	24934.44
754.327	24816.48
754.666	24639.08
755.004	24755.69
755.342	24765.18
755.679	24739.87
756.017	24570.61
756.355	24628.24
756.693	24540.33
757.031	24540.33
757.368	24372.2
757.706	24487
758.044	24334.69
758.381	24336.72
758.719	24337.17
759.056	24358.41
759.394	24280.68
759.731	24040.23
760.068	23991.64
760.405	24057.86
760.743	23896.28
761.08	23982.15
761.417	23820.35
761.754	23857.41
762.091	23882.49
762.428	23610.86
762.765	23595.5
763.102	23765.21
763.438	23522.73
763.775	23455.16
764.112	23527.7
764.449	23427.14
764.785	23404.31
765.122	23234.15
765.458	23230.53
765.795	23184.66
766.131	23183.3
766.467	23040.03
766.804	22970.65
767.14	22832.8
767.476	22830.32
767.812	22767.27
768.148	22673.94
768.485	22647.95
768.821	22480.04
769.157	22515.52
769.492	22507.61
769.828	22425.81
770.164	22170.9
770.5	22205.7
770.836	22165.25
771.171	22033.95
771.507	22019.94
771.842	21833.73
772.178	21837.35
772.513	21892.04
772.849	21795.99
773.184	21688.88
773.519	21637.58
773.855	21446.85
774.19	21417.93
774.525	21454.08
774.86	21376.12
775.195	21319.17
775.53	21247.53
775.865	21038.27
776.2	20889.13
776.535	20815
776.87	20876.92
777.205	20730.26
777.539	20703.37
777.874	20586.53
778.209	20469.7
778.543	20540.89
778.878	20335.24
779.212	20355.81
779.547	20162.59
779.881	20293.21
780.215	20088.24
780.55	20181.35
780.884	19936.61
781.218	20002.82
781.552	19974.8
781.886	19807.8
782.22	19718.54
782.554	19633.11
782.888	19522.61
783.222	19446
783.556	19432.44
783.889	19331.88
784.223	19212.11
784.557	19191.54
784.89	19180.02
785.224	19041.94
785.557	18988.61
785.891	18918.56
786.224	18839.69
786.558	18875.85
786.891	18618.23
787.224	18670.2
787.557	18577.1
787.891	18489.19
788.224	18595.63
788.557	18536.87
788.89	18401.28
789.223	18376.42
789.556	18264.34
789.888	18208.29
790.221	18102.98
790.554	17999.48
790.887	18027.96
791.219	17987.28
791.552	17880.84
791.884	17774.86
792.217	17807.85
792.549	17692.37
792.882	17566.95
793.214	17535.99
793.546	17551.81
793.879	17387.3
794.211	17276.57
794.543	17384.81
794.875	17212.16
795.207	17283.34
795.539	17187.3
795.871	17161.09
796.203	17040.19
796.535	17024.14
796.867	16926.52
797.198	16900.76
797.53	16874.99
797.862	16742.57
798.193	16720.87
798.525	16644.49
798.856	16690.37
799.188	16491.28
799.519	16396.81
799.85	16331.28
800.182	16371.05
800.513	16440.43
800.844	16249.93
801.175	16323.82
801.506	16227.78
801.837	16166.09
802.168	16110.49
802.499	16111.62
802.83	15929.48
803.161	15911.86
803.491	15849.48
803.822	15973.77
804.153	15779.43
804.483	15678.42
804.814	15665.53
805.145	15651.07
805.475	15660.56
805.805	15501.92
806.136	15552.32
806.466	15598.19
806.796	15469.83
807.126	15350.74
807.457	15312.1
807.787	15335.37
808.117	15308.48
808.447	15188.03
808.777	15227.35
809.107	15131.99
809.436	15054.93
809.766	15057.19
810.096	15024.87
810.426	14925.89
810.755	15034.14
811.085	14878.66
811.414	14850.64
811.744	14792.11
812.073	14805.44
812.403	14797.31
812.732	14702.17
813.061	14632.34
813.39	14646.58
813.719	14555.06
814.049	14637.76
814.378	14556.41
814.707	14505.34
815.036	14388.51
815.365	14383.53
815.693	14228.51
816.022	14252.24
816.351	14222.18
816.68	14125.91
817.008	14221.28
817.337	14034.39
817.665	14030.1
817.994	14064.67
818.322	14082.07
818.651	13949.2
818.979	13998.91
819.307	13932.7
819.636	13974.73
819.964	13861.74
820.292	13929.99
820.62	13915.3
820.948	13795.08
821.276	13878.46
821.604	13797.33
821.932	13780.39
822.259	13873.27
822.587	13815.41
822.915	13752.59
823.243	13807.73
823.57	13737.9
823.898	13743.33
824.225	13714.17
824.553	13693.83
824.88	13719.82
825.207	13794.17
825.535	13697.45
825.862	13737.9
826.189	13643.21
826.516	13843.44
826.843	13753.95
827.17	13803.66
827.497	13779.03
827.824	13737.22
828.151	13780.61
828.478	13783.55
828.805	13795.75
829.131	13675.3
829.458	13673.95
829.785	13725.7
830.111	13674.4
830.438	13760.05
830.764	13725.92
831.09	13690.67
831.417	13662.88
831.743	13713.72
832.069	13693.16
832.395	13653.38
832.722	13640.73
833.048	13605.93
833.374	13695.42
833.7	13552.6
834.026	13560.96
834.351	13633.05
834.677	13682.99
835.003	13565.7
835.329	13483.44
835.654	13592.82
835.98	13432.15
836.306	13538.13
836.631	13452.03
836.956	13435.99
837.282	13349.21
837.607	13475.54
837.932	13446.16
838.258	13421.53
838.583	13359.61
838.908	13304.01
839.233	13277.12
839.558	13346.5
839.883	13188.09
840.208	13143.57
840.533	13145.83
840.858	13213.62
841.182	13119.39
841.507	13190.57
841.832	13016.79
842.156	13120.29
842.481	13054.98
842.805	13019.95
843.13	13002.78
843.454	12945.15
843.778	12876.68
844.103	12836
844.427	12810.02
844.751	12808.66
845.075	12807.98
845.399	12793.75
845.723	12709.91
846.047	12675.1
846.371	12577.03
846.695	12523.02
847.019	12450.93
847.343	12459.52
847.666	12322.35
847.99	12321.22
848.313	12314.89
848.637	12263.14
848.96	12212.74
849.284	12173.2
849.607	12045.74
849.931	11997.83
850.254	11989.25
850.577	11874.45
850.9	11837.84
851.223	11842.36
851.546	11756.48
851.869	11691.63
852.192	11768.24
852.515	11666.54
852.838	11623.38
853.161	11579.77
853.483	11529.82
853.806	11435.36
854.129	11474.46
854.451	11490.28
854.774	11431.97
855.096	11342.94
855.419	11375.48
855.741	11272.88
856.063	11220.45
856.385	11222.94
856.708	11157.18
857.03	11175.03
857.352	11114.69
857.674	11130.96
857.996	11036.96
858.318	10951.53
858.64	11008.03
858.961	11014.58
859.283	10866.11
859.605	10848.03
859.926	10911.31
860.248	10834.02
860.57	10780.47
860.891	10802.84
861.212	10691.2
861.534	10745.66
861.855	10660.24
862.176	10697.98
862.498	10719.68
862.819	10726.46
863.14	10635.61
863.461	10637.64
863.782	10573.69
864.103	10588.38
864.424	10497.99
864.745	10563.75
865.065	10487.59
865.386	10455.28
865.707	10474.71
866.027	10429.29
866.348	10407.82
866.668	10425.9
866.989	10409.4
867.309	10341.38
867.63	10370.08
867.95	10312.45
868.27	10227.03
868.59	10296.18
868.91	10318.1
869.23	10231.55
869.55	10213.7
869.87	10302.29
870.19	10208.05
870.51	10251.21
870.83	10230.65
871.15	10130.54
871.469	10151.1
871.789	10170.54
872.109	10154.72
872.428	10004.89
872.748	10108.62
873.067	10072.46
873.386	10105
873.706	10063.42
874.025	9967.15
874.344	9998.79
874.663	9984.1
874.982	9971.45
875.301	9972.12
875.62	9911.79
875.939	9905.91
876.258	9875.4
876.577	9911.34
876.896	9950.88
877.214	9884.9
877.533	9838.79
877.852	9798.8
878.17	9880.6
878.489	9843.99
878.807	9723.09
879.125	9752.24
879.444	9708.4
879.762	9706.82
880.08	9712.24
880.398	9629.31
880.716	9663.43
881.034	9679.7
881.352	9630.89
881.67	9617.11
881.988	9606.71
882.306	9578.91
882.624	9639.03
882.941	9477.22
883.259	9487.17
883.577	9417.56
883.894	9415.08
884.212	9438.35
884.529	9415.53
884.846	9374.85
885.164	9378.92
885.481	9348.19
885.798	9320.16
886.115	9278.36
886.432	9277.45
886.75	9258.92
887.067	9261.86
887.383	9202.88
887.7	9207.4
888.017	9165.82
888.334	9146.16
888.651	9161.07
888.967	9115.42
889.284	9034.3
889.6	9087.4
889.917	9008.31
890.233	9006.27
890.55	8918.59
890.866	8993.85
891.182	8920.85
891.498	8816.67
891.815	8892.38
892.131	8801.76
892.447	8797.92
892.763	8791.59
893.079	8719.05
893.395	8691.48
893.71	8685.15
894.026	8648.54
894.342	8601.31
894.657	8575.1
894.973	8601.54
895.289	8544.59
895.604	8564.03
895.92	8522.45
896.235	8447.87
896.55	8388.44
896.865	8456.23
897.181	8383.47
897.496	8394.54
897.811	8317.93
898.126	8321.55
898.441	8296.46
898.756	8310.47
899.071	8172.62
899.386	8229.57
899.7	8171.95
900.015	8162.45
900.33	8047.43
900.644	8054.66
900.959	8117.71
901.273	8050.14
901.588	7971.5
901.902	7901.22
902.216	7924.04
902.531	7883.82
902.845	7931.5
903.159	7837.49
903.473	7798.4
903.787	7820.54
904.101	7751.39
904.415	7813.76
904.729	7699.64
905.042	7678.4
905.356	7673.43
905.67	7595.46
905.984	7625.75
906.297	7620.1
906.611	7545.75
906.924	7540.78
907.237	7498.97
907.551	7452.64
907.864	7447.45
908.177	7401.34
908.491	7418.52
908.804	7395.47
909.117	7333.1
909.43	7258.07
909.743	7269.82
910.056	7203.61
910.368	7204.74
910.681	7143.5
910.994	7121.35
911.307	7088.58
911.619	7052.2
911.932	7092.88
912.244	7025.99
912.557	6941.47
912.869	6906.67
913.181	6964.29
913.494	6820.12
913.806	6869.38
914.118	6859.89
914.43	6807.91
914.742	6711.87
915.054	6749.61
915.366	6693.34
915.678	6727.92
915.99	6698.09
916.302	6653.79
916.613	6613.12
916.925	6570.86
917.236	6579.67
917.548	6571.76
917.859	6553.46
918.171	6451.31
918.482	6477.53
918.794	6394.82
919.105	6404.08
919.416	6336.06
919.727	6307.59
920.038	6324.99
920.349	6298.78
920.66	6233.24
920.971	6211.77
921.282	6211.32
921.593	6212
921.903	6125.9
922.214	6099.46
922.525	6083.64
922.835	6069.4
923.146	6003.19
923.456	6029.18
923.767	6010.87
924.077	5980.82
924.387	5992.79
924.697	5924.55
925.008	5893.14
925.318	5874.38
925.628	5875.06
925.938	5830.09
926.248	5828.5
926.558	5748.51
926.867	5788.73
927.177	5726.59
927.487	5690.88
927.796	5638.91
928.106	5650.2
928.416	5612.01
928.725	5583.99
929.034	5591.9
929.344	5576.76
929.653	5557.33
929.962	5508.97
930.271	5468.97
930.581	5504.67
930.89	5462.19
931.199	5408.4
931.508	5361.17
931.817	5410.44
932.125	5382.87
932.434	5347.39
932.743	5322.98
933.051	5293.6
933.36	5292.93
933.669	5173.38
933.977	5203.66
934.286	5175.64
934.594	5208.18
934.902	5135.19
935.21	5133.16
935.519	5097.9
935.827	5085.02
936.135	5047.96
936.443	5014.97
936.751	5017
937.059	5000.28
937.367	4960.05
937.674	5008.41
937.982	4924.57
938.29	4920.73
938.597	4875.99
938.905	4844.8
939.213	4892.71
939.52	4852.03
939.827	4848.42
940.135	4785.14
940.442	4750.12
940.749	4736.1
941.056	4731.36
941.363	4702.66
941.67	4738.59
941.977	4663.34
942.284	4580.63
942.591	4654.3
942.898	4635.09
943.205	4621.08
943.511	4565.04
943.818	4599.38
944.125	4510.35
944.431	4452.27
944.738	4498.14
945.044	4437.36
945.35	4483.46
945.657	4413.63
945.963	4432.38
946.269	4400.75
946.575	4411.14
946.881	4354.65
947.187	4367.98
947.493	4300.64
947.799	4292.27
948.105	4294.08
948.41	4245.04
948.716	4258.6
949.022	4230.35
949.327	4246.85
949.633	4171.83
949.938	4174.99
950.244	4156.91
950.549	4138.61
950.854	4102.45
951.16	4123.47
951.465	4078.04
951.77	4066.07
952.075	4023.35
952.38	4030.13
952.685	4081.21
952.99	3970.47
953.294	3955.33
953.599	3956.92
953.904	3916.92
954.209	3889.8
954.513	3861.1
954.818	3865.39
955.122	3826.3
955.426	3884.38
955.731	3820.87
956.035	3781.1
956.339	3793.3
956.643	3784.94
956.948	3745.4
957.252	3751.5
957.556	3724.83
957.86	3715.11
958.163	3715.11
958.467	3682.8
958.771	3668.79
959.075	3674.89
959.378	3612.74
959.682	3635.57
959.985	3596.02
960.289	3610.71
960.592	3528.23
960.896	3568.23
961.199	3582.69
961.502	3499.07
961.805	3570.71
962.108	3484.84
962.411	3450.49
962.714	3439.42
963.017	3458.17
963.32	3444.61
963.623	3443.93
963.926	3441
964.228	3394.67
964.531	3350.38
964.833	3360.55
965.136	3384.73
965.438	3336.14
965.741	3337.27
966.043	3311.96
966.345	3304.96
966.648	3274.67
966.95	3263.83
967.252	3274.67
967.554	3243.49
967.856	3226.09
968.158	3205.52
968.46	3195.13
968.761	3165.3
969.063	3134.11
969.365	3164.85
969.666	3116.71
969.968	3119.88
970.269	3080.1
970.571	3109.93
970.872	3095.7
971.174	3071.52
971.475	3053.44
971.776	3089.14
972.077	3036.04
972.378	3000.78
972.679	3014.12
972.98	2971.18
973.281	2975.92
973.582	2991.29
973.883	2974.34
974.183	2941.8
974.484	2949.26
974.785	2894.34
975.085	2901.12
975.386	2904.97
975.686	2896.15
975.986	2843.72
976.287	2818.64
976.587	2854.35
976.887	2826.78
977.187	2837.85
977.487	2807.79
977.787	2780
978.087	2783.16
978.387	2826.32
978.687	2751.3
978.987	2773.9
979.286	2723.5
979.586	2697.97
979.885	2697.74
980.185	2703.84
980.484	2690.96
980.784	2644.18
981.083	2648.48
981.382	2626.78
981.682	2637.63
981.981	2614.13
982.28	2592.88
982.579	2601.02
982.878	2582.04
983.177	2555.6
983.475	2570.96
983.774	2527.57
984.073	2532.32
984.372	2509.95
984.67	2516.05
984.969	2509.72
985.267	2515.37
985.566	2536.16
985.864	2491.42
986.162	2455.94
986.461	2423.17
986.759	2449.38
987.057	2407.8
987.355	2421.81
987.653	2419.1
987.951	2390.4
988.249	2394.24
988.547	2363.29
988.844	2388.14
989.142	2362.83
989.44	2341.59
989.737	2348.14
990.035	2323.29
990.332	2302.5
990.63	2283.06
990.927	2310.86
991.224	2260.46
991.521	2269.73
991.819	2253.91
992.116	2247.36
992.413	2253.23
992.71	2238.32
993.006	2226.79
993.303	2200.13
993.6	2202.16
993.897	2165.78
994.193	2166.68
994.49	2186.79
994.787	2161.71
995.083	2151.54
995.379	2144.08
995.676	2130.3
995.972	2120.58
996.268	2110.41
996.565	2104.08
996.861	2060.69
997.157	2088.94
997.453	2066.12
997.749	2040.58
998.044	2079.22
998.34	2027.93
998.636	2027.47
998.932	2028.15
999.227	1956.74
999.523	1977.08
999.818	2000.58
1000.114	1968.27
1000.409	1968.72
1000.704	1931.21
1001	1955.16
1001.295	1934.82
1001.59	1913.35
1001.885	1917.87
1002.18	1903.86
1002.475	1848.72
1002.77	1875.39
1003.065	1860.7
1003.359	1872.22
1003.654	1864.99
1003.949	1833.13
1004.243	1837.42
1004.538	1799.46
1004.832	1811.21
1005.127	1793.81
1005.421	1806.92
1005.715	1786.35
1006.009	1774.15
1006.304	1760.82
1006.598	1727.6
1006.892	1733.47
1007.186	1698.67
1007.48	1719.23
1007.773	1724.21
1008.067	1689.63
1008.361	1692.79
1008.655	1684.66
1008.948	1671.33
1009.242	1689.86
1009.535	1633.14
1009.829	1620.25
1010.122	1637.43
1010.415	1644.21
1010.708	1628.84
1011.001	1610.31
1011.295	1583.87
1011.588	1603.76
1011.881	1609.63
1012.173	1565.11
1012.466	1587.03
1012.759	1563.31
1013.052	1550.2
1013.344	1554.72
1013.637	1551.33
1013.93	1524.21
1014.222	1496.19
1014.514	1517.66
1014.807	1505.23
1015.099	1488.96
1015.391	1489.86
1015.683	1477.66
1015.976	1468.85
1016.268	1440.82
1016.56	1434.95
1016.851	1397.21
1017.143	1426.36
1017.435	1434.95
1017.727	1397.66
1018.018	1384.55
1018.31	1392.69
1018.602	1377.32
1018.893	1362.18
1019.185	1348.85
1019.476	1359.02
1019.767	1338
1020.058	1336.19
1020.35	1337.55
1020.641	1316.76
1020.932	1304.56
1021.223	1320.6
1021.514	1310.66
1021.804	1267.49
1022.095	1278.12
1022.386	1280.6
1022.677	1282.41
1022.967	1229.98
1023.258	1243.09
1023.548	1227.04
1023.839	1208.97
1024.129	1233.82
1024.419	1237.67
1024.709	1204.22
1025	1166.93
1025.29	1205.58
1025.58	1212.13
1025.87	1158.57
1026.16	1171.23
1026.449	1188.63
1026.739	1169.87
1027.029	1161.96
1027.319	1153.37
1027.608	1151.34
1027.898	1110.66
1028.187	1106.82
1028.477	1109.53
1028.766	1104.79
1029.055	1118.12
1029.344	1094.84
1029.634	1087.84
1029.923	1095.3
1030.212	1097.1
1030.501	1058.23
1030.79	1038.35
1031.078	1068.18
1031.367	1026.37
1031.656	1053.04
1031.945	1040.16
1032.233	1005.35
1032.522	1005.58
1032.81	1007.39
1033.099	1007.39
1033.387	997.67
1033.675	1013.72
1033.963	974.85
1034.251	976.43
1034.54	973.04
1034.828	982.3
1035.116	969.88
1035.403	963.1
1035.691	956.09
1035.979	952.02
1036.267	939.37
1036.554	922.42
1036.842	937.11
1037.129	935.07
1037.417	918.35
1037.704	905.47
1037.992	911.8
1038.279	898.92
1038.566	903.21
1038.853	903.21
1039.14	903.21
