Data from hue_90_FLMS001491_91.txt Node
Date: Mon Feb 06 15:25:56 GMT 2017
User: dcchb
Spectrometer: FLMS00149
Trigger mode: 0
Integration Time (sec): 2.000000E-2
Scans to average: 10
Electric dark correction enabled: true
Nonlinearity correction enabled: false
Boxcar width: 0
XAxis mode: Wavelengths
Number of Pixels in Spectrum: 2048
>>>>>Begin Spectral Data<<<<<
341.393	-25.8
341.776	-25.8
342.16	-25.8
342.543	-54.73
342.927	-71.9
343.31	-64.22
343.693	-77.33
344.077	-57.44
344.46	-57.22
344.843	-57.89
345.226	-63.77
345.61	-25.58
345.993	-14.51
346.376	-15.86
346.759	12.16
347.142	23.01
347.525	48.09
347.908	53.06
348.291	81.54
348.674	104.59
349.057	111.37
349.44	112.05
349.823	157.02
350.206	177.35
350.588	170.35
350.971	200.4
351.354	213.51
351.737	238.6
352.119	240.63
352.502	274.53
352.884	266.17
353.267	279.95
353.65	287.18
354.032	293.96
354.414	287.63
354.797	354.07
355.179	312.72
355.562	323.34
355.944	325.37
356.326	328.54
356.709	342.55
357.091	323.34
357.473	345.49
357.855	340.29
358.238	317.92
358.62	354.98
359.002	344.58
359.384	316.56
359.766	321.53
360.148	333.28
360.53	326.05
360.912	319.27
361.294	331.93
361.676	315.2
362.057	317.01
362.439	324.47
362.821	328.31
363.203	312.49
363.584	333.51
363.966	305.26
364.348	311.81
364.729	327.41
365.111	306.84
365.493	315.43
365.874	330.8
366.256	305.71
366.637	302.55
367.019	307.97
367.4	305.49
367.781	293.96
368.163	280.4
368.544	331.47
368.925	306.62
369.306	306.62
369.688	311.59
370.069	321.53
370.45	303
370.831	317.24
371.212	323.79
371.593	313.85
371.974	302.55
372.355	313.85
372.736	308.2
373.117	312.72
373.498	311.81
373.879	317.92
374.26	287.41
374.641	324.92
375.021	333.96
375.402	331.25
375.783	300.97
376.163	331.02
376.544	330.12
376.925	307.29
377.305	329.21
377.686	300.29
378.066	319.27
378.447	321.08
378.827	333.28
379.208	337.58
379.588	336.45
379.968	319.27
380.349	356.11
380.729	327.86
381.109	315.88
381.489	328.99
381.87	341.19
382.25	323.56
382.63	346.84
383.01	332.38
383.39	346.16
383.77	330.12
384.15	335.99
384.53	356.56
384.91	340.74
385.29	357.24
385.67	331.93
386.049	376.22
386.429	344.81
386.809	368.54
387.189	367.18
387.568	345.71
387.948	353.62
388.328	321.53
388.707	352.26
389.087	347.75
389.466	368.31
389.846	343.68
390.225	356.11
390.605	372.6
390.984	371.47
391.363	370.12
391.743	351.36
392.122	350.91
392.501	351.36
392.881	389.78
393.26	385.48
393.639	372.6
394.018	366.05
394.397	393.62
394.776	385.03
395.155	355.43
395.534	371.25
395.913	383.9
396.292	381.19
396.671	384.35
397.05	393.62
397.429	376.67
397.808	386.84
398.186	391.13
398.565	412.15
398.944	391.36
399.323	406.27
399.701	369.89
400.08	397.91
400.458	380.06
400.837	401.3
401.215	404.69
401.594	405.82
401.972	375.31
402.351	408.99
402.729	376.67
403.107	400.4
403.486	397.24
403.864	420.74
404.242	417.57
404.62	437.23
404.999	426.39
405.377	449.21
405.755	406.95
406.133	402.66
406.511	424.81
406.889	423.9
407.267	426.84
407.645	439.72
408.023	444.24
408.401	418.48
408.779	449.89
409.156	452.83
409.534	434.97
409.912	432.26
410.29	442.43
410.667	441.53
411.045	457.8
411.422	456.44
411.8	461.19
412.178	451.47
412.555	485.59
412.933	482.2
413.31	466.84
413.687	481.07
414.065	483.33
414.442	470.45
414.819	500.51
415.197	490.79
415.574	489.89
415.951	487.4
416.328	474.75
416.705	493.96
417.082	503.9
417.46	506.84
417.837	516.1
418.214	534.41
418.591	522.2
418.967	516.1
419.344	510.23
419.721	518.14
420.098	498.02
420.475	533.95
420.852	523.33
421.228	516.1
421.605	535.31
421.982	547.97
422.358	510.23
422.735	554.29
423.111	528.08
423.488	542.77
423.864	581.41
424.241	555.65
424.617	543.22
424.994	563.78
425.37	556.78
425.746	577.8
426.123	588.19
426.499	572.15
426.875	567.4
427.251	590.9
427.627	597.91
428.003	595.87
428.379	572.82
428.756	597
429.132	606.04
429.507	594.52
429.883	603.56
430.259	620.96
430.635	632.48
431.011	634.74
431.387	652.82
431.763	651.01
432.138	648.75
432.514	657.79
432.89	659.6
433.265	645.59
433.641	676.1
434.016	672.48
434.392	692.59
434.767	665.48
435.143	703.89
435.518	703.44
435.894	716.1
436.269	710.67
436.644	705.7
437.02	725.14
437.395	723.55
437.77	711.13
438.145	752.48
438.52	741.86
438.895	752.25
439.271	729.2
439.646	740.28
440.021	763.55
440.395	761.75
440.77	769.43
441.145	768.98
441.52	806.49
441.895	786.38
442.27	790.9
442.645	811.91
443.019	815.76
443.394	834.29
443.769	803.78
444.143	801.07
444.518	820.95
444.892	820.05
445.267	862.99
445.641	832.48
446.016	843.1
446.39	840.61
446.764	848.3
447.139	848.97
447.513	866.38
447.887	854.17
448.262	866.6
448.636	862.08
449.01	855.98
449.384	888.3
449.758	882.42
450.132	890.78
450.506	890.33
450.88	895.08
451.254	913.61
451.628	918.58
452.002	909.99
452.376	933.72
452.75	956.32
453.123	945.24
453.497	963.32
453.871	971.23
454.244	989.54
454.618	1007.39
454.992	984.56
455.365	996.32
455.739	1038.8
456.112	1044.22
456.486	1032.47
456.859	1039.03
457.232	1051
457.606	1067.73
457.979	1074.05
458.352	1087.16
458.725	1128.97
459.099	1113.83
459.472	1126.26
459.845	1131.23
460.218	1167.16
460.591	1160.61
460.964	1195.41
461.337	1180.72
461.71	1218.46
462.083	1198.34
462.456	1248.51
462.829	1257.33
463.201	1282.18
463.574	1270.21
463.947	1307.95
464.32	1328.51
464.692	1343.43
465.065	1347.72
465.438	1352.92
465.81	1395.4
466.183	1395.18
466.555	1433.37
466.928	1460.71
467.3	1412.58
467.672	1460.26
468.045	1491.22
468.417	1523.76
468.789	1561.27
469.161	1532.35
469.534	1597.43
469.906	1607.82
470.278	1680.82
470.65	1662.96
471.022	1695.51
471.394	1727.37
471.766	1752.45
472.138	1814.37
472.51	1805.11
472.882	1849.63
473.253	1897.99
473.625	1937.76
473.997	1976.63
474.369	1994.26
474.74	2035.84
475.112	2101.6
475.484	2146.34
475.855	2191.54
476.227	2248.49
476.598	2334.59
476.97	2356.51
477.341	2380.69
477.713	2468.37
478.084	2502.26
478.455	2557.63
478.827	2619.78
479.198	2743.61
479.569	2754.91
479.94	2871.52
480.311	2914.46
480.682	3000.78
481.053	3117.39
481.424	3210.04
481.795	3262.7
482.166	3310.83
482.537	3426.08
482.908	3527.32
483.279	3570.94
483.65	3707.43
484.021	3781.1
484.391	3876.69
484.762	3951.49
485.133	4075.1
485.503	4154.88
485.874	4290.69
486.244	4389.45
486.615	4536.79
486.985	4620.18
487.356	4772.04
487.726	4871.24
488.097	4973.61
488.467	5056.32
488.837	5174.28
489.207	5289.08
489.578	5454.5
489.948	5533.37
490.318	5663.76
490.688	5741.5
491.058	5902.18
491.428	6090.64
491.798	6172.45
492.168	6357.76
492.538	6406.12
492.908	6560.01
493.278	6698.99
493.648	6783.51
494.017	6887.01
494.387	7044.29
494.757	7145.31
495.126	7265.98
495.496	7349.82
495.866	7486.09
496.235	7602.24
496.605	7725.63
496.974	7874.1
497.344	7929.92
497.713	8078.62
498.082	8144.83
498.452	8293.75
498.821	8359.29
499.19	8427.53
499.559	8571.03
499.928	8659.16
500.298	8705.04
500.667	8859.16
501.036	8919.5
501.405	9003.79
501.774	9037.23
502.143	9209.66
502.512	9315.19
502.88	9395.42
503.249	9437.9
503.618	9555.64
503.987	9617.56
504.356	9680.38
504.724	9701.4
505.093	9837.89
505.462	9939.36
505.83	9999.02
506.199	10102.97
506.567	10198.79
506.936	10138.22
507.304	10319.69
507.672	10429.06
508.041	10413.7
508.409	10475.84
508.777	10527.14
509.145	10646.68
509.514	10673.35
509.882	10720.81
510.25	10781.82
510.618	10833.35
510.986	10821.37
511.354	11011.42
511.722	11037.63
512.09	11170.29
512.458	11135.48
512.826	11228.14
513.193	11259.77
513.561	11249.61
513.929	11333.44
514.297	11517.85
514.664	11552.42
515.032	11483.27
515.4	11568.02
515.767	11616.38
516.135	11670.16
516.502	11601.46
516.869	11824.96
517.237	11739.31
517.604	11699.76
517.972	11829.7
518.339	11838.97
518.706	11882.81
519.073	11797.61
519.44	11967.78
519.808	12174.33
520.175	11965.07
520.542	12162.35
520.909	12211.16
521.276	12135.01
521.643	12253.19
522.009	12267.43
522.376	12290.03
522.743	12345.62
523.11	12466.07
523.477	12512.4
523.843	12524.83
524.21	12599.85
524.577	12611.38
524.943	12574.99
525.31	12671.49
525.676	12751.71
526.043	12753.97
526.409	12662.22
526.776	12800.3
527.142	12818.38
527.508	12874.87
527.874	12840.07
528.241	12882.33
528.607	12924.36
528.973	13007.98
529.339	12872.61
529.705	12940.86
530.071	13087.52
530.437	13036.23
530.803	13007.53
531.169	13077.58
531.535	12972.5
531.901	12990.8
532.267	13031.71
532.632	13013.63
532.998	13059.73
533.364	13021.54
533.73	12992.61
534.095	13075.55
534.461	13111.93
534.826	13067.18
535.192	13143.11
535.557	13122.32
535.923	13018.15
536.288	13054.08
536.653	13031.93
537.019	12902.67
537.384	12988.09
537.749	13004.36
538.114	12938.15
538.479	12922.78
538.845	12932.95
539.21	12895.66
539.575	12872.16
539.94	12840.07
540.305	12894.99
540.67	12837.36
541.034	12760.3
541.399	12754.42
541.764	12706.52
542.129	12878.94
542.494	12779.06
542.858	12691.83
543.223	12721.43
543.587	12685.05
543.952	12672.17
544.316	12594.2
544.681	12591.94
545.045	12600.3
545.41	12620.87
545.774	12600.08
546.138	12478.27
546.503	12579.97
546.867	12495.22
547.231	12501.1
547.595	12469.91
547.959	12513.53
548.324	12392.4
548.688	12371.38
549.052	12371.16
549.416	12376.81
549.779	12285.74
550.143	12237.83
550.507	12307.43
550.871	12366.19
551.235	12237.83
551.599	12328.9
551.962	12219.3
552.326	12224.27
552.689	12238.05
553.053	12171.61
553.417	12156.25
553.78	12290.03
554.143	12037.83
554.507	12227.88
554.87	12103.82
555.234	12221.11
555.597	12086.87
555.96	12130.26
556.323	12134.78
556.686	12041
557.05	12077.15
557.413	12080.09
557.776	12033.99
558.139	12091.62
558.502	12014.11
558.865	12125.51
559.228	12135.91
559.59	12037.61
559.953	12116.93
560.316	12179.75
560.679	12104.27
561.041	12109.47
561.404	12138.4
561.767	12255.23
562.129	12076.7
562.492	12132.07
562.854	12092.97
563.217	12095.91
563.579	12180.65
563.941	12255
564.304	12181.56
564.666	12247.77
565.028	12273.99
565.39	12337.03
565.753	12304.27
566.115	12323.48
566.477	12270.6
566.839	12316.02
567.201	12353.31
567.563	12328.9
567.925	12413.42
568.287	12297.26
568.648	12404.15
569.01	12431.27
569.372	12532.51
569.734	12383.13
570.095	12516.24
570.457	12479.4
570.819	12487.54
571.18	12539.29
571.542	12526.63
571.903	12555.56
572.265	12624.71
572.626	12532.96
572.987	12589.23
573.349	12624.03
573.71	12600.53
574.071	12658.61
574.432	12631.26
574.794	12664.26
575.155	12629.91
575.516	12657.93
575.877	12732.73
576.238	12666.52
576.599	12773.86
576.96	12616.12
577.32	12731.83
577.681	12718.72
578.042	12749.68
578.403	12695.67
578.763	12750.13
579.124	12725.72
579.485	12750.36
579.845	12758.04
580.206	12675.1
580.566	12736.12
580.927	12704.26
581.287	12744.03
581.648	12702.9
582.008	12814.08
582.368	12770.47
582.728	12840.98
583.089	12763.01
583.449	12796.23
583.809	12668.1
584.169	12672.39
584.529	12673.52
584.889	12869.45
585.249	12698.83
585.609	12719.4
585.969	12791.94
586.329	12729.79
586.688	12755.78
587.048	12750.58
587.408	12697.7
587.768	12697.93
588.127	12634.88
588.487	12705.61
588.846	12655.22
589.206	12591.26
589.565	12598.5
589.925	12665.61
590.284	12593.07
590.643	12626.52
591.003	12588.33
591.362	12651.6
591.721	12645.5
592.08	12564.6
592.44	12631.04
592.799	12619.29
593.158	12520.31
593.517	12608.44
593.876	12631.49
594.235	12563.24
594.593	12589.01
594.952	12631.49
595.311	12590.59
595.67	12569.8
596.029	12622.68
596.387	12587.65
596.746	12545.16
597.104	12495.9
597.463	12558.95
597.822	12535.45
598.18	12496.13
598.538	12498.84
598.897	12527.76
599.255	12449.35
599.613	12639.4
599.972	12509.46
600.33	12525.73
600.688	12535
601.046	12541.77
601.404	12604.15
601.762	12540.87
602.12	12542.23
602.478	12577.03
602.836	12585.16
603.194	12489.12
603.552	12567.31
603.91	12457.48
604.268	12524.37
604.625	12588.1
604.983	12479.18
605.341	12533.87
605.698	12589.46
606.056	12535.22
606.413	12536.35
606.771	12565.73
607.128	12549.23
607.485	12473.53
607.843	12589.01
608.2	12611.38
608.557	12623.13
608.914	12566.86
609.272	12627.87
609.629	12677.36
609.986	12682.34
610.343	12620.87
610.7	12733.41
611.057	12678.04
611.414	12634.65
611.771	12691.6
612.127	12775.89
612.484	12720.75
612.841	12761.43
613.198	12701.77
613.554	12758.72
613.911	12750.13
614.267	12730.47
614.624	12763.46
614.98	12750.58
615.337	12775.89
615.693	12871.94
616.05	12812.28
616.406	12862.22
616.762	12765.95
617.118	12872.84
617.475	12840.98
617.831	12836.23
618.187	12810.02
618.543	12859.96
618.899	12909.45
619.255	12916.23
619.611	12898.6
619.967	12942.44
620.323	12956
620.678	12878.72
621.034	12849.11
621.39	12910.58
621.746	12846.85
622.101	13065.83
622.457	12925.27
622.812	12932.27
623.168	12988.54
623.523	13005.49
623.879	12985.38
624.234	12911.93
624.589	12991.25
624.945	13024.93
625.3	13063.79
625.655	12972.27
626.01	12952.16
626.365	12945.38
626.72	12926.4
627.075	12901.99
627.43	12909.45
627.785	12922.78
628.14	12894.76
628.495	12840.07
628.85	12927.53
629.205	12894.08
629.559	12842.11
629.914	12791.49
630.269	12816.34
630.623	12841.43
630.978	12772.73
631.332	12828.09
631.687	12824.93
632.041	12761.66
632.396	12834.87
632.75	12779.73
633.104	12761.43
633.459	12716.23
633.813	12735.22
634.167	12617.7
634.521	12698.83
634.875	12692.73
635.229	12689.34
635.583	12585.62
635.937	12584.26
636.291	12571.83
636.645	12718.27
636.999	12599.85
637.352	12648.21
637.706	12559.85
638.06	12563.92
638.413	12555.56
638.767	12565.95
639.121	12536.8
639.474	12481.44
639.828	12500.87
640.181	12489.35
640.534	12469.01
640.888	12474.66
641.241	12470.14
641.594	12455.22
641.947	12468.1
642.301	12400.54
642.654	12442.79
643.007	12398.73
643.36	12396.02
643.713	12436.01
644.066	12439.18
644.419	12399.63
644.771	12274.89
645.124	12146.3
645.477	12118.51
645.83	12039.42
646.182	11981.34
646.535	12000.55
646.888	12000.77
647.24	11959.64
647.593	12018.85
647.945	12018.4
648.298	11938.63
648.65	11862.47
649.002	11868.12
649.355	11947.21
649.707	11911.96
650.059	12017.95
650.411	12088.68
650.763	12129.36
651.115	12312.18
651.467	12251.16
651.819	12287.09
652.171	12195.12
652.523	12159.64
652.875	12253.42
653.227	12063.14
653.578	12231.27
653.93	12186.53
654.282	12179.75
654.633	12114.89
654.985	12182.01
655.337	12118.51
655.688	12249.35
656.039	12194.44
656.391	12113.31
656.742	12101.79
657.094	12160.32
657.445	12159.19
657.796	12177.72
658.147	12182.46
658.498	12191.5
658.849	12116.93
659.2	12102.69
659.551	12089.36
659.902	12215.46
660.253	12160.09
660.604	12141.56
660.955	12102.46
661.306	12146.53
661.656	12154.89
662.007	12187.43
662.358	12149.24
662.708	12132.29
663.059	12151.95
663.409	12108.11
663.76	12183.59
664.11	12236.92
664.461	12246.87
664.811	12218.85
665.161	12180.88
665.511	12179.3
665.862	12245.29
666.212	12222.91
666.562	12285.28
666.912	12219.75
667.262	12157.6
667.612	12267.43
667.962	12249.81
668.312	12198.96
668.662	12306.3
669.011	12253.42
669.361	12150.6
669.711	12192.41
670.06	12210.94
670.41	12157.15
670.76	12137.94
671.109	12249.81
671.459	12199.86
671.808	12163.93
672.157	12112.41
672.507	12144.95
672.856	12120.99
673.205	12136.14
673.554	12172.29
673.904	12030.6
674.253	12140.2
674.602	12111.28
674.951	11884.39
675.3	11935.01
675.649	12048.91
675.998	12015.01
676.346	12016.59
676.695	12031.96
677.044	11930.27
677.393	11998.06
677.741	11959.19
678.09	12033.54
678.438	11917.38
678.787	11943.82
679.135	11981.56
679.484	11866.31
679.832	11928.91
680.181	11835.13
680.529	11863.83
680.877	11850.95
681.225	11844.17
681.573	11860.21
681.922	11794.68
682.27	11664.51
682.618	11717.16
682.966	11735.92
683.314	11729.14
683.661	11703.38
684.009	11695.02
684.357	11663.38
684.705	11556.72
685.053	11593.55
685.4	11565.98
685.748	11498.86
686.095	11528.24
686.443	11491.86
686.79	11461.58
687.138	11495.93
687.485	11410.51
687.832	11362.14
688.18	11388.13
688.527	11343.39
688.874	11276.72
689.221	11292.99
689.568	11266.55
689.915	11247.12
690.262	11182.49
690.609	11213.45
690.956	11124.41
691.303	11093.45
691.65	11062.27
691.997	11041.02
692.344	10909.5
692.69	10998.09
693.037	10982.27
693.383	10778.66
693.73	10851.65
694.077	10838.77
694.423	10755.38
694.769	10770.3
695.116	10750.64
695.462	10777.3
695.808	10740.92
696.155	10697.98
696.501	10572.56
696.847	10617.98
697.193	10483.98
697.539	10522.62
697.885	10470.19
698.231	10403.3
698.577	10384.32
698.923	10422.96
699.269	10293.02
699.614	10269.07
699.96	10239.91
700.306	10198.79
700.651	10179.35
700.997	10157.43
701.342	10041.5
701.688	10095.06
702.033	10071.56
702.379	10036.08
702.724	9986.36
703.069	9952.24
703.415	9923.99
703.76	9846.03
704.105	9850.77
704.45	9872.01
704.795	9770.55
705.14	9694.62
705.485	9743.2
705.83	9664.34
706.175	9744.56
706.52	9617.33
706.865	9626.15
707.209	9622.08
707.554	9549.76
707.899	9549.54
708.243	9528.75
708.588	9525.58
708.932	9371.69
709.277	9409.43
709.621	9369.43
709.966	9357.23
710.31	9402.65
710.654	9293.05
710.998	9335.98
711.342	9297.79
711.687	9314.51
712.031	9176.44
712.375	9160.17
712.719	9201.52
713.063	9194.52
713.407	9239.71
713.75	9098.02
714.094	9121.98
714.438	9074.97
714.782	9108.64
715.125	9064.13
715.469	9070.91
715.812	9067.74
716.156	8998.59
716.499	8987.29
716.843	9011.02
717.186	8909.55
717.53	8998.37
717.873	8989.33
718.216	8920.63
718.559	8865.04
718.902	8854.64
719.246	8887.86
719.589	8884.47
719.932	8854.41
720.275	8871.36
720.617	8813.51
720.96	8893.51
721.303	8789.56
721.646	8772.61
721.989	8736.45
722.331	8818.26
722.674	8787.3
723.016	8725.83
723.359	8736.45
723.701	8762.44
724.044	8720.86
724.386	8643.35
724.729	8779.61
725.071	8596.34
725.413	8733.97
725.755	8663.68
726.097	8627.3
726.439	8598.83
726.782	8661.88
727.124	8661.65
727.465	8609.9
727.807	8637.47
728.149	8513.86
728.491	8587.75
728.833	8603.35
729.175	8559.28
729.516	8537.59
729.858	8522.22
730.199	8530.35
730.541	8518.6
730.882	8542.78
731.224	8531.48
731.565	8556.34
731.906	8571.71
732.248	8553.18
732.589	8543.91
732.93	8458.94
733.271	8540.75
733.612	8517.7
733.953	8539.62
734.294	8483.12
734.635	8444.26
734.976	8535.33
735.317	8462.79
735.658	8486.29
735.999	8490.81
736.339	8434.54
736.68	8571.03
737.021	8490.36
737.361	8459.4
737.702	8516.57
738.042	8540.52
738.383	8527.19
738.723	8569.68
739.063	8546.63
739.404	8562.67
739.744	8507.53
740.084	8535.33
740.424	8574.2
740.764	8651.93
741.104	8583.91
741.444	8526.74
741.784	8568.32
742.124	8613.97
742.464	8580.52
742.804	8603.35
743.143	8592.05
743.483	8688.09
743.823	8663.23
744.162	8713.4
744.502	8697.36
744.841	8668.43
745.181	8761.76
745.52	8714.53
745.86	8851.48
746.199	8784.81
746.538	8877.01
746.877	8895.54
747.216	8949.78
747.556	8968.99
747.895	9053.28
748.234	8971.02
748.573	9075.88
748.911	9085.59
749.25	9173.28
749.589	9247.62
749.928	9339.15
750.267	9289.66
750.605	9361.52
750.944	9436.77
751.283	9465.92
751.621	9573.04
751.96	9618.24
752.298	9709.98
752.636	9774.39
752.975	9868.4
753.313	9846.25
753.651	10074.49
753.989	10093.25
754.327	10153.36
754.666	10312.23
755.004	10309.74
755.342	10483.07
755.679	10557.19
756.017	10650.53
756.355	10797.41
756.693	10892.78
757.031	11013.68
757.368	11151.98
757.706	11254.8
758.044	11372.54
758.381	11491.86
758.719	11563.27
759.056	11729.59
759.394	11860.89
759.731	11936.59
760.068	12090.49
760.405	12270.82
760.743	12334.1
761.08	12555.33
761.417	12631.49
761.754	12796.46
762.091	12897.02
762.428	12988.32
762.765	13157.13
763.102	13310.57
763.438	13391.47
763.775	13482.09
764.112	13766.83
764.449	13818.35
764.785	13922.3
765.122	14035.52
765.458	14025.13
765.795	14333.82
766.131	14438.9
766.467	14500.59
766.804	14623.3
767.14	14675.96
767.476	14842.51
767.812	14901.94
768.148	15052.22
768.485	15094.7
768.821	15201.59
769.157	15306.9
769.492	15427.57
769.828	15634.8
770.164	15467.35
770.5	15625.54
770.836	15720
771.171	15832.99
771.507	15849.48
771.842	15887
772.178	16046.77
772.513	16129.7
772.849	16126.99
773.184	16175.35
773.519	16292.86
773.855	16256.93
774.19	16270.26
774.525	16347.55
774.86	16481.33
775.195	16553.19
775.53	16544.61
775.865	16490.6
776.2	16510.48
776.535	16550.03
776.87	16529.69
777.205	16601.1
777.539	16568.34
777.874	16657.82
778.209	16623.25
778.543	16658.28
778.878	16681.55
779.212	16725.85
779.547	16687.2
779.881	16764.49
780.215	16694.89
780.55	16783.25
780.884	16703.93
781.218	16766.07
781.552	16714.77
781.886	16757.26
782.22	16643.14
782.554	16762.23
782.888	16597.26
783.222	16649.46
783.556	16590.26
783.889	16603.59
784.223	16511.16
784.557	16541.9
784.89	16678.84
785.224	16566.3
785.557	16482.46
785.891	16497.83
786.224	16538.73
786.558	16539.41
786.891	16447.21
787.224	16400.88
787.557	16340.32
787.891	16399.98
788.224	16299.42
788.557	16454.21
788.89	16364.73
789.223	16361.79
789.556	16209.93
789.888	16208.12
790.221	16225.75
790.554	16132.19
790.887	16119.31
791.219	16104.17
791.552	16052.19
791.884	16035.92
792.217	16080.44
792.549	15976.71
792.882	15870.27
793.214	15935.81
793.546	15901.69
793.879	15816.26
794.211	15745.76
794.543	15826.21
794.875	15829.6
795.207	15793.44
795.539	15719.32
795.871	15761.58
796.203	15546.89
796.535	15591.19
796.867	15471.19
797.198	15448.59
797.53	15558.19
797.862	15410.85
798.193	15498.76
798.525	15281.59
798.856	15401.81
799.188	15247.47
799.519	15279.56
799.85	15126.11
800.182	15164.76
800.513	15138.77
800.844	15075.04
801.175	15113.68
801.506	15115.04
801.837	14968.38
802.168	15003.4
802.499	15011.09
802.83	14827.14
803.161	14832.11
803.491	14805.44
803.822	14772
804.153	14697.88
804.483	14589.86
804.814	14661.94
805.145	14642.28
805.475	14502.85
805.805	14631.66
806.136	14604.09
806.466	14581.04
806.796	14534.72
807.126	14388.51
807.457	14376.75
807.787	14407.26
808.117	14290.88
808.447	14291.79
808.777	14297.89
809.107	14271.9
809.436	14195.97
809.766	14263.76
810.096	14202.07
810.426	14126.37
810.755	14146.7
811.085	14085.69
811.414	14127.72
811.744	13985.35
812.073	14047.95
812.403	14006.14
812.732	13884.79
813.061	13896.77
813.39	13813.83
813.719	13755.75
814.049	13834.62
814.378	13882.76
814.707	13739.48
815.036	13726.83
815.365	13689.32
815.693	13568.64
816.022	13604.35
816.351	13587.17
816.68	13507.17
817.008	13456.78
817.337	13407.97
817.665	13445.71
817.994	13482.31
818.322	13473.5
818.651	13386.5
818.979	13275.31
819.307	13364.13
819.636	13359.38
819.964	13252.94
820.292	13311.25
820.62	13254.75
820.948	13259.72
821.276	13222.21
821.604	13161.65
821.932	13283.9
822.259	13237.58
822.587	13157.8
822.915	13251.81
823.243	13224.24
823.57	13237.35
823.898	13220.17
824.225	13174.75
824.553	13178.37
824.88	13243.68
825.207	13221.3
825.535	13122.1
825.862	13213.4
826.189	13156.45
826.516	13216.11
826.843	13252.72
827.17	13192.38
827.497	13268.54
827.824	13289.55
828.151	13340.85
828.478	13278.93
828.805	13230.12
829.131	13235.77
829.458	13230.12
829.785	13115.54
830.111	13181.76
830.438	13336.1
830.764	13285.26
831.09	13234.64
831.417	13201.87
831.743	13283.22
832.069	13137.47
832.395	13166.39
832.722	13220.85
833.048	13238.25
833.374	13161.65
833.7	13094.08
834.026	13145.6
834.351	13170.23
834.677	13132.04
835.003	13197.8
835.329	13068.99
835.654	13071.03
835.98	13068.54
836.306	13040.52
836.631	13025.38
836.956	13069.44
837.282	13006.62
837.607	12976.34
837.932	12924.82
838.258	12922.78
838.583	12862.22
838.908	12901.77
839.233	12973.4
839.558	12890.47
839.883	12845.95
840.208	12768.66
840.533	12749.9
840.858	12805.5
841.182	12785.38
841.507	12747.87
841.832	12732.96
842.156	12653.18
842.481	12741.09
842.805	12612.73
843.13	12585.62
843.454	12565.28
843.778	12499.74
844.103	12466.3
844.427	12492.96
844.751	12509.91
845.075	12475.34
845.399	12409.12
845.723	12319.18
846.047	12392.17
846.371	12180.65
846.695	12212.52
847.019	12226.08
847.343	12115.12
847.666	12090.26
847.99	12035.35
848.313	11967.33
848.637	11831.96
848.96	11934.11
849.284	11881.68
849.607	11755.81
849.931	11685.3
850.254	11635.81
850.577	11664.06
850.9	11540.22
851.223	11485.53
851.546	11497.28
851.869	11413.89
852.192	11479.2
852.515	11342.03
852.838	11326.44
853.161	11368.92
853.483	11258.42
853.806	11205.31
854.129	11215.93
854.451	11133
854.774	11107.91
855.096	11049.38
855.419	10983.85
855.741	11008.03
856.063	10934.59
856.385	10937.52
856.708	10952.89
857.03	10860.69
857.352	10901.59
857.674	10852.78
857.996	10726.23
858.318	10688.04
858.64	10692.78
858.961	10671.77
859.283	10647.14
859.605	10622.05
859.926	10618.44
860.248	10540.92
860.57	10496.18
860.891	10526.01
861.212	10503.64
861.534	10452.56
861.855	10457.99
862.176	10415.05
862.498	10488.04
862.819	10380.48
863.14	10306.35
863.461	10303.87
863.782	10327.6
864.103	10310.2
864.424	10285.34
864.745	10174.61
865.065	10189.52
865.386	10179.58
865.707	10178.45
866.027	10210.76
866.348	10176.87
866.668	10133.02
866.989	10081.73
867.309	10120.6
867.63	10098.22
867.95	10082.4
868.27	9993.37
868.59	10032.24
868.91	10063.87
869.23	9983.2
869.55	9958.11
869.87	9990.2
870.19	9962.63
870.51	9923.76
870.83	9961.5
871.15	9884.9
871.469	9942.07
871.789	9876.76
872.109	9889.64
872.428	9828.17
872.748	9926.93
873.067	9876.99
873.386	9833.6
873.706	9819.81
874.025	9831.11
874.344	9694.17
874.663	9759.48
874.982	9723.54
875.301	9738.46
875.62	9646.48
875.939	9668.18
876.258	9662.98
876.577	9632.02
876.896	9641.06
877.214	9590.21
877.533	9621.17
877.852	9584.79
878.17	9588.18
878.489	9549.54
878.807	9621.4
879.125	9488.52
879.444	9518.13
879.762	9498.24
880.08	9544.79
880.398	9491.46
880.716	9520.39
881.034	9441.07
881.352	9422.99
881.67	9413.95
881.988	9341.41
882.306	9363.55
882.624	9357.23
882.941	9403.1
883.259	9231.13
883.577	9199.49
883.894	9236.55
884.212	9193.61
884.529	9180.96
884.846	9151.81
885.164	9100.28
885.481	9158.59
885.798	9072.04
886.115	9015.31
886.432	9088.98
886.75	8975.54
887.067	9089.44
887.383	8932.83
887.7	9052.6
888.017	8917.69
888.334	8995.43
888.651	8936.67
888.967	8857.58
889.284	8828.2
889.6	8785.26
889.917	8736
890.233	8807.64
890.55	8754.76
890.866	8769.44
891.182	8724.47
891.498	8639.05
891.815	8658.71
892.131	8571.48
892.447	8669.56
892.763	8583.23
893.079	8561.31
893.395	8564.93
893.71	8562.9
894.026	8487.64
894.342	8422.79
894.657	8451.71
894.973	8333.98
895.289	8328.33
895.604	8332.85
895.92	8265.28
896.235	8260.76
896.55	8284.26
896.865	8206.07
897.181	8144.83
897.496	8184.15
897.811	8169.91
898.126	8133.3
898.441	8040.65
898.756	8101.21
899.071	8056.69
899.386	8006.07
899.7	7971.05
900.015	7970.37
900.33	7862.35
900.644	7880.2
900.959	7927.66
901.273	7905.74
901.588	7821.9
901.902	7766.76
902.216	7815.12
902.531	7738.29
902.845	7712.07
903.159	7678.4
903.473	7666.2
903.787	7618.06
904.101	7529.25
904.415	7562.7
904.729	7542.13
905.042	7491.74
905.356	7461
905.67	7485.18
905.984	7426.2
906.297	7411.74
906.611	7323.38
906.924	7325.19
907.237	7278.64
907.551	7235.25
907.864	7270.27
908.177	7238.41
908.491	7213.55
908.804	7103.27
909.117	7119.77
909.43	7026.89
909.743	6967.68
910.056	7064.18
910.368	7003.62
910.681	6903.96
910.994	6940.11
911.307	6846.11
911.619	6860.12
911.932	6892.21
912.244	6847.91
912.557	6807.24
912.869	6743.06
913.181	6716.39
913.494	6721.81
913.806	6661.93
914.118	6700.35
914.43	6608.82
914.742	6612.21
915.054	6568.15
915.366	6511.65
915.678	6529.96
915.99	6468.94
916.302	6419.9
916.613	6357.53
916.925	6388.26
917.236	6431.88
917.548	6350.75
917.859	6386.23
918.171	6313.92
918.482	6296.52
918.794	6286.57
919.105	6217.87
919.416	6199.79
919.727	6221.04
920.038	6207.93
920.349	6111.66
920.66	6091.1
920.971	6114.15
921.282	6062.85
921.593	6018.56
921.903	5992.57
922.214	5936.3
922.525	5952.57
922.835	5927.49
923.146	5935.85
923.456	5894.94
923.767	5870.54
924.077	5878.22
924.387	5835.51
924.697	5811.78
925.008	5846.36
925.318	5753.7
925.628	5777.43
925.938	5680.71
926.248	5696.76
926.558	5632.13
926.867	5691.79
927.177	5672.8
927.487	5640.94
927.796	5562.75
928.106	5556.65
928.416	5592.58
928.725	5547.16
929.034	5502.41
929.344	5470.32
929.653	5469.42
929.962	5412.47
930.271	5387.39
930.581	5360.49
930.89	5438.46
931.199	5327.73
931.508	5335.18
931.817	5387.84
932.125	5308.97
932.434	5253.38
932.743	5214.28
933.051	5228.52
933.36	5217.45
933.669	5165.92
933.977	5186.04
934.286	5161.4
934.594	5118.92
934.902	5089.32
935.21	5076.66
935.519	5089.54
935.827	5015.64
936.135	5012.71
936.443	4972.26
936.751	4917.57
937.059	4912.37
937.367	4886.38
937.674	4892.94
937.982	4880.06
938.29	4848.87
938.597	4807.74
938.905	4777.23
939.213	4786.05
939.52	4773.84
939.827	4786.5
940.135	4747.86
940.442	4708.31
940.749	4676.67
941.056	4683
941.363	4636.45
941.67	4630.57
941.977	4624.02
942.284	4572.72
942.591	4606.62
942.898	4513.29
943.205	4573.4
943.511	4514.42
943.818	4500.4
944.125	4465.15
944.431	4447.75
944.738	4442.78
945.044	4430.8
945.35	4404.81
945.657	4376.79
945.963	4372.05
946.269	4348.54
946.575	4307.19
946.881	4257.92
947.187	4285.27
947.493	4253.18
947.799	4249.34
948.105	4254.99
948.41	4176.8
948.716	4204.59
949.022	4171.37
949.327	4162.79
949.633	4154.65
949.938	4130.02
950.244	4146.06
950.549	4089.79
950.854	4078.04
951.16	4102.9
951.465	4039.17
951.77	3999.63
952.075	4022.68
952.38	4003.24
952.685	3988.78
952.99	3975.9
953.294	3909.69
953.599	3934.77
953.904	3898.39
954.209	3886.41
954.513	3871.72
954.818	3815.22
955.122	3856.81
955.426	3851.83
955.731	3779.07
956.035	3786.3
956.339	3776.13
956.643	3730.48
956.948	3737.03
957.252	3735.45
957.556	3699.52
957.86	3664.49
958.163	3695.91
958.467	3646.87
958.771	3720.54
959.075	3635.12
959.378	3610.03
959.682	3633.76
959.985	3617.72
960.289	3589.02
960.592	3533.88
960.896	3542.01
961.199	3531.62
961.502	3520.99
961.805	3509.47
962.108	3477.61
962.411	3495.23
962.714	3457.72
963.017	3433.54
963.32	3409.13
963.623	3395.8
963.926	3377.72
964.228	3359.42
964.531	3336.37
964.833	3370.72
965.136	3340.43
965.438	3307.67
965.741	3255.47
966.043	3288.46
966.345	3252.98
966.648	3222.47
966.95	3300.66
967.252	3185.64
967.554	3245.52
967.856	3207.33
968.158	3168.69
968.46	3161.68
968.761	3189.48
969.063	3169.37
969.365	3102.7
969.666	3160.1
969.968	3052.53
970.269	3064.06
970.571	3117.16
970.872	3078.97
971.174	3075.13
971.475	3033.55
971.776	3074.45
972.077	3040.33
972.378	3046.43
972.679	3016.6
972.98	3010.73
973.281	2997.17
973.582	2962.37
973.883	2940.22
974.183	2904.51
974.484	2944.51
974.785	2915.14
975.085	2910.16
975.386	2905.19
975.686	2860.45
975.986	2872.2
976.287	2825.42
976.587	2847.79
976.887	2811.18
977.187	2763.05
977.487	2834.23
977.787	2790.39
978.087	2801.01
978.387	2777.96
978.687	2768.92
978.987	2747.91
979.286	2723.28
979.586	2713.56
979.885	2685.76
980.185	2669.04
980.484	2675.37
980.784	2665.42
981.083	2648.48
981.382	2626.33
981.682	2613.22
981.981	2620.23
982.28	2581.36
982.579	2588.14
982.878	2614.58
983.177	2583.62
983.475	2574.58
983.774	2557.4
984.073	2542.94
984.372	2505.88
984.67	2526.22
984.969	2487.58
985.267	2508.37
985.566	2479.89
985.864	2508.59
986.162	2437.41
986.461	2486.67
986.759	2421.36
987.057	2420.23
987.355	2437.63
987.653	2424.75
987.951	2395.37
988.249	2352.89
988.547	2373.23
988.844	2379.56
989.142	2323.96
989.44	2367.8
989.737	2328.71
990.035	2344.08
990.332	2341.14
990.63	2294.36
990.927	2285.77
991.224	2288.03
991.521	2268.82
991.819	2266.56
992.116	2245.32
992.413	2261.59
992.71	2267.24
993.006	2206.68
993.303	2231.99
993.6	2223.85
993.897	2224.08
994.193	2178.88
994.49	2158.32
994.787	2144.08
995.083	2158.77
995.379	2107.7
995.676	2123.97
995.972	2126.23
996.268	2084.87
996.565	2094.37
996.861	2074.71
997.157	2049.85
997.453	2071.99
997.749	2040.13
998.044	2015.72
998.34	2048.72
998.636	2033.8
998.932	2006.01
999.227	2007.59
999.523	2026.12
999.818	1987.25
1000.114	1992
1000.409	1934.37
1000.704	1961.94
1001	1920.13
1001.295	1941.38
1001.59	1915.39
1001.885	1913.35
1002.18	1876.97
1002.475	1889.85
1002.77	1915.39
1003.065	1870.64
1003.359	1868.61
1003.654	1868.84
1003.949	1860.25
1004.243	1825.9
1004.538	1835.84
1004.832	1832.68
1005.127	1814.37
1005.421	1801.04
1005.715	1783.64
1006.009	1761.49
1006.304	1763.08
1006.598	1761.27
1006.892	1748.84
1007.186	1726.69
1007.48	1746.13
1007.773	1707.03
1008.067	1711.33
1008.361	1690.53
1008.655	1686.24
1008.948	1675.39
1009.242	1676.75
1009.535	1668.84
1009.829	1670.2
1010.122	1660.25
1010.415	1632.23
1010.708	1613.93
1011.001	1627.71
1011.295	1598.79
1011.588	1595.4
1011.881	1596.53
1012.173	1577.32
1012.466	1568.05
1012.759	1554.04
1013.052	1545.23
1013.344	1538.22
1013.637	1503.65
1013.93	1519.01
1014.222	1534.38
1014.514	1510.65
1014.807	1502.07
1015.099	1479.92
1015.391	1485.12
1015.683	1467.94
1015.976	1444.89
1016.268	1453.03
1016.56	1452.57
1016.851	1435.63
1017.143	1439.47
1017.435	1445.57
1017.727	1417.55
1018.018	1409.86
1018.31	1375.51
1018.602	1406.47
1018.893	1420.94
1019.185	1392.24
1019.476	1357.44
1019.767	1364.67
1020.058	1359.02
1020.35	1338.45
1020.641	1341.39
1020.932	1321.5
1021.223	1312.47
1021.514	1317.44
1021.804	1293.93
1022.095	1268.62
1022.386	1304.78
1022.677	1269.3
1022.967	1258
1023.258	1272.24
1023.548	1227.27
1023.839	1233.37
1024.129	1237.67
1024.419	1238.34
1024.709	1208.74
1025	1208.97
1025.29	1189.98
1025.58	1200.15
1025.87	1192.24
1026.16	1170.55
1026.449	1175.07
1026.739	1164.9
1027.029	1166.93
1027.319	1126.93
1027.608	1142.98
1027.898	1130.1
1028.187	1118.35
1028.477	1127.39
1028.766	1114.73
1029.055	1105.47
1029.344	1114.05
1029.634	1098.91
1029.923	1088.06
1030.212	1100.04
1030.501	1066.14
1030.79	1067.5
1031.078	1050.78
1031.367	1027.28
1031.656	1040.16
1031.945	1047.39
1032.233	1044.22
1032.522	1034.73
1032.81	983.89
1033.099	1015.52
1033.387	1028.86
1033.675	1010.55
1033.963	988.86
1034.251	992.02
1034.54	984.56
1034.828	981.17
1035.116	961.97
1035.403	987.95
1035.691	964.45
1035.979	947.96
1036.267	951.35
1036.554	933.49
1036.842	946.37
1037.129	942.31
1037.417	927.16
1037.704	902.31
1037.992	897.11
1038.279	901.18
1038.566	919.71
1038.853	919.71
1039.14	919.71
