Data from hue_36_FLMS001491_00008.txt Node
Date: Tue Feb 07 17:29:20 GMT 2017
User: dcchb
Spectrometer: FLMS00149
Trigger mode: 0
Integration Time (sec): 2.000000E-2
Scans to average: 10
Electric dark correction enabled: true
Nonlinearity correction enabled: false
Boxcar width: 0
XAxis mode: Wavelengths
Number of Pixels in Spectrum: 2048
>>>>>Begin Spectral Data<<<<<
341.393	-12.91
341.776	-12.91
342.16	-12.91
342.543	-55.17
342.927	-74.6
343.31	-73.25
343.693	-80.7
344.077	-71.89
344.46	-65.56
344.843	-59.24
345.226	-34.15
345.61	-19.46
345.993	-0.03
346.376	-4.32
346.759	-2.51
347.142	27.77
347.525	52.4
347.908	44.72
348.291	80.42
348.674	102.57
349.057	103.25
349.44	119.97
349.823	151.15
350.206	172.62
350.588	202.23
350.971	217.82
351.354	219.63
351.737	221.89
352.119	244.94
352.502	287.65
352.884	274.99
353.267	261.21
353.65	311.83
354.032	295.78
354.414	307.53
354.797	291.26
355.179	320.42
355.562	325.84
355.944	335.78
356.326	339.4
356.709	349.79
357.091	330.13
357.473	329.45
357.855	347.08
358.238	345.73
358.62	321.32
359.002	339.62
359.384	352.5
359.766	331.94
360.148	334.43
360.53	324.71
360.912	325.39
361.294	333.97
361.676	352.28
362.057	348.44
362.439	339.17
362.821	328.55
363.203	329.91
363.584	352.05
363.966	328.1
364.348	312.73
364.729	326.97
365.111	312.51
365.493	347.53
365.874	328.78
366.256	334.65
366.637	310.92
367.019	309.34
367.4	318.16
367.781	313.41
368.163	300.53
368.544	340.75
368.925	312.28
369.306	332.17
369.688	325.16
370.069	323.81
370.45	307.08
370.831	310.02
371.212	312.28
371.593	316.57
371.974	313.18
372.355	302.11
372.736	326.52
373.117	329.91
373.498	319.06
373.879	329.68
374.26	329.23
374.641	310.25
375.021	314.31
375.402	326.06
375.783	320.42
376.163	322.22
376.544	339.85
376.925	333.75
377.305	328.55
377.686	353.18
378.066	330.81
378.447	306.4
378.827	323.58
379.208	339.85
379.588	314.54
379.968	340.98
380.349	335.1
380.729	352.5
381.109	343.69
381.489	362.67
381.87	331.26
382.25	320.64
382.63	350.25
383.01	363.8
383.39	329.23
383.77	350.47
384.15	351.6
384.53	359.28
384.91	348.44
385.29	341.21
385.67	352.28
386.049	356.57
386.429	367.87
386.809	339.17
387.189	370.58
387.568	347.31
387.948	356.35
388.328	339.4
388.707	354.31
389.087	351.83
389.466	356.35
389.846	348.66
390.225	374.88
390.605	368.1
390.984	356.57
391.363	362.67
391.743	364.03
392.122	382.33
392.501	375.33
392.881	370.13
393.26	366.97
393.639	367.65
394.018	372.39
394.397	380.75
394.776	355.44
395.155	380.3
395.534	389.34
395.913	391.37
396.292	389.79
396.671	372.17
397.05	407.64
397.429	416.46
397.808	398.15
398.186	383.69
398.565	409.68
398.944	386.63
399.323	412.62
399.701	392.96
400.08	385.72
400.458	396.12
400.837	422.79
401.215	406.74
401.594	403.8
401.972	405.61
402.351	411.49
402.729	409.45
403.107	443.12
403.486	396.8
403.864	406.97
404.242	410.81
404.62	396.12
404.999	419.17
405.377	425.5
405.755	416.46
406.133	425.72
406.511	415.1
406.889	443.58
407.267	413.52
407.645	434.99
408.023	434.99
408.401	427.76
408.779	436.12
409.156	437.25
409.534	442.45
409.912	436.34
410.29	422.33
410.667	444.71
411.045	456.46
411.422	451.71
411.8	462.33
412.178	464.59
412.555	450.58
412.933	455.1
413.31	467.53
413.687	456.46
414.065	486.96
414.442	497.59
414.819	463.01
415.197	458.04
415.574	504.59
415.951	473.41
416.328	474.76
416.705	487.19
417.082	481.77
417.46	482.44
417.837	503.46
418.214	512.95
418.591	500.52
418.967	492.39
419.344	481.32
419.721	510.47
420.098	506.85
420.475	503.69
420.852	513.86
421.228	528.09
421.605	533.29
421.982	527.64
422.358	503.46
422.735	496.23
423.111	548.21
423.488	552.05
423.864	554.08
424.241	551.6
424.617	571.48
424.994	543.69
425.37	568.09
425.746	543.46
426.123	570.58
426.499	562.44
426.875	573.29
427.251	559.96
427.627	556.12
428.003	566.06
428.379	587.3
428.756	584.82
429.132	579.39
429.507	596.34
429.883	600.18
430.259	618.26
430.635	622.33
431.011	603.12
431.387	625.04
431.763	631.37
432.138	645.6
432.514	627.3
432.89	625.72
433.265	651.93
433.641	654.87
434.016	668.65
434.392	657.58
434.767	653.97
435.143	681.31
435.518	677.92
435.894	691.25
436.269	691.7
436.644	681.08
437.02	705.94
437.395	696.9
437.77	694.42
438.145	709.33
438.52	712.5
438.895	723.57
439.271	705.49
439.646	734.64
440.021	722.89
440.395	734.19
440.77	727.86
441.145	727.64
441.52	739.61
441.895	734.19
442.27	754.08
442.645	757.47
443.019	748.2
443.394	763.57
443.769	814.64
444.143	774.19
444.518	817.35
444.892	772.15
445.267	799.95
445.641	747.07
446.016	791.36
446.39	770.57
446.764	784.13
447.139	812.61
447.513	811.25
447.887	810.12
448.262	817.58
448.636	829.33
449.01	828.65
449.384	831.14
449.758	833.17
450.132	848.09
450.506	853.28
450.88	848.76
451.254	836.33
451.628	854.41
452.002	866.39
452.376	869.1
452.75	877.91
453.123	892.38
453.497	898.25
453.871	902.09
454.244	909.33
454.618	912.26
454.992	924.47
455.365	926.73
455.739	938.03
456.112	971.7
456.486	975.54
456.859	981.41
457.232	967.86
457.606	969.21
457.979	1015.99
458.352	1019.38
458.725	1021.19
459.099	1040.85
459.472	1047.4
459.845	1077.91
460.218	1067.74
460.591	1082.88
460.964	1108.42
461.337	1103.22
461.71	1094.63
462.083	1106.84
462.456	1141.64
462.829	1125.14
463.201	1142.09
463.574	1161.52
463.947	1168.08
464.32	1181.86
464.692	1209.66
465.065	1201.52
465.438	1235.19
465.81	1256.66
466.183	1238.36
466.555	1285.59
466.928	1268.86
467.3	1287.4
467.672	1324.91
468.045	1372.14
468.417	1371.24
468.789	1372.59
469.161	1396.55
469.534	1408.3
469.906	1459.59
470.278	1482.87
470.65	1493.49
471.022	1547.95
471.394	1536.43
471.766	1564.9
472.138	1554.51
472.51	1625.92
472.882	1677.67
473.253	1669.31
473.625	1694.62
473.997	1760.6
474.369	1742.3
474.74	1763.54
475.112	1820.26
475.484	1882.41
475.855	1902.97
476.227	1938.45
476.598	1993.59
476.97	2025.68
477.341	2085.57
477.713	2123.98
478.084	2145
478.455	2218.9
478.827	2269.29
479.198	2308.16
479.569	2390.87
479.94	2466.57
480.311	2485.78
480.682	2549.28
481.053	2664.31
481.424	2703.86
481.795	2740.92
482.166	2820.24
482.537	2864.98
482.908	2963.51
483.279	2987.24
483.65	3080.79
484.021	3159.21
484.391	3225.2
484.762	3299.09
485.133	3320.11
485.503	3414.57
485.874	3582.25
486.244	3623.15
486.615	3742.47
486.985	3784.28
487.356	3890.26
487.726	3959.19
488.097	4091.62
488.467	4123.03
488.837	4229.47
489.207	4352.4
489.578	4438.73
489.948	4516.69
490.318	4610.7
490.688	4642.11
491.058	4804.37
491.428	4918.71
491.798	4971.59
492.168	5090.23
492.538	5146.96
492.908	5277.8
493.278	5396.67
493.648	5439.6
494.017	5569.54
494.387	5669.88
494.757	5766.15
495.126	5861.74
495.496	5918.69
495.866	6015.18
496.235	6055.63
496.605	6173.14
496.974	6225.57
497.344	6317.77
497.713	6466.69
498.082	6507.82
498.452	6614.04
498.821	6640.02
499.19	6754.14
499.559	6818.32
499.928	6938.32
500.298	6923.18
500.667	7062.16
501.036	7049.28
501.405	7242.04
501.774	7281.59
502.143	7344.41
502.512	7367.46
502.88	7469.15
503.249	7546.89
503.618	7704.18
503.987	7780.33
504.356	7777.17
504.724	7849.03
505.093	7925.64
505.462	8039.31
505.83	8035.47
506.199	8138.97
506.567	8232.52
506.936	8294.89
507.304	8319.08
507.672	8434.33
508.041	8491.73
508.409	8553.19
508.777	8665.51
509.145	8698.5
509.514	8784.37
509.882	8850.81
510.25	8882.22
510.618	8951.15
510.986	8975.78
511.354	9012.84
511.722	9157.02
512.09	9240.41
512.458	9188.43
512.826	9328.09
513.193	9461.42
513.561	9419.61
513.929	9505.71
514.297	9573.73
514.664	9618.25
515.032	9699.83
515.4	9815.31
515.767	9794.97
516.135	9935.98
516.502	9834.06
516.869	10076.09
517.237	10094.62
517.604	10031.35
517.972	10185.69
518.339	10170.55
518.706	10262.07
519.073	10340.94
519.44	10388.17
519.808	10558.79
520.175	10497.77
520.542	10565.57
520.909	10637.88
521.276	10654.83
521.643	10735.96
522.009	10821.16
522.376	10928.05
522.743	10953.36
523.11	11050.53
523.477	11207.81
523.843	11215.27
524.21	11413.91
524.577	11423.85
524.943	11409.62
525.31	11527.13
525.676	11650.29
526.043	11659.78
526.409	11695.71
526.776	11839.66
527.142	11855.48
527.508	11961.24
527.874	11929.15
528.241	12105.19
528.607	12101.35
528.973	12300.44
529.339	12240.55
529.705	12384.96
530.071	12507.67
530.437	12613.43
530.803	12583.82
531.169	12559.19
531.535	12624.5
531.901	12735.91
532.267	12794.44
532.632	12851.39
532.998	12882.12
533.364	13040.08
533.73	13024.04
534.095	13183.35
534.461	13159.17
534.826	13269.91
535.192	13306.51
535.557	13393.07
535.923	13377.47
536.288	13400.3
536.653	13587.19
537.019	13473.97
537.384	13551.71
537.749	13657.92
538.114	13749.21
538.479	13734.98
538.845	13820.4
539.21	13770.23
539.575	13795.32
539.94	13895.2
540.305	14040.73
540.67	14017
541.034	14080.51
541.399	14176.32
541.764	14166.6
542.129	14248.18
542.494	14248.18
542.858	14301.29
543.223	14372.48
543.587	14471.91
543.952	14532.25
544.316	14512.13
544.681	14624.67
545.045	14684.78
545.41	14680.49
545.774	14748.96
546.138	14809.75
546.503	14861.95
546.867	14930.2
547.231	15095.17
547.595	14928.39
547.959	15064.43
548.324	15125.45
548.688	15195.05
549.052	15243.19
549.416	15270.76
549.779	15313.69
550.143	15382.39
550.507	15470.07
550.871	15499.45
551.235	15527.93
551.599	15634.59
551.962	15663.97
552.326	15700.58
552.689	15771.99
553.053	15674.14
553.417	15802.95
553.78	15952.32
554.143	15910.97
554.507	16021.7
554.87	16071.64
555.234	16136.04
555.597	16078.87
555.96	16170.17
556.323	16255.59
556.686	16271.86
557.05	16384.63
557.413	16573.55
557.776	16510.27
558.139	16597.73
558.502	16627.56
558.865	16658.74
559.228	16778.51
559.59	16771.73
559.953	16844.5
560.316	17049.24
560.679	17072.29
561.041	17117.26
561.404	17152.06
561.767	17275.68
562.129	17122.91
562.492	17443.81
562.854	17403.13
563.217	17407.2
563.579	17449.91
563.941	17542.34
564.304	17603.12
564.666	17743.91
565.028	17783.46
565.39	17820.97
565.753	17959.27
566.115	18081.76
566.477	18068.65
566.839	18021.64
567.201	18270.9
567.563	18197.69
567.925	18283.56
568.287	18429.09
568.648	18456.66
569.01	18549.09
569.372	18711.34
569.734	18693.04
570.095	18809.87
570.457	18752.02
570.819	18867.95
571.18	18941.17
571.542	19005.57
571.903	19073.14
572.265	19155.17
572.626	19156.53
572.987	19305.23
573.349	19415.28
573.71	19483.3
574.071	19651.66
574.432	19684.2
574.794	19791.77
575.155	19920.35
575.516	19827.25
575.877	20067.69
576.238	20154.7
576.599	20382.94
576.96	20397.63
577.32	20436.5
577.681	20562.82
578.042	20769.82
578.403	20834.9
578.763	20919.87
579.124	21178.17
579.485	21312.63
579.845	21376.81
580.206	21385.62
580.566	21606.41
580.927	21699.29
581.287	21961.43
581.648	21980.64
582.008	22293.62
582.368	22344.92
582.728	22608.64
583.089	22719.37
583.449	22884.79
583.809	22995.53
584.169	23296.53
584.529	23362.97
584.889	23749.63
585.249	23787.82
585.609	23958.44
585.969	24219.45
586.329	24333.8
586.688	24628.7
587.048	24837.74
587.408	24974.91
587.768	25026.88
588.127	25299.87
588.487	25466.19
588.846	25971.27
589.206	25883.36
589.565	26291.94
589.925	26503
590.284	26752.26
590.643	26953.39
591.003	27185.47
591.362	27474.96
591.721	27579.13
592.08	27942.97
592.44	28185.22
592.799	28311.09
593.158	28607.36
593.517	28707.01
593.876	29076.27
594.235	29203.05
594.593	29571.4
594.952	29616.59
595.311	29770.49
595.67	30182.91
596.029	30457.93
596.387	30593.29
596.746	30772.04
597.104	30906.96
597.463	31107.63
597.822	31435.98
598.18	31576.54
598.538	31706.71
598.897	32111.44
599.255	32002.52
599.613	32632.79
599.972	32604.99
600.33	32832.55
600.688	32974.47
601.046	33176.27
601.404	33455.82
601.762	33577.62
602.12	33958.17
602.478	33937.61
602.836	34334.44
603.194	34256.25
603.552	34562.9
603.91	34551.83
604.268	34980.29
604.625	34942.78
604.983	35334.64
605.341	35258.93
605.698	35618.7
606.056	35650.56
606.413	35841.29
606.771	36061.85
607.128	36187.49
607.485	36131.68
607.843	36325.57
608.2	36627.71
608.557	36884.2
608.914	36822.28
609.272	37104.76
609.629	37236.96
609.986	37492.55
610.343	37425.2
610.7	37824.97
611.057	37891.86
611.414	37968.69
611.771	38143.38
612.127	38406.87
612.484	38204.62
612.841	38697.94
613.198	38559.86
613.554	38619.52
613.911	38947.87
614.267	38934.99
614.624	38999.17
614.98	39166.63
615.337	39593.51
615.693	39514.86
616.05	39535.43
616.406	39808.87
616.762	39728.42
617.118	39783.78
617.475	39941.07
617.831	40175.86
618.187	40202.08
618.543	40389.19
618.899	40581.96
619.255	40564.78
619.611	40502.86
619.967	40752.35
620.323	40931.1
620.678	40828.95
621.034	40726.58
621.39	40797.32
621.746	40808.62
622.101	41380.35
622.457	40979.46
622.812	41206.8
623.168	41447.7
623.523	41382.16
623.879	41561.14
624.234	41413.12
624.589	41512.1
624.945	41550.52
625.3	41801.81
625.655	41737.41
626.01	41796.39
626.365	41814.92
626.72	41696.5
627.075	41778.76
627.43	41995.7
627.785	41750.96
628.14	41900.34
628.495	41998.87
628.85	42066.44
629.205	41926.33
629.559	42080.9
629.914	41968.13
630.269	42076.38
630.623	42015.36
630.978	42012.65
631.332	42109.37
631.687	42268.92
632.041	42042.26
632.396	42164.29
632.75	42012.88
633.104	42096.72
633.459	42054.91
633.813	42056.04
634.167	42019.88
634.521	42055.36
634.875	42145.53
635.229	41972.88
635.583	41932.88
635.937	41925.88
636.291	41994.57
636.645	41929.04
636.999	41957.74
637.352	42084.74
637.706	41734.92
638.06	41931.75
638.413	41819.66
638.767	41648.59
639.121	41902.82
639.474	41521.82
639.828	41682.49
640.181	41732.21
640.534	41718.65
640.888	41625.54
641.241	41581.93
641.594	41561.82
641.947	41766.78
642.301	41618.99
642.654	41562.95
643.007	41708.03
643.36	41733.34
643.713	41523.17
644.066	41768.14
644.419	41447.92
644.771	41193.46
645.124	40935.84
645.477	40799.8
645.83	40599.58
646.182	40443.65
646.535	40381.06
646.888	40466.93
647.24	40152.81
647.593	40560.94
647.945	40400.72
648.298	40250.21
648.65	40222.87
649.002	40101.06
649.355	40346.26
649.707	40263.77
650.059	40430.77
650.411	40902.85
650.763	40941.04
651.115	41292.22
651.467	41164.31
651.819	41135.39
652.171	40953.47
652.523	40973.81
652.875	40915.96
653.227	40815.85
653.578	41063.52
653.93	40982.62
654.282	40754.61
654.633	40630.32
654.985	40876.64
655.337	40885.45
655.688	40773.14
656.039	40946.69
656.391	40810.42
656.742	40739.01
657.094	40764.1
657.445	40950.31
657.796	40865.79
658.147	40702.18
658.498	40842.74
658.849	40785.57
659.2	40708.05
659.551	40654.95
659.902	40806.58
660.253	40716.64
660.604	40804.77
660.955	40435.52
661.306	40669.18
661.656	40630.77
662.007	40532.69
662.358	40689.52
662.708	40624.89
663.059	40542.63
663.409	40461.96
663.76	40645
664.11	40577.66
664.461	40637.55
664.811	40829.86
665.161	40599.58
665.511	40534.05
665.862	40565.91
666.212	40698.79
666.562	40645.23
666.912	40554.16
667.262	40463.99
667.612	40647.04
667.962	40663.99
668.312	40463.99
668.662	40724.1
669.011	40569.98
669.361	40544.22
669.711	40445.24
670.06	40449.3
670.41	40378.35
670.76	40325.92
671.109	40428.29
671.459	40285.92
671.808	40383.09
672.157	40375.86
672.507	40165.47
672.856	40162.98
673.205	40248.18
673.554	40260.38
673.904	40188.75
674.253	40477.33
674.602	40355.29
674.951	39725.93
675.3	39705.37
675.649	40266.26
675.998	40120.27
676.346	40148.52
676.695	40345.8
677.044	40077.56
677.393	40137.45
677.741	40293.83
678.09	40099.93
678.438	39967.51
678.787	39976.77
679.135	40046.38
679.484	39828.53
679.832	39988.75
680.181	39810.45
680.529	39936.77
680.877	39656.33
681.225	39605.48
681.573	39874.86
681.922	39671.02
682.27	39501.98
682.618	39569.33
682.966	39381.31
683.314	39541.76
683.661	39456.11
684.009	39182.22
684.357	39111.03
684.705	39014.54
685.053	39167.3
685.4	39185.61
685.748	38816.58
686.095	38857.93
686.443	38815.67
686.79	38643.02
687.138	38641.67
687.485	38890.7
687.832	38612.06
688.18	38593.31
688.527	38548.11
688.874	38546.75
689.221	38274.45
689.568	38209.59
689.915	38255.92
690.262	38368.91
690.609	38193.54
690.956	38032.19
691.303	38065.86
691.65	37789.26
691.997	37821.58
692.344	37552.66
692.69	37641.69
693.037	37699.09
693.383	37335.71
693.73	37364.86
694.077	37264.98
694.423	37152.22
694.769	37155.6
695.116	36900.02
695.462	36965.33
695.808	36846.23
696.155	36948.83
696.501	36555.85
696.847	36664.77
697.193	36380.26
697.539	36446.47
697.885	36297.1
698.231	36255.29
698.577	36104.56
698.923	36169.87
699.269	36006.71
699.614	35814.4
699.96	35777.11
700.306	35828.63
700.651	35615.53
700.997	35530.11
701.342	35391.58
701.688	35471.58
702.033	35354.3
702.379	35286.05
702.724	35162.89
703.069	35190.46
703.415	34787.76
703.76	34881.09
704.105	34951.14
704.45	34781.43
704.795	34614.43
705.14	34539.85
705.485	34469.12
705.83	34345.74
706.175	34340.31
706.52	34262.12
706.865	34241.56
707.209	34088.79
707.554	34070.26
707.899	33945.97
708.243	33802.25
708.588	33807.44
708.932	33662.59
709.277	33549.82
709.621	33493.1
709.966	33475.7
710.31	33491.75
710.654	33041.36
710.998	33274.58
711.342	33280.9
711.687	33202.26
712.031	32968.37
712.375	32958.88
712.719	33024.87
713.063	32963.85
713.407	33010.18
713.75	33010.63
714.094	32776.29
714.438	32604.76
714.782	32685.21
715.125	32456.97
715.469	32727.47
715.812	32327.03
716.156	32212.91
716.499	32261.5
716.843	32335.84
717.186	32151.44
717.53	32254.94
717.873	32204.32
718.216	32239.58
718.559	31974.05
718.902	31714.84
719.246	31805.92
719.589	31689.08
719.932	31615.41
720.275	31644.79
720.617	31597.56
720.96	31551.68
721.303	31494.28
721.646	31424.91
721.989	31367.51
722.331	31320.05
722.674	31209.55
723.016	31275.53
723.359	31114.18
723.701	31307.85
724.044	31001.42
724.386	30913.51
724.729	31066.05
725.071	30965.03
725.413	30937.24
725.755	30798.48
726.097	30723.68
726.439	30702.22
726.782	30715.55
727.124	30904.02
727.465	30652.95
727.807	30557.36
728.149	30494.99
728.491	30424.71
728.833	30464.03
729.175	30378.61
729.516	30364.37
729.858	30330.93
730.199	30244.6
730.541	30209.8
730.882	30149.24
731.224	30203.92
731.565	29981.56
731.906	30132.74
732.248	30131.38
732.589	29765.06
732.93	29857.27
733.271	29885.06
733.612	29898.17
733.953	29848.45
734.294	29769.13
734.635	29718.29
734.976	29759.42
735.317	29597.61
735.658	29542.92
735.999	29488.69
736.339	29561.23
736.68	29462.25
737.021	29356.49
737.361	29306.32
737.702	29450.04
738.042	29271.29
738.383	29155.59
738.723	29283.5
739.063	29176.83
739.404	29252.99
739.744	29187.45
740.084	29127.57
740.424	29046.89
740.764	29026.33
741.104	29132.77
741.444	28976.38
741.784	28753.57
742.124	28936.39
742.464	28819.78
742.804	28761.7
743.143	28602.38
743.483	28704.08
743.823	28464.31
744.162	28568.26
744.502	28584.98
744.841	28434.7
745.181	28595.15
745.52	28420.02
745.86	28566
746.199	28377.53
746.538	28432.44
746.877	28560.58
747.216	28329.17
747.556	28271.09
747.895	28186.12
748.234	28084.66
748.573	28113.13
748.911	28027.48
749.25	27960.82
749.589	27855.51
749.928	27953.14
750.267	27969.18
750.605	27863.42
750.944	27746.81
751.283	27653.26
751.621	27719.02
751.96	27573.48
752.298	27611.9
752.636	27672.92
752.975	27405.58
753.313	27310.44
753.651	27460.94
753.989	27348.86
754.327	27216.66
754.666	27095.53
755.004	27178.69
755.342	27131.46
755.679	27144.79
756.017	26865.71
756.355	27086.04
756.693	26869.55
757.031	26885.37
757.368	26777.57
757.706	26706.61
758.044	26660.51
758.381	26720.17
758.719	26554.98
759.056	26512.27
759.394	26379.84
759.731	26243.8
760.068	26281.09
760.405	26201.32
760.743	26089.91
761.08	26239.06
761.417	26070.7
761.754	25880.87
762.091	25890.36
762.428	25833.42
762.765	25681.56
763.102	25715.68
763.438	25533.76
763.775	25527.44
764.112	25591.84
764.449	25419.87
764.785	25443.82
765.122	25237.73
765.458	25173.1
765.795	25129.03
766.131	24976.04
766.467	24810.39
766.804	24791.41
767.14	24654.24
767.476	24760.45
767.812	24574.47
768.148	24694.92
768.485	24412.66
768.821	24357.52
769.157	24322.04
769.492	24273.23
769.828	24250.41
770.164	23897.42
770.5	23970.87
770.836	23967.93
771.171	23782.62
771.507	23765.45
771.842	23597.32
772.178	23603.19
772.513	23526.13
772.849	23493.37
773.184	23317.78
773.519	23259.7
773.855	23228.29
774.19	23134.5
774.525	22978.58
774.86	22934.51
775.195	22922.53
775.53	22795.98
775.865	22712.14
776.2	22607.96
776.535	22439.38
776.87	22429.21
777.205	22357.58
777.539	22213.62
777.874	22332.72
778.209	22058.37
778.543	22045.27
778.878	21977.25
779.212	21953.97
779.547	21650.7
779.881	21765.28
780.215	21588.33
780.55	21704.71
780.884	21542.91
781.218	21392.4
781.552	21452.52
781.886	21309.02
782.22	21233.99
782.554	21078.06
782.888	20897.28
783.222	20923.94
783.556	20777.5
783.889	20617.06
784.223	20744.96
784.557	20563.72
784.89	20495.7
785.224	20479.43
785.557	20328.7
785.891	20300.91
786.224	20261.59
786.558	20293.45
786.891	20008.26
787.224	20033.57
787.557	19987.47
787.891	19894.14
788.224	19811.65
788.557	19782.05
788.89	19816.17
789.223	19724.65
789.556	19563.75
789.888	19508.16
790.221	19502.96
790.554	19380.03
790.887	19433.81
791.219	19277.88
791.552	19231.33
791.884	19127.83
792.217	19046.7
792.549	18960.38
792.882	18755.41
793.214	18765.35
793.546	18830.44
793.879	18705.24
794.211	18637.67
794.543	18638.13
794.875	18588.18
795.207	18676.54
795.539	18490.11
795.871	18544.12
796.203	18422.09
796.535	18215.09
796.867	18110.46
797.198	18166.27
797.53	18150
797.862	18015.77
798.193	18073.17
798.525	17942.32
798.856	17887.19
799.188	17702.78
799.519	17626.63
799.85	17503.24
800.182	17582.56
800.513	17530.36
800.844	17374.88
801.175	17509.34
801.506	17473.41
801.837	17366.75
802.168	17351.61
802.499	17272.06
802.83	17185.51
803.161	17092.4
803.491	17159.52
803.822	16964.95
804.153	16920.66
804.483	16858.51
804.814	16759.53
805.145	16845.63
805.475	16774.45
805.805	16762.92
806.136	16804.05
806.466	16734
806.796	16640.44
807.126	16479.99
807.457	16501.01
807.787	16569.25
808.117	16446.32
808.447	16316.6
808.777	16308.47
809.107	16238.87
809.436	16214.01
809.766	16206.55
810.096	16133.11
810.426	16037.06
810.755	16072.54
811.085	16152.99
811.414	16007.46
811.744	15869.61
812.073	15859.89
812.403	15868.71
812.732	15674.81
813.061	15749.61
813.39	15682.05
813.719	15591.88
814.049	15713.23
814.378	15545.1
814.707	15466.23
815.036	15430.53
815.365	15440.47
815.693	15366.57
816.022	15387.82
816.351	15270.76
816.68	15234.6
817.008	15240.25
817.337	15080.48
817.665	15001.16
817.994	15287.25
818.322	15089.97
818.651	14979.01
818.979	14993.7
819.307	14963.19
819.636	15006.81
819.964	14920.03
820.292	14902.86
820.62	14978.79
820.948	14875.96
821.276	14915.29
821.604	14881.61
821.932	14849.98
822.259	14841.16
822.587	14875.06
822.915	14713.26
823.243	14914.83
823.57	14749.87
823.898	14791.67
824.225	14752.58
824.553	14717.1
824.88	14783.76
825.207	14894.27
825.535	14708.06
825.862	14756.42
826.189	14776.08
826.516	14745.8
826.843	14880.48
827.17	14798.9
827.497	14789.64
827.824	14753.71
828.151	14854.72
828.478	14817.21
828.805	14824.67
829.131	14717.78
829.458	14645.69
829.785	14710.55
830.111	14768.85
830.438	14757.32
830.764	14714.39
831.09	14793.71
831.417	14741.51
831.743	14717.78
832.069	14691.11
832.395	14612.47
832.722	14694.5
833.048	14630.1
833.374	14609.31
833.7	14585.35
834.026	14550.55
834.351	14617.89
834.677	14543.09
835.003	14543.32
835.329	14621.06
835.654	14559.81
835.98	14405.24
836.306	14389.88
836.631	14461.06
836.956	14447.05
837.282	14407.5
837.607	14407.5
837.932	14311.01
838.258	14413.83
838.583	14319.82
838.908	14204.8
839.233	14212.25
839.558	14180.84
839.883	14280.73
840.208	14122.76
840.533	14134.06
840.858	14166.38
841.182	14170.22
841.507	14082.99
841.832	14005.48
842.156	13966.38
842.481	14027.4
842.805	13926.16
843.13	13919.15
843.454	13904.24
843.778	13754.64
844.103	13838.25
844.427	13675.32
844.751	13766.39
845.075	13721.42
845.399	13659.05
845.723	13573.63
846.047	13596.22
846.371	13596.68
846.695	13520.97
847.019	13434.42
847.343	13373.86
847.666	13270.58
847.99	13365.72
848.313	13222.45
848.637	13158.72
848.96	13156.01
849.284	13107.2
849.607	12955.34
849.931	12956.92
850.254	12840.76
850.577	12856.13
850.9	12778.84
851.223	12753.31
851.546	12792.86
851.869	12577.04
852.192	12673.54
852.515	12601
852.838	12495.91
853.161	12421.11
853.483	12399.42
853.806	12309.25
854.129	12347.9
854.451	12304.96
854.774	12243.04
855.096	12222.7
855.419	12189.71
855.741	12140.22
856.063	12047.34
856.385	12060.45
856.708	11906.33
857.03	11956.72
857.352	11944.52
857.674	11948.13
857.996	11837.17
858.318	11761.47
858.64	11850.28
858.961	11827.46
859.283	11700.91
859.605	11663.85
859.926	11675.14
860.248	11623.17
860.57	11594.02
860.891	11580.91
861.212	11601.25
861.534	11424.98
861.855	11424.76
862.176	11481.03
862.498	11483.74
862.819	11453.23
863.14	11389.73
863.461	11340.46
863.782	11333.91
864.103	11363.74
864.424	11277.87
864.745	11303.18
865.065	11198.32
865.386	11264.08
865.707	11182.5
866.027	11214.14
866.348	11164.65
866.668	11182.05
866.989	11161.03
867.309	11044.88
867.63	11083.07
867.95	11039.23
868.27	11020.7
868.59	11031.32
868.91	11014.37
869.23	10978.44
869.55	10899.35
869.87	10948.16
870.19	10983.41
870.51	10962.17
870.83	10890.31
871.15	10865.22
871.469	10834.94
871.789	10859.57
872.109	10855.51
872.428	10723.31
872.748	10820.25
873.067	10838.33
873.386	10823.87
873.706	10718.11
874.025	10682.18
874.344	10644.44
874.663	10722.18
874.982	10675.85
875.301	10662.74
875.62	10670.88
875.939	10627.26
876.258	10579.13
876.577	10545.46
876.896	10551.56
877.214	10569.41
877.533	10560.37
877.852	10505.68
878.17	10585.91
878.489	10507.27
878.807	10504.78
879.125	10489.19
879.444	10457.32
879.762	10507.04
880.08	10354.28
880.398	10376.2
880.716	10346.14
881.034	10326.93
881.352	10327.61
881.67	10350.66
881.988	10253.94
882.306	10286.71
882.624	10223.88
882.941	10141.63
883.259	10165.81
883.577	10182.3
883.894	10131.23
884.212	10161.96
884.529	10157.67
884.846	10091.91
885.164	10044.91
885.481	9978.92
885.798	10039.71
886.115	9899.6
886.432	9888.53
886.75	9880.16
887.067	9961.74
887.383	9854.18
887.7	9865.7
888.017	9764.69
888.334	9893.5
888.651	9792.03
888.967	9767.4
889.284	9653.05
889.6	9703.67
889.917	9667.51
890.233	9670.23
890.55	9522.66
890.866	9550.23
891.182	9592.94
891.498	9564.47
891.815	9491.93
892.131	9491.93
892.447	9423.45
892.763	9426.16
893.079	9396.33
893.395	9364.02
893.71	9356.34
894.026	9241.76
894.342	9253.29
894.657	9295.77
894.973	9175.1
895.289	9211.25
895.604	9125.83
895.92	9166.96
896.235	9116.34
896.55	9095.33
896.865	9065.27
897.181	9040.41
897.496	9008.1
897.811	8966.06
898.126	8937.36
898.441	8909.57
898.756	8886.29
899.071	8860.3
899.386	8890.36
899.7	8660.08
900.015	8710.25
900.33	8672.29
900.644	8684.04
900.959	8640.87
901.273	8615.56
901.588	8607.43
901.902	8527.21
902.216	8500.77
902.531	8484.49
902.845	8472.74
903.159	8371.5
903.473	8376.25
903.787	8335.35
904.101	8257.16
904.415	8308.68
904.729	8336.93
905.042	8228.68
905.356	8234.11
905.67	8223.48
905.984	8220.32
906.297	8160.66
906.611	8073.43
906.924	8095.8
907.237	8062.58
907.551	8012.19
907.864	7971.29
908.177	7980.78
908.491	7926.99
908.804	7861.46
909.117	7872.08
909.43	7775.36
909.743	7696.04
910.056	7800.67
910.368	7727.68
910.681	7640.67
910.994	7651.52
911.307	7619.21
911.619	7570.85
911.932	7639.32
912.244	7508.25
912.557	7525.88
912.869	7469.15
913.181	7433.45
913.494	7458.98
913.806	7372.43
914.118	7361.81
914.43	7330.85
914.742	7289.27
915.054	7263.74
915.366	7192.1
915.678	7245.2
915.99	7189.39
916.302	7117.07
916.613	7065.77
916.925	7117.3
917.236	7067.36
917.548	6965.21
917.859	7043.18
918.171	6951.43
918.482	6954.82
918.794	6902.62
919.105	6897.87
919.416	6806.57
919.727	6883.41
920.038	6808.83
920.349	6735.84
920.66	6759.79
920.971	6727.93
921.282	6697.65
921.593	6655.84
921.903	6610.65
922.214	6610.65
922.525	6614.04
922.835	6516.41
923.146	6507.15
923.456	6512.12
923.767	6420.59
924.077	6443.42
924.387	6372.69
924.697	6397.77
925.008	6360.93
925.318	6358.45
925.628	6282.52
925.938	6263.31
926.248	6180.83
926.558	6179.24
926.867	6213.82
927.177	6125.01
927.487	6101.96
927.796	6106.7
928.106	6081.62
928.416	6033.94
928.725	6067.16
929.034	6047.27
929.344	6014.73
929.653	5920.27
929.962	5913.26
930.271	5865.58
930.581	5839.59
930.89	5831.91
931.199	5761.63
931.508	5791.01
931.817	5805.02
932.125	5756.66
932.434	5734.28
932.743	5673.72
933.051	5699.03
933.36	5635.98
933.669	5645.92
933.977	5593.5
934.286	5572.03
934.594	5571.12
934.902	5520.5
935.21	5515.76
935.519	5506.27
935.827	5470.79
936.135	5398.7
936.443	5391.69
936.751	5380.62
937.059	5438.7
937.367	5370.68
937.674	5328.42
937.982	5279.61
938.29	5259.95
938.597	5273.96
938.905	5201.87
939.213	5204.35
939.52	5193.06
939.827	5134.75
940.135	5130.68
940.442	5103.57
940.749	5088.65
941.056	5144.7
941.363	5014.98
941.67	5047.97
941.977	4991.93
942.284	4991.93
942.591	4970.01
942.898	4941.99
943.205	4936.34
943.511	4898.83
943.818	4911.48
944.125	4901.54
944.431	4846.4
944.738	4834.87
945.044	4803.24
945.35	4783.57
945.657	4759.85
945.963	4728.66
946.269	4699.74
946.575	4714.42
946.881	4649.57
947.187	4641.88
947.493	4617.48
947.799	4598.04
948.105	4560.53
948.41	4589.46
948.716	4580.87
949.022	4545.61
949.327	4563.92
949.633	4483.92
949.938	4488.67
950.244	4464.49
950.549	4436.92
950.854	4397.37
951.16	4390.59
951.465	4389.91
951.77	4371.38
952.075	4311.5
952.38	4303.81
952.685	4375.22
952.99	4262.46
953.294	4294.55
953.599	4240.54
953.904	4223.36
954.209	4196.02
954.513	4212.97
954.818	4189.01
955.122	4161.44
955.426	4162.8
955.731	4105.4
956.035	4142.69
956.339	4119.64
956.643	4075.57
956.948	4080.09
957.252	4043.03
957.556	3990.15
957.86	3993.99
958.163	4007.78
958.467	4008
958.771	3933.2
959.075	3928
959.378	3921.22
959.682	3932.52
959.985	3881.9
960.289	3855.01
960.592	3810.49
960.896	3870.83
961.199	3830.61
961.502	3789.93
961.805	3809.59
962.108	3755.13
962.411	3693.66
962.714	3725.52
963.017	3716.03
963.32	3706.77
963.623	3688.91
963.926	3720.55
964.228	3621.8
964.531	3635.13
964.833	3610.95
965.136	3600.78
965.438	3598.52
965.741	3558.3
966.043	3567.56
966.345	3537.96
966.648	3486.66
966.95	3509.94
967.252	3510.16
967.554	3494.12
967.856	3454.57
968.158	3415.93
968.46	3458.41
968.761	3464.51
969.063	3405.76
969.365	3421.58
969.666	3360.34
969.968	3348.81
970.269	3364.18
970.571	3357.4
970.872	3326.21
971.174	3318.08
971.475	3265.87
971.776	3292.54
972.077	3286.89
972.378	3247.8
972.679	3203.96
972.98	3257.97
973.281	3190.4
973.582	3208.93
973.883	3154.24
974.183	3142.49
974.484	3163.28
974.785	3113.11
975.085	3121.47
975.386	3104.75
975.686	3101.81
975.986	3073.34
976.287	3068.82
976.587	3038.76
976.887	3030.17
977.187	3010.97
977.487	3020.23
977.787	3016.62
978.087	3019.1
978.387	2966.22
978.687	2966
978.987	2981.36
979.286	2904.98
979.586	2931.65
979.885	2862.04
980.185	2907.69
980.484	2878.99
980.784	2842.16
981.083	2852.55
981.382	2851.65
981.682	2864.53
981.981	2840.58
982.28	2830.41
982.579	2819.33
982.878	2788.6
983.177	2786.79
983.475	2733.46
983.774	2747.24
984.073	2745.89
984.372	2747.7
984.67	2716.06
984.969	2719.9
985.267	2684.42
985.566	2658.88
985.864	2700.92
986.162	2614.37
986.461	2660.47
986.759	2653.24
987.057	2607.36
987.355	2598.1
987.653	2569.17
987.951	2605.1
988.249	2558.1
988.547	2565.78
988.844	2534.37
989.142	2528.49
989.44	2503.18
989.737	2526.46
990.035	2448.95
990.332	2511.09
990.63	2467.25
990.927	2436.07
991.224	2437.65
991.521	2465.44
991.819	2417.76
992.116	2407.14
992.413	2381.6
992.71	2433.58
993.006	2399
993.303	2381.83
993.6	2401.26
993.897	2364.43
994.193	2377.54
994.49	2368.05
994.787	2283.75
995.083	2295.96
995.379	2291.44
995.676	2286.47
995.972	2276.52
996.268	2264.32
996.565	2261.38
996.861	2212.34
997.157	2208.05
997.453	2222.74
997.749	2184.77
998.044	2190.87
998.34	2164.43
998.636	2192.91
998.932	2155.4
999.227	2142.51
999.523	2131.22
999.818	2120.59
1000.114	2139.12
1000.409	2081.27
1000.704	2094.38
1001	2074.04
1001.295	2081.27
1001.59	2068.17
1001.885	2054.61
1002.18	2018.22
1002.475	2028.62
1002.77	2040.82
1003.065	2013.48
1003.359	1992.01
1003.654	2009.41
1003.949	1999.47
1004.243	1969.41
1004.538	1977.09
1004.832	1916.53
1005.127	1951.78
1005.421	1914.95
1005.715	1939.81
1006.009	1877.44
1006.304	1911.11
1006.598	1875.18
1006.892	1883.31
1007.186	1900.71
1007.48	1827.04
1007.773	1832.01
1008.067	1806.7
1008.361	1788.17
1008.655	1792.47
1008.948	1804.22
1009.242	1790.21
1009.535	1769.42
1009.829	1775.97
1010.122	1751.34
1010.415	1758.34
1010.708	1740.72
1011.001	1737.78
1011.295	1711.57
1011.588	1706.82
1011.881	1739.14
1012.173	1709.76
1012.466	1672.24
1012.759	1681.28
1013.052	1654.84
1013.344	1673.83
1013.637	1669.76
1013.93	1632.92
1014.222	1632.02
1014.514	1617.78
1014.807	1615.07
1015.099	1619.82
1015.391	1576.43
1015.683	1581.4
1015.976	1582.98
1016.268	1559.25
1016.56	1520.61
1016.851	1543.43
1017.143	1531.46
1017.435	1488.07
1017.727	1513.15
1018.018	1498.46
1018.31	1493.94
1018.602	1488.52
1018.893	1478.8
1019.185	1452.36
1019.476	1460.27
1019.767	1432.7
1020.058	1423.66
1020.35	1449.88
1020.641	1417.79
1020.932	1403.55
1021.223	1395.64
1021.514	1389.54
1021.804	1376.21
1022.095	1359.94
1022.386	1370.33
1022.677	1371.01
1022.967	1343.21
1023.258	1343.21
1023.548	1345.93
1023.839	1317.68
1024.129	1292.37
1024.419	1321.29
1024.709	1302.31
1025	1297.56
1025.29	1257.34
1025.58	1285.14
1025.87	1272.71
1026.16	1283.33
1026.449	1268.64
1026.739	1223.67
1027.029	1253.95
1027.319	1202.65
1027.608	1227.74
1027.898	1205.82
1028.187	1226.15
1028.477	1169.43
1028.766	1170.11
1029.055	1133.95
1029.344	1149.55
1029.634	1157.68
1029.923	1122.2
1030.212	1152.03
1030.501	1175.08
1030.79	1142.99
1031.078	1145.48
1031.367	1100.51
1031.656	1110.45
1031.945	1091.69
1032.233	1112.03
1032.522	1107.74
1032.81	1094.63
1033.099	1105.93
1033.387	1062.77
1033.675	1033.39
1033.963	1053.28
1034.251	1037.68
1034.54	1042.43
1034.828	1039.27
1035.116	1017.12
1035.403	1022.54
1035.691	1018.48
1035.979	1000.17
1036.267	1030.68
1036.554	998.82
1036.842	984.35
1037.129	1000.85
1037.417	970.79
1037.704	970.57
1037.992	961.53
1038.279	967.4
1038.566	957.69
1038.853	957.69
1039.14	957.69
