Data from hue_350_FLMS001491_62.txt Node
Date: Mon Feb 06 15:38:21 GMT 2017
User: dcchb
Spectrometer: FLMS00149
Trigger mode: 0
Integration Time (sec): 2.000000E-2
Scans to average: 10
Electric dark correction enabled: true
Nonlinearity correction enabled: false
Boxcar width: 0
XAxis mode: Wavelengths
Number of Pixels in Spectrum: 2048
>>>>>Begin Spectral Data<<<<<
341.393	-9.03
341.776	-9.03
342.16	-9.03
342.543	-64.84
342.927	-48.12
343.31	-55.8
343.693	-66.65
344.077	-60.78
344.46	-47.22
344.843	-57.61
345.226	-48.35
345.61	-21.91
345.993	-34.11
346.376	-11.06
346.759	16.96
347.142	32.78
347.525	37.75
347.908	81.82
348.291	51.31
348.674	80.69
349.057	102.16
349.44	133.34
349.823	137.86
350.206	148.26
350.588	196.39
350.971	190.74
351.354	213.34
351.737	226.22
352.119	248.37
352.502	249.73
352.884	271.87
353.267	259.22
353.65	281.14
354.032	282.72
354.414	302.15
354.797	292.89
355.179	317.52
355.562	311.19
355.944	319.33
356.326	342.6
356.709	330.17
357.091	323.4
357.473	342.38
357.855	344.41
358.238	327.69
358.62	327.92
359.002	341.25
359.384	328.82
359.766	330.17
360.148	323.85
360.53	340.34
360.912	338.08
361.294	337.41
361.676	340.12
362.057	325.88
362.439	319.33
362.821	321.59
363.203	322.04
363.584	311.19
363.966	329.27
364.348	333.11
364.729	282.49
365.111	318.42
365.493	317.97
365.874	302.38
366.256	297.86
366.637	301.93
367.019	318.42
367.4	312.55
367.781	312.32
368.163	308.48
368.544	304.19
368.925	298.76
369.306	301.02
369.688	313.9
370.069	315.03
370.45	300.35
370.831	328.37
371.212	312.55
371.593	312.77
371.974	307.58
372.355	307.12
372.736	302.38
373.117	302.38
373.498	285.43
373.879	289.72
374.26	296.73
374.641	292.44
375.021	303.28
375.402	307.35
375.783	321.81
376.163	324.75
376.544	310.74
376.925	312.32
377.305	316.62
377.686	318.2
378.066	311.42
378.447	322.94
378.827	315.49
379.208	326.11
379.588	315.03
379.968	319.1
380.349	334.24
380.729	332.89
381.109	333.34
381.489	321.81
381.87	338.31
382.25	345.09
382.63	328.59
383.01	335.37
383.39	322.49
383.77	348.48
384.15	322.94
384.53	346.22
384.91	328.59
385.29	341.93
385.67	317.07
386.049	357.07
386.429	335.6
386.809	334.24
387.189	341.47
387.568	339.89
387.948	336.73
388.328	345.09
388.707	341.47
389.087	338.54
389.466	351.19
389.846	367.01
390.225	385.77
390.605	364.52
390.984	351.42
391.363	347.58
391.743	366.33
392.122	356.84
392.501	341.7
392.881	362.94
393.26	348.71
393.639	355.03
394.018	353.9
394.397	361.36
394.776	380.34
395.155	363.62
395.534	344.86
395.913	360.68
396.292	373.79
396.671	375.82
397.05	341.25
397.429	367.69
397.808	380.57
398.186	360.68
398.565	376.05
398.944	366.56
399.323	363.39
399.701	380.12
400.08	355.94
400.458	376.28
400.837	382.15
401.215	378.31
401.594	391.19
401.972	402.72
402.351	381.7
402.729	398.42
403.107	388.03
403.486	399.55
403.864	375.6
404.242	388.7
404.62	414.92
404.999	404.98
405.377	412.43
405.755	387.8
406.133	409.04
406.511	420.12
406.889	402.72
407.267	434.13
407.645	400.23
408.023	431.87
408.401	418.08
408.779	401.81
409.156	433.45
409.534	413.11
409.912	435.03
410.29	437.52
410.667	424.41
411.045	426.9
411.422	440.23
411.8	438.42
412.178	443.84
412.555	441.13
412.933	445.43
413.31	435.93
413.687	467.8
414.065	454.47
414.442	461.7
414.819	463.05
415.197	472.09
415.574	498.08
415.951	462.6
416.328	478.19
416.705	473.67
417.082	485.88
417.46	470.96
417.837	496.05
418.214	502.6
418.591	494.24
418.967	468.93
419.344	491.07
419.721	507.8
420.098	495.59
420.475	494.92
420.852	502.83
421.228	513.45
421.605	514.35
421.982	524.07
422.358	510.96
422.735	524.52
423.111	541.02
423.488	525.88
423.864	520.23
424.241	556.16
424.617	539.21
424.994	546.67
425.37	561.81
425.746	548.47
426.123	555.03
426.499	568.81
426.875	563.16
427.251	584.18
427.627	569.49
428.003	571.07
428.379	572.88
428.756	591.19
429.132	581.92
429.507	611.52
429.883	620.79
430.259	603.61
430.635	612.43
431.011	596.61
431.387	601.13
431.763	630.73
432.138	630.51
432.514	626.44
432.89	661.69
433.265	621.47
433.641	649.04
434.016	643.16
434.392	660.79
434.767	659.88
435.143	662.14
435.518	657.17
435.894	686.1
436.269	687
436.644	672.31
437.02	678.64
437.395	689.49
437.77	715.93
438.145	720.45
438.52	691.75
438.895	714.35
439.271	710.5
439.646	723.61
440.021	750.73
440.395	733.78
440.77	755.93
441.145	749.82
441.52	738.75
441.895	747.34
442.27	755.02
442.645	762.25
443.019	769.49
443.394	769.94
443.769	779.88
444.143	754.57
444.518	769.03
444.892	762.03
445.267	780.56
445.641	764.29
446.016	780.11
446.39	796.38
446.764	801.12
447.139	797.28
447.513	828.24
447.887	809.03
448.262	802.7
448.636	798.64
449.01	837.05
449.384	809.26
449.758	808.81
450.132	841.8
450.506	833.44
450.88	830.95
451.254	831.86
451.628	854.45
452.002	854
452.376	876.15
452.75	840.9
453.123	881.8
453.497	894.45
453.871	897.62
454.244	882.48
454.618	893.32
454.992	920.67
455.365	919.09
455.739	914.34
456.112	932.87
456.486	955.24
456.859	938.29
457.232	921.8
457.606	924.74
457.979	965.41
458.352	997.95
458.725	978.97
459.099	985.52
459.472	1013.09
459.845	1017.39
460.218	984.62
460.591	1018.97
460.964	1005.86
461.337	1042.7
461.71	1038.18
462.083	1055.81
462.456	1062.59
462.829	1074.34
463.201	1101.23
463.574	1119.31
463.947	1091.51
464.32	1128.35
464.692	1132.87
465.065	1127.44
465.438	1165.63
465.81	1150.27
466.183	1139.19
466.555	1162.47
466.928	1201.11
467.3	1197.27
467.672	1228
468.045	1242.69
468.417	1243.6
468.789	1244.95
469.161	1261.45
469.534	1270.04
469.906	1308
470.278	1328.34
470.65	1326.31
471.022	1339.41
471.394	1366.76
471.766	1400.2
472.138	1395.46
472.51	1430.26
472.882	1476.81
473.253	1472.07
473.625	1474.78
473.997	1514.55
474.369	1517.49
474.74	1547.77
475.112	1547.54
475.484	1583.7
475.855	1615.56
476.227	1637.26
476.598	1686.75
476.97	1656.02
477.341	1681.78
477.713	1767.2
478.084	1725.17
478.455	1791.38
478.827	1786.18
479.198	1849.91
479.569	1837.93
479.94	1898.27
480.311	1906.18
480.682	1966.52
481.053	1967.42
481.424	2056.46
481.795	2059.62
482.166	2072.28
482.537	2093.07
482.908	2190.69
483.279	2177.36
483.65	2228.66
484.021	2238.37
484.391	2317.24
484.762	2287.19
485.133	2333.96
485.503	2355.66
485.874	2438.14
486.244	2418.26
486.615	2495.32
486.985	2543.45
487.356	2561.53
487.726	2600.85
488.097	2654.63
488.467	2621.87
488.837	2715.42
489.207	2731.47
489.578	2764.24
489.948	2830.45
490.318	2853.5
490.688	2832.26
491.058	2894.18
491.428	2909.77
491.798	2991.8
492.168	3018.69
492.538	3042.19
492.908	3080.16
493.278	3109.99
493.648	3134.17
494.017	3190.66
494.387	3208.07
494.757	3241.28
495.126	3286.48
495.496	3229.99
495.866	3303.88
496.235	3314.96
496.605	3372.13
496.974	3384.78
497.344	3408.06
497.713	3444.67
498.082	3469.3
498.452	3464.1
498.821	3511.79
499.19	3526.02
499.559	3567.38
499.928	3594.27
500.298	3619.35
500.667	3634.04
501.036	3623.87
501.405	3648.96
501.774	3653.25
502.143	3704.32
502.512	3721.72
502.88	3767.82
503.249	3761.95
503.618	3721.05
503.987	3834.04
504.356	3787.26
504.724	3827.71
505.093	3814.83
505.462	3829.29
505.83	3880.59
506.199	3875.84
506.567	3935.5
506.936	3922.17
507.304	4035.61
507.672	3990.42
508.041	4003.07
508.409	4026.12
508.777	3993.13
509.145	4107.02
509.514	4093.47
509.882	4078.55
510.25	4109.51
510.618	4119.45
510.986	4152.22
511.354	4122.39
511.722	4207.36
512.09	4248.49
512.458	4218.89
512.826	4258.66
513.193	4232.22
513.561	4257.76
513.929	4266.79
514.297	4285.33
514.664	4321.93
515.032	4310.18
515.4	4334.82
515.767	4355.15
516.135	4404.19
516.502	4347.7
516.869	4398.32
517.237	4435.38
517.604	4459.78
517.972	4442.16
518.339	4435.6
518.706	4494.36
519.073	4548.37
519.44	4517.41
519.808	4597.41
520.175	4522.61
520.542	4580.68
520.909	4585.66
521.276	4599.89
521.643	4617.52
522.009	4628.82
522.376	4667.01
522.743	4730.96
523.11	4737.74
523.477	4777.74
523.843	4797.63
524.21	4801.92
524.577	4790.85
524.943	4840.56
525.31	4892.31
525.676	4949.26
526.043	4924.4
526.409	4926.89
526.776	4930.51
527.142	4947
527.508	5019.32
527.874	5039.2
528.241	5104.29
528.607	5102.03
528.973	5121.01
529.339	5135.47
529.705	5185.41
530.071	5242.81
530.437	5200.33
530.803	5276.94
531.169	5264.73
531.535	5304.06
531.901	5307.45
532.267	5336.15
532.632	5342.02
532.998	5377.73
533.364	5421.11
533.73	5395.13
534.095	5463.83
534.461	5457.95
534.826	5452.07
535.192	5469.02
535.557	5544.28
535.923	5543.82
536.288	5543.6
536.653	5645.29
537.019	5523.71
537.384	5624.95
537.749	5673.54
538.114	5658.62
538.479	5683.03
538.845	5682.12
539.21	5737.26
539.575	5723.25
539.94	5730.03
540.305	5784.04
540.67	5762.35
541.034	5802.8
541.399	5855.45
541.764	5878.28
542.129	5922.12
542.494	5948.33
542.858	5930.03
543.223	6003.47
543.587	6021.78
543.952	6062
544.316	6049.35
544.681	6059.97
545.045	6107.88
545.41	6080.53
545.774	6083.47
546.138	6110.14
546.503	6171.15
546.867	6177.7
547.231	6231.04
547.595	6258.15
547.959	6252.28
548.324	6345.16
548.688	6306.29
549.052	6351.26
549.416	6363.01
549.779	6302.67
550.143	6355.33
550.507	6434.65
550.871	6468.54
551.235	6401.88
551.599	6533.63
551.962	6504.48
552.326	6545.38
552.689	6539.5
553.053	6484.36
553.417	6551.03
553.78	6593.06
554.143	6610.24
554.507	6672.83
554.87	6653.4
555.234	6753.73
555.597	6703.57
555.96	6678.93
556.323	6730.23
556.686	6693.17
557.05	6762.1
557.413	6803.45
557.776	6803.23
558.139	6819.04
558.502	6828.31
558.865	6904.47
559.228	6915.31
559.59	6929.78
559.953	6932.26
560.316	7029.43
560.679	7027.85
561.041	7062.43
561.404	7048.42
561.767	7134.74
562.129	7090
562.492	7162.31
562.854	7130.67
563.217	7176.77
563.579	7152.14
563.941	7249.54
564.304	7304
564.666	7287.28
565.028	7311.69
565.39	7341.52
565.753	7318.24
566.115	7392.14
566.477	7474.85
566.839	7404.79
567.201	7469.42
567.563	7479.59
567.925	7559.14
568.287	7485.02
568.648	7564.79
569.01	7578.8
569.372	7601.85
569.734	7605.69
570.095	7708.51
570.457	7719.81
570.819	7784.89
571.18	7778.57
571.542	7825.35
571.903	7835.97
572.265	7862.86
572.626	7949.41
572.987	8033.25
573.349	8024.44
573.71	8083.42
574.071	8085.9
574.432	8163.64
574.794	8250.64
575.155	8252.68
575.516	8284.54
575.877	8345.56
576.238	8395.73
576.599	8485.21
576.96	8548.49
577.32	8566.12
577.681	8651.54
578.042	8738.54
578.403	8777.86
578.763	8875.26
579.124	8944.64
579.485	9026.67
579.845	9191.86
580.206	9255.36
580.566	9313.22
580.927	9433.89
581.287	9564.06
581.648	9718.63
582.008	9794.11
582.368	9913.65
582.728	10014.89
583.089	10163.59
583.449	10345.05
583.809	10403.58
584.169	10620.3
584.529	10782.33
584.889	11052.15
585.249	11114.52
585.609	11290.79
585.969	11495.76
586.329	11657.56
586.688	11843.09
587.048	12123.31
587.408	12356.3
587.768	12520.81
588.127	12722.84
588.487	12897.98
588.846	13219.55
589.206	13298.87
589.565	13565.08
589.925	13851.63
590.284	14117.61
590.643	14349.47
591.003	14592.62
591.362	14858.83
591.721	15095.89
592.08	15418.82
592.44	15652.48
592.799	15906.26
593.158	16119.82
593.517	16451.78
593.876	16865.56
594.235	16983.07
594.593	17219.67
594.952	17482.49
595.311	17761.58
595.67	18175.36
596.029	18572.63
596.387	18837.48
596.746	19159.06
597.104	19284.48
597.463	19601.98
597.822	20008.08
598.18	20170.78
598.538	20446.03
598.897	20872.69
599.255	20940.71
599.613	21542.05
599.972	21683.29
600.33	21962.6
600.688	22029.94
601.046	22503.6
601.404	22887.55
601.762	23068.33
602.12	23484.37
602.478	23721.65
602.836	24003.68
603.194	24010.68
603.552	24443.21
603.91	24720.04
604.268	25086.36
604.625	25203.87
604.983	25471.21
605.341	25617.87
605.698	25996.17
606.056	26350.28
606.413	26586.89
606.771	26847.44
607.128	27014.9
607.485	27162.92
607.843	27503.92
608.2	27851.71
608.557	28045.38
608.914	28121.08
609.272	28512.71
609.629	28794.74
609.986	29129.87
610.343	29144.56
610.7	29681.49
611.057	29747.48
611.414	29768.72
611.771	30041.48
612.127	30372.32
612.484	30490.74
612.841	30803.05
613.198	30913.78
613.554	30992.42
613.911	31344.5
614.267	31422.69
614.624	31568.45
614.98	31779.07
615.337	32035.33
615.693	32177.25
616.05	32246.4
616.406	32575.43
616.762	32586.28
617.118	32784.69
617.475	32851.81
617.831	33141.52
618.187	33271.23
618.543	33343.09
618.899	33731.56
619.255	33704.21
619.611	33868.05
619.967	34006.35
620.323	34282.5
620.678	34083.86
621.034	34159.79
621.39	34346.46
621.746	34388.49
622.101	34974.69
622.457	34597.52
622.812	34948.7
623.168	34948.25
623.523	35066.89
623.879	35332.64
624.234	34959.77
624.589	35348.92
624.945	35498.52
625.3	35549.81
625.655	35683.6
626.01	35792.97
626.365	35866.87
626.72	35887.88
627.075	35997.49
627.43	35968.79
627.785	35926.98
628.14	36093.08
628.495	36170.36
628.85	36132.4
629.205	36128.33
629.559	36354.99
629.914	36409.23
630.269	36396.35
630.623	36330.81
630.978	36393.18
631.332	36586.17
631.687	36686.06
632.041	36528.77
632.396	36700.29
632.75	36580.97
633.104	36564.02
633.459	36439.28
633.813	36476.8
634.167	36556.34
634.521	36462.11
634.875	36652.61
635.229	36555.44
635.583	36633.63
635.937	36510.69
636.291	36450.81
636.645	36502.56
636.999	36551.14
637.352	36669.33
637.706	36463.24
638.06	36673.63
638.413	36612.38
638.767	36601.54
639.121	36622.55
639.474	36497.81
639.828	36496.91
640.181	36677.92
640.534	36538.71
640.888	36374.88
641.241	36350.7
641.594	36412.62
641.947	36536.23
642.301	36559.96
642.654	36394.76
643.007	36526.74
643.36	36323.58
643.713	36448.55
644.066	36677.02
644.419	36304.37
644.771	36018.5
645.124	35783.03
645.477	35818.51
645.83	35636.37
646.182	35487.67
646.535	35350.72
646.888	35375.58
647.24	35292.19
647.593	35484.73
647.945	35530.38
648.298	35216.72
648.65	35254.91
649.002	35217.39
649.355	35211.97
649.707	35264.85
650.059	35344.85
650.411	35832.74
650.763	35705.06
651.115	36273.64
651.467	36107.77
651.819	36023.02
652.171	36008.11
652.523	36168.1
652.875	35972.18
653.227	35916.13
653.578	36220.53
653.93	36053.76
654.282	35913.42
654.633	35875.46
654.985	35838.62
655.337	35906.87
655.688	35778.06
656.039	35997.49
656.391	35811.5
656.742	35811.05
657.094	35913.19
657.445	35987.99
657.796	35824.38
658.147	35687.21
658.498	35748.45
658.849	35822.58
659.2	35864.38
659.551	35734.22
659.902	35890.6
660.253	35697.61
660.604	35824.16
660.955	35729.24
661.306	35739.87
661.656	35719.3
662.007	35743.48
662.358	35745.97
662.708	35638.63
663.059	35753.65
663.409	35488.35
663.76	35761.79
664.11	35719.07
664.461	35729.92
664.811	35645.18
665.161	35590.49
665.511	35573.77
665.862	35514.79
666.212	35735.35
666.562	35694.67
666.912	35644.95
667.262	35527.22
667.612	35552.07
667.962	35724.95
668.312	35667.1
668.662	35830.71
669.011	35577.84
669.361	35708.23
669.711	35533.09
670.06	35534
670.41	35455.81
670.76	35482.47
671.109	35643.6
671.459	35597.27
671.808	35349.14
672.157	35543.49
672.507	35177.62
672.856	35214.91
673.205	35294.91
673.554	35364.96
673.904	35176.94
674.253	35500.1
674.602	35410.83
674.951	34851.98
675.3	34715.03
675.649	35314.57
675.998	35221.23
676.346	35289.03
676.695	35440.44
677.044	35020.34
677.393	35349.59
677.741	35184.85
678.09	35206.32
678.438	34998.19
678.787	35222.59
679.135	35103.5
679.484	34829.61
679.832	35081.13
680.181	34891.3
680.529	34887.01
680.877	34822.38
681.225	34758.42
681.573	35064.18
681.922	34671.42
682.27	34715.94
682.618	34734.24
682.966	34530.86
683.314	34618.09
683.661	34452.22
684.009	34405.66
684.357	34332.22
684.705	34269.4
685.053	34318.89
685.4	34257.19
685.748	34162.73
686.095	34127.93
686.443	33984.21
686.79	34017.2
687.138	34044.09
687.485	33980.82
687.832	33980.59
688.18	33885.9
688.527	33645.23
688.874	33799.58
689.221	33511.22
689.568	33411.34
689.915	33498.12
690.262	33489.08
690.609	33310.1
690.956	33214.51
691.303	33107.17
691.65	33059.71
691.997	33015.64
692.344	32853.39
692.69	33056.55
693.037	32934.97
693.383	32570.23
693.73	32869.66
694.077	32489.33
694.423	32568.42
694.769	32459.27
695.116	32286.62
695.462	32263.35
695.808	32248.43
696.155	32305.15
696.501	32021.77
696.847	31965.05
697.193	31851.38
697.539	31989.91
697.885	31731.38
698.231	31532.52
698.577	31562.12
698.923	31446.64
699.269	31358.51
699.614	31226.09
699.96	31273.77
700.306	31225.63
700.651	31053.21
700.997	31053.66
701.342	31074
701.688	30799.88
702.033	30859.09
702.379	30844.63
702.724	30654.58
703.069	30757.85
703.415	30403.73
703.76	30445.54
704.105	30426.33
704.45	30342.95
704.795	30103.4
705.14	30128.49
705.485	30089.39
705.83	29873.13
706.175	29972.11
706.52	29780.7
706.865	29690.76
707.209	29560.37
707.554	29655.28
707.899	29687.14
708.243	29536.86
708.588	29476.08
708.932	29259.81
709.277	29192.47
709.621	29365.12
709.966	29089.42
710.31	29230.43
710.654	28973.49
710.998	29055.97
711.342	29038.35
711.687	28859.37
712.031	28758.58
712.375	28643.1
712.719	28678.81
713.063	28598.81
713.407	28596.32
713.75	28506.16
714.094	28594.29
714.438	28488.76
714.782	28403.56
715.125	28296.67
715.469	28307.74
715.812	28102.1
716.156	28043.57
716.499	28078.82
716.843	28060.52
717.186	27919.28
717.53	28225.94
717.873	28097.13
718.216	28022.33
718.559	27927.64
718.902	27701.66
719.246	27827.08
719.589	27618.5
719.932	27515.67
720.275	27565.39
720.617	27453.3
720.96	27475.45
721.303	27444.94
721.646	27451.72
721.989	27241.11
722.331	27311.61
722.674	27179.41
723.016	27230.03
723.359	27081.11
723.701	27186.87
724.044	26982.81
724.386	26911.17
724.729	26976.71
725.071	26891.06
725.413	27032.75
725.755	26899.42
726.097	26753.43
726.439	26710.5
726.782	26665.3
727.124	26820.33
727.465	26487.91
727.807	26550.95
728.149	26436.38
728.491	26486.32
728.833	26549.82
729.175	26386.66
729.516	26378.53
729.858	26390.51
730.199	26272.32
730.541	26278.65
730.882	26265.31
731.224	26255.14
731.565	26188.48
731.906	26160.46
732.248	26089.95
732.589	26014.47
732.93	25963.4
733.271	25981.03
733.612	25963.17
733.953	25999.56
734.294	25787.58
734.635	25762.73
734.976	25853.8
735.317	25707.59
735.658	25646.8
735.999	25713.69
736.339	25607.48
736.68	25614.93
737.021	25673.01
737.361	25479.57
737.702	25542.62
738.042	25476.18
738.383	25341.04
738.723	25430.98
739.063	25345.79
739.404	25411.55
739.744	25273.47
740.084	25185.57
740.424	25291.78
740.764	25059.47
741.104	25306.02
741.444	25115.51
741.784	25026.47
742.124	25108.51
742.464	24954.84
742.804	24897.66
743.143	25018.11
743.483	24979.02
743.823	24785.35
744.162	24880.26
744.502	24752.13
744.841	24781.96
745.181	24910.77
745.52	24656.09
745.86	24670.1
746.199	24578.12
746.538	24673.72
746.877	24669.87
747.216	24539.48
747.556	24632.59
747.895	24459.71
748.234	24426.94
748.573	24357.79
748.911	24351.69
749.25	24260.85
749.589	24296.1
749.928	24233.05
750.267	24223.78
750.605	24107.63
750.944	24113.73
751.283	24035.54
751.621	24032.6
751.96	23958.03
752.298	24037.8
752.636	23968.2
752.975	23857.92
753.313	23735.44
753.651	23841.87
753.989	23719.39
754.327	23628.77
754.666	23492.73
755.004	23610.92
755.342	23569.34
755.679	23539.96
756.017	23422.45
756.355	23482.56
756.693	23399.62
757.031	23353.07
757.368	23321.89
757.706	23206.41
758.044	23206.86
758.381	23160.31
758.719	23069.69
759.056	23110.59
759.394	23001.9
759.731	22884.61
760.068	22799.41
760.405	22704.95
760.743	22663.6
761.08	22795.35
761.417	22693.65
761.754	22552.87
762.091	22520.1
762.428	22405.07
762.765	22314
763.102	22268.36
763.438	22236.49
763.775	22190.39
764.112	22115.59
764.449	22097.51
764.785	22088.02
765.122	21893.22
765.458	21836.73
765.795	21786.56
766.131	21687.58
766.467	21590.63
766.804	21563.29
767.14	21442.61
767.476	21478.77
767.812	21375.95
768.148	21400.36
768.485	21245.78
768.821	21171.66
769.157	21178.89
769.492	21075.84
769.828	21061.16
770.164	20899.8
770.5	20761.28
770.836	20720.15
771.171	20724.44
771.507	20624.33
771.842	20452.36
772.178	20476.31
772.513	20458.91
772.849	20356.32
773.184	20207.62
773.519	20263.21
773.855	20158.13
774.19	20143.44
774.525	20036.32
774.86	20026.15
775.195	19951.58
775.53	19839.94
775.865	19797.01
776.2	19676.56
776.535	19526.05
776.87	19613.74
777.205	19413.29
777.539	19318.83
777.874	19426.62
778.209	19215.33
778.543	19277.93
778.878	19136.01
779.212	19080.64
779.547	18978.72
779.881	19026.63
780.215	18747.09
780.55	18884.94
780.884	18698.05
781.218	18674.78
781.552	18651.5
781.886	18636.59
782.22	18478.4
782.554	18415.35
782.888	18229.59
783.222	18209.03
783.556	18044.74
783.889	18009.48
784.223	18015.36
784.557	17948.92
784.89	17851.3
785.224	17745.76
785.557	17720.9
785.891	17755.93
786.224	17698.76
786.558	17690.62
786.891	17508.48
787.224	17447.46
787.557	17306
787.891	17300.35
788.224	17287.47
788.557	17306
788.89	17187.81
789.223	17189.84
789.556	17006.57
789.888	17037.76
790.221	16864.2
790.554	16842.28
790.887	16815.62
791.219	16689.07
791.552	16729.97
791.884	16577.88
792.217	16658.33
792.549	16494.95
792.882	16423.54
793.214	16375.4
793.546	16356.42
793.879	16249.76
794.211	16147.39
794.543	16212.7
794.875	16184.22
795.207	16171.34
795.539	16082.98
795.871	15937
796.203	15802.76
796.535	15810.45
796.867	15773.16
797.198	15783.33
797.53	15761.41
797.862	15638.47
798.193	15637.12
798.525	15558.93
798.856	15589.66
799.188	15384.24
799.519	15407.74
799.85	15337.69
800.182	15325.71
800.513	15332.72
800.844	15157.58
801.175	15274.19
801.506	15265.15
801.837	15090.92
802.168	15147.41
802.499	15008.66
802.83	14903.8
803.161	14914.2
803.491	14932.95
803.822	14807.53
804.153	14758.95
804.483	14648.89
804.814	14617.03
805.145	14631.27
805.475	14560.08
805.805	14525.96
806.136	14583.81
806.466	14484.15
806.796	14416.36
807.126	14361.67
807.457	14294.33
807.787	14407.54
808.117	14238.74
808.447	14257.04
808.777	14197.15
809.107	14203.48
809.436	14115.8
809.766	14085.97
810.096	14092.98
810.426	13928.46
810.755	13941.79
811.085	13966.43
811.414	13865.86
811.744	13779.99
812.073	13765.08
812.403	13778.63
812.732	13695.02
813.061	13570.28
813.39	13607.11
813.719	13528.47
814.049	13647.56
814.378	13611.86
814.707	13520.79
815.036	13478.98
815.365	13437.17
815.693	13350.17
816.022	13317.63
816.351	13283.05
816.68	13192.44
817.008	13336.84
817.337	13138.2
817.665	13103.4
817.994	13078.77
818.322	13088.26
818.651	13075.38
818.979	13053.91
819.307	13044.64
819.636	13013.68
819.964	12883.97
820.292	12974.36
820.62	12969.16
820.948	12949.73
821.276	12897.53
821.604	12954.25
821.932	12945.89
822.259	12940.46
822.587	12899.56
822.915	12798.32
823.243	12941.37
823.57	12819.79
823.898	12854.59
824.225	12796.51
824.553	12770.3
824.88	12729.4
825.207	12946.79
825.535	12805.55
825.862	12893.01
826.189	12745.67
826.516	12897.3
826.843	12907.7
827.17	12853.69
827.497	12858.89
827.824	12852.11
828.151	12842.61
828.478	12845.55
828.805	12830.64
829.131	12826.34
829.458	12805.33
829.785	12775.05
830.111	12852.56
830.438	12896.17
830.764	12830.86
831.09	12797.42
831.417	12800.13
831.743	12791.54
832.069	12842.39
832.395	12795.61
832.722	12737.08
833.048	12770.98
833.374	12733.92
833.7	12732.56
834.026	12638.33
834.351	12685.56
834.677	12712.67
835.003	12704.99
835.329	12715.16
835.654	12642.39
835.98	12613.47
836.306	12591.55
836.631	12604.65
836.956	12598.33
837.282	12522.4
837.607	12515.62
837.932	12480.14
838.258	12493.92
838.583	12389.74
838.908	12381.38
839.233	12384.32
839.558	12346.58
839.883	12401.04
840.208	12320.82
840.533	12359.92
840.858	12258.9
841.182	12248.73
841.507	12292.35
841.832	12264.78
842.156	12192.24
842.481	12198.11
842.805	12207.6
843.13	12098.23
843.454	12081.96
843.778	12022.75
844.103	11943.65
844.427	11935.29
844.751	12031.11
845.075	11920.6
845.399	11877.44
845.723	11841.96
846.047	11764.68
846.371	11735.3
846.695	11697.79
847.019	11618.69
847.343	11583.44
847.666	11529.2
847.99	11546.83
848.313	11473.61
848.637	11439.71
848.96	11356.33
849.284	11365.37
849.607	11248.53
849.931	11249.89
850.254	11199.95
850.577	11181.87
850.9	11161.53
851.223	11125.82
851.546	10970.57
851.869	10999.05
852.192	11023.23
852.515	10893.51
852.838	10906.85
853.161	10836.11
853.483	10795.21
853.806	10713.18
854.129	10744.82
854.451	10620.07
854.774	10650.36
855.096	10602
855.419	10585.27
855.741	10470.93
856.063	10498.72
856.385	10388.89
856.708	10422.11
857.03	10387.99
857.352	10350.7
857.674	10344.15
857.996	10358.61
858.318	10241.33
858.64	10262.34
858.961	10211.72
859.283	10253.98
859.605	10125.85
859.926	10185.74
860.248	10121.56
860.57	10085.17
860.891	10133.98
861.212	10056.02
861.534	10016.93
861.855	9976.93
862.176	10030.26
862.498	10016.7
862.819	9948.91
863.14	9823.03
863.461	9917.95
863.782	9884.27
864.103	9926.31
864.424	9857.83
864.745	9877.72
865.065	9791.17
865.386	9768.12
865.707	9792.53
866.027	9747.78
866.348	9769.02
866.668	9684.96
866.989	9668.01
867.309	9625.75
867.63	9658.74
867.95	9625.52
868.27	9586.43
868.59	9540.78
868.91	9590.27
869.23	9543.49
869.55	9527.45
869.87	9542.14
870.19	9486.77
870.51	9448.35
870.83	9543.94
871.15	9429.37
871.469	9487.9
871.789	9454.68
872.109	9420.56
872.428	9396.38
872.748	9472.76
873.067	9407.45
873.386	9476.6
873.706	9438.64
874.025	9360.22
874.344	9340.11
874.663	9355.02
874.982	9334.68
875.301	9316.15
875.62	9259.66
875.939	9193.22
876.258	9140.34
876.577	9197.51
876.896	9269.83
877.214	9167.23
877.533	9136.72
877.852	9167.46
878.17	9115.93
878.489	9130.62
878.807	9091.3
879.125	9130.62
879.444	9129.27
879.762	9035.48
880.08	9007.46
880.398	9008.14
880.716	9079.1
881.034	8995.48
881.352	9065.76
881.67	8937.41
881.988	9008.59
882.306	8953.68
882.624	8911.64
882.941	8920.23
883.259	8849.27
883.577	8875.26
883.894	8830.52
884.212	8799.78
884.529	8740.12
884.846	8698.09
885.164	8767.69
885.481	8730.18
885.798	8712.1
886.115	8607.25
886.432	8671.65
886.75	8638.88
887.067	8614.02
887.383	8561.82
887.7	8571.09
888.017	8512.78
888.334	8566.12
888.651	8498.32
888.967	8428.95
889.284	8447.02
889.6	8444.76
889.917	8375.84
890.233	8372.9
890.55	8341.49
890.866	8345.56
891.182	8342.39
891.498	8330.87
891.815	8301.49
892.131	8218.33
892.447	8237.76
892.763	8167.26
893.079	8194.83
893.395	8123.19
893.71	8092.68
894.026	8147.37
894.342	8072.8
894.657	8049.29
894.973	8037.99
895.289	8012.01
895.604	7992.8
895.92	7912.57
896.235	7913.93
896.55	7894.04
896.865	7915.74
897.181	7885.23
897.496	7836.19
897.811	7854.04
898.126	7731.79
898.441	7736.31
898.756	7719.13
899.071	7703.31
899.386	7707.16
899.7	7600.49
900.015	7558.01
900.33	7559.14
900.644	7544.9
900.959	7541.28
901.273	7518.46
901.588	7536.31
901.902	7524.56
902.216	7397.79
902.531	7358.24
902.845	7404.11
903.159	7302.2
903.473	7273.95
903.787	7307.62
904.101	7272.59
904.415	7238.92
904.729	7206.6
905.042	7166.38
905.356	7072.6
905.67	7174.51
905.984	7135.87
906.297	7021.3
906.611	7011.36
906.924	7000.96
907.237	7024.01
907.551	6984.46
907.864	6938.36
908.177	6912.6
908.491	6858.36
908.804	6894.97
909.117	6778.37
909.43	6760.74
909.743	6700.4
910.056	6754.19
910.368	6707.63
910.681	6680.52
910.994	6632.61
911.307	6661.99
911.619	6581.54
911.932	6612.5
912.244	6607.52
912.557	6540.18
912.869	6527.75
913.181	6467.19
913.494	6482.33
913.806	6421.54
914.118	6378.83
914.43	6382.22
914.742	6322.56
915.054	6310.81
915.366	6306.06
915.678	6271.71
915.99	6233.75
916.302	6241.43
916.613	6170.25
916.925	6151.26
917.236	6165.73
917.548	6091.83
917.859	6072.85
918.171	6047.99
918.482	6015.9
918.794	6007.09
919.105	5961.89
919.416	5964.6
919.727	5934.32
920.038	5947.88
920.349	5913.3
920.66	5830.14
920.971	5891.38
921.282	5865.62
921.593	5811.16
921.903	5750.82
922.214	5739.52
922.525	5722.8
922.835	5724.61
923.146	5674.67
923.456	5655.46
923.767	5626.98
924.077	5635.57
924.387	5613.43
924.697	5568.68
925.008	5612.52
925.318	5557.61
925.628	5491.4
925.938	5507.21
926.248	5480.1
926.558	5432.41
926.867	5417.5
927.177	5339.53
927.487	5391.51
927.796	5281.46
928.106	5316.48
928.416	5247.11
928.725	5270.61
929.034	5230.84
929.344	5255.47
929.653	5221.8
929.962	5158.3
930.271	5168.92
930.581	5167.11
930.89	5068.81
931.199	5090.28
931.508	5108.35
931.817	5061.35
932.125	5049.82
932.434	5016.61
932.743	4911.75
933.051	4941.81
933.36	4885.76
933.669	4892.99
933.977	4869.72
934.286	4874.91
934.594	4865.2
934.902	4816.84
935.21	4788.14
935.519	4777.97
935.827	4779.1
936.135	4761.02
936.443	4740
936.751	4685.54
937.059	4683.28
937.367	4643.73
937.674	4660
937.982	4627.46
938.29	4682.6
938.597	4606.9
938.905	4577.97
939.213	4506.79
939.52	4567.35
939.827	4566
940.135	4508.37
940.442	4448.71
940.749	4464.08
941.056	4450.74
941.363	4411.2
941.67	4401.48
941.977	4396.51
942.284	4350.41
942.591	4329.39
942.898	4353.12
943.205	4327.81
943.511	4263.63
943.818	4265.44
944.125	4240.58
944.431	4238.55
944.738	4201.03
945.044	4202.62
945.35	4172.56
945.657	4207.36
945.963	4128.49
946.269	4081.71
946.575	4113.8
946.881	4112.9
947.187	4101.15
947.493	4071.77
947.799	4021.15
948.105	4042.62
948.41	4034.71
948.716	4005.11
949.022	3991.32
949.327	3953.36
949.633	3930.08
949.938	3917.88
950.244	3928.05
950.549	3882.17
950.854	3854.6
951.16	3877.88
951.465	3862.96
951.77	3825.68
952.075	3835.17
952.38	3806.69
952.685	3805.79
952.99	3727.15
953.294	3744.77
953.599	3745
953.904	3771.89
954.209	3692.8
954.513	3712.23
954.818	3655.51
955.122	3686.92
955.426	3610.77
955.731	3622.97
956.035	3613.25
956.339	3575.29
956.643	3622.97
956.948	3603.31
957.252	3549.53
957.556	3552.69
957.86	3506.14
958.163	3491.9
958.467	3498.45
958.771	3512.69
959.075	3497.32
959.378	3454.61
959.682	3413.94
959.985	3416.2
960.289	3407.38
960.592	3358.8
960.896	3384.56
961.199	3367.61
961.502	3394.28
961.805	3289.19
962.108	3301.17
962.411	3275.18
962.714	3231.34
963.017	3287.16
963.32	3231.79
963.623	3245.8
963.926	3277.89
964.228	3253.71
964.531	3203.77
964.833	3205.35
965.136	3149.99
965.438	3182.76
965.741	3116.54
966.043	3124.68
966.345	3108.18
966.648	3101.4
966.95	3075.19
967.252	3030.67
967.554	3038.35
967.856	3061.4
968.158	2994.74
968.46	3031.57
968.761	2999.48
969.063	3007.39
969.365	2968.75
969.666	2995.42
969.968	2915.42
970.269	2926.72
970.571	2929.65
970.872	2917.9
971.174	2887.4
971.475	2904.8
971.776	2890.79
972.077	2860.05
972.378	2864.12
972.679	2864.8
972.98	2859.37
973.281	2841.07
973.582	2810.34
973.883	2763.78
974.183	2821.18
974.484	2786.38
974.785	2770.11
975.085	2731.02
975.386	2756.78
975.686	2722.43
975.986	2701.19
976.287	2669.1
976.587	2725.82
976.887	2682.66
977.187	2677.46
977.487	2693.28
977.787	2634.3
978.087	2613.5
978.387	2616.22
978.687	2615.09
978.987	2620.28
979.286	2596.56
979.586	2558.59
979.885	2573.73
980.185	2564.01
980.484	2549.55
980.784	2542.09
981.083	2520.85
981.382	2500.97
981.682	2514.3
981.981	2494.41
982.28	2497.12
982.579	2432.27
982.878	2460.74
983.177	2458.25
983.475	2464.81
983.774	2424.36
984.073	2390.69
984.372	2380.74
984.67	2382.32
984.969	2394.53
985.267	2402.21
985.566	2364.02
985.864	2331.7
986.162	2350.46
986.461	2338.71
986.759	2336.9
987.057	2286.73
987.355	2283.57
987.653	2262.1
987.951	2278.82
988.249	2288.32
988.547	2255.77
988.844	2231.82
989.142	2255.32
989.44	2208.32
989.737	2224.81
990.035	2218.03
990.332	2206.51
990.63	2193.4
990.927	2184.59
991.224	2167.87
991.521	2182.56
991.819	2151.37
992.116	2147.75
992.413	2142.56
992.71	2134.65
993.006	2124.93
993.303	2118.38
993.6	2103.24
993.897	2106.4
994.193	2100.3
994.49	2061.88
994.787	2066.4
995.083	2049.45
995.379	2034.54
995.676	2035.44
995.972	2011.49
996.268	2030.24
996.565	1985.95
996.861	1968.55
997.157	2011.71
997.453	1978.49
997.749	1924.94
998.044	1963.13
998.34	1958.83
998.636	1937.14
998.932	1924.94
999.227	1878.61
999.523	1892.39
999.818	1906.4
1000.114	1876.12
1000.409	1873.64
1000.704	1850.59
1001	1847.2
1001.295	1828.67
1001.59	1839.51
1001.885	1860.76
1002.18	1841.77
1002.475	1814.88
1002.77	1782.57
1003.065	1754.54
1003.359	1793.19
1003.654	1757.03
1003.949	1733.75
1004.243	1755
1004.538	1757.26
1004.832	1757.71
1005.127	1752.51
1005.421	1735.11
1005.715	1708.44
1006.009	1698.73
1006.304	1667.54
1006.598	1679.97
1006.892	1656.02
1007.186	1647.43
1007.48	1639.07
1007.773	1641.55
1008.067	1638.39
1008.361	1614.21
1008.655	1609.24
1008.948	1627.09
1009.242	1589.8
1009.535	1581.67
1009.829	1553.65
1010.122	1565.62
1010.415	1565.85
1010.708	1547.54
1011.001	1558.39
1011.295	1536.02
1011.588	1570.59
1011.881	1508.45
1012.173	1499.86
1012.466	1505.74
1012.759	1484.27
1013.052	1508.9
1013.344	1461.67
1013.637	1483.36
1013.93	1441.33
1014.222	1451.5
1014.514	1457.38
1014.807	1436.59
1015.099	1416.47
1015.391	1428.45
1015.683	1436.13
1015.976	1388.68
1016.268	1377.61
1016.56	1356.36
1016.851	1399.07
1017.143	1386.19
1017.435	1380.99
1017.727	1355.23
1018.018	1339.41
1018.31	1357.72
1018.602	1343.48
1018.893	1323.37
1019.185	1307.1
1019.476	1302.8
1019.767	1288.12
1020.058	1270.26
1020.35	1296.7
1020.641	1298.06
1020.932	1260.09
1021.223	1257.83
1021.514	1236.59
1021.804	1253.54
1022.095	1222.35
1022.386	1237.5
1022.677	1225.29
1022.967	1211.73
1023.258	1183.03
1023.548	1185.75
1023.839	1232.07
1024.129	1190.27
1024.419	1157.5
1024.709	1181.9
1025	1171.28
1025.29	1159.76
1025.58	1146.42
1025.87	1135.58
1026.16	1128.35
1026.449	1122.7
1026.739	1121.34
1027.029	1111.62
1027.319	1104.62
1027.608	1112.98
1027.898	1131.06
1028.187	1085.64
1028.477	1080.21
1028.766	1064.62
1029.055	1077.05
1029.344	1054.45
1029.634	1030.04
1029.923	1035.47
1030.212	1065.07
1030.501	1029.82
1030.79	1020.1
1031.078	1026.2
1031.367	994.56
1031.656	1031.63
1031.945	1025.52
1032.233	992.3
1032.522	1003.83
1032.81	958.63
1033.099	965.41
1033.387	985.07
1033.675	963.83
1033.963	951.4
1034.251	961.57
1034.54	954.79
1034.828	951.4
1035.116	906.88
1035.403	929.48
1035.691	933.55
1035.979	888.13
1036.267	925.87
1036.554	912.08
1036.842	920.22
1037.129	866.21
1037.417	900.56
1037.704	898.3
1037.992	901.69
1038.279	867.34
1038.566	846.32
1038.853	846.32
1039.14	846.32
