Data from hue_120_FLMS001491_00087.txt Node
Date: Tue Feb 07 17:00:09 GMT 2017
User: dcchb
Spectrometer: FLMS00149
Trigger mode: 0
Integration Time (sec): 2.000000E-2
Scans to average: 10
Electric dark correction enabled: true
Nonlinearity correction enabled: false
Boxcar width: 0
XAxis mode: Wavelengths
Number of Pixels in Spectrum: 2048
>>>>>Begin Spectral Data<<<<<
341.393	-19.7
341.776	-19.7
342.16	-19.7
342.543	-54.73
342.927	-65.58
343.31	-49.98
343.693	-59.93
344.077	-60.83
344.46	-44.11
344.843	-66.93
345.226	-39.14
345.61	-46.59
345.993	-11.34
346.376	-14.51
346.759	10.58
347.142	-3.21
347.525	34.53
347.908	68.43
348.291	66.85
348.674	106.85
349.057	109.33
349.44	125.83
349.823	140.97
350.206	165.15
350.588	172.61
350.971	231.59
351.354	228.88
351.737	253.96
352.119	230.69
352.502	277.69
352.884	257.13
353.267	307.97
353.65	286.05
354.032	306.62
354.414	305.94
354.797	319.72
355.179	321.98
355.562	315.88
355.944	308.42
356.326	313.17
356.709	337.12
357.091	356.11
357.473	326.05
357.855	330.57
358.238	338.25
358.62	346.39
359.002	335.09
359.384	345.49
359.766	314.53
360.148	328.08
360.53	348.88
360.912	341.19
361.294	323.11
361.676	330.34
362.057	329.21
362.439	330.12
362.821	332.38
363.203	336.45
363.584	322.66
363.966	309.55
364.348	308.2
364.729	325.6
365.111	310.91
365.493	334.64
365.874	310.23
366.256	320.63
366.637	316.11
367.019	327.63
367.4	302.77
367.781	329.89
368.163	331.02
368.544	290.35
368.925	306.62
369.306	323.56
369.688	319.05
370.069	292.83
370.45	336.45
370.831	304.36
371.212	308.42
371.593	308.65
371.974	321.53
372.355	310.23
372.736	318.37
373.117	311.14
373.498	317.24
373.879	298.93
374.26	326.73
374.641	301.64
375.021	315.43
375.402	320.63
375.783	314.75
376.163	331.47
376.544	357.24
376.925	336.45
377.305	327.86
377.686	324.69
378.066	334.64
378.447	345.49
378.827	328.76
379.208	350.91
379.588	324.69
379.968	346.84
380.349	333.51
380.729	340.29
381.109	340.51
381.489	352.94
381.87	324.69
382.25	342.55
382.63	356.33
383.01	350.91
383.39	369.44
383.77	351.36
384.15	344.81
384.53	354.07
384.91	336.67
385.29	365.15
385.67	367.41
386.049	349.78
386.429	341.19
386.809	362.89
387.189	358.82
387.568	368.31
387.948	363.79
388.328	363.79
388.707	374.86
389.087	364.47
389.466	376.9
389.846	348.42
390.225	378.03
390.605	391.13
390.984	383.9
391.363	359.72
391.743	369.89
392.122	376.44
392.501	387.07
392.881	373.73
393.26	382.09
393.639	383.22
394.018	378.03
394.397	407.63
394.776	395.88
395.155	399.04
395.534	393.62
395.913	385.94
396.292	405.37
396.671	400.4
397.05	424.58
397.429	401.08
397.808	378.25
398.186	392.04
398.565	410.79
398.944	414.64
399.323	413.73
399.701	434.52
400.08	421.19
400.458	404.69
400.837	409.21
401.215	437.69
401.594	437.69
401.972	430.45
402.351	433.17
402.729	424.13
403.107	449.21
403.486	449.44
403.864	450.57
404.242	459.15
404.62	434.75
404.999	458.25
405.377	453.51
405.755	452.6
406.133	448.76
406.511	460.51
406.889	459.38
407.267	468.42
407.645	454.63
408.023	486.5
408.401	462.09
408.779	472.26
409.156	488.98
409.534	475.2
409.912	487.63
410.29	495.76
410.667	480.4
411.045	502.09
411.422	513.16
411.8	498.02
412.178	503.67
412.555	501.19
412.933	505.03
413.31	531.02
413.687	531.7
414.065	523.56
414.442	542.77
414.819	503.22
415.197	518.81
415.574	537.12
415.951	517.46
416.328	573.05
416.705	556.33
417.082	541.41
417.46	580.51
417.837	551.36
418.214	568.53
418.591	534.18
418.967	551.13
419.344	562.2
419.721	591.81
420.098	579.38
420.475	590
420.852	591.81
421.228	605.82
421.605	591.81
421.982	604.01
422.358	611.02
422.735	616.44
423.111	624.12
423.488	627.06
423.864	650.11
424.241	624.35
424.617	621.41
424.994	623.44
425.37	611.02
425.746	634.29
426.123	646.72
426.499	650.34
426.875	636.1
427.251	677.68
427.627	653.05
428.003	688.53
428.379	685.36
428.756	673.16
429.132	683.33
429.507	686.27
429.883	704.12
430.259	695.08
430.635	703.44
431.011	715.19
431.387	720.16
431.763	721.07
432.138	730.11
432.514	741.86
432.89	779.37
433.265	775.98
433.641	766.72
434.016	746.83
434.392	801.52
434.767	800.84
435.143	785.02
435.518	794.74
435.894	822.53
436.269	828.86
436.644	815.3
437.02	833.61
437.395	853.04
437.77	849.65
438.145	861.63
438.52	859.14
438.895	867.73
439.271	869.31
439.646	889.2
440.021	898.01
440.395	906.6
440.77	925.13
441.145	877.22
441.52	895.98
441.895	919.26
442.27	928.75
442.645	940.27
443.019	942.53
443.394	913.61
443.769	939.59
444.143	954.51
444.518	966.71
444.892	971.91
445.267	975.53
445.641	989.54
446.016	997.9
446.39	987.5
446.764	975.53
447.139	987.95
447.513	991.57
447.887	987.73
448.262	1005.13
448.636	1028.41
449.01	1033.83
449.384	1022.3
449.758	1017.56
450.132	1055.75
450.506	1051.23
450.88	1077.9
451.254	1083.09
451.628	1089.87
452.002	1104.79
452.376	1129.19
452.75	1104.34
453.123	1149.08
453.497	1155.86
453.871	1151.79
454.244	1154.96
454.618	1156.31
454.992	1189.98
455.365	1192.69
455.739	1233.37
456.112	1209.42
456.486	1241.51
456.859	1256.2
457.232	1241.51
457.606	1272.69
457.979	1271.79
458.352	1295.97
458.725	1335.06
459.099	1348.4
459.472	1361.5
459.845	1375.06
460.218	1400.82
460.591	1376.19
460.964	1421.84
461.337	1425.91
461.71	1489.64
462.083	1496.87
462.456	1490.54
462.829	1482.86
463.201	1537.32
463.574	1519.24
463.947	1604.66
464.32	1571.44
464.692	1635.62
465.065	1627.26
465.438	1617.54
465.81	1688.05
466.183	1725.79
466.555	1749.29
466.928	1735.51
467.3	1755.17
467.672	1796.52
468.045	1837.88
468.417	1887.82
468.789	1855.05
469.161	1915.61
469.534	1929.17
469.906	1984.99
470.278	1996.74
470.65	2019.34
471.022	2079
471.394	2135.72
471.766	2106.34
472.138	2156.06
472.51	2212.55
472.882	2274.47
473.253	2287.81
473.625	2360.12
473.997	2430.63
474.369	2446
474.74	2521.25
475.112	2587.91
475.484	2597.4
475.855	2670.4
476.227	2708.81
476.598	2831.75
476.97	2855.25
477.341	2955.36
477.713	3008.01
478.084	3055.02
478.455	3162.13
478.827	3241.68
479.198	3358.51
479.569	3372.3
479.94	3483.93
480.311	3547.66
480.682	3660.88
481.053	3768.45
481.424	3878.95
481.795	3947.2
482.166	4039.4
482.537	4132.73
482.908	4339.05
483.279	4393.51
483.65	4507.41
484.021	4602.77
484.391	4684.35
484.762	4812.26
485.133	4927.74
485.503	5042.31
485.874	5196.21
486.244	5302.87
486.615	5458.12
486.985	5586.7
487.356	5736.53
487.726	5849.3
488.097	6013.81
488.467	6139.23
488.837	6273.92
489.207	6455.61
489.578	6581.48
489.948	6687.01
490.318	6842.49
490.688	6976.27
491.058	7128.36
491.428	7230.73
491.798	7399.54
492.168	7634.33
492.538	7783.48
492.908	7897.38
493.278	8072.97
493.648	8163.36
494.017	8296.01
494.387	8489.23
494.757	8656
495.126	8754.53
495.496	8853.28
495.866	8945.49
496.235	9133.28
496.605	9324.01
496.974	9382.08
497.344	9549.31
497.713	9646.48
498.082	9756.99
498.452	9950.88
498.821	10034.72
499.19	10153.59
499.559	10198.56
499.928	10370.53
500.298	10422.96
500.667	10595.84
501.036	10687.36
501.405	10839.67
501.774	10846.9
502.143	11033.79
502.512	11080.8
502.88	11196.05
503.249	11317.4
503.618	11377.51
503.987	11453.44
504.356	11508.36
504.724	11697.96
505.093	11736.6
505.462	11798.29
505.83	11866.54
506.199	12026.08
506.567	12248.45
506.936	12228.79
507.304	12354.21
507.672	12362.57
508.041	12477.82
508.409	12659.96
508.777	12632.85
509.145	12777.02
509.514	12824.93
509.882	12838.72
510.25	12936.79
510.618	13004.14
510.986	13046.62
511.354	13137.92
511.722	13334.52
512.09	13377.91
512.458	13330.91
512.826	13494.29
513.193	13552.37
513.561	13511.69
513.929	13700.84
514.297	13700.16
514.664	13799.37
515.032	13814.51
515.4	13850.44
515.767	13919.37
516.135	13941.74
516.502	13863.32
516.869	14101.73
517.237	14195.29
517.604	14014.05
517.972	14238
518.339	14275.06
518.706	14291.79
519.073	14354.83
519.44	14447.49
519.808	14563.19
520.175	14409.52
520.542	14641.38
520.909	14632.12
521.276	14628.27
521.643	14703.3
522.009	14770.64
522.376	14724.09
522.743	14813.35
523.11	14969.73
523.477	15041.14
523.843	15066.91
524.21	15162.27
524.577	15152.33
524.943	15148.71
525.31	15182.84
525.676	15376.95
526.043	15404.98
526.409	15357.97
526.776	15536.05
527.142	15492.66
527.508	15555.93
527.874	15560
528.241	15543.5
528.607	15606.33
528.973	15651.75
529.339	15582.82
529.705	15711.18
530.071	15800.9
530.437	15729.71
530.803	15776.04
531.169	15820.78
531.535	15806.32
531.901	15745.98
532.267	15771.29
532.632	15826.89
532.998	15830.5
533.364	15799.09
533.73	15797.51
534.095	15896.94
534.461	15837.06
534.826	15897.84
535.192	15822.37
535.557	15850.84
535.923	15707.57
536.288	15799.54
536.653	15768.36
537.019	15721.13
537.384	15760.9
537.749	15828.24
538.114	15702.14
538.479	15661.92
538.845	15707.79
539.21	15657.4
539.575	15707.34
539.94	15599.77
540.305	15615.59
540.67	15594.8
541.034	15552.54
541.399	15564.97
541.764	15519.1
542.129	15434.58
542.494	15592.77
542.858	15552.09
543.223	15442.72
543.587	15599.77
543.952	15369.05
544.316	15339.44
544.681	15302.83
545.045	15299.89
545.41	15353.9
545.774	15382.83
546.138	15241.14
546.503	15198.65
546.867	15216.51
547.231	15321.59
547.595	15353.45
547.959	15247.92
548.324	15103.52
548.688	15164.76
549.052	15115.27
549.416	15139.45
549.779	15073.23
550.143	14999.79
550.507	15057.41
550.871	15118.66
551.235	15011.54
551.599	15081.82
551.962	14983.97
552.326	14998.21
552.689	15002.05
553.053	14905.33
553.417	14841.6
553.78	15007.02
554.143	14840.25
554.507	14925.44
554.87	14894.48
555.234	14987.13
555.597	14892.9
555.96	14852.67
556.323	14867.59
556.686	14831.88
557.05	14916.4
557.413	14954.82
557.776	14883.86
558.139	14854.93
558.502	14946.23
558.865	14888.38
559.228	14891.32
559.59	14856.52
559.953	14847.48
560.316	14950.75
560.679	14882.05
561.041	14962.28
561.404	14873.01
561.767	14954.59
562.129	14851.09
562.492	15033.01
562.854	14921.6
563.217	14926.57
563.579	14970.86
563.941	15050.64
564.304	15096.28
564.666	15166.11
565.028	15152.1
565.39	15122.72
565.753	15117.75
566.115	15197.3
566.477	15250.63
566.839	15170.18
567.201	15304.64
567.563	15263.06
567.925	15287.47
568.287	15288.82
568.648	15240.01
569.01	15383.51
569.372	15350.06
569.734	15297.86
570.095	15364.07
570.457	15412.43
570.819	15478.42
571.18	15379.89
571.542	15470.06
571.903	15452.43
572.265	15510.74
572.626	15557.51
572.987	15527.46
573.349	15557.29
573.71	15607.68
574.071	15640.22
574.432	15642.94
574.794	15722.48
575.155	15722.71
575.516	15672.54
575.877	15607
576.238	15747.79
576.599	15701.24
576.96	15697.85
577.32	15749.83
577.681	15729.71
578.042	15767.68
578.403	15675.03
578.763	15641.35
579.124	15730.62
579.485	15794.12
579.845	15861.91
580.206	15666.21
580.566	15763.84
580.927	15807.45
581.287	15850.39
581.648	15816.04
582.008	15796.38
582.368	15896.71
582.728	15929.03
583.089	15869.6
583.449	15874.57
583.809	15725.87
584.169	15751.18
584.529	15756.15
584.889	15750.05
585.249	15697.4
585.609	15641.58
585.969	15772.42
586.329	15679.77
586.688	15654.46
587.048	15648.36
587.408	15676.61
587.768	15625.31
588.127	15578.98
588.487	15553
588.846	15700.11
589.206	15614.24
589.565	15588.93
589.925	15613.78
590.284	15612.43
590.643	15643.84
591.003	15625.76
591.362	15562.49
591.721	15616.04
592.08	15647
592.44	15567.46
592.799	15743.95
593.158	15598.19
593.517	15634.12
593.876	15637.29
594.235	15518.19
594.593	15616.04
594.952	15620.56
595.311	15592.32
595.67	15513.45
596.029	15632.77
596.387	15729.49
596.746	15667.12
597.104	15579.21
597.463	15559.1
597.822	15649.72
598.18	15513.67
598.538	15508.48
598.897	15556.38
599.255	15464.18
599.613	15654.01
599.972	15525.88
600.33	15508.25
600.688	15476.61
601.046	15598.19
601.404	15705.99
601.762	15623.05
602.12	15665.99
602.478	15605.42
602.836	15658.75
603.194	15604.52
603.552	15646.1
603.91	15539.89
604.268	15587.57
604.625	15505.99
604.983	15534.69
605.341	15475.26
605.698	15564.52
606.056	15631.19
606.413	15568.81
606.771	15663.5
607.128	15654.46
607.485	15505.99
607.843	15552.77
608.2	15710.5
608.557	15710.5
608.914	15674.57
609.272	15773.78
609.629	15794.8
609.986	15821.01
610.343	15821.24
610.7	15877.51
611.057	15825.53
611.414	15759.54
611.771	15821.46
612.127	15772.42
612.484	15740.11
612.841	15845.64
613.198	15779.66
613.554	15807.23
613.911	15901.23
614.267	15838.64
614.624	15894.68
614.98	15941.91
615.337	15961.12
615.693	15898.75
616.05	15973.32
616.406	16072.08
616.762	15895.36
617.118	15956.6
617.475	15980.33
617.831	15995.92
618.187	16124.73
618.543	16071.4
618.899	16103.49
619.255	15980.33
619.611	16117.05
619.967	16071.17
620.323	16149.59
620.678	16037.28
621.034	16060.1
621.39	16031.4
621.746	16056.03
622.101	16232.98
622.457	16073.89
622.812	16126.09
623.168	16154.11
623.523	16202.92
623.879	16157.5
624.234	16060.33
624.589	16213.54
624.945	16238.17
625.3	16187.1
625.655	16127.22
626.01	16123.83
626.365	16096.48
626.72	16077.28
627.075	16096.48
627.43	16110.72
627.785	15946.88
628.14	16129.03
628.495	16062.59
628.85	16048.12
629.205	15988.46
629.559	16063.94
629.914	16065.75
630.269	16020.33
630.623	16055.58
630.978	15932.87
631.332	15993.44
631.687	16064.85
632.041	16041.34
632.396	15975.36
632.75	15912.53
633.104	15861.46
633.459	15916.83
633.813	15857.62
634.167	15709.6
634.521	15822.59
634.875	15761.58
635.229	15784.18
635.583	15739.88
635.937	15784.85
636.291	15681.13
636.645	15796.6
636.999	15717.96
637.352	15694.01
637.706	15618.08
638.06	15676.16
638.413	15568.59
638.767	15645.65
639.121	15580.79
639.474	15487.23
639.828	15560.68
640.181	15597.74
640.534	15625.31
640.888	15529.94
641.241	15414.02
641.594	15538.31
641.947	15571.07
642.301	15505.31
642.654	15542.83
643.007	15441.81
643.36	15496.05
643.713	15441.59
644.066	15492.43
644.419	15323.62
644.771	15286.79
645.124	15113.46
645.477	15179.67
645.83	15075.49
646.182	15010.86
646.535	14888.61
646.888	14964.08
647.24	14835.73
647.593	14962.28
647.945	14920.92
648.298	14927.25
648.65	14808.61
649.002	14834.14
649.355	14937.19
649.707	14873.69
650.059	14946.01
650.411	15173.8
650.763	15159.33
651.115	15360.23
651.467	15204.53
651.819	15228.48
652.171	15203.85
652.523	15251.31
652.875	15183.97
653.227	15094.02
653.578	15294.24
653.93	15176.06
654.282	15140.8
654.633	15138.32
654.985	15125.21
655.337	15170.63
655.688	15221.48
656.039	15216.05
656.391	15123.63
656.742	15147.13
657.094	15101.48
657.445	15177.86
657.796	15151.88
658.147	15174.47
658.498	15195.49
658.849	15222.38
659.2	15107.81
659.551	15246.56
659.902	15228.03
660.253	15174.93
660.604	15177.64
660.955	15113.23
661.306	15282.27
661.656	15187.13
662.007	15215.6
662.358	15210.86
662.708	15147.36
663.059	15143.06
663.409	15101.93
663.76	15258.77
664.11	15226.22
664.461	15207.92
664.811	15228.71
665.161	15220.8
665.511	15240.01
665.862	15121.14
666.212	15191.87
666.562	15181.93
666.912	15146.45
667.262	15152.1
667.612	15289.27
667.962	15212.44
668.312	15227.35
668.662	15299.44
669.011	15218.31
669.361	15241.14
669.711	15159.11
670.06	15123.18
670.41	15203.63
670.76	15111.65
671.109	15237.98
671.459	15129.73
671.808	15083.85
672.157	15101.71
672.507	14970.64
672.856	15090.63
673.205	15050.86
673.554	15168.37
673.904	15020.58
674.253	15186.22
674.602	15052.22
674.951	14882.28
675.3	14770.87
675.649	14949.62
675.998	14939
676.346	14953.91
676.695	15059.9
677.044	14906.91
677.393	14916.4
677.741	14924.99
678.09	14870.98
678.438	14851.09
678.787	14950.98
679.135	14869.4
679.484	14794.37
679.832	14854.93
680.181	14768.38
680.529	14781.04
680.877	14755.5
681.225	14745.11
681.573	14736.29
681.922	14643.41
682.27	14614.71
682.618	14661.72
682.966	14521.61
683.314	14593.92
683.661	14519.12
684.009	14470.54
684.357	14369.3
684.705	14459.69
685.053	14422.63
685.4	14444.55
685.748	14330.65
686.095	14399.35
686.443	14331.56
686.79	14266.02
687.138	14326.13
687.485	14250.66
687.832	14264.22
688.18	14226.7
688.527	14165.46
688.874	14070.77
689.221	14038.01
689.568	13994.17
689.915	14046.82
690.262	13952.59
690.609	13952.81
690.956	13858.58
691.303	13851.12
691.65	13692.25
691.997	13776.77
692.344	13704.68
692.69	13629.88
693.037	13620.16
693.383	13527.06
693.73	13478.7
694.077	13373.17
694.423	13404.35
694.769	13398.48
695.116	13291.36
695.462	13328.87
695.808	13220.85
696.155	13346.27
696.501	13238.93
696.847	13184.47
697.193	13004.36
697.539	13137.69
697.885	12989.9
698.231	13030.8
698.577	13012.72
698.923	12885.72
699.269	12736.57
699.614	12806.85
699.96	12697.48
700.306	12742.67
700.651	12689.57
700.997	12625.16
701.342	12598.27
701.688	12520.08
702.033	12469.46
702.379	12492.51
702.724	12513.98
703.069	12480.99
703.415	12316.02
703.76	12337.03
704.105	12257.71
704.45	12267.43
704.795	12247.55
705.14	12059.3
705.485	12085.74
705.83	12045.52
706.175	12017.49
706.52	12017.04
706.865	12053.43
707.209	11949.25
707.554	11922.13
707.899	11913.99
708.243	11840.78
708.588	11834.67
708.932	11734.56
709.277	11701.8
709.621	11755.35
709.966	11667.9
710.31	11672.19
710.654	11565.08
710.998	11592.2
711.342	11601.23
711.687	11521.91
712.031	11498.19
712.375	11423.39
712.719	11502.93
713.063	11462.26
713.407	11432.43
713.75	11463.39
714.094	11337.51
714.438	11324.18
714.782	11385.42
715.125	11279.21
715.469	11382.48
715.812	11262.49
716.156	11206.22
716.499	11204.63
716.843	11229.27
717.186	11124.41
717.53	11151.98
717.873	11211.64
718.216	11102.94
718.559	11073.79
718.902	11021.14
719.246	11082.83
719.589	11038.31
719.932	11007.35
720.275	10923.51
720.617	10927.35
720.96	10908.15
721.303	11005.09
721.646	10951.53
721.989	10887.13
722.331	10949.95
722.674	10895.49
723.016	10957.41
723.359	10870.63
723.701	10902.5
724.044	10808.04
724.386	10871.31
724.729	10834.02
725.071	10808.94
725.413	10811.42
725.755	10769.17
726.097	10711.09
726.439	10726.23
726.782	10718.55
727.124	10822.05
727.465	10781.82
727.807	10704.53
728.149	10711.77
728.491	10620.02
728.833	10709.51
729.175	10621.83
729.516	10609.62
729.858	10654.59
730.199	10665.89
730.541	10669.73
730.882	10601.94
731.224	10697.3
731.565	10607.81
731.906	10599.23
732.248	10642.62
732.589	10602.62
732.93	10584.76
733.271	10620.02
733.612	10573.46
733.953	10601.49
734.294	10506.35
734.635	10500.25
734.976	10614.37
735.317	10504.99
735.658	10558.78
735.999	10554.71
736.339	10589.96
736.68	10603.97
737.021	10560.13
737.361	10520.13
737.702	10639.45
738.042	10530.3
738.383	10564.88
738.723	10616.85
739.063	10556.97
739.404	10663.18
739.744	10609.4
740.084	10608.27
740.424	10674.03
740.764	10616.18
741.104	10685.1
741.444	10596.29
741.784	10639
742.124	10641.94
742.464	10711.31
742.804	10756.28
743.143	10621.37
743.483	10729.62
743.823	10715.61
744.162	10695.27
744.502	10821.37
744.841	10744.31
745.181	10790.86
745.52	10787.47
745.86	10927.13
746.199	10960.57
746.538	10947.92
746.877	11057.97
747.216	11044.86
747.556	10996.5
747.895	11016.17
748.234	11057.75
748.573	11224.07
748.911	11206.89
749.25	11271.3
749.589	11290.28
749.928	11466.1
750.267	11459.77
750.605	11579.54
750.944	11550.61
751.283	11649.82
751.621	11799.2
751.96	11782.7
752.298	11925.29
752.636	12032.41
752.975	12060.21
753.313	12196.47
753.651	12251.16
753.989	12382
754.327	12436.92
754.666	12629.91
755.004	12702.67
755.342	12890.69
755.679	13016.34
756.017	13004.14
756.355	13200.97
756.693	13254.98
757.031	13497.23
757.368	13529.32
757.706	13700.84
758.044	13773.15
758.381	14037.1
758.719	14127.72
759.056	14414.04
759.394	14480.25
759.731	14608.16
760.068	14719.57
760.405	14933.35
760.743	14960.92
761.08	15182.38
761.417	15312.55
761.754	15520
762.091	15629.83
762.428	15803.61
762.765	15919.99
763.102	16202.92
763.438	16250.83
763.775	16464.38
764.112	16618.73
764.449	16762.45
764.785	16986.86
765.122	17022.11
765.458	17130.13
765.795	17249
766.131	17409.44
766.467	17496.9
766.804	17616.9
767.14	17797.91
767.476	17902.76
767.812	17991.12
768.148	18158.35
768.485	18191.57
768.821	18325.35
769.157	18516.53
769.492	18606.47
769.828	18624.78
770.164	18742.97
770.5	18804.43
770.836	18965.56
771.171	18945.67
771.507	19099.57
771.842	19084.65
772.178	19274.93
772.513	19337.08
772.849	19494.81
773.184	19499.56
773.519	19511.31
773.855	19560.35
774.19	19701.59
774.525	19640.35
774.86	19880.56
775.195	19979.55
775.53	19905.65
775.865	19939.32
776.2	19888.02
776.535	19836.5
776.87	19829.04
777.205	19882.6
777.539	19993.56
777.874	20021.13
778.209	20033.78
778.543	20130.28
778.878	20055.48
779.212	20029.49
779.547	19994.69
779.881	20136.15
780.215	20128.02
780.55	20205.53
780.884	20067.9
781.218	20121.91
781.552	20223.15
781.886	20104.06
782.22	20070.62
782.554	20121.91
782.888	20000.79
783.222	20021.58
783.556	19961.24
783.889	19984.97
784.223	19864.75
784.557	19975.03
784.89	19936.38
785.224	19856.16
785.557	19831.07
785.891	19804.41
786.224	19857.51
786.558	19892.99
786.891	19721.92
787.224	19689.16
787.557	19703.39
787.891	19654.81
788.224	19764.41
788.557	19652.1
788.89	19675.82
789.223	19622.49
789.556	19539.1
789.888	19534.81
790.221	19592.44
790.554	19375.49
790.887	19424.76
791.219	19287.13
791.552	19341.82
791.884	19218.66
792.217	19272.45
792.549	19186.8
792.882	19036.52
793.214	19110.87
793.546	19127.14
793.879	19031.77
794.211	18925.79
794.543	18955.17
794.875	18898.22
795.207	18983.19
795.539	18836.3
795.871	18822.74
796.203	18725.11
796.535	18698.68
796.867	18690.09
797.198	18619.13
797.53	18571.9
797.862	18490.77
798.193	18500.04
798.525	18356.76
798.856	18480.6
799.188	18309.08
799.519	18241.96
799.85	18088.97
800.182	18093.04
800.513	18150.67
800.844	18086.71
801.175	18094.62
801.506	18061.18
801.837	18035.42
802.168	17977.11
802.499	17925.81
802.83	17822.77
803.161	17837.23
803.491	17845.82
803.822	17749.32
804.153	17738.93
804.483	17628.65
804.814	17629.1
805.145	17510.91
805.475	17569.89
805.805	17419.61
806.136	17526.95
806.466	17372.38
806.796	17406.96
807.126	17334.42
807.457	17217.58
807.787	17278.6
808.117	17144.82
808.447	17133.74
808.777	17154.76
809.107	17065.05
809.436	17077.02
809.766	17119.73
810.096	16977.36
810.426	16871.6
810.755	16933.3
811.085	16938.04
811.414	16877.93
811.744	16763.58
812.073	16768.78
812.403	16781.66
812.732	16616.02
813.061	16647.43
813.39	16532.63
813.719	16530.6
814.049	16552.29
814.378	16514.33
814.707	16504.16
815.036	16442.01
815.365	16404.27
815.693	16210.38
816.022	16268.46
816.351	16262.81
816.68	16228.91
817.008	16199.53
817.337	15983.27
817.665	16073.89
817.994	16072.98
818.322	16002.7
818.651	15928.13
818.979	15862.37
819.307	16056.71
819.636	15919.54
819.964	15900.78
820.292	15923.83
820.62	15998.63
820.948	15891.97
821.276	15923.38
821.604	15843.83
821.932	15814.46
822.259	15934.45
822.587	15898.97
822.915	15897.84
823.243	15844.51
823.57	15765.42
823.898	15811.52
824.225	15780.11
824.553	15854.23
824.88	15815.59
825.207	15969.71
825.535	15854
825.862	15870.95
826.189	15875.7
826.516	15863.72
826.843	15913.66
827.17	15867.56
827.497	15877.05
827.824	15902.82
828.151	15860.11
828.478	15873.44
828.805	15895.81
829.131	15882.7
829.458	15872.76
829.785	15841.35
830.111	15891.74
830.438	15866.66
830.764	15808.13
831.09	15960.67
831.417	15795.02
831.743	15927
832.069	15853.1
832.395	15732.65
832.722	15813.55
833.048	15788.7
833.374	15793.44
833.7	15748.02
834.026	15717.28
834.351	15788.92
834.677	15674.8
835.003	15745.53
835.329	15706.44
835.654	15686.32
835.98	15626.89
836.306	15708.92
836.631	15645.42
836.956	15733.56
837.282	15585.99
837.607	15545.09
837.932	15527.46
838.258	15542.83
838.583	15521.58
838.908	15487.91
839.233	15425.09
839.558	15467.57
839.883	15416.95
840.208	15290.18
840.533	15330.4
840.858	15373.56
841.182	15250.63
841.507	15325.2
841.832	15236.62
842.156	15261.25
842.481	15262.61
842.805	15216.05
843.13	15077.3
843.454	15070.52
843.778	15023.07
844.103	14960.92
844.427	14947.36
844.751	14945.1
845.075	14898.55
845.399	14833.69
845.723	14749.85
846.047	14744.2
846.371	14660.59
846.695	14624.88
847.019	14442.06
847.343	14523.19
847.666	14394.83
847.99	14265.8
848.313	14336.98
848.637	14204.1
848.96	14200.71
849.284	14172.01
849.607	14085.24
849.931	14030.55
850.254	13943.09
850.577	13866.26
850.9	13794.85
851.223	13812.25
851.546	13728.18
851.869	13726.38
852.192	13681.86
852.515	13563.67
852.838	13566.61
853.161	13502.65
853.483	13442.77
853.806	13349.44
854.129	13380.17
854.451	13269.67
854.774	13276.44
855.096	13266.05
855.419	13207.75
855.741	13205.94
856.063	13137.24
856.385	13180.18
856.708	13050.01
857.03	12988.77
857.352	13043
857.674	12926.4
857.996	12919.62
858.318	12845.04
858.64	12825.61
858.961	12791.71
859.283	12710.36
859.605	12730.47
859.926	12734.31
860.248	12605.5
860.57	12635.78
860.891	12657.93
861.212	12607.54
861.534	12437.6
861.855	12502
862.176	12435.11
862.498	12457.03
862.819	12473.75
863.14	12356.24
863.461	12445.28
863.782	12304.27
864.103	12291.84
864.424	12274.21
864.745	12363.25
865.065	12197.15
865.386	12287.54
865.707	12225.62
866.027	12204.38
866.348	12173.2
866.668	12199.64
866.989	12051.62
867.309	12076.48
867.63	12068.57
867.95	12009.13
868.27	12003.48
868.59	12062.69
868.91	11941.34
869.23	11938.4
869.55	11910.15
869.87	11952.86
870.19	11896.82
870.51	11896.59
870.83	11869.93
871.15	11822.7
871.469	11904.96
871.789	11840.32
872.109	11779.76
872.428	11760.78
872.748	11858.4
873.067	11709.93
873.386	11741.12
873.706	11702.02
874.025	11648.46
874.344	11648.92
874.663	11634
874.982	11588.35
875.301	11624.28
875.62	11532.76
875.939	11539.54
876.258	11541.35
876.577	11504.06
876.896	11458.87
877.214	11426.1
877.533	11496.15
877.852	11418.19
878.17	11459.09
878.489	11405.99
878.807	11385.19
879.125	11398.98
879.444	11393.1
879.762	11377.74
880.08	11297.97
880.398	11275.37
880.716	11301.36
881.034	11259.32
881.352	11249.83
881.67	11178.65
881.988	11214.13
882.306	11115.37
882.624	11108.37
882.941	11045.99
883.259	11063.85
883.577	11104.98
883.894	11089.61
884.212	10989.5
884.529	11036.73
884.846	11000.35
885.164	10972.32
885.481	10876.73
885.798	10921.7
886.115	10779.34
886.432	10827.02
886.75	10789.5
887.067	10772.78
887.383	10733.01
887.7	10713.35
888.017	10717.64
888.334	10763.74
888.651	10595.16
888.967	10609.4
889.284	10601.94
889.6	10575.27
889.917	10417.76
890.233	10513.58
890.55	10513.35
890.866	10471.77
891.182	10413.92
891.498	10355.84
891.815	10315.39
892.131	10313.81
892.447	10271.33
892.763	10219.8
893.079	10180.03
893.395	10202.18
893.71	10141.84
894.026	10159.01
894.342	10133.48
894.657	10068.17
894.973	9982.52
895.289	10001.05
895.604	9970.09
895.92	9851.68
896.235	9883.99
896.55	9845.12
896.865	9847.38
897.181	9774.84
897.496	9795.41
897.811	9768.06
898.126	9734.16
898.441	9683.09
898.756	9675.64
899.071	9549.76
899.386	9546.83
899.7	9519.93
900.015	9494.85
900.33	9399.48
900.644	9371.69
900.959	9373.95
901.273	9344.34
901.588	9352.48
901.902	9260.96
902.216	9262.09
902.531	9248.98
902.845	9138.47
903.159	9127.85
903.473	9124.92
903.787	9041.3
904.101	8957.69
904.415	9014.86
904.729	8989.33
905.042	8856.22
905.356	8881.76
905.67	8899.84
905.984	8838.6
906.297	8833.85
906.611	8782.33
906.924	8771.93
907.237	8698.03
907.551	8660.07
907.864	8658.04
908.177	8600.86
908.491	8601.09
908.804	8505.95
909.117	8471.6
909.43	8416.91
909.743	8419.62
910.056	8342.34
910.368	8319.51
910.681	8321.55
910.994	8305.5
911.307	8305.05
911.619	8241.1
911.932	8263.92
912.244	8090.37
912.557	8085.17
912.869	8047.2
913.181	8029.58
913.494	8031.84
913.806	7992.74
914.118	7977.37
914.43	7938.05
914.742	7875
915.054	7856.47
915.366	7859.86
915.678	7785.74
915.99	7797.72
916.302	7685.41
916.613	7653.54
916.925	7663.03
917.236	7684.95
917.548	7585.29
917.859	7570.15
918.171	7565.41
918.482	7509.82
918.794	7503.04
919.105	7431.17
919.416	7360.22
919.727	7367.22
920.038	7324.74
920.349	7338.07
920.66	7291.74
920.971	7280.44
921.282	7189.6
921.593	7162.03
921.903	7172.42
922.214	7164.06
922.525	7070.28
922.835	7098.53
923.146	7003.62
923.456	7007.91
923.767	6990.96
924.077	6991.41
924.387	6962.03
924.697	6931.53
925.008	6913.45
925.318	6849.5
925.628	6875.03
925.938	6807.01
926.248	6747.35
926.558	6742.61
926.867	6714.58
927.177	6702.61
927.487	6637.98
927.796	6541.71
928.106	6615.6
928.416	6548.49
928.725	6548.94
929.034	6549.16
929.344	6469.84
929.653	6518.88
929.962	6396.63
930.271	6426
930.581	6380.35
930.89	6376.74
931.199	6343.07
931.508	6348.49
931.817	6338.55
932.125	6274.14
932.434	6239.79
932.743	6200.25
933.051	6145.33
933.36	6147.14
933.669	6095.39
933.977	6070.31
934.286	6089.52
934.594	6037.99
934.902	6024.43
935.21	6039.57
935.519	5980.82
935.827	5974.04
936.135	5889.52
936.443	5824.66
936.751	5883.42
937.059	5834.83
937.367	5826.02
937.674	5847.94
937.982	5791.22
938.29	5718
938.597	5749.64
938.905	5623.99
939.213	5712.58
939.52	5654.05
939.827	5655.85
940.135	5583.99
940.442	5582.64
940.749	5513.03
941.056	5593.26
941.363	5494.95
941.67	5507.84
941.977	5433.71
942.284	5419.25
942.591	5371.79
942.898	5347.16
943.205	5358.69
943.511	5354.62
943.818	5313.72
944.125	5277.56
944.431	5264.68
944.738	5287.73
945.044	5240.5
945.35	5220.84
945.657	5171.35
945.963	5194.85
946.269	5106.94
946.575	5133.16
946.881	5099.71
947.187	5062.42
947.493	4982.88
947.799	5017.9
948.105	5003.67
948.41	5012.48
948.716	4953.5
949.022	4961.41
949.327	4971.13
949.633	4909.89
949.938	4897.46
950.244	4886.16
950.549	4799.38
950.854	4826.27
951.16	4789.89
951.465	4752.15
951.77	4781.75
952.075	4718.93
952.38	4729.55
952.685	4717.12
952.99	4659.27
953.294	4669.44
953.599	4635.09
953.904	4601.64
954.209	4571.81
954.513	4569.33
954.818	4553.06
955.122	4529.78
955.426	4521.19
955.731	4514.87
956.035	4422.67
956.339	4475.09
956.643	4462.89
956.948	4413.85
957.252	4405.94
957.556	4392.84
957.86	4354.65
958.163	4353.52
958.467	4303.8
958.771	4328.88
959.075	4310.8
959.378	4254.31
959.682	4269.68
959.985	4259.73
960.289	4226.97
960.592	4213.41
960.896	4165.72
961.199	4192.62
961.502	4172.73
961.805	4111.94
962.108	4078.27
962.411	4069.23
962.714	4064.94
963.017	4114.2
963.32	4065.39
963.623	4016.8
963.926	4016.12
964.228	3953.3
964.531	3954.2
964.833	3932.06
965.136	3900.87
965.438	3937.93
965.741	3871.72
966.043	3905.17
966.345	3849.8
966.648	3848.44
966.95	3852.29
967.252	3808.45
967.554	3759.41
967.856	3744.49
968.158	3777.49
968.46	3725.06
968.761	3724.15
969.063	3708.33
969.365	3711.5
969.666	3702.23
969.968	3676.02
970.269	3657.04
970.571	3641.9
970.872	3643.7
971.174	3619.07
971.475	3567.77
971.776	3566.87
972.077	3525.74
972.378	3520.54
972.679	3489.36
972.98	3516.25
973.281	3469.02
973.582	3464.27
973.883	3473.54
974.183	3448
974.484	3421.56
974.785	3411.17
975.085	3393.31
975.386	3396.93
975.686	3372.52
975.986	3378.85
976.287	3368.68
976.587	3294.11
976.887	3332.98
977.187	3324.39
977.487	3290.04
977.787	3245.07
978.087	3257.73
978.387	3184.51
978.687	3245.75
978.987	3181.57
979.286	3184.28
979.586	3165.07
979.885	3179.08
980.185	3126.88
980.484	3133.21
980.784	3129.59
981.083	3104.73
981.382	3133.89
981.682	3061.57
981.981	3093.89
982.28	3045.08
982.579	3043.04
982.878	3026.09
983.177	3024.28
983.475	3015.7
983.774	2995.59
984.073	2977.05
984.372	2953.78
984.67	2959.2
984.969	3003.04
985.267	2916.72
985.566	2902.71
985.864	2890.96
986.162	2895.93
986.461	2828.13
986.759	2866.77
987.057	2873.78
987.355	2814.57
987.653	2820.67
987.951	2785.2
988.249	2843.5
988.547	2770.05
988.844	2777.06
989.142	2756.95
989.44	2687.34
989.737	2734.8
990.035	2713.78
990.332	2692.99
990.63	2660.9
990.927	2650.74
991.224	2645.99
991.521	2636.05
991.819	2620.45
992.116	2611.41
992.413	2624.52
992.71	2596.5
993.006	2583.39
993.303	2561.47
993.6	2572.55
993.897	2540.46
994.193	2513.34
994.49	2513.34
994.787	2511.98
995.083	2502.49
995.379	2504.75
995.676	2453.9
995.972	2449.16
996.268	2429.5
996.565	2431.31
996.861	2440.35
997.157	2420.46
997.453	2412.32
997.749	2394.47
998.044	2351.53
998.34	2411.19
998.636	2358.99
998.932	2348.6
999.227	2320.8
999.523	2305.89
999.818	2314.25
1000.114	2251.2
1000.409	2287.81
1000.704	2289.39
1001	2250.75
1001.295	2209.62
1001.59	2234.93
1001.885	2210.52
1002.18	2172.78
1002.475	2201.93
1002.77	2157.87
1003.065	2140.01
1003.359	2157.42
1003.654	2161.26
1003.949	2134.14
1004.243	2116.29
1004.538	2122.16
1004.832	2104.08
1005.127	2090.52
1005.421	2103.18
1005.715	2060.92
1006.009	2067.47
1006.304	2060.02
1006.598	2021.6
1006.892	2038.77
1007.186	2011.66
1007.48	2008.49
1007.773	1980.47
1008.067	2012.79
1008.361	1976.85
1008.655	1935.05
1008.948	1955.16
1009.242	1949.51
1009.535	1923.75
1009.829	1913.81
1010.122	1912.9
1010.415	1873.81
1010.708	1885.11
1011.001	1861.38
1011.295	1814.37
1011.588	1849.85
1011.881	1803.3
1012.173	1836.07
1012.466	1817.76
1012.759	1804.43
1013.052	1791.1
1013.344	1750.65
1013.637	1765.33
1013.93	1745
1014.222	1730.99
1014.514	1743.41
1014.807	1729.63
1015.099	1719.91
1015.391	1692.79
1015.683	1695.51
1015.976	1697.54
1016.268	1668.84
1016.56	1647.37
1016.851	1670.2
1017.143	1643.98
1017.435	1634.72
1017.727	1610.54
1018.018	1604.44
1018.31	1625.9
1018.602	1601.27
1018.893	1602.18
1019.185	1563.53
1019.476	1555.4
1019.767	1542.74
1020.058	1526.02
1020.35	1501.39
1020.641	1521.95
1020.932	1521.05
1021.223	1497.32
1021.514	1502.07
1021.804	1468.39
1022.095	1475.4
1022.386	1477.66
1022.677	1437.21
1022.967	1460.48
1023.258	1448.73
1023.548	1453.48
1023.839	1409.64
1024.129	1399.24
1024.419	1391.33
1024.709	1343.88
1025	1358.79
1025.29	1385.23
1025.58	1350.43
1025.87	1354.27
1026.16	1338.91
1026.449	1305.23
1026.739	1293.71
1027.029	1281.28
1027.319	1330.54
1027.608	1322.86
1027.898	1300.26
1028.187	1271.11
1028.477	1256.65
1028.766	1288.06
1029.055	1264.11
1029.344	1264.11
1029.634	1236.99
1029.923	1234.73
1030.212	1222.3
1030.501	1195.18
1030.79	1195.18
1031.078	1192.47
1031.367	1208.29
1031.656	1192.47
1031.945	1164.9
1032.233	1175.07
1032.522	1148.63
1032.81	1150.21
1033.099	1175.97
1033.387	1111.57
1033.675	1146.14
1033.963	1142.3
1034.251	1112.7
1034.54	1131.91
1034.828	1086.26
1035.116	1084.22
1035.403	1096.65
1035.691	1075.41
1035.979	1074.28
1036.267	1067.5
1036.554	1069.99
1036.842	1048.29
1037.129	1029.31
1037.417	1026.82
1037.704	1025.02
1037.992	1035.41
1038.279	1020.5
1038.566	998.58
1038.853	998.58
1039.14	998.58
