Data from hue_38_FLMS001491_00003.txt Node
Date: Tue Feb 07 17:30:57 GMT 2017
User: dcchb
Spectrometer: FLMS00149
Trigger mode: 0
Integration Time (sec): 2.000000E-2
Scans to average: 10
Electric dark correction enabled: true
Nonlinearity correction enabled: false
Boxcar width: 0
XAxis mode: Wavelengths
Number of Pixels in Spectrum: 2048
>>>>>Begin Spectral Data<<<<<
341.393	-23.52
341.776	-23.52
342.16	-23.52
342.543	-72.1
342.927	-61.48
343.31	-69.84
343.693	-72.33
344.077	-78.2
344.46	-59.22
344.843	-57.64
345.226	-29.84
345.61	-18.09
345.993	-17.41
346.376	4.05
346.759	-3.86
347.142	26.65
347.525	36.37
347.908	63.49
348.291	82.47
348.674	87.67
349.057	105.75
349.44	124.73
349.823	123.6
350.206	158.85
350.588	200.88
350.971	207.21
351.354	224.61
351.737	237.95
352.119	276.36
352.502	274.33
352.884	281.33
353.267	273.65
353.65	302.8
354.032	300.99
354.414	304.61
354.797	314.1
355.179	322.46
355.562	322.92
355.944	331.5
356.326	348.9
356.709	339.19
357.091	336.47
357.473	351.84
357.855	334.67
358.238	332.41
358.62	356.36
359.002	318.4
359.384	336.25
359.766	344.61
360.148	337.15
360.53	337.15
360.912	325.85
361.294	316.36
361.676	341.22
362.057	347.1
362.439	337.83
362.821	314.78
363.203	339.41
363.584	331.5
363.966	325.63
364.348	333.76
364.729	329.69
365.111	331.28
365.493	318.17
365.874	319.3
366.256	333.08
366.637	308.23
367.019	319.07
367.4	303.25
367.781	315.68
368.163	315.91
368.544	313.88
368.925	310.03
369.306	329.24
369.688	305.06
370.069	306.87
370.45	327.66
370.831	309.81
371.212	308
371.593	301.45
371.974	311.39
372.355	304.61
372.736	312.52
373.117	287.44
373.498	311.16
373.879	312.07
374.26	319.53
374.641	320.43
375.021	307.32
375.402	326.53
375.783	338.51
376.163	331.5
376.544	341.22
376.925	327.43
377.305	317.94
377.686	312.52
378.066	316.14
378.447	336.7
378.827	312.52
379.208	321.56
379.588	349.13
379.968	352.52
380.349	334.21
380.729	330.6
381.109	352.74
381.489	338.06
381.87	326.08
382.25	332.18
382.63	356.59
383.01	317.49
383.39	334.21
383.77	336.02
384.15	355.68
384.53	335.57
384.91	364.04
385.29	358.17
385.67	368.34
386.049	364.95
386.429	354.33
386.809	359.52
387.189	350.26
387.568	372.41
387.948	332.41
388.328	354.55
388.707	353.87
389.087	368.34
389.466	361.78
389.846	353.2
390.225	362.91
390.605	345.51
390.984	400.43
391.363	361.56
391.743	361.78
392.122	373.08
392.501	369.02
392.881	364.72
393.26	369.69
393.639	400.2
394.018	370.37
394.397	384.61
394.776	402.01
395.155	401.56
395.534	386.19
395.913	389.13
396.292	385.51
396.671	376.25
397.05	382.8
397.429	388.9
397.808	385.51
398.186	373.08
398.565	390.94
398.944	396.81
399.323	405.62
399.701	401.33
400.08	396.36
400.458	402.91
400.837	411.95
401.215	392.52
401.594	406.98
401.972	425.74
402.351	416.47
402.729	416.25
403.107	423.48
403.486	409.92
403.864	415.57
404.242	410.6
404.62	418.28
404.999	415.79
405.377	416.25
405.755	437.71
406.133	416.47
406.511	447.66
406.889	418.28
407.267	424.83
407.645	423.48
408.023	440.65
408.401	439.3
408.779	448.79
409.156	441.33
409.534	438.17
409.912	444.27
410.29	453.99
410.667	472.74
411.045	444.95
411.422	440.2
411.8	468.9
412.178	455.34
412.555	490.59
412.933	491.05
413.31	490.14
413.687	486.98
414.065	490.37
414.442	511.84
414.819	489.24
415.197	522.01
415.574	512.29
415.951	491.5
416.328	529.46
416.705	499.86
417.082	510.25
417.46	496.92
417.837	510.03
418.214	523.81
418.591	542.8
418.967	507.32
419.344	540.31
419.721	538.95
420.098	543.47
420.475	541.89
420.852	539.86
421.228	545.51
421.605	545.06
421.982	564.04
422.358	546.64
422.735	569.46
423.111	540.54
423.488	575.34
423.864	552.29
424.241	564.94
424.617	582.8
424.994	592.74
425.37	595
425.746	565.85
426.123	601.33
426.499	618.27
426.875	636.13
427.251	595.68
427.627	611.72
428.003	618.05
428.379	612.4
428.756	607.2
429.132	618.27
429.507	624.83
429.883	643.13
430.259	642.45
430.635	611.72
431.011	663.92
431.387	657.14
431.763	666.86
432.138	663.47
432.514	675.22
432.89	676.8
433.265	695.33
433.641	707.09
434.016	692.62
434.392	714.54
434.767	703.47
435.143	722.9
435.518	716.58
435.894	723.36
436.269	732.62
436.644	717.26
437.02	752.96
437.395	744.15
437.77	751.83
438.145	778.95
438.52	783.02
438.895	758.84
439.271	786.41
439.646	766.29
440.021	802.68
440.395	780.08
440.77	791.83
441.145	802.68
441.52	794.32
441.895	794.32
442.27	813.07
442.645	808.78
443.019	817.14
443.394	804.48
443.769	823.69
444.143	822.56
444.518	821.43
444.892	828.21
445.267	823.24
445.641	827.76
446.016	850.36
446.39	845.84
446.764	861.88
447.139	864.82
447.513	874.31
447.887	869.57
448.262	865.05
448.636	864.6
449.01	889.68
449.384	897.14
449.758	920.87
450.132	886.97
450.506	914.76
450.88	941.88
451.254	952.96
451.628	964.03
452.002	952.28
452.376	942.79
452.75	972.39
453.123	966.74
453.497	976.01
453.871	999.73
454.244	1003.8
454.618	973.52
454.992	998.15
455.365	998.83
455.739	1015.55
456.112	1042.22
456.486	1038.83
456.859	1071.37
457.232	1081.31
457.606	1060.3
457.979	1100.75
458.352	1076.12
458.725	1110.47
459.099	1127.87
459.472	1144.81
459.845	1178.71
460.218	1174.19
460.591	1153.63
460.964	1155.44
461.337	1194.53
461.71	1228.65
462.083	1225.49
462.456	1235.66
462.829	1254.87
463.201	1249.9
463.574	1267.75
463.947	1289.44
464.32	1307.75
464.692	1324.92
465.065	1323.57
465.438	1347.97
465.81	1374.19
466.183	1389.33
466.555	1426.62
466.928	1434.98
467.3	1423.68
467.672	1441.3
468.045	1524.47
468.417	1519.27
468.789	1498.48
469.161	1563.11
469.534	1551.13
469.906	1604.01
470.278	1597.68
470.65	1617.57
471.022	1684.46
471.394	1685.82
471.766	1737.34
472.138	1750.67
472.51	1806.94
472.882	1830.67
473.253	1844.23
473.625	1881.52
473.997	1933.95
474.369	1946.83
474.74	1999.48
475.112	2030.44
475.484	2051.91
475.855	2095.52
476.227	2113.38
476.598	2234.73
476.97	2224.33
477.341	2272.69
477.713	2334.16
478.084	2398.79
478.455	2433.14
478.827	2476.76
479.198	2599.69
479.569	2579.81
479.94	2678.79
480.311	2724.21
480.682	2813.47
481.053	2879.23
481.424	2953.13
481.795	3020.92
482.166	3104.31
482.537	3122.62
482.908	3238.32
483.279	3304.53
483.65	3409.39
484.021	3468.6
484.391	3529.16
484.762	3623.62
485.133	3678.53
485.503	3777.74
485.874	3877.85
486.244	3950.62
486.615	4046.43
486.985	4111.74
487.356	4269.03
487.726	4346.31
488.097	4428.34
488.467	4507.66
488.837	4602.8
489.207	4714.66
489.578	4829.46
489.948	4981.55
490.318	5040.76
490.688	5152.39
491.058	5230.13
491.428	5287.08
491.798	5426.96
492.168	5569.78
492.538	5611.59
492.908	5749.44
493.278	5872.15
493.648	5871.02
494.017	6032.6
494.387	6120.5
494.757	6231.46
495.126	6347.16
495.496	6390.1
495.866	6518.91
496.235	6568.63
496.605	6671
496.974	6761.16
497.344	6887.26
497.713	6942.18
498.082	7084.55
498.452	7157.99
498.821	7281.38
499.19	7289.74
499.559	7367.48
499.928	7429.17
500.298	7581.03
500.667	7691.08
501.036	7788.48
501.405	7784.64
501.774	7917.52
502.143	7991.41
502.512	8008.59
502.88	8174.46
503.249	8282.71
503.618	8301.46
503.987	8395.25
504.356	8411.97
504.724	8550.04
505.093	8566.54
505.462	8646.99
505.83	8671.4
506.199	8808.57
506.567	8983.7
506.936	8996.13
507.304	9046.08
507.672	9178.73
508.041	9149.58
508.409	9326.07
508.777	9336.24
509.145	9439.29
509.514	9501.43
509.882	9597.02
510.25	9614.65
510.618	9697.13
510.986	9732.84
511.354	9884.25
511.722	9951.36
512.09	9999.5
512.458	10007.86
512.826	10147.52
513.193	10199.49
513.561	10260.51
513.929	10408.07
514.297	10414.85
514.664	10582.76
515.032	10579.82
515.4	10639.48
515.767	10662.08
516.135	10766.03
516.502	10743.43
516.869	10968.06
517.237	11069.07
517.604	10929.42
517.972	11071.33
518.339	11162.18
518.706	11229.52
519.073	11243.76
519.44	11341.38
519.808	11460.7
520.175	11482.17
520.542	11547.48
520.909	11648.95
521.276	11608.04
521.643	11777.3
522.009	11830.86
522.376	11947.02
522.743	12009.16
523.11	12110.85
523.477	12198.99
523.843	12189.72
524.21	12394.24
524.577	12480.56
524.943	12513.56
525.31	12529.6
525.676	12676.04
526.043	12721.69
526.409	12750.39
526.776	12939.31
527.142	13016.37
527.508	12986.09
527.874	13118.96
528.241	13198.96
528.607	13212.29
528.973	13479.18
529.339	13332.29
529.705	13518.95
530.071	13593.53
530.437	13728.44
530.803	13785.39
531.169	13825.39
531.535	13832.16
531.901	13960.52
532.267	13941.31
532.632	14124.36
532.998	14128.65
533.364	14207.3
533.73	14263.79
534.095	14391.7
534.461	14433.73
534.826	14499.27
535.192	14504.46
535.557	14639.83
535.923	14660.62
536.288	14665.81
536.653	14807.96
537.019	14818.58
537.384	14965.92
537.749	14893.38
538.114	14884.57
538.479	14998.69
538.845	15029.87
539.21	15020.16
539.575	15180.38
539.94	15268.96
540.305	15241.84
540.67	15311
541.034	15352.8
541.399	15433.93
541.764	15543.31
542.129	15584.66
542.494	15656.07
542.858	15647.48
543.223	15712.34
543.587	15846.8
543.952	15824.65
544.316	15894.71
544.681	15886.12
545.045	16045.44
545.41	16024.42
545.774	16134.25
546.138	16172.22
546.503	16188.71
546.867	16264.87
547.231	16488.59
547.595	16430.29
547.959	16511.19
548.324	16416.96
548.688	16493.11
549.052	16609.49
549.416	16706.89
549.779	16745.76
550.143	16750.73
550.507	16813.33
550.871	16943.04
551.235	16868.92
551.599	17072.98
551.962	17156.14
552.326	17192.98
552.689	17257.84
553.053	17183.04
553.417	17332.86
553.78	17529.02
554.143	17466.42
554.507	17415.8
554.87	17557.04
555.234	17742.8
555.597	17694.66
555.96	17672.29
556.323	17867.76
556.686	17734.21
557.05	17988.44
557.413	17893.53
557.776	17968.33
558.139	18094.65
558.502	18116.35
558.865	18267.75
559.228	18275.89
559.59	18396.56
559.953	18480.63
560.316	18688.31
560.679	18578.93
561.041	18755.42
561.404	18715.2
561.767	18908.87
562.129	18852.37
562.492	19018.47
562.854	19048.07
563.217	19049.2
563.579	19054.85
563.941	19163.78
564.304	19277.45
564.666	19358.35
565.028	19468.63
565.39	19440.38
565.753	19516.76
566.115	19674.04
566.477	19757.21
566.839	19700.94
567.201	19910.87
567.563	19937.54
567.925	20091.66
568.287	20069.29
568.648	20144.31
569.01	20246.69
569.372	20418.21
569.734	20317.64
570.095	20507.24
570.457	20576.62
570.819	20703.17
571.18	20599.44
571.542	20763.96
571.903	20958.98
572.265	21036.72
572.626	21050.51
572.987	21102.48
573.349	21170.28
573.71	21364.62
574.071	21318.97
574.432	21482.81
574.794	21632.64
575.155	21666.76
575.516	21672.64
575.877	21839.64
576.238	21981.1
576.599	22088.67
576.96	22182
577.32	22286.86
577.681	22534.76
578.042	22621.54
578.403	22596.23
578.763	22824.7
579.124	22955.77
579.485	23121.41
579.845	23315.98
580.206	23366.38
580.566	23527.5
580.927	23630.78
581.287	23815.63
581.648	24013.37
582.008	24176.07
582.368	24265.34
582.728	24372.68
583.089	24563.63
583.449	24664.2
583.809	25045.2
584.169	25162.94
584.529	25299.89
584.889	25661.91
585.249	25657.39
585.609	25687.9
585.969	26135.57
586.329	26183.48
586.688	26539.63
587.048	26663.47
587.408	26720.64
587.768	26975.55
588.127	27268.2
588.487	27321.98
588.846	27832.25
589.206	27742.99
589.565	27998.35
589.925	28314.95
590.284	28345.91
590.643	28712.9
591.003	28964.87
591.362	29217.52
591.721	29290.52
592.08	29568.47
592.44	29792.87
592.799	30043.72
593.158	30194.9
593.517	30393.54
593.876	30593.98
594.235	30814.09
594.593	31004.14
594.952	31439.61
595.311	31373.85
595.67	31723.22
596.029	32084.57
596.387	32260.61
596.746	32569.3
597.104	32531.79
597.463	32657.88
597.822	33034.15
598.18	33081.6
598.538	33185.55
598.897	33604.53
599.255	33475.94
599.613	34174
599.972	34014.68
600.33	34268.01
600.688	34383.94
601.046	34721.78
601.404	34857.37
601.762	34965.62
602.12	35340.98
602.478	35517.24
602.836	35571.03
603.194	35479.96
603.552	35740.06
603.91	35833.62
604.268	36117.91
604.625	36126.95
604.983	36425.92
605.341	36399.93
605.698	36862.07
606.056	37037.88
606.413	37126.02
606.771	37282.17
607.128	37426.57
607.485	37250.53
607.843	37605.55
608.2	37774.13
608.557	38019.55
608.914	38013.22
609.272	38412.54
609.629	38304.06
609.986	38582.93
610.343	38472.65
610.7	38906.31
611.057	39080.77
611.414	39101.78
611.771	39225.62
612.127	39439.63
612.484	39452.51
612.841	39597.36
613.198	39543.8
613.554	39836.9
613.911	40111.93
614.267	40012.27
614.624	40099.5
614.98	40257.46
615.337	40477.34
615.693	40502.2
616.05	40488.41
616.406	40793.72
616.762	40860.38
617.118	40833.49
617.475	40836.2
617.831	41101.96
618.187	41164.55
618.543	41190.09
618.899	41564.32
619.255	41364.77
619.611	41332.46
619.967	41536.97
620.323	41834.82
620.678	41622.62
621.034	41608.16
621.39	41790.75
621.746	41760.02
622.101	42229.61
622.457	42039.56
622.812	42053.12
623.168	42289.95
623.523	42277.29
623.879	42457.17
624.234	42191.87
624.589	42362.94
624.945	42473.22
625.3	42566.1
625.655	42553.22
626.01	42563.16
626.365	42599.09
626.72	42679.54
627.075	42612.65
627.43	42653.78
627.785	42788.24
628.14	42775.36
628.495	42837.28
628.85	42818.07
629.205	42743.95
629.559	43022.13
629.914	42743.27
630.269	42824.85
630.623	42760.22
630.978	42666.21
631.332	42930.38
631.687	43103.49
632.041	42877.05
632.396	42870.05
632.75	42789.6
633.104	42938.97
633.459	42686.77
633.813	42876.15
634.167	42794.34
634.521	42869.14
634.875	42950.04
635.229	42841.35
635.583	42716.38
635.937	42691.74
636.291	42570.17
636.645	42660.56
636.999	42676.15
637.352	42788.01
637.706	42561.35
638.06	42787.11
638.413	42657.62
638.767	42433.9
639.121	42627.34
639.474	42487.23
639.828	42282.94
640.181	42616.49
640.534	42463.28
640.888	42284.52
641.241	42243.62
641.594	42365.2
641.947	42546.21
642.301	42327.23
642.654	42417.18
643.007	42278.2
643.36	42361.81
643.713	42343.96
644.066	42458.98
644.419	42197.07
644.771	41994.14
645.124	41595.28
645.477	41564.77
645.83	41240.71
646.182	41207.72
646.535	40979.25
646.888	41092.92
647.24	41026.7
647.593	41140.6
647.945	41151.45
648.298	40958.91
648.65	40933.37
649.002	40768.63
649.355	40990.09
649.707	40883.88
650.059	41089.98
650.411	41367.94
650.763	41515.73
651.115	41895.61
651.467	41841.15
651.819	41921.14
652.171	41728.83
652.523	41610.19
652.875	41692
653.227	41497.65
653.578	41786.01
653.93	41638.89
654.282	41549.4
654.633	41439.35
654.985	41636.18
655.337	41632.34
655.688	41599.12
656.039	41699.23
656.391	41360.93
656.742	41504.88
657.094	41357.99
657.445	41595.95
657.796	41466.01
658.147	41498.56
658.498	41328.62
658.849	41502.85
659.2	41428.05
659.551	41387.82
659.902	41551.44
660.253	41403.64
660.604	41446.58
660.955	41211.78
661.306	41415.39
661.656	41158.9
662.007	41335.17
662.358	41452.46
662.708	41351.67
663.059	41292.69
663.409	41049.08
663.76	41362.74
664.11	41322.06
664.461	41298.11
664.811	41084.56
665.161	41225.12
665.511	41088.62
665.862	41206.59
666.212	41204.55
666.562	41304.89
666.912	41173.14
667.262	41188.96
667.612	41142.63
667.962	41114.39
668.312	41151.45
668.662	41255.17
669.011	41081.39
669.361	41146.7
669.711	41082.75
670.06	41080.94
670.41	41029.19
670.76	40907.84
671.109	41181.05
671.459	40938.8
671.808	40870.32
672.157	41044.78
672.507	40925.24
672.856	40785.13
673.205	40852.92
673.554	40860.38
673.904	40816.31
674.253	41051.34
674.602	40851.34
674.951	40346.27
675.3	40223.56
675.649	40803.88
675.998	40785.81
676.346	40733.38
676.695	40798.01
677.044	40660.84
677.393	40704.23
677.741	40629.43
678.09	40648.41
678.438	40535.42
678.787	40561.41
679.135	40619.03
679.484	40410.22
679.832	40527.51
680.181	40257.91
680.529	40384.23
680.877	40162.77
681.225	40209.32
681.573	40431.47
681.922	40077.58
682.27	39946.51
682.618	40019.72
682.966	39957.13
683.314	40004.81
683.661	39906.51
684.009	39749
684.357	39748.55
684.705	39718.04
685.053	39845.49
685.4	39729.11
685.748	39453.64
686.095	39502.9
686.443	39333.41
686.79	39322.79
687.138	39425.84
687.485	39454.77
687.832	39191.72
688.18	39240.31
688.527	39136.58
688.874	38994.44
689.221	38862.01
689.568	38772.07
689.915	38828.12
690.262	38759.64
690.609	38626.09
690.956	38572.53
691.303	38484.17
691.65	38350.39
691.997	38391.29
692.344	38063.62
692.69	38231.52
693.037	38046.44
693.383	37818.65
693.73	37954.24
694.077	37590.64
694.423	37656.17
694.769	37436.97
695.116	37542.28
695.462	37411.43
695.808	37255.73
696.155	37432.67
696.501	37105.22
696.847	37118.56
697.193	36926.7
697.539	37010.99
697.885	36713.82
698.231	36672.02
698.577	36574.17
698.923	36482.42
699.269	36436.54
699.614	36237.68
699.96	36264.12
700.306	36266.15
700.651	36046.5
700.997	36013.5
701.342	35897.12
701.688	35790.46
702.033	35623.68
702.379	35740.29
702.724	35650.12
703.069	35715.88
703.415	35290.81
703.76	35350.69
704.105	35335.78
704.45	35310.92
704.795	35109.35
705.14	35029.35
705.485	35040.65
705.83	34750.94
706.175	34934.89
706.52	34816.7
706.865	34663.03
707.209	34638.85
707.554	34473.2
707.899	34638.17
708.243	34366.09
708.588	34230.27
708.932	34041.8
709.277	34042.71
709.621	34095.13
709.966	33955.25
710.31	34029.6
710.654	33609.95
710.998	33700.12
711.342	33497.18
711.687	33491.99
712.031	33434.81
712.375	33311.65
712.719	33453.12
713.063	33323.4
713.407	33412.89
713.75	33153.01
714.094	33072.34
714.438	32990.98
714.782	33090.64
715.125	32936.52
715.469	32969.97
715.812	32824.66
716.156	32612.69
716.499	32689.97
716.843	32703.98
717.186	32612.01
717.53	32551.22
717.873	32652.69
718.216	32539.92
718.559	32371.79
718.902	32321.4
719.246	32299.7
719.589	32151.91
719.932	32003.89
720.275	32000.05
720.617	31889.09
720.96	31910.56
721.303	31844.12
721.646	31891.35
721.989	31635.09
722.331	31911.92
722.674	31727.74
723.016	31615.65
723.359	31673.5
723.701	31628.76
724.044	31457.92
724.386	31371.82
724.729	31447.97
725.071	31505.15
725.413	31144.25
725.755	31308.32
726.097	31188.77
726.439	31118.72
726.782	31099.51
727.124	31151.03
727.465	30986.97
727.807	30899.51
728.149	30888.44
728.491	30869.46
728.833	30876.91
729.175	30744.94
729.516	30644.83
729.858	30705.62
730.199	30669.46
730.541	30612.97
730.882	30455
731.224	30705.17
731.565	30365.74
731.906	30415.68
732.248	30485.51
732.589	30222.24
732.93	30191.96
733.271	30241.9
733.612	30227.44
733.953	30191.06
734.294	30046.2
734.635	29967.33
734.976	30201
735.317	29946.09
735.658	29980.67
735.999	29915.58
736.339	29781.35
736.68	29890.95
737.021	29788.13
737.361	29727.11
737.702	29820.22
738.042	29785.64
738.383	29552.43
738.723	29638.08
739.063	29510.62
739.404	29575.25
739.744	29526.89
740.084	29305.2
740.424	29358.76
740.764	29297.75
741.104	29420
741.444	29240.35
741.784	29177.98
742.124	29238.31
742.464	29203.74
742.804	29076.06
743.143	29049.39
743.483	28987.47
743.823	28972.11
744.162	29002.39
744.502	28774.37
744.841	28820.02
745.181	28914.71
745.52	28689.63
745.86	28769.62
746.199	28815.05
746.538	28610.98
746.877	28705.9
747.216	28697.08
747.556	28695.05
747.895	28599.91
748.234	28396.53
748.573	28440.37
748.911	28366.25
749.25	28367.15
749.589	28207.61
749.928	28182.75
750.267	28216.42
750.605	28181.39
750.944	28104.78
751.283	28073.82
751.621	27979.36
751.96	27854.39
752.298	27758.13
752.636	27816.2
752.975	27661.86
753.313	27637.9
753.651	27806.03
753.989	27636.32
754.327	27583.44
754.666	27390.45
755.004	27468.19
755.342	27508.19
755.679	27441.07
756.017	27269.55
756.355	27256.67
756.693	27196.11
757.031	27260.74
757.368	27060.52
757.706	26986.17
758.044	26962.44
758.381	26924.7
758.719	26922.44
759.056	26743.69
759.394	26784.37
759.731	26569.46
760.068	26651.04
760.405	26378.05
760.743	26402.91
761.08	26463.24
761.417	26343.47
761.754	26236.81
762.091	26230.48
762.428	26205.4
762.765	25930.38
763.102	26040.43
763.438	26017.61
763.775	25797.5
764.112	25823.94
764.449	25759.99
764.785	25514.8
765.122	25421.01
765.458	25396.83
765.795	25376.27
766.131	25332.65
766.467	25218.31
766.804	24999.33
767.14	25009.5
767.476	24982.83
767.812	24921.36
768.148	24841.59
768.485	24751.2
768.821	24530.64
769.157	24543.3
769.492	24564.31
769.828	24363.41
770.164	24306.24
770.5	24220.14
770.836	24150.09
771.171	24061.27
771.507	23946.93
771.842	23762.52
772.178	23810.66
772.513	23705.35
772.849	23753.26
773.184	23509.65
773.519	23526.37
773.855	23446.15
774.19	23244.57
774.525	23199.83
774.86	23215.19
775.195	23197.34
775.53	23082.09
775.865	22936.56
776.2	22739.5
776.535	22667.86
776.87	22657.24
777.205	22509.22
777.539	22449.79
777.874	22430.81
778.209	22257.93
778.543	22247.99
778.878	22068.33
779.212	22149.23
779.547	22030.37
779.881	22131.61
780.215	21867.66
780.55	21972.74
780.884	21677.61
781.218	21638.96
781.552	21690.04
781.886	21487.1
782.22	21399.65
782.554	21385.41
782.888	21188.81
783.222	21179.32
783.556	20996.95
783.889	20979.55
784.223	20857.29
784.557	20719.67
784.89	20803.28
785.224	20762.83
785.557	20594.7
785.891	20612.1
786.224	20543.17
786.558	20474.7
786.891	20341.82
787.224	20298.66
787.557	20171.66
787.891	20221.6
788.224	20148.38
788.557	20036.07
788.89	19956.3
789.223	20093.24
789.556	19779.58
789.888	19839.92
790.221	19731.9
790.554	19570.32
790.887	19573.03
791.219	19476.99
791.552	19404.9
791.884	19305.92
792.217	19274.51
792.549	19268.63
792.882	19013.95
793.214	19021.86
793.546	19105.92
793.879	18938.02
794.211	18835.65
794.543	18902.99
794.875	18856.67
795.207	18787.29
795.539	18657.8
795.871	18667.97
796.203	18489.44
796.535	18427.07
796.867	18275.44
797.198	18321.54
797.53	18371.25
797.862	18204.7
798.193	18236.12
798.525	18085.39
798.856	18115.22
799.188	17915.45
799.519	17868.89
799.85	17749.8
800.182	17719.75
800.513	17764.94
800.844	17580.99
801.175	17637.49
801.506	17657.37
801.837	17618.05
802.168	17539.41
802.499	17429.58
802.83	17370.6
803.161	17252.19
803.491	17393.43
803.822	17288.34
804.153	17178.07
804.483	17062.36
804.814	16972.42
805.145	17005.41
805.475	16947.34
805.805	16871.18
806.136	16870.05
806.466	16897.85
806.796	16908.92
807.126	16778.98
807.457	16606.1
807.787	16653.11
808.117	16566.56
808.447	16506.67
808.777	16552.32
809.107	16522.04
809.436	16429.38
809.766	16365.21
810.096	16289.05
810.426	16264.64
810.755	16226.45
811.085	16206.11
811.414	16136.96
811.744	16006.57
812.073	16025.33
812.403	15993.69
812.732	15879.57
813.061	15871.21
813.39	15857.87
813.719	15804.54
814.049	15904.88
814.378	15715.5
814.707	15719.57
815.036	15633.93
815.365	15616.75
815.693	15513.25
816.022	15463.99
816.351	15472.35
816.68	15341.5
817.008	15401.16
817.337	15253.14
817.665	15306.48
817.994	15347.83
818.322	15259.92
818.651	15132.02
818.979	15139.7
819.307	15135.41
819.636	15096.09
819.964	14937.9
820.292	15087.5
820.62	15090.89
820.948	14948.75
821.276	15056.09
821.604	15039.59
821.932	15054.96
822.259	15005.47
822.587	15003.21
822.915	14899.71
823.243	14964.56
823.57	15019.48
823.898	14971.34
824.225	14929.76
824.553	14965.47
824.88	14918.69
825.207	14993.94
825.535	14913.04
825.862	14925.24
826.189	14864.45
826.516	14956.65
826.843	14953.04
827.17	14988.74
827.497	14941.51
827.824	14949.88
828.151	14944.68
828.478	14884.34
828.805	14920.95
829.131	14925.7
829.458	14877.33
829.785	14870.78
830.111	14826.94
830.438	14901.06
830.764	14909.42
831.09	14882.08
831.417	14777.45
831.743	14872.14
832.069	14866.26
832.395	14767.51
832.722	14820.39
833.048	14802.99
833.374	14800.73
833.7	14746.49
834.026	14810.22
834.351	14712.82
834.677	14700.39
835.003	14658.58
835.329	14709.88
835.654	14697.68
835.98	14709.2
836.306	14725.93
836.631	14586.04
836.956	14544.69
837.282	14518.25
837.607	14510.11
837.932	14454.52
838.258	14436.67
838.583	14463.56
838.908	14435.54
839.233	14472.37
839.558	14402.32
839.883	14310.34
840.208	14324.58
840.533	14319.84
840.858	14277.8
841.182	14259.05
841.507	14223.57
841.832	14179.95
842.156	14197.8
842.481	14151.25
842.805	14097.69
843.13	14107.64
843.454	14063.57
843.778	14047.53
844.103	13956.23
844.427	13916.68
844.751	13940.41
845.075	13893.63
845.399	13845.27
845.723	13801.66
846.047	13720.76
846.371	13629.91
846.695	13696.12
847.019	13615.45
847.343	13520.99
847.666	13442.12
847.99	13366.87
848.313	13467.2
848.637	13325.74
848.96	13274.44
849.284	13220.66
849.607	13158.06
849.931	13108.34
850.254	13028.12
850.577	12936.59
850.9	12816.37
851.223	12816.82
851.546	12820.44
851.869	12724.62
852.192	12793.1
852.515	12619.77
852.838	12551.07
853.161	12590.62
853.483	12559.43
853.806	12469.49
854.129	12485.99
854.451	12488.7
854.774	12412.77
855.096	12315.59
855.419	12314.69
855.741	12292.32
856.063	12131.87
856.385	12205.54
856.708	12100.91
857.03	12063.17
857.352	12147.01
857.674	12021.82
857.996	11951.76
858.318	11791.99
858.64	11888.94
858.961	11815.72
859.283	11796.96
859.605	11740.24
859.926	11783.18
860.248	11792.67
860.57	11731.88
860.891	11669.51
861.212	11692.11
861.534	11586.35
861.855	11616.18
862.176	11559.91
862.498	11552.68
862.819	11608.95
863.14	11512.23
863.461	11511.32
863.782	11469.74
864.103	11451.89
864.424	11404.21
864.745	11382.29
865.065	11411.44
865.386	11265.9
865.707	11290.99
866.027	11282.85
866.348	11253.93
866.668	11326.69
866.989	11271.55
867.309	11136.64
867.63	11238.33
867.95	11151.56
868.27	11122.63
868.59	11135.06
868.91	11149.98
869.23	11083.76
869.55	11040.83
869.87	11166.7
870.19	11081.95
870.51	11108.17
870.83	11098
871.15	10989.75
871.469	10944.33
871.789	11029.07
872.109	11052.12
872.428	10961.05
872.748	10967.83
873.067	10901.62
873.386	10980.26
873.706	10908.63
874.025	10840.83
874.344	10782.3
874.663	10823.43
874.982	10814.39
875.301	10837.67
875.62	10712.25
875.939	10728.97
876.258	10689.87
876.577	10702.3
876.896	10684.9
877.214	10640.61
877.533	10653.27
877.852	10594.06
878.17	10647.39
878.489	10648.07
878.807	10624.11
879.125	10514.51
879.444	10520.39
879.762	10493.95
880.08	10509.54
880.398	10499.37
880.716	10459.37
881.034	10401.75
881.352	10402.42
881.67	10369.2
881.988	10427.51
882.306	10298.7
882.624	10331.47
882.941	10246.5
883.259	10282.2
883.577	10192.26
883.894	10192.49
884.212	10227.51
884.529	10209.66
884.846	10072.94
885.164	10141.19
885.481	10116.56
885.798	10071.36
886.115	10012.38
886.432	9997.24
886.75	9988.42
887.067	10005.6
887.383	10016.22
887.7	10004.47
888.017	9933.51
888.334	9935.32
888.651	9841.76
888.967	9855.55
889.284	9754.53
889.6	9747.3
889.917	9759.96
890.233	9778.94
890.55	9643.57
890.866	9712.5
891.182	9654.87
891.498	9656.46
891.815	9539.4
892.131	9648.09
892.447	9533.75
892.763	9536.23
893.079	9485.39
893.395	9487.65
893.71	9387.54
894.026	9381.43
894.342	9366.52
894.657	9340.08
894.973	9313.87
895.289	9312.28
895.604	9333.53
895.92	9172.85
896.235	9245.39
896.55	9180.76
896.865	9111.38
897.181	9112.06
897.496	9118.62
897.811	9066.41
898.126	9115.45
898.441	8989.81
898.756	8970.15
899.071	8910.49
899.386	8893.99
899.7	8820.09
900.015	8822.35
900.33	8720.66
900.644	8763.6
900.959	8802.92
901.273	8745.07
901.588	8683.15
901.902	8614.67
902.216	8557.95
902.531	8591.62
902.845	8597.73
903.159	8449.48
903.473	8419.65
903.787	8473.44
904.101	8400.67
904.415	8391.4
904.729	8382.82
905.042	8352.08
905.356	8307.11
905.67	8298.52
905.984	8233.22
906.297	8167.45
906.611	8146.66
906.924	8184.18
907.237	8122.48
907.551	8084.29
907.864	8049.49
908.177	8015.59
908.491	7981.7
908.804	7938.53
909.117	7949.61
909.43	7853.11
909.743	7813.79
910.056	7860.12
910.368	7801.14
910.681	7714.13
910.994	7682.04
911.307	7657.41
911.619	7696.28
911.932	7651.99
912.244	7573.8
912.557	7543.06
912.869	7581.71
913.181	7517.98
913.494	7503.52
913.806	7407.02
914.118	7383.52
914.43	7317.31
914.742	7357.98
915.054	7353.24
915.366	7281.15
915.678	7275.05
915.99	7255.84
916.302	7216.75
916.613	7182.17
916.925	7075.96
917.236	7101.72
917.548	7054.49
917.859	7103.98
918.171	7090.42
918.482	6991.21
918.794	7012.91
919.105	6967.03
919.416	6898.79
919.727	6935.17
920.038	6868.28
920.349	6803.65
920.66	6788.73
920.971	6852.46
921.282	6775.85
921.593	6736.76
921.903	6673.71
922.214	6646.14
922.525	6665.35
922.835	6643.65
923.146	6577.21
923.456	6545.58
923.767	6551.23
924.077	6495.41
924.387	6506.71
924.697	6471.23
925.008	6375.86
925.318	6385.81
925.628	6385.13
925.938	6380.84
926.248	6311.91
926.558	6276.43
926.867	6205.25
927.177	6264.91
927.487	6177
927.796	6167.51
928.106	6117.57
928.416	6085.7
928.725	6072.82
929.034	6035.53
929.344	6047.74
929.653	6028.08
929.962	5941.75
930.271	5937
930.581	5889.77
930.89	5853.84
931.199	5857.91
931.508	5834.86
931.817	5854.52
932.125	5773.17
932.434	5796.22
932.743	5727.29
933.051	5683.68
933.36	5658.37
933.669	5661.98
933.977	5656.79
934.286	5660.85
934.594	5614.08
934.902	5562.33
935.21	5540.18
935.519	5577.92
935.827	5543.57
936.135	5470.58
936.443	5459.73
936.751	5415.21
937.059	5419.05
937.367	5356.23
937.674	5362.78
937.982	5419.05
938.29	5313.52
938.597	5346.06
938.905	5261.09
939.213	5273.75
939.52	5234.42
939.827	5194.43
940.135	5172.28
940.442	5194.65
940.749	5159.85
941.056	5154.88
941.363	5111.26
941.67	5059.29
941.977	5061.1
942.284	5034.43
942.591	4991.72
942.898	5021.32
943.205	4973.64
943.511	4959.86
943.818	4941.78
944.125	4890.25
944.431	4898.39
944.738	4878.05
945.044	4840.76
945.35	4806.19
945.657	4818.16
945.963	4810.71
946.269	4772.74
946.575	4772.06
946.881	4694.78
947.187	4692.29
947.493	4663.14
947.799	4671.28
948.105	4655.46
948.41	4575.46
948.716	4631.05
949.022	4609.13
949.327	4577.27
949.633	4541.79
949.938	4529.81
950.244	4524.84
950.549	4478.06
950.854	4464.73
951.16	4465.86
951.465	4439.64
951.77	4403.71
952.075	4353.77
952.38	4357.61
952.685	4382.02
952.99	4304.51
953.294	4332.98
953.599	4307.44
953.904	4307.22
954.209	4237.61
954.513	4234.45
954.818	4235.13
955.122	4193.77
955.426	4180.67
955.731	4173.66
956.035	4136.37
956.339	4093.66
956.643	4133.89
956.948	4099.31
957.252	4052.76
957.556	4085.3
957.86	4083.27
958.163	4001.69
958.467	3987.23
958.771	3931.63
959.075	3945.87
959.378	3982.71
959.682	3978.19
959.985	3935.93
960.289	3926.21
960.592	3860.22
960.896	3834.46
961.199	3857.29
961.502	3861.81
961.805	3806.44
962.108	3796.04
962.411	3813.22
962.714	3725.99
963.017	3729.83
963.32	3735.03
963.623	3714.24
963.926	3737.06
964.228	3671.53
964.531	3692.32
964.833	3650.51
965.136	3605.31
965.438	3634.47
965.741	3616.39
966.043	3576.39
966.345	3558.31
966.648	3544.3
966.95	3546.11
967.252	3518.99
967.554	3542.72
967.856	3485.77
968.158	3454.13
968.46	3504.98
968.761	3427.47
969.063	3464.98
969.365	3423.17
969.666	3424.75
969.968	3393.79
970.269	3390.18
970.571	3380.69
970.872	3336.62
971.174	3329.84
971.475	3333.01
971.776	3271.09
972.077	3280.35
972.378	3279.22
972.679	3260.47
972.98	3219.11
973.281	3228.15
973.582	3253.23
973.883	3237.41
974.183	3211.43
974.484	3242.61
974.785	3153.12
975.085	3157.19
975.386	3144.31
975.686	3180.47
975.986	3094.59
976.287	3109.51
976.587	3057.31
976.887	3079.68
977.187	3034.26
977.487	3014.37
977.787	3039.68
978.087	3008.95
978.387	3011.43
978.687	2970.53
978.987	2988.83
979.286	3005.33
979.586	2981.83
979.885	2946.8
980.185	2952.68
980.484	2899.57
980.784	2922.85
981.083	2886.46
981.382	2901.83
981.682	2893.47
981.981	2876.52
982.28	2842.17
982.579	2806.92
982.878	2809.86
983.177	2814.6
983.475	2794.94
983.774	2763.08
984.073	2756.98
984.372	2738.67
984.67	2728.95
984.969	2740.48
985.267	2764.66
985.566	2723.76
985.864	2690.31
986.162	2664.77
986.461	2652.12
986.759	2635.17
987.057	2632.23
987.355	2610.54
987.653	2638.33
987.951	2600.6
988.249	2582.97
988.547	2578.9
988.844	2583.87
989.142	2543.87
989.44	2528.96
989.737	2513.37
990.035	2521.28
990.332	2501.84
990.63	2476.98
990.927	2454.38
991.224	2485.12
991.521	2447.15
991.819	2459.81
992.116	2420.94
992.413	2447.83
992.71	2399.47
993.006	2424.55
993.303	2410.32
993.6	2385.46
993.897	2380.04
994.193	2357.89
994.49	2322.64
994.787	2327.16
995.083	2323.31
995.379	2341.17
995.676	2337.33
995.972	2297.1
996.268	2296.42
996.565	2268.4
996.861	2266.14
997.157	2255.07
997.453	2213.26
997.749	2278.34
998.044	2204.67
998.34	2214.62
998.636	2209.19
998.932	2167.84
999.227	2143.88
999.523	2152.7
999.818	2162.19
1000.114	2119.25
1000.409	2138.46
1000.704	2121.51
1001	2079.48
1001.295	2116.54
1001.59	2071.57
1001.885	2037.9
1002.18	2066.15
1002.475	2040.61
1002.77	2029.76
1003.065	2014.62
1003.359	2006.03
1003.654	2002.42
1003.949	2011.23
1004.243	1982.76
1004.538	1990.22
1004.832	1991.8
1005.127	1961.06
1005.421	1958.58
1005.715	1952.25
1006.009	1905.92
1006.304	1933.27
1006.598	1883.55
1006.892	1898.47
1007.186	1864.34
1007.48	1879.26
1007.773	1875.42
1008.067	1846.94
1008.361	1813.72
1008.655	1807.62
1008.948	1848.3
1009.242	1816.89
1009.535	1810.56
1009.829	1784.57
1010.122	1798.13
1010.415	1764.23
1010.708	1764.23
1011.001	1754.52
1011.295	1728.3
1011.588	1783.89
1011.881	1708.87
1012.173	1717.23
1012.466	1662.77
1012.759	1697.12
1013.052	1644.24
1013.344	1665.25
1013.637	1658.02
1013.93	1674.29
1014.222	1630.68
1014.514	1639.94
1014.807	1611.24
1015.099	1601.3
1015.391	1583.67
1015.683	1604.46
1015.976	1597.01
1016.268	1619.38
1016.56	1568.53
1016.851	1514.3
1017.143	1557.01
1017.435	1550.45
1017.727	1507.97
1018.018	1498.03
1018.31	1528.08
1018.602	1492.15
1018.893	1493.73
1019.185	1499.61
1019.476	1480.4
1019.767	1424.36
1020.058	1463.22
1020.35	1452.83
1020.641	1404.02
1020.932	1425.94
1021.223	1415.32
1021.514	1416.45
1021.804	1378.71
1022.095	1373.06
1022.386	1361.53
1022.677	1367.18
1022.967	1361.08
1023.258	1359.5
1023.548	1335.09
1023.839	1317.01
1024.129	1310.23
1024.419	1338.48
1024.709	1284.7
1025	1289.9
1025.29	1289.22
1025.58	1307.52
1025.87	1265.04
1026.16	1264.36
1026.449	1262.1
1026.739	1250.12
1027.029	1244.25
1027.319	1197.92
1027.608	1215.32
1027.898	1220.07
1028.187	1237.69
1028.477	1213.74
1028.766	1163.12
1029.055	1188.88
1029.344	1183.01
1029.634	1186.62
1029.923	1147.53
1030.212	1190.24
1030.501	1134.42
1030.79	1149.56
1031.078	1144.14
1031.367	1130.8
1031.656	1103.23
1031.945	1099.39
1032.233	1117.24
1032.522	1108.21
1032.81	1098.49
1033.099	1087.87
1033.387	1076.34
1033.675	1083.8
1033.963	1057.59
1034.251	1065.49
1034.54	1077.92
1034.828	1003.12
1035.116	1060.75
1035.403	1016.46
1035.691	1031.37
1035.979	1034.99
1036.267	1025.27
1036.554	1025.5
1036.842	991.82
1037.129	983.24
1037.417	991.6
1037.704	957.7
1037.992	976.91
1038.279	970.81
1038.566	940.07
1038.853	940.07
1039.14	940.07
