Data from hue_150_FLMS001491_00025.txt Node
Date: Tue Feb 07 16:53:49 GMT 2017
User: dcchb
Spectrometer: FLMS00149
Trigger mode: 0
Integration Time (sec): 2.000000E-2
Scans to average: 10
Electric dark correction enabled: true
Nonlinearity correction enabled: false
Boxcar width: 0
XAxis mode: Wavelengths
Number of Pixels in Spectrum: 2048
>>>>>Begin Spectral Data<<<<<
341.393	-7.22
341.776	-7.22
342.16	-7.22
342.543	-53.09
342.927	-51.74
343.31	-61
343.693	-66.42
344.077	-70.72
344.46	-54
344.843	-46.09
345.226	-39.08
345.61	-30.72
345.993	-26.2
346.376	-7.44
346.759	-15.13
347.142	35.27
347.525	45.21
347.908	70.29
348.291	72.33
348.674	87.47
349.057	106.23
349.44	136.51
349.823	138.32
350.206	159.11
350.588	213.57
350.971	206.11
351.354	242.49
351.737	243.4
352.119	268.93
352.502	258.31
352.884	273.91
353.267	272.32
353.65	290.4
354.032	305.54
354.414	305.77
354.797	313.9
355.179	329.05
355.562	317.07
355.944	335.37
356.326	350.06
356.709	351.42
357.091	331.76
357.473	336.28
357.855	338.76
358.238	366.56
358.62	357.74
359.002	338.08
359.384	336.05
359.766	342.15
360.148	351.42
360.53	349.16
360.912	347.35
361.294	340.34
361.676	352.1
362.057	333.79
362.439	343.73
362.821	335.6
363.203	348.25
363.584	331.98
363.966	345.09
364.348	323.17
364.729	327.69
365.111	335.6
365.493	327.46
365.874	310.51
366.256	333.79
366.637	334.69
367.019	330.4
367.4	314.58
367.781	299.22
368.163	324.98
368.544	324.53
368.925	340.57
369.306	327.24
369.688	331.3
370.069	315.03
370.45	339.67
370.831	349.38
371.212	317.75
371.593	304.86
371.974	330.63
372.355	323.4
372.736	307.8
373.117	341.25
373.498	317.52
373.879	312.32
374.26	322.49
374.641	316.62
375.021	318.88
375.402	310.74
375.783	319.1
376.163	334.92
376.544	336.05
376.925	324.3
377.305	334.92
377.686	347.8
378.066	351.42
378.447	324.98
378.827	345.32
379.208	351.42
379.588	358.65
379.968	350.51
380.349	355.26
380.729	350.29
381.109	341.25
381.489	346.22
381.87	345.54
382.25	334.24
382.63	351.64
383.01	361.81
383.39	341.25
383.77	346.9
384.15	359.78
384.53	351.19
384.91	358.2
385.29	356.61
385.67	348.25
386.049	367.69
386.429	360
386.809	353.68
387.189	372.43
387.568	366.78
387.948	334.02
388.328	380.12
388.707	368.37
389.087	376.95
389.466	365.65
389.846	369.95
390.225	379.67
390.605	358.87
390.984	378.99
391.363	374.47
391.743	393.22
392.122	384.18
392.501	387.35
392.881	381.25
393.26	407.46
393.639	380.34
394.018	391.87
394.397	385.31
394.776	395.94
395.155	379.44
395.534	384.64
395.913	386.22
396.292	402.72
396.671	402.49
397.05	413.11
397.429	413.79
397.808	402.94
398.186	402.26
398.565	424.18
398.944	403.39
399.323	408.36
399.701	396.39
400.08	430.96
400.458	417.63
400.837	415.37
401.215	404.52
401.594	413.11
401.972	415.37
402.351	456.05
402.729	443.62
403.107	457.86
403.486	415.37
403.864	437.97
404.242	443.84
404.62	456.5
404.999	463.73
405.377	428.03
405.755	444.3
406.133	438.65
406.511	465.31
406.889	462.15
407.267	482.94
407.645	478.19
408.023	433
408.401	458.08
408.779	456.05
409.156	482.04
409.534	482.26
409.912	474.35
410.29	473.9
410.667	482.04
411.045	481.36
411.422	498.76
411.8	502.37
412.178	525.65
412.555	520
412.933	525.88
413.31	518.19
413.687	508.25
414.065	524.97
414.442	534.24
414.819	504.41
415.197	527.01
415.574	529.49
415.951	545.99
416.328	541.47
416.705	528.59
417.082	542.6
417.46	561.81
417.837	553.67
418.214	554.58
418.591	557.51
418.967	574.46
419.344	571.75
419.721	581.92
420.098	566.1
420.475	562.94
420.852	553.45
421.228	592.31
421.605	577.63
421.982	562.49
422.358	608.59
422.735	586.67
423.111	578.98
423.488	597.06
423.864	616.04
424.241	618.08
424.617	637.06
424.994	621.24
425.37	646.32
425.746	623.05
426.123	632.77
426.499	637.29
426.875	638.64
427.251	652.88
427.627	655.59
428.003	662.37
428.379	649.49
428.756	675.7
429.132	670.5
429.507	674.12
429.883	669.83
430.259	708.47
430.635	698.53
431.011	724.74
431.387	730.39
431.763	728.58
432.138	746.44
432.514	729.03
432.89	726.32
433.265	740.33
433.641	768.81
434.016	777.62
434.392	785.53
434.767	787.56
435.143	767.45
435.518	797.73
435.894	790.95
436.269	812.65
436.644	794.57
437.02	836.15
437.395	831.4
437.77	865.53
438.145	831.86
438.52	825.53
438.895	850.84
439.271	848.81
439.646	884.06
440.021	854.68
440.395	867.56
440.77	878.41
441.145	871.18
441.52	892.65
441.895	896.94
442.27	906.66
442.645	901.01
443.019	908.01
443.394	921.57
443.769	940.78
444.143	929.26
444.518	952.98
444.892	942.59
445.267	970.61
445.641	962.25
446.016	983.72
446.39	970.38
446.764	983.72
447.139	960.89
447.513	998.41
447.887	1006.99
448.262	988.91
448.636	1007.45
449.01	1002.47
449.384	1042.25
449.758	1035.47
450.132	1028.01
450.506	1056.26
450.88	1041.34
451.254	1048.12
451.628	1079.53
452.002	1093.09
452.376	1072.3
452.75	1099.65
453.123	1137.39
453.497	1126.31
453.871	1126.31
454.244	1147.33
454.618	1185.07
454.992	1184.62
455.365	1176.93
455.739	1194.33
456.112	1220.32
456.486	1231.39
456.859	1235.91
457.232	1278.85
457.606	1250.83
457.979	1288.34
458.352	1324.27
458.725	1307.32
459.099	1303.71
459.472	1371.73
459.845	1365.85
460.218	1388
460.591	1391.16
460.964	1381.67
461.337	1432.07
461.71	1447.21
462.083	1496.7
462.456	1489.92
462.829	1496.7
463.201	1506.19
463.574	1519.07
463.947	1562.46
464.32	1574.89
464.692	1599.52
465.065	1588.9
465.438	1652.85
465.81	1668.44
466.183	1645.85
466.555	1701.21
466.928	1730.82
467.3	1759.29
467.672	1766.97
468.045	1825.5
468.417	1842.68
468.789	1876.8
469.161	1876.8
469.534	1951.15
469.906	1992.05
470.278	2003.58
470.65	2004.26
471.022	2075.89
471.394	2113.18
471.766	2114.31
472.138	2143.69
472.51	2208.54
472.882	2252.38
473.253	2272.04
473.625	2365.15
473.997	2385.94
474.369	2415.09
474.74	2447.63
475.112	2519.5
475.484	2572.38
475.855	2622.32
476.227	2704.58
476.598	2785.03
476.97	2827.74
477.341	2912.03
477.713	2963.33
478.084	3005.81
478.455	3105.92
478.827	3155.19
479.198	3308.85
479.569	3319.7
479.94	3484.67
480.311	3489.87
480.682	3622.74
481.053	3712.01
481.424	3759.69
481.795	3877.43
482.166	3976.41
482.537	4049.17
482.908	4196.06
483.279	4265.66
483.65	4362.61
484.021	4519.67
484.391	4607.8
484.762	4713.56
485.133	4769.15
485.503	4921.69
485.874	5083.27
486.244	5140.9
486.615	5275.58
486.985	5429.02
487.356	5609.36
487.726	5614.1
488.097	5763.7
488.467	5915.79
488.837	6081.66
489.207	6150.59
489.578	6335.89
489.948	6464.93
490.318	6647.3
490.688	6734.3
491.058	6864.69
491.428	7080.73
491.798	7093.16
492.168	7370.89
492.538	7384.45
492.908	7512.58
493.278	7693.15
493.648	7832.58
494.017	7959.35
494.387	8139.01
494.757	8201.61
495.126	8334.94
495.496	8452.67
495.866	8511.2
496.235	8734.25
496.605	8902.6
496.974	8954.81
497.344	9003.39
497.713	9137.4
498.082	9240.22
498.452	9421.01
498.821	9511.63
499.19	9529.26
499.559	9715.69
499.928	9848.12
500.298	9880.21
500.667	10046.53
501.036	10086.75
501.405	10268.9
501.774	10225.73
502.143	10368.56
502.512	10489.23
502.88	10595.44
503.249	10659.39
503.618	10744.36
503.987	10809.9
504.356	10877.02
504.724	10918.6
505.093	11026.62
505.462	11024.36
505.83	11195.2
506.199	11176.22
506.567	11460.73
506.936	11358.59
507.304	11528.3
507.672	11559.26
508.041	11634.96
508.409	11733.94
508.777	11859.82
509.145	11923.09
509.514	11956.54
509.882	11961.28
510.25	12036.31
510.618	12058.45
510.986	12121.96
511.354	12299.35
511.722	12302.52
512.09	12363.53
512.458	12368.05
512.826	12481.04
513.193	12592.23
513.561	12601.04
513.929	12661.6
514.297	12668.38
514.664	12750.41
515.032	12813.69
515.4	12865.89
515.767	12885.33
516.135	12904.53
516.502	12799.45
516.869	13043.51
517.237	13057.3
517.604	12997.64
517.972	13149.5
518.339	13210.97
518.706	13160.35
519.073	13240.8
519.44	13311.53
519.808	13345.88
520.175	13295.48
520.542	13449.38
520.909	13423.16
521.276	13410.96
521.643	13579.77
522.009	13519.66
522.376	13567.12
522.743	13685.08
523.11	13769.14
523.477	13771.18
523.843	13804.85
524.21	13910.83
524.577	13991.28
524.943	13972.75
525.31	14043.71
525.676	14032.19
526.043	14018.63
526.409	14047.33
526.776	14160.77
527.142	14127.33
527.508	14109.02
527.874	14299.3
528.241	14262.46
528.607	14216.82
528.973	14223.14
529.339	14261.79
529.705	14305.17
530.071	14322.8
530.437	14366.64
530.803	14401.22
531.169	14386.3
531.535	14298.85
531.901	14359.18
532.267	14347.66
532.632	14393.08
532.998	14455.68
533.364	14353.31
533.73	14325.97
534.095	14343.59
534.461	14376.81
534.826	14357.6
535.192	14396.47
535.557	14454.78
535.923	14324.16
536.288	14331.61
536.653	14292.52
537.019	14220.66
537.384	14269.92
537.749	14264.05
538.114	14290.26
538.479	14279.64
538.845	14259.07
539.21	14151.05
539.575	14213.2
539.94	14130.94
540.305	14116.71
540.67	14111.28
541.034	14116.71
541.399	14060.21
541.764	14081.45
542.129	14022.47
542.494	13969.14
542.858	14004.84
543.223	13948.35
543.587	13949.48
543.952	13895.02
544.316	13836.49
544.681	13957.39
545.045	13798.3
545.41	13873.1
545.774	13753.1
546.138	13796.04
546.503	13770.05
546.867	13732.76
547.231	13781.12
547.595	13664.51
547.959	13696.38
548.324	13643.27
548.688	13624.06
549.052	13568.92
549.416	13563.27
549.779	13519.43
550.143	13550.84
550.507	13499.32
550.871	13509.72
551.235	13373.9
551.599	13478.53
551.962	13423.62
552.326	13374.13
552.689	13440.11
553.053	13321.02
553.417	13284.86
553.78	13372.09
554.143	13286.22
554.507	13375.26
554.87	13303.39
555.234	13398.76
555.597	13291.42
555.96	13300
556.323	13267.69
556.686	13203.73
557.05	13299.33
557.413	13335.48
557.776	13351.53
558.139	13296.16
558.502	13235.82
558.865	13248.93
559.228	13242.15
559.59	13339.55
559.953	13309.04
560.316	13369.15
560.679	13396.5
561.041	13385.65
561.404	13441.92
561.767	13404.86
562.129	13277.18
562.492	13421.36
562.854	13352.66
563.217	13352.21
563.579	13308.59
563.941	13475.37
564.304	13450.28
564.666	13471.52
565.028	13443.28
565.39	13475.59
565.753	13575.48
566.115	13599.43
566.477	13558.08
566.839	13450.28
567.201	13629.94
567.563	13575.25
567.925	13758.97
568.287	13650.05
568.648	13648.69
569.01	13642.59
569.372	13676.26
569.734	13627.23
570.095	13686.66
570.457	13807.56
570.819	13704.51
571.18	13759.88
571.542	13817.96
571.903	13718.07
572.265	13830.84
572.626	13851.85
572.987	13824.51
573.349	13836.71
573.71	13872.87
574.071	13934.56
574.432	13905.19
574.794	14006.65
575.155	13949.03
575.516	13923.49
575.877	13899.99
576.238	13967.56
576.599	13987.44
576.96	13980.21
577.32	13945.64
577.681	14010.49
578.042	14029.48
578.403	13996.48
578.763	13993.09
579.124	13997.61
579.485	14036.03
579.845	14042.81
580.206	13972.75
580.566	13979.08
580.927	13991.51
581.287	14066.31
581.648	14032.19
582.008	14098.17
582.368	14065.63
582.728	14122.81
583.089	14061.34
583.449	14054.33
583.809	14078.97
584.169	14064.5
584.529	14049.81
584.889	14038.06
585.249	13927.78
585.609	13932.98
585.969	14117.84
586.329	13956.71
586.688	13996.93
587.048	13971.62
587.408	13941.79
587.768	13913.55
588.127	13915.81
588.487	13868.8
588.846	14048.91
589.206	13766.21
589.565	13870.38
589.925	13965.07
590.284	13873.1
590.643	13912.87
591.003	13955.81
591.362	13884.62
591.721	13932.98
592.08	13891.4
592.44	13814.11
592.799	13817.05
593.158	13888.91
593.517	13909.7
593.876	13801.69
594.235	13870.16
594.593	13846.88
594.952	13826.54
595.311	13848.46
595.67	13804.85
596.029	13876.26
596.387	13842.36
596.746	13901.12
597.104	13853.89
597.463	13805.75
597.822	13748.35
598.18	13809.37
598.538	13862.93
598.897	13835.58
599.255	13760.1
599.613	13942.25
599.972	13726.21
600.33	13914
600.688	13827
601.046	13794.91
601.404	13828.35
601.762	13819.09
602.12	13866.77
602.478	13926.2
602.836	13846.66
603.194	13827.22
603.552	13851.18
603.91	13798.3
604.268	13861.8
604.625	13810.95
604.983	13789.48
605.341	13860.21
605.698	13902.25
606.056	13917.84
606.413	13847.79
606.771	13846.66
607.128	13892.76
607.485	13855.92
607.843	13842.14
608.2	13891.63
608.557	13954.68
608.914	13841.68
609.272	13990.15
609.629	13973.88
609.986	14003.04
610.343	13931.4
610.7	14085.75
611.057	14029.93
611.414	13935.24
611.771	13966.43
612.127	14043.03
612.484	14062.7
612.841	14016.82
613.198	14025.41
613.554	14007.1
613.911	14200.09
614.267	14050.27
614.624	14115.58
614.98	14138.85
615.337	14041
615.693	14128.23
616.05	14137.5
616.406	14141.11
616.762	14165.74
617.118	14058.18
617.475	14099.08
617.831	14271.96
618.187	14173.88
618.543	14193.09
618.899	14334.55
619.255	14234.67
619.611	14226.76
619.967	14322.12
620.323	14329.81
620.678	14198.51
621.034	14224.5
621.39	14170.26
621.746	14215.69
622.101	14299.53
622.457	14191.51
622.812	14263.14
623.168	14300.66
623.523	14325.74
623.879	14304.04
624.234	14311.05
624.589	14274.67
624.945	14225.18
625.3	14289.58
625.655	14297.72
626.01	14325.74
626.365	14357.38
626.72	14269.02
627.075	14301.56
627.43	14302.46
627.785	14263.14
628.14	14284.84
628.495	14146.99
628.85	14164.39
629.205	14151.28
629.559	14210.94
629.914	14157.16
630.269	14143.6
630.623	14141.34
630.978	14165.97
631.332	14164.84
631.687	14193.99
632.041	14150.38
632.396	14104.28
632.75	14089.14
633.104	14083.71
633.459	14040.1
633.813	14023.15
634.167	14033.32
634.521	13996.03
634.875	14032.19
635.229	14056.14
635.583	13902.25
635.937	13944.28
636.291	13900.89
636.645	13950.83
636.999	13879.88
637.352	13889.37
637.706	13898.18
638.06	13913.55
638.413	13869.25
638.767	13836.94
639.121	13867.9
639.474	13798.07
639.828	13812.98
640.181	13811.85
640.534	13745.42
640.888	13707.22
641.241	13695.7
641.594	13758.52
641.947	13726.66
642.301	13634.01
642.654	13692.08
643.007	13681.01
643.36	13686.43
643.713	13639.88
644.066	13684.17
644.419	13553.56
644.771	13482.15
645.124	13422.94
645.477	13369.61
645.83	13295.94
646.182	13220.46
646.535	13234.92
646.888	13223.85
647.24	13090.74
647.593	13142.95
647.945	13230.63
648.298	13160.8
648.65	13081.93
649.002	13060.69
649.355	13182.72
649.707	13131.19
650.059	13161.25
650.411	13386.1
650.763	13407.8
651.115	13508.59
651.467	13517.85
651.819	13527.12
652.171	13436.27
652.523	13400.11
652.875	13362.15
653.227	13403.73
653.578	13480.56
653.93	13494.57
654.282	13392.88
654.633	13390.4
654.985	13393.79
655.337	13447.8
655.688	13427.23
656.039	13529.38
656.391	13334.58
656.742	13411.86
657.094	13276.05
657.445	13441.69
657.796	13476.27
658.147	13366.67
658.498	13405.99
658.849	13498.87
659.2	13395.82
659.551	13402.83
659.902	13448.93
660.253	13478.08
660.604	13490.05
660.955	13381.13
661.306	13428.59
661.656	13362.15
662.007	13454.35
662.358	13465.42
662.708	13428.14
663.059	13415.71
663.409	13377.29
663.76	13420.45
664.11	13403.05
664.461	13437.17
664.811	13433.79
665.161	13400.57
665.511	13388.14
665.862	13425.65
666.212	13510.85
666.562	13441.24
666.912	13467.23
667.262	13487.8
667.612	13450.51
667.962	13430.85
668.312	13396.95
668.662	13475.59
669.011	13429.72
669.361	13504.52
669.711	13368.02
670.06	13441.47
670.41	13408.25
670.76	13400.79
671.109	13320.12
671.459	13307.01
671.808	13421.81
672.157	13345.65
672.507	13346.1
672.856	13337.97
673.205	13307.23
673.554	13316.5
673.904	13317.86
674.253	13368.7
674.602	13307.91
674.951	13070.18
675.3	13082.61
675.649	13213.68
675.998	13222.04
676.346	13245.77
676.695	13291.87
677.044	13137.07
677.393	13165.09
677.741	13206.67
678.09	13177.75
678.438	13062.72
678.787	13088.03
679.135	13062.5
679.484	13068.6
679.832	12981.37
680.181	12987.7
680.529	13042.84
680.877	13003.74
681.225	12961.48
681.573	12961.03
681.922	13004.19
682.27	12970.75
682.618	12966.23
682.966	12836.06
683.314	12931.65
683.661	12823.41
684.009	12708.61
684.357	12747.48
684.705	12785.44
685.053	12731.43
685.4	12664.99
685.748	12622.28
686.095	12656.86
686.443	12673.13
686.79	12552.23
687.138	12596.97
687.485	12606.01
687.832	12481.49
688.18	12585.22
688.527	12472
688.874	12456.41
689.221	12364.21
689.568	12400.37
689.915	12277.66
690.262	12353.59
690.609	12324.44
690.956	12206.7
691.303	12249.86
691.65	12135.97
691.997	12091.45
692.344	11999.92
692.69	12076.98
693.037	11996.53
693.383	11923.54
693.73	12016.2
694.077	11867.05
694.423	11935.29
694.769	11807.61
695.116	11755.64
695.462	11733.04
695.808	11695.3
696.155	11706.37
696.501	11566.26
696.847	11641.52
697.193	11512.48
697.539	11578.01
697.885	11512.48
698.231	11377.12
698.577	11374.4
698.923	11326.72
699.269	11351.81
699.614	11244.69
699.96	11172.38
700.306	11220.06
700.651	11194.52
700.997	11085.6
701.342	11080.85
701.688	11099.38
702.033	11056.22
702.379	11035.66
702.724	10976.45
703.069	10992.72
703.415	10883.34
703.76	10847.41
704.105	10852.84
704.45	10800.86
704.795	10719.05
705.14	10752.95
705.485	10703.46
705.83	10639.73
706.175	10657.36
706.52	10615.55
706.865	10609.68
707.209	10597.93
707.554	10532.17
707.899	10482.45
708.243	10479.06
708.588	10433.41
708.932	10356.13
709.277	10352.74
709.621	10342.57
709.966	10308.67
710.31	10285.17
710.654	10294.88
710.998	10242.68
711.342	10247.88
711.687	10239.74
712.031	10209.92
712.375	10165.4
712.719	10170.37
713.063	10077.94
713.407	10204.94
713.75	10073.87
714.094	10015.57
714.438	10064.38
714.782	10044.04
715.125	9926.53
715.469	9983.48
715.812	9965.18
716.156	9876.36
716.499	9864.61
716.843	9909.81
717.186	9818.74
717.53	9880.21
717.873	9842.02
718.216	9841.56
718.559	9855.8
718.902	9774.67
719.246	9778.97
719.589	9760.21
719.932	9711.85
720.275	9710.04
720.617	9673.66
720.96	9683.83
721.303	9624.17
721.646	9711.62
721.989	9620.33
722.331	9633.89
722.674	9571.06
723.016	9630.27
723.359	9633.21
723.701	9581.91
724.044	9581.46
724.386	9529.71
724.729	9642.7
725.071	9562.25
725.413	9511.4
725.755	9488.13
726.097	9433.66
726.439	9467.56
726.782	9514.34
727.124	9573.55
727.465	9474.79
727.807	9486.77
728.149	9420.78
728.491	9491.52
728.833	9491.06
729.175	9466.66
729.516	9447.45
729.858	9363.84
730.199	9458.07
730.541	9355.02
730.882	9376.49
731.224	9421.46
731.565	9308.92
731.906	9417.85
732.248	9389.15
732.589	9360.22
732.93	9352.54
733.271	9389.37
733.612	9361.12
733.953	9434.57
734.294	9344.18
734.635	9327.68
734.976	9431.4
735.317	9301.24
735.658	9333.78
735.999	9311.63
736.339	9332.65
736.68	9327.68
737.021	9369.26
737.361	9352.54
737.702	9282.71
738.042	9324.51
738.383	9331.07
738.723	9383.04
739.063	9336.94
739.404	9403.16
739.744	9378.75
740.084	9446.55
740.424	9392.76
740.764	9357.96
741.104	9368.58
741.444	9414.46
741.784	9350.05
742.124	9441.35
742.464	9479.76
742.804	9430.05
743.143	9442.48
743.483	9485.64
743.823	9484.96
744.162	9507.11
744.502	9533.77
744.841	9568.8
745.181	9586.2
745.52	9551.63
745.86	9649.48
746.199	9653.32
746.538	9678.4
746.877	9787.78
747.216	9797.27
747.556	9799.98
747.895	9883.37
748.234	9900.09
748.573	9945.06
748.911	9952.07
749.25	9977.15
749.589	10139.63
749.928	10135.34
750.267	10254.43
750.605	10254.66
750.944	10352.06
751.283	10332.85
751.621	10463.24
751.96	10593.18
752.298	10620.75
752.636	10723.57
752.975	10856.68
753.313	10778.04
753.651	10963.79
753.989	11006.28
754.327	11119.95
754.666	11158.14
755.004	11358.13
755.342	11506.6
755.679	11602.87
756.017	11698.01
756.355	11841.28
756.693	11923.32
757.031	12078.79
757.368	12129.41
757.706	12341.38
758.044	12514.94
758.381	12556.97
758.719	12677.19
759.056	12876.06
759.394	13072.66
759.731	13147.01
760.068	13286.22
760.405	13373
760.743	13501.81
761.08	13776.38
761.417	13855.7
761.754	14059.76
762.091	14181.11
762.428	14214.33
762.765	14354.44
763.102	14682.79
763.438	14707.65
763.775	14919.4
764.112	15092.27
764.449	15197.35
764.785	15252.95
765.122	15473.28
765.458	15534.75
765.795	15714.63
766.131	15947.84
766.467	15978.13
766.804	16127.73
767.14	16346.25
767.476	16435.29
767.812	16481.39
768.148	16651.55
768.485	16662.63
768.821	16783.08
769.157	16954.6
769.492	17108.72
769.828	17145.33
770.164	17218.77
770.5	17271.2
770.836	17466.67
771.171	17436.62
771.507	17650.4
771.842	17618.53
772.178	17705.99
772.513	17847
772.849	17935.81
773.184	17942.14
773.519	18192.76
773.855	18077.96
774.19	18115.92
774.525	18183.04
774.86	18318.63
775.195	18428.91
775.53	18466.87
775.865	18522.69
776.2	18430.26
776.535	18369.7
776.87	18515.46
777.205	18594.33
777.539	18564.05
777.874	18804.94
778.209	18633.87
778.543	18764.94
778.878	18651.5
779.212	18750.48
779.547	18671.39
779.881	18695.34
780.215	18703.93
780.55	18804.94
780.884	18675
781.218	18674.78
781.552	18899.4
781.886	18827.54
782.22	18716.81
782.554	18719.07
782.888	18610.37
783.222	18603.82
783.556	18714.32
783.889	18662.8
784.223	18475.69
784.557	18501
784.89	18675.91
785.224	18489.02
785.557	18526.08
785.891	18480.43
786.224	18492.64
786.558	18445.86
786.891	18453.54
787.224	18379.42
787.557	18455.35
787.891	18383.71
788.224	18362.24
788.557	18323.6
788.89	18381.23
789.223	18418.06
789.556	18279.08
789.888	18305.3
790.221	18278.86
790.554	18124.51
790.887	18152.76
791.219	18079.76
791.552	18153.66
791.884	18070.73
792.217	18003.38
792.549	18061.46
792.882	17985.53
793.214	17928.13
793.546	17910.28
793.879	17810.62
794.211	17722.49
794.543	17826.89
794.875	17760.68
795.207	17702.6
795.539	17724.07
795.871	17685.42
796.203	17630.74
796.535	17500.12
796.867	17459.89
797.198	17459.22
797.53	17442.49
797.862	17298.77
798.193	17356.85
798.525	17209.51
798.856	17312.55
799.188	17192.78
799.519	17139.22
799.85	17027.59
800.182	17069.4
800.513	17078.89
800.844	16924.77
801.175	17047.02
801.506	16943.98
801.837	16869.63
802.168	16783.3
802.499	16760.03
802.83	16763.42
803.161	16679.8
803.491	16706.24
803.822	16634.6
804.153	16598.22
804.483	16489.07
804.814	16506.25
805.145	16392.35
805.475	16410.88
805.805	16349.41
806.136	16405.91
806.466	16318.46
806.796	16332.24
807.126	16200.72
807.457	16249.76
807.787	16235.52
808.117	16161.85
808.447	16117.1
808.777	16184.45
809.107	16076.2
809.436	16011.34
809.766	15975.41
810.096	16070.33
810.426	15844.34
810.755	15905.81
811.085	15875.98
811.414	15913.27
811.744	15730.67
812.073	15719.15
812.403	15793.95
812.732	15646.38
813.061	15638.25
813.39	15481.87
813.719	15580.62
814.049	15701.07
814.378	15638.25
814.707	15426.73
815.036	15491.36
815.365	15435.77
815.693	15362.77
816.022	15379.27
816.351	15299.95
816.68	15152.38
817.008	15214.53
817.337	15174.08
817.665	15103.8
817.994	15193.06
818.322	15148.77
818.651	15051.82
818.979	15107.41
819.307	15094.08
819.636	15141.08
819.964	14982.22
820.292	15001.43
820.62	14986.29
820.948	14914.88
821.276	15012.27
821.604	15005.95
821.932	14983.12
822.259	14995.55
822.587	14938.6
822.915	14969.56
823.243	14979.28
823.57	14892.28
823.898	14873.3
824.225	14934.31
824.553	14867.87
824.88	14904.48
825.207	14960.98
825.535	14963.91
825.862	14982.9
826.189	14884.59
826.516	14983.8
826.843	14919.4
827.17	14966.63
827.497	14970.69
827.824	15001.2
828.151	15058.83
828.478	15024.93
828.805	15014.76
829.131	14948.55
829.458	14987.42
829.785	14916.01
830.111	14909.23
830.438	14925.95
830.764	14975.44
831.09	14970.69
831.417	14874.2
831.743	14931.37
832.069	14925.05
832.395	14820.19
832.722	14878.72
833.048	14859.74
833.374	14930.92
833.7	14852.28
834.026	14846.18
834.351	14841.21
834.677	14819.74
835.003	14873.97
835.329	14875.33
835.654	14787.2
835.98	14758.72
836.306	14795.78
836.631	14744.71
836.956	14729.12
837.282	14743.81
837.607	14712.17
837.932	14645.5
838.258	14587.88
838.583	14569.57
838.908	14550.14
839.233	14630.82
839.558	14561.89
839.883	14478.73
840.208	14454.32
840.533	14444.61
840.858	14509.92
841.182	14398.05
841.507	14441.67
841.832	14382.23
842.156	14293.42
842.481	14331.84
842.805	14309.02
843.13	14278.73
843.454	14239.87
843.778	14178.85
844.103	14141.56
844.427	14076.25
844.751	14162.13
845.075	14051.85
845.399	14018.4
845.723	13996.48
846.047	13904.96
846.371	13798.75
846.695	13819.54
847.019	13754.91
847.343	13662.93
847.666	13590.17
847.99	13517.62
848.313	13516.04
848.637	13496.16
848.96	13422.49
849.284	13380.91
849.607	13271.3
849.931	13222.49
850.254	13163.51
850.577	13121.93
850.9	13066.11
851.223	12989.5
851.546	12953.57
851.869	12868.15
852.192	12898.21
852.515	12731.66
852.838	12688.49
853.161	12760.58
853.483	12785.44
853.806	12652.34
854.129	12617.76
854.451	12577.31
854.774	12478.78
855.096	12442.85
855.419	12469.06
855.741	12408.05
856.063	12337.77
856.385	12343.42
856.708	12388.39
857.03	12212.12
857.352	12230.43
857.674	12216.19
857.996	12171.67
858.318	12061.39
858.64	12074.27
858.961	12091.22
859.283	11982.3
859.605	11900.94
859.926	12028.62
860.248	11967.61
860.57	11890.1
860.891	11880.15
861.212	11929.87
861.534	11770.1
861.855	11715.19
862.176	11759.93
862.498	11742.53
862.819	11732.59
863.14	11676.54
863.461	11599.48
863.782	11554.51
864.103	11617.11
864.424	11534.4
864.745	11561.52
865.065	11545.47
865.386	11494.63
865.707	11500.95
866.027	11465.25
866.348	11422.31
866.668	11459.6
866.989	11360.17
867.309	11323.11
867.63	11372.6
867.95	11366.49
868.27	11330.79
868.59	11318.59
868.91	11335.08
869.23	11331.92
869.55	11242.43
869.87	11339.83
870.19	11279.27
870.51	11268.42
870.83	11221.19
871.15	11185.71
871.469	11258.25
871.789	11151.36
872.109	11166.27
872.428	11034.07
872.748	11119.5
873.067	11101.64
873.386	11099.61
873.706	11079.04
874.025	10984.13
874.344	10916.34
874.663	11023.45
874.982	10959.95
875.301	11010.57
875.62	10939.84
875.939	10924.47
876.258	10916.34
876.577	10905.49
876.896	10926.73
877.214	10820.07
877.533	10712.5
877.852	10796.11
878.17	10784.59
878.489	10794.31
878.807	10833.63
879.125	10663.46
879.444	10748.43
879.762	10722.44
880.08	10694.2
880.398	10714.53
880.716	10663.69
881.034	10608.32
881.352	10615.33
881.67	10639.96
881.988	10549.79
882.306	10521.32
882.624	10479.96
882.941	10499.63
883.259	10471.15
883.577	10408.1
883.894	10380.98
884.212	10355.22
884.529	10418.5
884.846	10340.31
885.164	10343.24
885.481	10212.85
885.798	10296.92
886.115	10194.32
886.432	10235.23
886.75	10131.05
887.067	10160.88
887.383	10145.06
887.7	10172.18
888.017	10075.91
888.334	10104.61
888.651	9991.16
888.967	10051.73
889.284	10051.5
889.6	9944.39
889.917	9917.72
890.233	9943.48
890.55	9884.73
890.866	9856.03
891.182	9813.54
891.498	9735.58
891.815	9722.47
892.131	9786.88
892.447	9675.01
892.763	9682.7
893.079	9606.54
893.395	9649.03
893.71	9522.25
894.026	9558.41
894.342	9538.75
894.657	9471.18
894.973	9465.75
895.289	9446.55
895.604	9454.68
895.92	9394.57
896.235	9366.1
896.55	9303.27
896.865	9335.81
897.181	9282.26
897.496	9240.22
897.811	9214.69
898.126	9128.81
898.441	9099.66
898.756	9050.17
899.071	9050.85
899.386	9053.56
899.7	8965.88
900.015	8928.82
900.33	8908.25
900.644	8848.82
900.959	8885.2
901.273	8891.76
901.588	8820.35
901.902	8758.43
902.216	8729.05
902.531	8745.55
902.845	8648.37
903.159	8633.23
903.473	8577.64
903.787	8597.53
904.101	8518.21
904.415	8550.75
904.729	8471.88
905.042	8464.42
905.356	8427.14
905.67	8359.79
905.984	8342.85
906.297	8327.7
906.611	8313.92
906.924	8310.08
907.237	8195.05
907.551	8226.92
907.864	8169.29
908.177	8143.98
908.491	8094.94
908.804	8087.94
909.117	8040.71
909.43	7966.81
909.743	7908.96
910.056	7917.77
910.368	7919.81
910.681	7846.59
910.994	7861.95
911.307	7802.29
911.619	7720.72
911.932	7738.34
912.244	7701.51
912.557	7661.06
912.869	7627.16
913.181	7619.47
913.494	7553.26
913.806	7531.57
914.118	7448.41
914.43	7434.85
914.742	7437.56
915.054	7386.26
915.366	7313.04
915.678	7337
915.99	7316.88
916.302	7248.19
916.613	7245.7
916.925	7219.03
917.236	7197.34
917.548	7176.55
917.859	7165.48
918.171	7131.8
918.482	7089.55
918.794	7014.07
919.105	7030.11
919.416	7040.96
919.727	6993.5
920.038	6970.23
920.349	6891.13
920.66	6921.41
920.971	6859.49
921.282	6868.76
921.593	6805.48
921.903	6738.37
922.214	6706.28
922.525	6644.81
922.835	6663.79
923.146	6604.59
923.456	6628.77
923.767	6583.8
924.077	6610.46
924.387	6561.42
924.697	6488.43
925.008	6470.58
925.318	6462.67
925.628	6468.32
925.938	6469.22
926.248	6411.14
926.558	6345.16
926.867	6377.25
927.177	6324.37
927.487	6282.79
927.796	6283.01
928.106	6269.23
928.416	6149
928.725	6164.15
929.034	6160.76
929.344	6116.92
929.653	6149.23
929.962	6056.58
930.271	6041.44
930.581	6011.38
930.89	6013.64
931.199	6029.91
931.508	5959.41
931.817	5946.07
932.125	5935.68
932.434	5959.18
932.743	5882.57
933.051	5793.99
933.36	5841.22
933.669	5786.98
933.977	5765.06
934.286	5762.35
934.594	5745.85
934.902	5652.52
935.21	5637.15
935.519	5676.93
935.827	5671.05
936.135	5612.75
936.443	5518.29
936.751	5563.26
937.059	5501.56
937.367	5481.23
937.674	5518.29
937.982	5426.31
938.29	5435.58
938.597	5489.59
938.905	5365.3
939.213	5319.65
939.52	5299.31
939.827	5334.11
940.135	5298.18
940.442	5295.69
940.749	5284.62
941.056	5280.78
941.363	5216.83
941.67	5236.26
941.977	5160.78
942.284	5108.13
942.591	5107
942.898	5119.2
943.205	5069.03
943.511	5056.15
943.818	5006.66
944.125	5040.56
944.431	5011.41
944.738	4967.12
945.044	4927.57
945.35	4934.12
945.657	4889.6
945.963	4878.98
946.269	4869.26
946.575	4893.22
946.881	4863.16
947.187	4827.68
947.493	4815.71
947.799	4802.6
948.105	4732.09
948.41	4725.09
948.716	4744.75
949.022	4714.01
949.327	4692.09
949.633	4645.09
949.938	4670.17
950.244	4610.06
950.549	4564.19
950.854	4572.32
951.16	4556.05
951.465	4490.29
951.77	4490.97
952.075	4485.55
952.38	4455.94
952.685	4431.99
952.99	4431.08
953.294	4429.95
953.599	4398.77
953.904	4348.15
954.209	4335.72
954.513	4332.33
954.818	4288.71
955.122	4286.91
955.426	4287.59
955.731	4273.12
956.035	4225.67
956.339	4247.59
956.643	4217.53
956.948	4132.33
957.252	4194.03
957.556	4105.67
957.86	4113.8
958.163	4088.04
958.467	4069.29
958.771	4054.37
959.075	4070.64
959.378	4027.03
959.682	4045.11
959.985	4043.75
960.289	4010.76
960.592	4037.42
960.896	3980.93
961.199	3977.99
961.502	3937.99
961.805	3869.97
962.108	3937.76
962.411	3908.61
962.714	3833.59
963.017	3820.93
963.32	3865
963.623	3810.54
963.926	3782.51
964.228	3777.99
964.531	3754.72
964.833	3768.5
965.136	3679.47
965.438	3698.45
965.741	3709.3
966.043	3673.59
966.345	3668.62
966.648	3676.75
966.95	3646.25
967.252	3617.32
967.554	3614.16
967.856	3570.54
968.158	3549.07
968.46	3524.89
968.761	3581.16
969.063	3539.13
969.365	3523.99
969.666	3509.53
969.968	3487.38
970.269	3483.99
970.571	3441.05
970.872	3448.96
971.174	3416.87
971.475	3401.73
971.776	3403.99
972.077	3371.68
972.378	3404.44
972.679	3380.49
972.98	3324.45
973.281	3330.32
973.582	3322.86
973.883	3273.6
974.183	3295.75
974.484	3291.23
974.785	3248.06
975.085	3262.3
975.386	3250.55
975.686	3256.2
975.986	3172.13
976.287	3197.67
976.587	3150.21
976.887	3141.17
977.187	3120.84
977.487	3093.94
977.787	3091.91
978.087	3118.8
978.387	3060.27
978.687	3038.35
978.987	3020.73
979.286	3013.04
979.586	3028.18
979.885	3009.43
980.185	2992.93
980.484	2963.1
980.784	2963.1
981.083	2963.33
981.382	2958.58
981.682	2932.59
981.981	2915.87
982.28	2915.42
982.579	2879.49
982.878	2885.14
983.177	2862.31
983.475	2817.57
983.774	2834.52
984.073	2827.96
984.372	2779.83
984.67	2745.7
984.969	2806.72
985.267	2779.6
985.566	2769.43
985.864	2752.94
986.162	2719.94
986.461	2740.51
986.759	2675.2
987.057	2692.15
987.355	2664.8
987.653	2695.08
987.951	2645.59
988.249	2656.22
988.547	2666.38
988.844	2637.68
989.142	2607.4
989.44	2629.32
989.737	2623.22
990.035	2565.14
990.332	2568.76
990.63	2574.64
990.927	2545.94
991.224	2511.59
991.521	2554.3
991.819	2521.53
992.116	2533.73
992.413	2501.42
992.71	2472.49
993.006	2453.06
993.303	2452.15
993.6	2463.68
993.897	2428.42
994.193	2420.06
994.49	2379.39
994.787	2411.02
995.083	2374.64
995.379	2383.68
995.676	2389.78
995.972	2352.27
996.268	2336.45
996.565	2333.51
996.861	2309.33
997.157	2326.28
997.453	2286.06
997.749	2270.69
998.044	2265.04
998.34	2273.17
998.636	2236.57
998.932	2232.95
999.227	2226.4
999.523	2256.23
999.818	2195.44
1000.114	2179.39
1000.409	2169.9
1000.704	2187.75
1001	2149.56
1001.295	2129.22
1001.59	2150.01
1001.885	2133.29
1002.18	2116.79
1002.475	2091.71
1002.77	2056.91
1003.065	2070.02
1003.359	2064.82
1003.654	2053.29
1003.949	2035.44
1004.243	2048.77
1004.538	2023.92
1004.832	2051.94
1005.127	2027.53
1005.421	1984.82
1005.715	1973.75
1006.009	1990.02
1006.304	1925.16
1006.598	1947.76
1006.892	1933.3
1007.186	1916.12
1007.48	1930.13
1007.773	1895.33
1008.067	1892.85
1008.361	1872.28
1008.655	1847.2
1008.948	1834.77
1009.242	1850.13
1009.535	1815.56
1009.829	1807.42
1010.122	1809.01
1010.415	1806.07
1010.708	1779.85
1011.001	1775.11
1011.295	1792.06
1011.588	1757.93
1011.881	1733.3
1012.173	1735.79
1012.466	1720.87
1012.759	1705.96
1013.052	1687.2
1013.344	1705.73
1013.637	1701.89
1013.93	1672.96
1014.222	1674.32
1014.514	1660.54
1014.807	1674.32
1015.099	1616.69
1015.391	1644.26
1015.683	1611.95
1015.976	1612.85
1016.268	1611.27
1016.56	1589.8
1016.851	1587.54
1017.143	1571.72
1017.435	1562.23
1017.727	1570.82
1018.018	1543.02
1018.31	1564.72
1018.602	1543.48
1018.893	1513.42
1019.185	1479.75
1019.476	1477.04
1019.767	1480.2
1020.058	1484.04
1020.35	1475.68
1020.641	1435.91
1020.932	1438.17
1021.223	1421.22
1021.514	1417.38
1021.804	1415.34
1022.095	1437.04
1022.386	1399.3
1022.677	1397.72
1022.967	1378.73
1023.258	1377.38
1023.548	1366.31
1023.839	1375.57
1024.129	1344.39
1024.419	1336.02
1024.709	1322.01
1025	1301.22
1025.29	1327.89
1025.58	1308.68
1025.87	1315.46
1026.16	1293.99
1026.449	1283.6
1026.739	1273.43
1027.029	1287.89
1027.319	1240.21
1027.608	1254.22
1027.898	1252.64
1028.187	1262.81
1028.477	1244.95
1028.766	1234.56
1029.055	1224.61
1029.344	1225.97
1029.634	1213.09
1029.923	1226.65
1030.212	1163.15
1030.501	1145.97
1030.79	1169.02
1031.078	1178.29
1031.367	1157.95
1031.656	1121.11
1031.945	1152.98
1032.233	1166.09
1032.522	1138.29
1032.81	1108.23
1033.099	1103.49
1033.387	1083.38
1033.675	1093.09
1033.963	1105.52
1034.251	1078.63
1034.54	1071.85
1034.828	1061.23
1035.116	1065.97
1035.403	1063.94
1035.691	1041.12
1035.979	1029.59
1036.267	1023.26
1036.554	1017.16
1036.842	1022.81
1037.129	1030.5
1037.417	1033.21
1037.704	1007.45
1037.992	1013.09
1038.279	987.33
1038.566	974.68
1038.853	974.68
1039.14	974.68
