Data from hue_180_FLMS001491_00001.txt Node
Date: Tue Feb 07 16:46:28 GMT 2017
User: dcchb
Spectrometer: FLMS00149
Trigger mode: 0
Integration Time (sec): 2.000000E-2
Scans to average: 10
Electric dark correction enabled: true
Nonlinearity correction enabled: false
Boxcar width: 0
XAxis mode: Wavelengths
Number of Pixels in Spectrum: 2048
>>>>>Begin Spectral Data<<<<<
341.393	-6.79
341.776	-6.79
342.16	-6.79
342.543	-63.74
342.927	-68.03
343.31	-56.74
343.693	-66
344.077	-85.21
344.46	-73.46
344.843	-43.4
345.226	-37.3
345.61	-39.79
345.993	-14.7
346.376	-18.77
346.759	-2.95
347.142	37.95
347.525	55.13
347.908	59.19
348.291	76.82
348.674	88.8
349.057	120.43
349.44	127.89
349.823	156.59
350.206	167.89
350.588	198.62
350.971	214.22
351.354	236.82
351.737	227.1
352.119	244.05
352.502	275.23
352.884	278.4
353.267	292.41
353.65	293.31
354.032	292.18
354.414	300.32
354.797	319.07
355.179	298.06
355.562	343.25
355.944	337.83
356.326	329.69
356.709	335.8
357.091	342.8
357.473	352.74
357.855	335.8
358.238	318.62
358.62	338.51
359.002	349.58
359.384	331.95
359.766	342.8
360.148	346.64
360.53	331.73
360.912	329.92
361.294	346.42
361.676	351.16
362.057	357.49
362.439	343.71
362.821	329.24
363.203	309.58
363.584	320.43
363.966	337.6
364.348	340.09
364.729	333.54
365.111	317.04
365.493	323.59
365.874	310.94
366.256	335.34
366.637	304.84
367.019	317.49
367.4	323.82
367.781	303.48
368.163	315.23
368.544	314.78
368.925	295.8
369.306	329.69
369.688	315.23
370.069	333.54
370.45	317.27
370.831	318.62
371.212	307.1
371.593	326.76
371.974	309.81
372.355	331.05
372.736	312.97
373.117	333.99
373.498	322.01
373.879	327.89
374.26	308.23
374.641	313.88
375.021	328.79
375.402	304.38
375.783	334.21
376.163	331.28
376.544	317.27
376.925	333.08
377.305	333.99
377.686	330.82
378.066	327.21
378.447	330.15
378.827	345.51
379.208	330.6
379.588	334.67
379.968	350.26
380.349	354.55
380.729	347.1
381.109	346.87
381.489	337.38
381.87	350.26
382.25	338.96
382.63	331.28
383.01	339.41
383.39	334.44
383.77	340.54
384.15	329.92
384.53	350.49
384.91	354.55
385.29	360.43
385.67	340.32
386.049	351.16
386.429	353.42
386.809	355
387.189	371.73
387.568	351.39
387.948	363.37
388.328	368.11
388.707	370.6
389.087	372.63
389.466	352.29
389.846	379.18
390.225	386.42
390.605	369.02
390.984	367.21
391.363	379.64
391.743	395.46
392.122	379.41
392.501	384.16
392.881	395.68
393.26	373.31
393.639	381.22
394.018	384.38
394.397	382.12
394.776	397.04
395.155	405.62
395.534	384.38
395.913	393.42
396.292	392.52
396.671	399.98
397.05	404.27
397.429	409.69
397.808	386.42
398.186	402.24
398.565	407.88
398.944	398.62
399.323	406.98
399.701	412.18
400.08	403.82
400.458	419.86
400.837	421.67
401.215	404.72
401.594	433.65
401.972	426.42
402.351	416.25
402.729	421.44
403.107	424.83
403.486	420.77
403.864	472.29
404.242	436.13
404.62	456.92
404.999	441.78
405.377	451.5
405.755	449.69
406.133	470.03
406.511	482.46
406.889	471.39
407.267	486.3
407.645	456.7
408.023	496.02
408.401	529.92
408.779	492.4
409.156	521.1
409.534	516.58
409.912	531.27
410.29	515.9
410.667	547.54
411.045	543.25
411.422	557.94
411.8	556.81
412.178	552.06
412.555	577.15
412.933	595.22
413.31	595.45
413.687	607.43
414.065	609.69
414.442	606.75
414.819	618.05
415.197	637.26
415.574	667.09
415.951	644.94
416.328	642.45
416.705	671.83
417.082	652.17
417.46	701.21
417.837	650.14
418.214	687.88
418.591	710.25
418.967	709.8
419.344	726.97
419.721	712.74
420.098	752.73
420.475	763.13
420.852	732.85
421.228	778.27
421.605	772.39
421.982	788.21
422.358	815.33
422.735	827.53
423.111	797.93
423.488	831.6
423.864	864.37
424.241	876.12
424.617	867.53
424.994	892.39
425.37	885.39
425.746	909.34
426.123	921.09
426.499	947.76
426.875	942.79
427.251	945.5
427.627	958.83
428.003	979.17
428.379	1007.87
428.756	1027.3
429.132	1000.86
429.507	1050.13
429.883	1024.82
430.259	1058.72
430.635	1067.98
431.011	1047.64
431.387	1070.47
431.763	1119.05
432.138	1114.31
432.514	1153.85
432.89	1140.07
433.265	1171.93
433.641	1206.51
434.016	1183.01
434.392	1243.12
434.767	1267.3
435.143	1272.72
435.518	1276.34
435.894	1311.82
436.269	1339.84
436.644	1354.07
437.02	1386.84
437.395	1363.57
437.77	1408.54
438.145	1483.11
438.52	1455.31
438.895	1466.39
439.271	1476.33
439.646	1525.37
440.021	1519.04
440.395	1539.61
440.77	1517.01
441.145	1548.65
441.52	1587.51
441.895	1628.64
442.27	1636.1
442.645	1663.44
443.019	1673.84
443.394	1683.78
443.769	1702.77
444.143	1705.48
444.518	1714.97
444.892	1727.4
445.267	1732.82
445.641	1768.75
446.016	1784.12
446.39	1778.92
446.764	1820.95
447.139	1822.76
447.513	1823.67
447.887	1848.52
448.262	1875.42
448.636	1861.18
449.01	1912.48
449.384	1905.7
449.758	1933.95
450.132	1962.87
450.506	1985.7
450.88	1965.13
451.254	2014.85
451.628	2006.03
452.002	2085.35
452.376	2096.65
452.75	2063.21
453.123	2112.7
453.497	2128.52
453.871	2145.01
454.244	2194.5
454.618	2213.26
454.992	2255.97
455.365	2209.87
455.739	2315.86
456.112	2321.28
456.486	2309.76
456.859	2352.47
457.232	2402.86
457.606	2417.55
457.979	2436.53
458.352	2516.3
458.725	2524.21
459.099	2508.85
459.472	2599.69
459.845	2607.37
460.218	2644.44
460.591	2646.7
460.964	2688.95
461.337	2768.95
461.71	2793.36
462.083	2857.76
462.456	2855.5
462.829	2884.66
463.201	2906.8
463.574	2935.95
463.947	2967.14
464.32	3064.54
464.692	3060.7
465.065	3088.27
465.438	3149.06
465.81	3218.21
466.183	3210.75
466.555	3275.83
466.928	3364.42
467.3	3335.94
467.672	3385.43
468.045	3496.84
468.417	3523.96
468.789	3521.25
469.161	3575.26
469.534	3672.88
469.906	3761.02
470.278	3799.89
470.65	3786.78
471.022	3926.21
471.394	3934.12
471.766	3995.81
472.138	4071.52
472.51	4229.93
472.882	4264.73
473.253	4313.54
473.625	4376.37
473.997	4457.04
474.369	4516.93
474.74	4562.8
475.112	4644.16
475.484	4784.94
475.855	4836.69
476.227	4862.68
476.598	5030.36
476.97	5092.51
477.341	5226.74
477.713	5344.25
478.084	5309.9
478.455	5500.86
478.827	5547.86
479.198	5726.16
479.569	5746.28
479.94	5936.78
480.311	5990.56
480.682	6122.99
481.053	6321.18
481.424	6386.48
481.795	6470.78
482.166	6593.48
482.537	6656.99
482.908	6860.14
483.279	6894.27
483.65	7071.44
484.021	7219.23
484.391	7339.68
484.762	7353.01
485.133	7583.52
485.503	7694.02
485.874	7802.94
486.244	7930.62
486.615	8023.05
486.985	8210.62
487.356	8341.46
487.726	8387.11
488.097	8652.64
488.467	8691.28
488.837	8825.29
489.207	9041.33
489.578	9098.05
489.948	9185.06
490.318	9332.4
490.688	9411.94
491.058	9553.41
491.428	9669.56
491.798	9785.94
492.168	10039.72
492.538	10124.24
492.908	10163.79
493.278	10369.43
493.648	10384.35
494.017	10451.01
494.387	10554.74
494.757	10680.83
495.126	10829.08
495.496	10837.67
495.866	10904.78
496.235	11013.48
496.605	11111.11
496.974	11179.58
497.344	11232.68
497.713	11347.03
498.082	11373.25
498.452	11579.34
498.821	11587.25
499.19	11513.36
499.559	11731.65
499.928	11746.34
500.298	11805.78
500.667	11897.07
501.036	11869.05
501.405	12039.67
501.774	12037.41
502.143	12073.57
502.512	12191.3
502.88	12212.09
503.249	12257.97
503.618	12260
503.987	12386.33
504.356	12396.95
504.724	12567.79
505.093	12485.53
505.462	12552.42
505.83	12592.2
506.199	12713.1
506.567	12835.35
506.936	12773.21
507.304	12863.38
507.672	12915.35
508.041	12970.04
508.409	13021.56
508.777	13094.33
509.145	13045.29
509.514	13033.99
509.882	13148.79
510.25	13118.96
510.618	13214.33
510.986	13195.35
511.354	13293.2
511.722	13290.03
512.09	13321.9
512.458	13346.3
512.826	13409.8
513.193	13439.86
513.561	13447.77
513.929	13525.96
514.297	13574.54
514.664	13641.66
515.032	13465.62
515.4	13649.12
515.767	13668.33
516.135	13668.55
516.502	13549.01
516.869	13801.2
517.237	13658.61
517.604	13719.63
517.972	13743.58
518.339	13801.66
518.706	13841.43
519.073	13803.01
519.44	13771.6
519.808	13795.56
520.175	13787.65
520.542	13891.37
520.909	13899.73
521.276	13834.65
521.643	13961.43
522.009	13975.21
522.376	13981.54
522.743	13979.28
523.11	14016.57
523.477	14158.26
523.843	14108.09
524.21	14122.55
524.577	14194.64
524.943	14141.99
525.31	14132.5
525.676	14238.48
526.043	14265.6
526.409	14214.98
526.776	14254.3
527.142	14245.26
527.508	14218.14
527.874	14263.79
528.241	14233.74
528.607	14273.51
528.973	14364.13
529.339	14165.04
529.705	14333.62
530.071	14172.27
530.437	14254.53
530.803	14223.57
531.169	14219.05
531.535	14023.57
531.901	14037.58
532.267	14019.73
532.632	14123.23
532.998	14054.76
533.364	14043.46
533.73	13908.77
534.095	13984.02
534.461	13931.6
534.826	14021.76
535.192	13870.81
535.557	13917.36
535.923	13845.95
536.288	13793.3
536.653	13751.71
537.019	13623.58
537.384	13662
537.749	13652.96
538.114	13517.14
538.479	13455
538.845	13448.9
539.21	13344.95
539.575	13419.29
539.94	13335
540.305	13380.88
540.67	13180.88
541.034	13223.14
541.399	13170.94
541.764	13064.73
542.129	13047.1
542.494	12996.93
542.858	13030.15
543.223	12930.95
543.587	12903.83
543.952	12771.63
544.316	12732.53
544.681	12740.67
545.045	12714.68
545.41	12594.23
545.774	12578.41
546.138	12493.89
546.503	12505.87
546.867	12409.83
547.231	12407.34
547.595	12369.38
547.959	12269.49
548.324	12187.91
548.688	12217.29
549.052	12185.2
549.416	12055.04
549.779	12000.57
550.143	11975.04
550.507	11968.03
550.871	11895.94
551.235	11805.33
551.599	11789.05
551.962	11796.74
552.326	11742.95
552.689	11743.41
553.053	11583.41
553.417	11631.32
553.78	11697.31
554.143	11551.09
554.507	11559.68
554.87	11489.85
555.234	11500.02
555.597	11352
555.96	11401.95
556.323	11371.21
556.686	11257.77
557.05	11371.66
557.413	11312.23
557.776	11316.98
558.139	11264.32
558.502	11171.44
558.865	11222.52
559.228	11170.99
559.59	11107.49
559.953	11140.71
560.316	11215.51
560.679	11119.69
561.041	11159.47
561.404	11132.35
561.767	11133.25
562.129	11061.16
562.492	11112.24
562.854	11069.98
563.217	11023.42
563.579	11036.76
563.941	11091.45
564.304	11027.49
564.666	11060.71
565.028	11000.83
565.39	11011.9
565.753	11024.78
566.115	10965.35
566.477	11029.98
566.839	11003.09
567.201	11025.01
567.563	11001.05
567.925	11036.98
568.287	11001.5
568.648	11013.93
569.01	11050.77
569.372	11024.78
569.734	11026.14
570.095	10943.65
570.457	11067.49
570.819	11079.02
571.18	11070.66
571.542	11057.77
571.903	10940.04
572.265	11067.72
572.626	11076.76
572.987	11075.63
573.349	11096.42
573.71	11052.12
574.071	11066.14
574.432	11035.63
574.794	11193.82
575.155	11023.42
575.516	11069.53
575.877	11041.5
576.238	11108.39
576.599	11055.74
576.96	11065.23
577.32	11101.39
577.681	11069.98
578.042	11055.06
578.403	11039.02
578.763	11006.7
579.124	11017.1
579.485	11055.29
579.845	11063.42
580.206	11085.12
580.566	11088.06
580.927	10992.24
581.287	11090.54
581.648	11014.16
582.008	10989.53
582.368	11049.86
582.728	10953.14
583.089	11001.05
583.449	10953.37
583.809	10912.24
584.169	10963.77
584.529	10952.24
584.889	11001.05
585.249	10921.96
585.609	10880.38
585.969	10860.94
586.329	10888.29
586.688	10853.94
587.048	10860.72
587.408	10786.59
587.768	10777.33
588.127	10901.17
588.487	10787.27
588.846	10869.08
589.206	10750.44
589.565	10747.05
589.925	10834.5
590.284	10820.94
590.643	10834.96
591.003	10733.94
591.362	10750.21
591.721	10766.03
592.08	10739.82
592.44	10813.49
592.799	10772.81
593.158	10738.91
593.517	10702.53
593.876	10651.91
594.235	10719.48
594.593	10681.96
594.952	10688.29
595.311	10641.06
595.67	10583.89
596.029	10654.39
596.387	10633.15
596.746	10688.07
597.104	10638.12
597.463	10617.56
597.822	10652.14
598.18	10595.41
598.538	10508.41
598.897	10606.49
599.255	10540.95
599.613	10690.55
599.972	10547.51
600.33	10558.35
600.688	10552.93
601.046	10615.3
601.404	10607.39
601.762	10545.02
602.12	10607.62
602.478	10583.89
602.836	10586.6
603.194	10556.32
603.552	10572.82
603.91	10514.96
604.268	10603.32
604.625	10542.31
604.983	10551.57
605.341	10469.09
605.698	10567.62
606.056	10549.09
606.413	10561.74
606.771	10576.43
607.128	10623.21
607.485	10505.92
607.843	10542.31
608.2	10548.64
608.557	10620.95
608.914	10538.01
609.272	10606.49
609.629	10637.22
609.986	10682.19
610.343	10606.26
610.7	10639.25
611.057	10691.46
611.414	10642.19
611.771	10626.37
612.127	10660.5
612.484	10629.08
612.841	10723.77
613.198	10658.69
613.554	10627.05
613.911	10694.17
614.267	10697.56
614.624	10667.95
614.98	10689.42
615.337	10688.29
615.693	10691.46
616.05	10674.51
616.406	10704.56
616.762	10756.99
617.118	10730.55
617.475	10634.73
617.831	10684
618.187	10762.41
618.543	10735.75
618.899	10781.85
619.255	10789.98
619.611	10771.91
619.967	10784.11
620.323	10806.48
620.678	10800.83
621.034	10752.25
621.39	10733.94
621.746	10708.18
622.101	10921.73
622.457	10772.81
622.812	10762.41
623.168	10793.6
623.523	10775.75
623.879	10752.25
624.234	10667.73
624.589	10784.79
624.945	10765.8
625.3	10832.02
625.655	10742.08
626.01	10835.63
626.365	10825.24
626.72	10757.44
627.075	10760.83
627.43	10799.7
627.785	10697.56
628.14	10846.03
628.495	10772.13
628.85	10697.33
629.205	10764.22
629.559	10746.37
629.914	10632.02
630.269	10621.63
630.623	10640.61
630.978	10637.22
631.332	10647.16
631.687	10671.12
632.041	10612.81
632.396	10596.77
632.75	10609.88
633.104	10631.34
633.459	10521.07
633.813	10545.02
634.167	10606.71
634.521	10539.37
634.875	10527.84
635.229	10531.91
635.583	10521.07
635.937	10489.43
636.291	10473.83
636.645	10474.06
636.999	10511.35
637.352	10475.19
637.706	10364.23
638.06	10465.02
638.413	10498.69
638.767	10360.62
639.121	10398.13
639.474	10338.47
639.828	10444.46
640.181	10374.63
640.534	10384.57
640.888	10232.94
641.241	10305.03
641.594	10328.98
641.947	10311.35
642.301	10322.65
642.654	10252.82
643.007	10274.29
643.36	10326.27
643.713	10246.95
644.066	10286.95
644.419	10226.61
644.771	10151.81
645.124	10073.85
645.477	10069.78
645.83	9992.27
646.182	9967.18
646.535	9978.03
646.888	9929.22
647.24	9937.13
647.593	9963.34
647.945	9876.34
648.298	9925.15
648.65	9889.9
649.002	9903.91
649.355	9866.39
649.707	9940.74
650.059	9992.04
650.411	10076.33
650.763	10107.74
651.115	10229.77
651.467	10206.72
651.819	10125.82
652.171	10214.18
652.523	10184.35
652.875	10176.22
653.227	10111.81
653.578	10158.36
653.93	10218.02
654.282	10174.63
654.633	10144.58
654.985	10156.78
655.337	10152.26
655.688	10139.38
656.039	10177.57
656.391	10094.41
656.742	10078.36
657.094	10205.82
657.445	10211.47
657.796	10170.57
658.147	10192.94
658.498	10126.95
658.849	10190
659.2	10206.95
659.551	10284.01
659.902	10188.42
660.253	10211.92
660.604	10217.8
660.955	10159.94
661.306	10194.29
661.656	10240.39
662.007	10212.6
662.358	10269.77
662.708	10167.18
663.059	10210.11
663.409	10215.08
663.76	10270
664.11	10262.77
664.461	10292.6
664.811	10184.8
665.161	10271.81
665.511	10255.99
665.862	10172.15
666.212	10324.23
666.562	10220.73
666.912	10246.95
667.262	10248.53
667.612	10241.75
667.962	10285.82
668.312	10262.99
668.662	10273.61
669.011	10260.06
669.361	10252.37
669.711	10232.26
670.06	10203.56
670.41	10188.19
670.76	10221.86
671.109	10252.82
671.459	10210.56
671.808	10212.37
672.157	10251.69
672.507	10232.71
672.856	10158.36
673.205	10207.63
673.554	10187.74
673.904	10189.1
674.253	10262.77
674.602	10146.84
674.951	10028.42
675.3	9986.84
675.649	10209.89
675.998	10102.77
676.346	10117.91
676.695	10168.76
677.044	10014.86
677.393	10080.4
677.741	10098.7
678.09	10059.83
678.438	9997.92
678.787	10062.55
679.135	10056.9
679.484	10034.07
679.832	10030.68
680.181	9977.12
680.529	9938.93
680.877	9900.97
681.225	9901.42
681.573	9936.45
681.922	9896.67
682.27	9830.46
682.618	9830.01
682.966	9815.1
683.314	9816
683.661	9779.84
684.009	9702.78
684.357	9682.44
684.705	9635.66
685.053	9684.25
685.4	9701.43
685.748	9643.8
686.095	9628.89
686.443	9585.72
686.79	9573.29
687.138	9587.53
687.485	9566.51
687.832	9530.81
688.18	9577.36
688.527	9409.91
688.874	9457.14
689.221	9402.9
689.568	9406.07
689.915	9376.46
690.262	9332.4
690.609	9278.16
690.956	9281.55
691.303	9246.75
691.65	9238.39
691.997	9229.8
692.344	9121.1
692.69	9106.64
693.037	9177.6
693.383	9067.32
693.73	9138.95
694.077	8987.77
694.423	9031.16
694.769	8978.96
695.116	8926.98
695.462	8938.96
695.808	8864.16
696.155	8897.15
696.501	8759.53
696.847	8780.32
697.193	8734.9
697.539	8775.57
697.885	8661.45
698.231	8712.07
698.577	8675.01
698.923	8569.48
699.269	8539.87
699.614	8542.81
699.96	8497.39
700.306	8429.82
700.651	8434.79
700.997	8388.47
701.342	8371.97
701.688	8404.74
702.033	8369.48
702.379	8292.2
702.724	8287
703.069	8193.67
703.415	8169.71
703.76	8188.25
704.105	8176.04
704.45	8087.68
704.795	8086.1
705.14	8035.71
705.485	8058.98
705.83	7942.15
706.175	8033.9
706.52	7972.88
706.865	7950.51
707.209	7948.48
707.554	7943.05
707.899	7907.8
708.243	7843.4
708.588	7897.63
708.932	7790.06
709.277	7743.74
709.621	7769.73
709.966	7673.23
710.31	7774.47
710.654	7658.54
710.998	7603.4
711.342	7643.85
711.687	7637.3
712.031	7592.33
712.375	7586.23
712.719	7606.34
713.063	7542.61
713.407	7614.47
713.75	7515.27
714.094	7580.13
714.438	7471.65
714.782	7502.16
715.125	7457.87
715.469	7456.29
715.812	7473.01
716.156	7405.67
716.499	7390.75
716.843	7362.73
717.186	7334.48
717.53	7409.28
717.873	7361.15
718.216	7307.82
718.559	7317.99
718.902	7296.52
719.246	7343.52
719.589	7249.29
719.932	7279.12
720.275	7276.4
720.617	7290.64
720.96	7264.2
721.303	7252
721.646	7301.49
721.989	7244.54
722.331	7251.77
722.674	7212.23
723.016	7221.94
723.359	7263.75
723.701	7264.2
724.044	7176.29
724.386	7177.65
724.729	7184.2
725.071	7181.27
725.413	7196.86
725.755	7204.32
726.097	7202.06
726.439	7126.13
726.782	7129.29
727.124	7219.23
727.465	7132.23
727.807	7111.89
728.149	7120.93
728.491	7098.56
728.833	7176.29
729.175	7102.62
729.516	7212.23
729.858	7185.11
730.199	7145.33
730.541	7103.98
730.882	7056.75
731.224	7144.66
731.565	7085.45
731.906	7130.87
732.248	7127.48
732.589	7081.83
732.93	7131.78
733.271	7080.25
733.612	7099.91
733.953	7154.37
734.294	7121.61
734.635	7160.48
734.976	7153.02
735.317	7145.79
735.658	7152.57
735.999	7128.16
736.339	7140.82
736.68	7192.79
737.021	7188.27
737.361	7122.28
737.702	7213.58
738.042	7164.77
738.383	7151.44
738.723	7224.43
739.063	7206.58
739.404	7238.21
739.744	7230.98
740.084	7190.31
740.424	7259
740.764	7211.32
741.104	7326.8
741.444	7287.48
741.784	7305.78
742.124	7328.61
742.464	7317.31
742.804	7341.49
743.143	7394.37
743.483	7444.76
743.823	7446.57
744.162	7496.29
744.502	7478.66
744.841	7460.13
745.181	7640.91
745.52	7532.9
745.86	7616.28
746.199	7637.3
746.538	7727.92
746.877	7793.23
747.216	7740.57
747.556	7842.49
747.895	7898.08
748.234	7928.14
748.573	8015.59
748.911	8105.99
749.25	8169.26
749.589	8152.99
749.928	8307.11
750.267	8328.35
750.605	8412.19
750.944	8443.15
751.283	8630.95
751.621	8714.56
751.96	8751.39
752.298	8871.17
752.636	8973.31
752.975	9025.29
753.313	9102.8
753.651	9316.35
753.989	9339.18
754.327	9500.53
754.666	9581.88
755.004	9810.58
755.342	9902.1
755.679	10096.44
756.017	10185.48
756.355	10356.32
756.693	10481.74
757.031	10745.01
757.368	10839.47
757.706	10997.66
758.044	11208.96
758.381	11363.3
758.719	11503.19
759.056	11696.85
759.394	11794.48
759.731	12107.92
760.068	12220.91
760.405	12414.12
760.743	12630.39
761.08	12846.2
761.417	12951.74
761.754	13139.98
762.091	13395.11
762.428	13563.92
762.765	13715.11
763.102	13928.43
763.438	14106.51
763.775	14271.7
764.112	14541.3
764.449	14767.96
764.785	14900.84
765.122	15061.51
765.458	15211.11
765.795	15374.04
766.131	15626.02
766.467	15817.2
766.804	15863.98
767.14	16013.12
767.476	16283.63
767.812	16403.62
768.148	16668.47
768.485	16731.98
768.821	16900.56
769.157	17070.95
769.492	17323.15
769.828	17358.85
770.164	17432.97
770.5	17651.95
770.836	17695.57
771.171	17754.32
771.507	17990.93
771.842	18078.38
772.178	18221.88
772.513	18305.95
772.849	18396.56
773.184	18512.04
773.519	18664.81
773.855	18660.74
774.19	18728.08
774.525	18832.71
774.86	18966.27
775.195	19025.47
775.53	19154.74
775.865	19230.67
776.2	19137.79
776.535	19177.56
776.87	19251.46
777.205	19347.73
777.539	19345.47
777.874	19536.42
778.209	19447.61
778.543	19472.92
778.878	19536.65
779.212	19626.14
779.547	19648.51
779.881	19743.65
780.215	19666.81
780.55	19826.36
780.884	19742.29
781.218	19823.87
781.552	19848.5
781.886	19865.9
782.22	19754.95
782.554	19795.17
782.888	19674.72
783.222	19730.54
783.556	19690.99
783.889	19787.71
784.223	19604.44
784.557	19723.08
784.89	19722.18
785.224	19685.57
785.557	19694.38
785.891	19744.1
786.224	19662.07
786.558	19790.2
786.891	19684.21
787.224	19624.78
787.557	19622.97
787.891	19601.96
788.224	19583.65
788.557	19622.29
788.89	19641.05
789.223	19620.03
789.556	19592.47
789.888	19543.88
790.221	19482.41
790.554	19387.05
790.887	19385.01
791.219	19364.45
791.552	19321.06
791.884	19327.39
792.217	19297.11
792.549	19166.71
792.882	19179.37
793.214	19122.42
793.546	19203.1
793.879	19044.91
794.211	19012.59
794.543	19023.44
794.875	19046.72
795.207	19047.62
795.539	19083.33
795.871	18947.96
796.203	18879.72
796.535	18703.9
796.867	18746.16
797.198	18794.97
797.53	18791.58
797.862	18666.39
798.193	18663.22
798.525	18516.56
798.856	18555.88
799.188	18397.02
799.519	18457.81
799.85	18285.38
800.182	18321.09
800.513	18311.14
800.844	18208.09
801.175	18253.29
801.506	18283.35
801.837	18165.61
802.168	18189.79
802.499	18067.53
802.83	17994.31
803.161	17979.85
803.491	17965.84
803.822	18059.85
804.153	17931.49
804.483	17705.06
804.814	17840.87
805.145	17772.85
805.475	17715.9
805.805	17663.48
806.136	17732.17
806.466	17604.95
806.796	17685.4
807.126	17551.39
807.457	17557.49
807.787	17462.35
808.117	17417.38
808.447	17371.28
808.777	17413.54
809.107	17346.87
809.436	17190.27
809.766	17211.51
810.096	17189.59
810.426	17170.38
810.755	17192.3
811.085	17282.24
811.414	17084.28
811.744	16927.45
812.073	16996.38
812.403	16914.8
812.732	16832.54
813.061	16893.78
813.39	16780.56
813.719	16722.94
814.049	16797.96
814.378	16868.69
814.707	16752.99
815.036	16796.15
815.365	16740.11
815.693	16421.25
816.022	16593.9
816.351	16543.73
816.68	16407.92
817.008	16570.85
817.337	16341.7
817.665	16287.47
817.994	16446.33
818.322	16332.21
818.651	16270.52
818.979	16298.77
819.307	16282.72
819.636	16331.31
819.964	16100.35
820.292	16173.12
820.62	16183.52
820.948	16115.04
821.276	16210.18
821.604	16240.01
821.932	16241.14
822.259	16287.02
822.587	16164.31
822.915	16134.25
823.243	16211.31
823.57	16153.46
823.898	16226.23
824.225	16065.1
824.553	16086.34
824.88	16175.61
825.207	16265.55
825.535	16147.81
825.862	16247.02
826.189	16163.85
826.516	16217.19
826.843	16192.33
827.17	16207.02
827.497	16317.07
827.824	16233.23
828.151	16163.4
828.478	16206.11
828.805	16330.86
829.131	16214.7
829.458	16261.25
829.785	16147.13
830.111	16183.29
830.438	16280.46
830.764	16203.4
831.09	16196.4
831.417	16070.75
831.743	16171.09
832.069	16197.98
832.395	16111.88
832.722	16129.73
833.048	16099.45
833.374	16127.02
833.7	16059.45
834.026	16110.75
834.351	16116.4
834.677	16021.71
835.003	16057.19
835.329	15993.01
835.654	16014.71
835.98	15940.81
836.306	16044.99
836.631	15900.13
836.956	15903.52
837.282	15972.67
837.607	15884.09
837.932	15862.85
838.258	15911.43
838.583	15873.92
838.908	15701.49
839.233	15747.59
839.558	15773.13
839.883	15629.18
840.208	15655.62
840.533	15616.98
840.858	15703.3
841.182	15618.56
841.507	15666.69
841.832	15500.37
842.156	15474.16
842.481	15421.5
842.805	15485.91
843.13	15474.61
843.454	15457.66
843.778	15379.69
844.103	15339.02
844.427	15366.81
844.751	15342.63
845.075	15268.74
845.399	15239.59
845.723	15091.79
846.047	15091.57
846.371	15011.34
846.695	15032.81
847.019	14841.63
847.343	14864.91
847.666	14779.94
847.99	14740.39
848.313	14711.46
848.637	14674.85
848.96	14633.27
849.284	14544.01
849.607	14440.96
849.931	14422.66
850.254	14347.18
850.577	14264.47
850.9	14111.25
851.223	14131.14
851.546	14066.06
851.869	14038.49
852.192	14044.59
852.515	13924.82
852.838	13883.91
853.161	13948.55
853.483	13751.04
853.806	13711.94
854.129	13790.81
854.451	13718.04
854.774	13644.6
855.096	13615.9
855.419	13487.31
855.741	13513.53
856.063	13429.69
856.385	13402.8
856.708	13347.66
857.03	13361.89
857.352	13307.43
857.674	13226.98
857.996	13210.49
858.318	13092.07
858.64	13139.98
858.961	13089.36
859.283	13043.03
859.605	13011.85
859.926	13000.77
860.248	12975.24
860.57	12866.77
860.891	12920.1
861.212	12852.08
861.534	12821.8
861.855	12711.97
862.176	12763.04
862.498	12731.63
862.819	12736.83
863.14	12659.09
863.461	12610.28
863.782	12603.95
864.103	12626.09
864.424	12593.1
864.745	12596.72
865.065	12492.31
865.386	12487.57
865.707	12439.66
866.027	12457.51
866.348	12460.9
866.668	12435.59
866.989	12448.47
867.309	12410.06
867.63	12390.17
867.95	12390.39
868.27	12304.97
868.59	12358.3
868.91	12259.32
869.23	12238.31
869.55	12248.03
869.87	12329.15
870.19	12270.85
870.51	12191.98
870.83	12230.62
871.15	12165.99
871.469	12191.3
871.789	12162.83
872.109	12194.02
872.428	12063.17
872.748	12069.95
873.067	12029.5
873.386	12069.73
873.706	12041.7
874.025	12007.35
874.344	11862.95
874.663	11947.47
874.982	11894.14
875.301	11910.41
875.62	11881.48
875.939	11834.7
876.258	11903.18
876.577	11805.33
876.896	11907.7
877.214	11816.17
877.533	11801.26
877.852	11708.6
878.17	11672
878.489	11728.27
878.807	11653.01
879.125	11662.96
879.444	11641.04
879.762	11656.4
880.08	11610.53
880.398	11549.74
880.716	11601.71
881.034	11535.95
881.352	11500.93
881.67	11472.45
881.988	11442.62
882.306	11392.68
882.624	11348.39
882.941	11336.41
883.259	11259.8
883.577	11359.01
883.894	11268.62
884.212	11335.51
884.529	11200.6
884.846	11203.99
885.164	11166.7
885.481	11127.6
885.798	11119.24
886.115	11029.3
886.432	11084.89
886.75	11062.97
887.067	11023.88
887.383	10997.66
887.7	11094.38
888.017	10966.93
888.334	11016.19
888.651	10909.53
888.967	10929.64
889.284	10892.13
889.6	10811.68
889.917	10752.7
890.233	10735.07
890.55	10775.97
890.866	10711.57
891.182	10673.38
891.498	10606.94
891.815	10631.12
892.131	10530.56
892.447	10534.62
892.763	10466.38
893.079	10509.99
893.395	10424.34
893.71	10436.55
894.026	10411.92
894.342	10354.97
894.657	10258.93
894.973	10271.35
895.289	10188.19
895.604	10243.33
895.92	10151.81
896.235	10089.44
896.55	10087.63
896.865	10025.71
897.181	10016.22
897.496	10072.94
897.811	10022.77
898.126	9993.17
898.441	9912.95
898.756	9896.22
899.071	9808.09
899.386	9813.97
899.7	9717.02
900.015	9675.89
900.33	9622.33
900.644	9622.78
900.959	9649
901.273	9574.65
901.588	9559.51
901.902	9477.7
902.216	9487.65
902.531	9466.63
902.845	9420.08
903.159	9315.22
903.473	9282.23
903.787	9267.99
904.101	9228.67
904.415	9249.69
904.729	9193.64
905.042	9156.81
905.356	9085.85
905.67	9060.09
905.984	9046.3
906.297	9034.32
906.611	8996.59
906.924	8975.34
907.237	8928.11
907.551	8861
907.864	8867.78
908.177	8854.22
908.491	8842.24
908.804	8737.38
909.117	8630.49
909.43	8630.04
909.743	8599.76
910.056	8587.1
910.368	8602.25
910.681	8521.12
910.994	8446.09
911.307	8505.98
911.619	8374.68
911.932	8386.66
912.244	8346.21
912.557	8308.24
912.869	8292.88
913.181	8229.37
913.494	8212.43
913.806	8164.29
914.118	8068.02
914.43	8030.06
914.742	8101.92
915.054	8047.46
915.366	7990.51
915.678	7962.49
915.99	7890.85
916.302	7875.26
916.613	7867.12
916.925	7855.6
917.236	7832.77
917.548	7746.22
917.859	7751.65
918.171	7741.25
918.482	7632.33
918.794	7572.44
919.105	7638.43
919.416	7542.84
919.727	7578.32
920.038	7556.62
920.349	7431.65
920.66	7403.86
920.971	7435.27
921.282	7402.5
921.593	7370.19
921.903	7303.52
922.214	7260.13
922.525	7269.17
922.835	7228.95
923.146	7228.72
923.456	7172.23
923.767	7167.26
924.077	7151.89
924.387	7030.99
924.697	6992.34
925.008	7056.75
925.318	7080.48
925.628	7013.36
925.938	6942.85
926.248	6942.63
926.558	6878
926.867	6889.75
927.177	6841.39
927.487	6832.8
927.796	6724.1
928.106	6739.47
928.416	6708.74
928.725	6698.79
929.034	6622.18
929.344	6605.69
929.653	6670.54
929.962	6541.51
930.271	6562.75
930.581	6511.68
930.89	6497.89
931.199	6496.76
931.508	6391.23
931.817	6443.43
932.125	6448.4
932.434	6380.16
932.743	6313.04
933.051	6332.02
933.36	6286.6
933.669	6280.27
933.977	6271.01
934.286	6206.83
934.594	6154.17
934.902	6131.58
935.21	6161.86
935.519	6123.67
935.827	6113.95
936.135	6038.7
936.443	6016.78
936.751	6029.43
937.059	5951.02
937.367	5980.17
937.674	5948.08
937.982	5915.31
938.29	5893.39
938.597	5933.16
938.905	5814.52
939.213	5796.22
939.52	5784.01
939.827	5753.28
940.135	5732.26
940.442	5662.89
940.749	5670.8
941.056	5657.01
941.363	5637.35
941.67	5613.17
941.977	5566.62
942.284	5504.7
942.591	5559.16
942.898	5544.47
943.205	5507.86
943.511	5463.35
943.818	5430.8
944.125	5404.59
944.431	5399.17
944.738	5412.72
945.044	5373.86
945.35	5346.74
945.657	5297.47
945.963	5234.2
946.269	5245.95
946.575	5233.52
946.881	5172.05
947.187	5173.64
947.493	5194.65
947.799	5158.04
948.105	5129.12
948.41	5116.01
948.716	5033.07
949.022	5043.24
949.327	5019.74
949.633	5016.8
949.938	4995.11
950.244	4975.67
950.549	4937.48
950.854	4927.09
951.16	4866.3
951.465	4928.22
951.77	4899.74
952.075	4828.33
952.38	4820.2
952.685	4804.83
952.99	4752.86
953.294	4781.56
953.599	4780.2
953.904	4736.58
954.209	4685.96
954.513	4652.52
954.818	4656.36
955.122	4669.69
955.426	4662.24
955.731	4582.92
956.035	4558.96
956.339	4594.22
956.643	4566.42
956.948	4515.8
957.252	4482.81
957.556	4523.93
957.86	4444.16
958.163	4408.68
958.467	4403.71
958.771	4368.23
959.075	4384.96
959.378	4382.7
959.682	4365.52
959.985	4313.32
960.289	4322.36
960.592	4314
960.896	4325.07
961.199	4293.88
961.502	4247.78
961.805	4238.97
962.108	4189.93
962.411	4169.14
962.714	4149.93
963.017	4156.94
963.32	4141.57
963.623	4110.39
963.926	4113.1
964.228	4068.13
964.531	4033.55
964.833	4033.78
965.136	3990.84
965.438	3995.81
965.741	3961.24
966.043	3951.29
966.345	3954.23
966.648	3918.75
966.95	3919.66
967.252	3899.54
967.554	3862.48
967.856	3858.87
968.158	3835.59
968.46	3855.03
968.761	3829.49
969.063	3797.85
969.365	3775.25
969.666	3772.54
969.968	3750.4
970.269	3746.1
970.571	3741.81
970.872	3710.85
971.174	3687.12
971.475	3676.5
971.776	3661.81
972.077	3611.42
972.378	3620
972.679	3624.07
972.98	3584.98
973.281	3608.03
973.582	3590.85
973.883	3523.96
974.183	3511.98
974.484	3522.83
974.785	3484.87
975.085	3446
975.386	3532.1
975.686	3469.95
975.986	3454.58
976.287	3427.69
976.587	3425.43
976.887	3353.8
977.187	3400.57
977.487	3328.49
977.787	3300.92
978.087	3314.47
978.387	3289.62
978.687	3328.03
978.987	3285.78
979.286	3256.62
979.586	3271.99
979.885	3229.05
980.185	3217.75
980.484	3183.18
980.784	3169.39
981.083	3180.69
981.382	3177.98
981.682	3110.86
981.981	3152.22
982.28	3097.31
982.579	3132.11
982.878	3112.22
983.177	3095.27
983.475	3064.31
983.774	3005.1
984.073	3034.26
984.372	3038.1
984.67	3039.68
984.969	3011.88
985.267	3022.28
985.566	2966.01
985.864	2928.27
986.162	2935.95
986.461	2898.21
986.759	2901.15
987.057	2917.2
987.355	2877.2
987.653	2893.47
987.951	2840.82
988.249	2810.53
988.547	2846.01
988.844	2843.53
989.142	2798.56
989.44	2801.49
989.737	2785.68
990.035	2747.48
990.332	2748.84
990.63	2733.02
990.927	2747.94
991.224	2683.08
991.521	2709.75
991.819	2694.6
992.116	2694.6
992.413	2675.17
992.71	2637.66
993.006	2637.2
993.303	2614.61
993.6	2617.54
993.897	2605.79
994.193	2605.57
994.49	2592.91
994.787	2555.62
995.083	2550.88
995.379	2535.06
995.676	2496.87
995.972	2568.28
996.268	2502.07
996.565	2518.79
996.861	2484.21
997.157	2475.18
997.453	2440.15
997.749	2434.5
998.044	2433.14
998.34	2424.78
998.636	2384.33
998.932	2387.04
999.227	2369.19
999.523	2398.57
999.818	2357.89
1000.114	2373.93
1000.409	2333.71
1000.704	2297.33
1001	2288.06
1001.295	2297.78
1001.59	2288.29
1001.885	2279.7
1002.18	2255.75
1002.475	2263.66
1002.77	2218.68
1003.065	2218.46
1003.359	2229.98
1003.654	2182.75
1003.949	2178.91
1004.243	2151.79
1004.538	2160.38
1004.832	2168.06
1005.127	2160.83
1005.421	2120.16
1005.715	2082.64
1006.009	2086.94
1006.304	2071.57
1006.598	2086.48
1006.892	2065.69
1007.186	2095.75
1007.48	2041.06
1007.773	2013.27
1008.067	1987.73
1008.361	2018.24
1008.655	2004.9
1008.948	1982.08
1009.242	1958.8
1009.535	1946.83
1009.829	1949.99
1010.122	1911.57
1010.415	1932.36
1010.708	1918.13
1011.001	1903.89
1011.295	1883.78
1011.588	1866.15
1011.881	1847.17
1012.173	1868.41
1012.466	1837.45
1012.759	1858.24
1013.052	1826.15
1013.344	1830.9
1013.637	1805.81
1013.93	1790
1014.222	1804.23
1014.514	1771.24
1014.807	1756.1
1015.099	1713.16
1015.391	1740.73
1015.683	1717.23
1015.976	1723.56
1016.268	1719.71
1016.56	1697.34
1016.851	1686.27
1017.143	1652.15
1017.435	1669.09
1017.727	1660.73
1018.018	1651.92
1018.31	1641.3
1018.602	1629.77
1018.893	1600.17
1019.185	1586.61
1019.476	1589.32
1019.767	1577.57
1020.058	1571.02
1020.35	1542.54
1020.641	1535.31
1020.932	1534.18
1021.223	1490.12
1021.514	1507.52
1021.804	1479.95
1022.095	1477.01
1022.386	1522.66
1022.677	1467.29
1022.967	1479.27
1023.258	1457.35
1023.548	1449.67
1023.839	1430.68
1024.129	1384.58
1024.419	1430.23
1024.709	1388.2
1025	1403.11
1025.29	1408.99
1025.58	1357.24
1025.87	1375.54
1026.16	1340.97
1026.449	1356.56
1026.739	1336.22
1027.029	1335.77
1027.319	1329.89
1027.608	1361.31
1027.898	1303.68
1028.187	1290.35
1028.477	1274.08
1028.766	1292.38
1029.055	1270.91
1029.344	1261.87
1029.634	1237.24
1029.923	1246.96
1030.212	1233.63
1030.501	1273.62
1030.79	1212.16
1031.078	1218.94
1031.367	1204.02
1031.656	1201.31
1031.945	1189.79
1032.233	1172.84
1032.522	1202.89
1032.81	1142.78
1033.099	1159.28
1033.387	1168.09
1033.675	1166.06
1033.963	1153.63
1034.251	1134.42
1034.54	1130.58
1034.828	1114.08
1035.116	1134.42
1035.403	1099.17
1035.691	1118.6
1035.979	1081.09
1036.267	1067.98
1036.554	1060.07
1036.842	1078.15
1037.129	1073.86
1037.417	1036.57
1037.704	1054.42
1037.992	1054.42
1038.279	1038.38
1038.566	1015.1
1038.853	1015.1
1039.14	1015.1
