Data from hue_280_FLMS001491_00034.txt Node
Date: Tue Feb 07 15:55:11 GMT 2017
User: dcchb
Spectrometer: FLMS00149
Trigger mode: 0
Integration Time (sec): 2.000000E-2
Scans to average: 10
Electric dark correction enabled: true
Nonlinearity correction enabled: false
Boxcar width: 0
XAxis mode: Wavelengths
Number of Pixels in Spectrum: 2048
>>>>>Begin Spectral Data<<<<<
341.393	-16.24
341.776	-16.24
342.16	-16.24
342.543	-66.18
342.927	-67.31
343.31	-59.18
343.693	-58.95
344.077	-74.55
344.46	-63.25
344.843	-64.38
345.226	-34.1
345.61	-17.37
345.993	-28.9
346.376	-3.81
346.759	12.68
347.142	37.54
347.525	44.55
347.908	61.72
348.291	68.73
348.674	77.09
349.057	102.17
349.44	123.41
349.823	153.24
350.206	171.1
350.588	190.08
350.971	178.78
351.354	197.31
351.737	229.63
352.119	237.76
352.502	255.84
352.884	273.47
353.267	283.41
353.65	275.05
354.032	284.09
354.414	312.11
354.797	286.57
355.179	311.21
355.562	301.04
355.944	306.01
356.326	302.62
356.709	321.83
357.091	342.62
357.473	342.39
357.855	321.83
358.238	322.05
358.62	328.83
359.002	342.39
359.384	352.34
359.766	323.64
360.148	317.99
360.53	329.74
360.912	329.29
361.294	313.24
361.676	320.02
362.057	341.49
362.439	317.99
362.821	325.22
363.203	310.3
363.584	328.16
363.966	332
364.348	287.03
364.729	293.81
365.111	341.71
365.493	316.4
365.874	315.95
366.256	309.17
366.637	289.96
367.019	315.5
367.4	289.51
367.781	279.79
368.163	301.26
368.544	298.33
368.925	302.85
369.306	290.87
369.688	317.53
370.069	321.6
370.45	303.3
370.831	299.46
371.212	327.93
371.593	305.1
371.974	298.1
372.355	295.16
372.736	284.54
373.117	308.72
373.498	310.3
373.879	306.91
374.26	305.1
374.641	285.67
375.021	314.37
375.402	327.25
375.783	309.4
376.163	321.6
376.544	318.89
376.925	327.03
377.305	339.91
377.686	312.34
378.066	327.93
378.447	299.91
378.827	313.01
379.208	307.36
379.588	305.56
379.968	335.84
380.349	344.88
380.729	323.86
381.109	322.05
381.489	333.35
381.87	335.61
382.25	325.22
382.63	320.47
383.01	327.93
383.39	326.12
383.77	343.52
384.15	336.06
384.53	318.21
384.91	322.96
385.29	345.33
385.67	352.34
386.049	354.14
386.429	343.97
386.809	346.01
387.189	351.88
387.568	354.6
387.948	333.35
388.328	354.14
388.707	330.42
389.087	330.64
389.466	351.88
389.846	352.34
390.225	370.19
390.605	361.15
390.984	375.84
391.363	361.6
391.743	393.24
392.122	374.26
392.501	367.48
392.881	383.07
393.26	362.28
393.639	376.29
394.018	370.41
394.397	384.2
394.776	361.6
395.155	381.49
395.534	367.48
395.913	370.87
396.292	384.65
396.671	386.91
397.05	382.17
397.429	365.67
397.808	403.63
398.186	382.17
398.565	380.36
398.944	385.33
399.323	377.42
399.701	401.37
400.08	419
400.458	403.86
400.837	426.23
401.215	404.31
401.594	421.49
401.972	400.24
402.351	411.32
402.729	438.66
403.107	428.72
403.486	425.55
403.864	443.86
404.242	452.22
404.62	454.71
404.999	427.14
405.377	454.71
405.755	447.93
406.133	469.17
406.511	447.93
406.889	458.1
407.267	483.41
407.645	456.29
408.023	474.37
408.401	480.69
408.779	485.21
409.156	480.47
409.534	476.63
409.912	506.23
410.29	502.39
410.667	510.98
411.045	536.51
411.422	523.86
411.8	553.46
412.178	533.57
412.555	553.23
412.933	559.34
413.31	536.96
413.687	567.47
414.065	575.83
414.442	577.19
414.819	557.3
415.197	595.49
415.574	603.18
415.951	612.67
416.328	612.89
416.705	615.61
417.082	639.11
417.46	625.77
417.837	653.12
418.214	619.45
418.591	661.48
418.967	667.13
419.344	679.33
419.721	679.56
420.098	700.12
420.475	714.81
420.852	685.66
421.228	715.04
421.605	718.88
421.982	706.22
422.358	736.96
422.735	761.14
423.111	763.17
423.488	751.87
423.864	768.6
424.241	774.02
424.617	788.03
424.994	816.5
425.37	809.27
425.746	795.26
426.123	810.4
426.499	826.45
426.875	818.99
427.251	835.26
427.627	873.45
428.003	867.8
428.379	874.58
428.756	901.93
429.132	891.08
429.507	905.32
429.883	938.76
430.259	931.76
430.635	920.46
431.011	950.74
431.387	964.52
431.763	964.97
432.138	973.34
432.514	984.41
432.89	999.78
433.265	1023.73
433.641	1050.4
434.016	1055.82
434.392	1087.68
434.767	1084.29
435.143	1081.36
435.518	1105.54
435.894	1124.07
436.269	1130.85
436.644	1135.37
437.02	1155.7
437.395	1177.17
437.77	1186.89
438.145	1212.43
438.52	1224.4
438.895	1202.48
439.271	1219.21
439.646	1273.89
440.021	1253.1
440.395	1269.6
440.77	1260.11
441.145	1294.01
441.52	1303.72
441.895	1317.06
442.27	1342.82
442.645	1314.12
443.019	1349.6
443.394	1352.99
443.769	1363.38
444.143	1348.69
444.518	1387.79
444.892	1369.03
445.267	1387.56
445.641	1427.56
446.016	1410.61
446.39	1436.6
446.764	1447.9
447.139	1423.04
447.513	1470.72
447.887	1453.32
448.262	1429.6
448.636	1483.15
449.01	1489.03
449.384	1493.55
449.758	1517.95
450.132	1490.61
450.506	1500.55
450.88	1495.13
451.254	1506.88
451.628	1503.04
452.002	1527.22
452.376	1556.15
452.75	1567.44
453.123	1580.33
453.497	1598.18
453.871	1600.89
454.244	1631.62
454.618	1654.9
454.992	1644.73
455.365	1627.78
455.739	1705.97
456.112	1693.09
456.486	1696.48
456.859	1696.48
457.232	1741.9
457.606	1752.98
457.979	1748.23
458.352	1791.85
458.725	1797.27
459.099	1809.02
459.472	1822.81
459.845	1859.64
460.218	1853.09
460.591	1872.07
460.964	1846.08
461.337	1903.93
461.71	1947.1
462.083	1964.27
462.456	1961.78
462.829	1948.68
463.201	1978.28
463.574	1983.03
463.947	2017.15
464.32	2027.55
464.692	2060.54
465.065	2073.65
465.438	2108.9
465.81	2096.7
466.183	2104.61
466.555	2166.98
466.928	2178.95
467.3	2145.73
467.672	2169.24
468.045	2272.06
468.417	2283.58
468.789	2293.3
469.161	2293.3
469.534	2270.03
469.906	2333.53
470.278	2335.11
470.65	2370.59
471.022	2420.08
471.394	2421.21
471.766	2456.91
472.138	2490.13
472.51	2525.61
472.882	2528.55
473.253	2595.21
473.625	2557.25
473.997	2663.01
474.369	2664.14
474.74	2681.77
475.112	2720.41
475.484	2724.48
475.855	2735.78
476.227	2787.3
476.598	2847.41
476.97	2824.59
477.341	2892.61
477.713	2946.84
478.084	2958.59
478.455	3009.44
478.827	3034.3
479.198	3084.01
479.569	3126.5
479.94	3162.88
480.311	3169.21
480.682	3251.92
481.053	3289.21
481.424	3319.04
481.795	3341.41
482.166	3384.57
482.537	3417.11
482.908	3444.23
483.279	3485.13
483.65	3540.95
484.021	3595.64
484.391	3626.6
484.762	3696.2
485.133	3686.03
485.503	3745.01
485.874	3799.7
486.244	3813.49
486.615	3822.53
486.985	3909.76
487.356	3933.71
487.726	3971
488.097	3989.3
488.467	4049.41
488.837	4118.56
489.207	4172.8
489.578	4161.05
489.948	4242.18
490.318	4262.06
490.688	4283.31
491.058	4335.06
491.428	4361.72
491.798	4385
492.168	4509.74
492.538	4436.97
492.908	4494.15
493.278	4528.72
493.648	4546.8
494.017	4600.59
494.387	4624.09
494.757	4645.56
495.126	4682.62
495.496	4751.54
495.866	4723.75
496.235	4755.61
496.605	4781.82
496.974	4785.67
497.344	4882.61
497.713	4860.01
498.082	4835.83
498.452	4909.05
498.821	4897.3
499.19	4980.01
499.559	4982.72
499.928	5012.78
500.298	5050.97
500.667	5057.75
501.036	5016.62
501.405	5102.27
501.774	5098.65
502.143	5089.39
502.512	5129.38
502.88	5205.09
503.249	5194.69
503.618	5239.66
503.987	5192.21
504.356	5234.47
504.724	5271.75
505.093	5272.21
505.462	5252.77
505.83	5255.94
506.199	5328.25
506.567	5307.23
506.936	5391.3
507.304	5418.19
507.672	5429.94
508.041	5446.89
508.409	5494.57
508.777	5489.6
509.145	5504.74
509.514	5477.17
509.882	5568.92
510.25	5508.58
510.618	5559.2
510.986	5570.28
511.354	5615.25
511.722	5593.1
512.09	5715.81
512.458	5606.21
512.826	5711.52
513.193	5682.14
513.561	5771.85
513.929	5736.83
514.297	5784.73
514.664	5814.34
515.032	5776.83
515.4	5801.46
515.767	5851.85
516.135	5849.37
516.502	5822.7
516.869	5858.86
517.237	5875.58
517.604	5878.97
517.972	5947.22
518.339	5898.4
518.706	5959.42
519.073	5975.46
519.44	5969.14
519.808	5953.32
520.175	6043.26
520.542	6064.5
520.909	6047.33
521.276	6090.94
521.643	6078.29
522.009	6124.16
522.376	6125.06
522.743	6167.1
523.11	6247.77
523.477	6238.06
523.843	6254.33
524.21	6322.35
524.577	6302.24
524.943	6333.2
525.31	6376.36
525.676	6439.86
526.043	6416.81
526.409	6425.4
526.776	6425.62
527.142	6461.55
527.508	6459.75
527.874	6540.65
528.241	6589.23
528.607	6590.14
528.973	6633.07
529.339	6604.37
529.705	6693.86
530.071	6708.55
530.437	6700.19
530.803	6750.81
531.169	6741.77
531.535	6723.47
531.901	6792.62
532.267	6837.81
532.632	6889.34
532.998	6852.05
533.364	6870.13
533.73	6927.98
534.095	6953.52
534.461	6877.81
534.826	6989.9
535.192	6936.34
535.557	6955.78
535.923	7019.28
536.288	6975.89
536.653	6970.92
537.019	7032.39
537.384	7024.25
537.749	7021.09
538.114	7094.08
538.479	7084.14
538.845	7087.75
539.21	7131.82
539.575	7125.04
539.94	7128.65
540.305	7207.75
540.67	7180.4
541.034	7189.22
541.399	7220.86
541.764	7207.3
542.129	7240.74
542.494	7224.25
542.858	7294.3
543.223	7261.76
543.587	7329.33
543.952	7279.84
544.316	7356.44
544.681	7349.67
545.045	7373.39
545.41	7424.92
545.774	7403.22
546.138	7435.99
546.503	7407.07
546.867	7424.69
547.231	7477.57
547.595	7427.4
547.959	7530.9
548.324	7461.08
548.688	7474.86
549.052	7566.83
549.416	7524.8
549.779	7521.41
550.143	7515.31
550.507	7617.68
550.871	7603.22
551.235	7521.86
551.599	7654.74
551.962	7634.63
552.326	7610.45
552.689	7697.9
553.053	7615.65
553.417	7629.43
553.78	7774.51
554.143	7685.93
554.507	7693.16
554.87	7751.91
555.234	7831.69
555.597	7726.83
555.96	7789.65
556.323	7857.22
556.686	7815.87
557.05	7887.5
557.413	7892.7
557.776	7868.75
558.139	7888.63
558.502	7941.29
558.865	7944.23
559.228	7974.28
559.59	8019.7
559.953	8030.33
560.316	8051.34
560.679	8053.83
561.041	8093.37
561.404	8131.34
561.767	8147.38
562.129	8137.89
562.492	8210.43
562.854	8157.1
563.217	8203.43
563.579	8241.85
563.941	8293.82
564.304	8214.28
564.666	8339.7
565.028	8368.4
565.39	8419.92
565.753	8408.85
566.115	8407.72
566.477	8445.68
566.839	8506.47
567.201	8511.22
567.563	8545.11
567.925	8598.9
568.287	8621.04
568.648	8648.61
569.01	8621.95
569.372	8726.13
569.734	8648.84
570.095	8758.89
570.457	8758.22
570.819	8753.47
571.18	8799.8
571.542	8847.03
571.903	8865.11
572.265	8874.82
572.626	8956.85
572.987	8963.86
573.349	8929.51
573.71	8992.79
574.071	9069.17
574.432	9133.35
574.794	9179.9
575.155	9080.92
575.516	9145.1
575.877	9220.35
576.238	9306
576.599	9313.68
576.96	9358.88
577.32	9403.4
577.681	9416.5
578.042	9450.63
578.403	9461.02
578.763	9514.13
579.124	9659.21
579.485	9562.94
579.845	9736.27
580.206	9686.1
580.566	9672.09
580.927	9738.3
581.287	9855.59
581.648	9854.46
582.008	9926.55
582.368	9991.63
582.728	10085.19
583.089	10075.7
583.449	10047.22
583.809	10179.87
584.169	10223.04
584.529	10251.51
584.889	10307.33
585.249	10348.91
585.609	10417.61
585.969	10449.92
586.329	10508.9
586.688	10559.3
587.048	10601.11
587.408	10611.05
587.768	10731.72
588.127	10788.67
588.487	10854.21
588.846	11018.72
589.206	10895.11
589.565	11044.48
589.925	11201.32
590.284	11151.83
590.643	11211.26
591.003	11364.7
591.362	11394.98
591.721	11430.91
592.08	11492.61
592.44	11596.11
592.799	11590.23
593.158	11706.61
593.517	11787.06
593.876	11852.15
594.235	11912.03
594.593	11953.39
594.952	12041.97
595.311	12007.85
595.67	12160.84
596.029	12269.54
596.387	12280.38
596.746	12371.23
597.104	12275.64
597.463	12411
597.822	12500.94
598.18	12482.86
598.538	12549.3
598.897	12718.11
599.255	12676.76
599.613	12886.92
599.972	12817.77
600.33	12880.14
600.688	12924.21
601.046	12955.85
601.404	13082.85
601.762	13070.65
602.12	13207.59
602.478	13246.23
602.836	13180.7
603.194	13202.84
603.552	13245.78
603.91	13240.13
604.268	13410.3
604.625	13446.23
604.983	13543.85
605.341	13464.53
605.698	13545.43
606.056	13590.41
606.413	13616.39
606.771	13733.23
607.128	13747.01
607.485	13659.78
607.843	13760.34
608.2	13780
608.557	13898.19
608.914	13849.38
609.272	13994.91
609.629	13942.71
609.986	14040.34
610.343	13997.17
610.7	14127.79
611.057	14176.15
611.414	14168.7
611.771	14214.57
612.127	14302.48
612.484	14283.72
612.841	14362.14
613.198	14334.57
613.554	14263.38
613.911	14444.85
614.267	14437.61
614.624	14429.25
614.98	14454.11
615.337	14589.93
615.693	14478.74
616.05	14523.94
616.406	14627.21
616.762	14598.06
617.118	14686.42
617.475	14691.85
617.831	14683.71
618.187	14735.01
618.543	14699.53
618.899	14915.12
619.255	14840.54
619.611	14818.17
619.967	14810.71
620.323	14844.61
620.678	14902.46
621.034	14809.13
621.39	14918.05
621.746	14722.8
622.101	14950.6
622.457	14829.47
622.812	14948.56
623.168	14929.81
623.523	14952.63
623.879	14976.13
624.234	14937.26
624.589	14965.96
624.945	14949.47
625.3	14933.87
625.655	15018.62
626.01	14983.82
626.365	15014.77
626.72	15028.79
627.075	15055.23
627.43	14909.24
627.785	15012.97
628.14	15028.33
628.495	15057.49
628.85	15070.59
629.205	15036.7
629.559	15130.25
629.914	15000.76
630.269	15048.22
630.623	15040.31
630.978	14999.86
631.332	14956.7
631.687	15063.14
632.041	14957.15
632.396	14960.76
632.75	14941.1
633.104	14821.56
633.459	14925.06
633.813	14844.38
634.167	14895.46
634.521	14890.71
634.875	14895.46
635.229	14817.49
635.583	14742.24
635.937	14843.25
636.291	14716.93
636.645	14830.15
636.999	14760.09
637.352	14730.94
637.706	14705.86
638.06	14834.21
638.413	14760.77
638.767	14746.76
639.121	14718.96
639.474	14643.94
639.828	14588.35
640.181	14628.8
640.534	14630.15
640.888	14574.56
641.241	14608.91
641.594	14580.89
641.947	14691.39
642.301	14570.04
642.654	14666.76
643.007	14592.86
643.36	14567.55
643.713	14591.96
644.066	14678.29
644.419	14500.66
644.771	14423.15
645.124	14356.71
645.477	14297.05
645.83	14257.73
646.182	14143.84
646.535	14102.93
646.888	14172.76
647.24	14146.77
647.593	14149.49
647.945	14183.38
648.298	14047.34
648.65	14051.86
649.002	14055.25
649.355	14063.84
649.707	14070.84
650.059	14174.57
650.411	14268.13
650.763	14368.01
651.115	14463.6
651.467	14387.67
651.819	14443.49
652.171	14428.58
652.523	14509.25
652.875	14369.59
653.227	14370.5
653.578	14531.62
653.93	14450.27
654.282	14409.37
654.633	14357.16
654.985	14369.14
655.337	14466.54
655.688	14416.6
656.039	14477.39
656.391	14345.41
656.742	14379.54
657.094	14356.49
657.445	14514
657.796	14462.02
658.147	14335.02
658.498	14377.28
658.849	14494.79
659.2	14389.03
659.551	14423.6
659.902	14455.02
660.253	14433.55
660.604	14472.19
660.955	14348.35
661.306	14427.9
661.656	14445.07
662.007	14448.01
662.358	14443.94
662.708	14462.7
663.059	14475.81
663.409	14408.91
663.76	14455.02
664.11	14526.65
664.461	14501.79
664.811	14544.5
665.161	14491.4
665.511	14465.86
665.862	14522.81
666.212	14572.98
666.562	14539.08
666.912	14408.46
667.262	14522.36
667.612	14504.96
667.962	14532.75
668.312	14535.01
668.662	14546.09
669.011	14598.29
669.361	14500.44
669.711	14509.7
670.06	14449.14
670.41	14423.15
670.76	14420.21
671.109	14503.83
671.459	14444.85
671.808	14392.19
672.157	14503.83
672.507	14374.79
672.856	14434
673.205	14437.84
673.554	14426.32
673.904	14342.48
674.253	14459.31
674.602	14439.87
674.951	14169.15
675.3	14068.58
675.649	14307.45
675.998	14249.6
676.346	14270.84
676.695	14232.87
677.044	14190.62
677.393	14219.09
677.741	14263.61
678.09	14222.03
678.438	14198.52
678.787	14216.6
679.135	14247.79
679.484	14123.05
679.832	14175.02
680.181	14139.32
680.529	14128.7
680.877	14133.44
681.225	14060.22
681.573	14108.36
681.922	13984.07
682.27	13920.11
682.618	13990.85
682.966	13953.79
683.314	13958.98
683.661	13996.95
684.009	13816.84
684.357	13803.96
684.705	13787.46
685.053	13797.41
685.4	13715.37
685.748	13765.77
686.095	13707.92
686.443	13622.72
686.79	13633.12
687.138	13623.17
687.485	13650.29
687.832	13571.2
688.18	13648.71
688.527	13495.72
688.874	13480.35
689.221	13443.29
689.568	13396.51
689.915	13376.4
690.262	13309.06
690.609	13293.69
690.956	13254.37
691.303	13254.59
691.65	13160.36
691.997	13206.46
692.344	13070.65
692.69	13041.95
693.037	13011.66
693.383	12910.42
693.73	13046.92
694.077	12919.46
694.423	12908.84
694.769	12809.86
695.116	12773.03
695.462	12708.39
695.808	12704.1
696.155	12712.91
696.501	12671.79
696.847	12601.05
697.193	12565.35
697.539	12555.63
697.885	12457.1
698.231	12389.08
698.577	12459.81
698.923	12348.86
699.269	12302.53
699.614	12239.71
699.96	12160.16
700.306	12163.78
700.651	12101.86
700.997	12016.21
701.342	12073.38
701.688	12000.16
702.033	11875.65
702.379	11910.45
702.724	11920.17
703.069	11904.12
703.415	11672.04
703.76	11701.42
704.105	11730.34
704.45	11730.34
704.795	11623.45
705.14	11610.12
705.485	11523.57
705.83	11524.7
706.175	11498.48
706.52	11458.48
706.865	11453.51
707.209	11388.66
707.554	11398.82
707.899	11380.97
708.243	11306.4
708.588	11350.01
708.932	11200.64
709.277	11114.76
709.621	11244.03
709.966	11122.67
710.31	11132.39
710.654	11027.53
710.998	11066.18
711.342	11017.14
711.687	10977.59
712.031	10958.38
712.375	10948.21
712.719	10926.29
713.063	10880.42
713.407	10925.62
713.75	10849.01
714.094	10908.22
714.438	10793.19
714.782	10812.85
715.125	10753.19
715.469	10741.67
715.812	10735.57
716.156	10618.51
716.499	10639.75
716.843	10632.52
717.186	10638.62
717.53	10690.14
717.873	10623.93
718.216	10589.58
718.559	10527.66
718.902	10512.29
719.246	10503.93
719.589	10535.12
719.932	10460.54
720.275	10507.55
720.617	10456.93
720.96	10486.08
721.303	10461.67
721.646	10446.08
721.989	10427.78
722.331	10384.84
722.674	10422.81
723.016	10435.91
723.359	10454.44
723.701	10367.67
724.044	10333.99
724.386	10280.44
724.729	10319.08
725.071	10296.93
725.413	10354.11
725.755	10270.27
726.097	10338.06
726.439	10193.66
726.782	10230.95
727.124	10286.99
727.465	10261.23
727.807	10227.56
728.149	10163.38
728.491	10210.16
728.833	10204.28
729.175	10213.55
729.516	10218.97
729.858	10113.66
730.199	10185.75
730.541	10149.37
730.882	10146.65
731.224	10168.35
731.565	10058.29
731.906	10155.69
732.248	10188.91
732.589	10102.81
732.93	10108.69
733.271	10129.48
733.612	10195.92
733.953	10198.63
734.294	10183.72
734.635	10096.94
734.976	10161.79
735.317	10113.89
735.658	10123.83
735.999	10086.99
736.339	10163.15
736.68	10188.69
737.021	10159.99
737.361	10119.76
737.702	10208.8
738.042	10186.88
738.383	10164.28
738.723	10192.53
739.063	10103.04
739.404	10245.18
739.744	10159.99
740.084	10197.95
740.424	10237.5
740.764	10225.97
741.104	10276.82
741.444	10214.45
741.784	10186.43
742.124	10234.79
742.464	10269.36
742.804	10284.73
743.143	10333.99
743.483	10342.58
743.823	10308.46
744.162	10342.13
744.502	10434.78
744.841	10421.9
745.181	10524.27
745.52	10479.53
745.86	10516.59
746.199	10630.71
746.538	10632.74
746.877	10685.4
747.216	10655.57
747.556	10690.37
747.895	10797.03
748.234	10914.09
748.573	10905.28
748.911	10961.55
749.25	10988.44
749.589	10973.3
749.928	11114.09
750.267	11171.49
750.605	11269.56
750.944	11317.24
751.283	11435.89
751.621	11446.96
751.96	11573.96
752.298	11693.73
752.636	11713.17
752.975	11808.08
753.313	11881.52
753.651	12012.59
753.989	12072.93
754.327	12132.82
754.666	12198.58
755.004	12373.26
755.342	12497.78
755.679	12669.07
756.017	12658.45
756.355	12808.28
756.693	12902.06
757.031	13135.28
757.368	13141.6
757.706	13340.69
758.044	13438.09
758.381	13577.75
758.719	13729.84
759.056	13824.52
759.394	14005.54
759.731	14158.98
760.068	14225.64
760.405	14349.03
760.743	14488.01
761.08	14669.7
761.417	14765.74
761.754	14855.23
762.091	15071.04
762.428	15172.28
762.765	15280.76
763.102	15487.08
763.438	15578.38
763.775	15723.91
764.112	15823.57
764.449	16090
764.785	16095.2
765.122	16194.18
765.458	16299.26
765.795	16440.73
766.131	16545.13
766.467	16647.27
766.804	16734.73
767.14	16844.11
767.476	16929.98
767.812	17071.22
768.148	17220.37
768.485	17295.17
768.821	17296.75
769.157	17464.2
769.492	17455.84
769.828	17564.99
770.164	17585.78
770.5	17715.95
770.836	17743.97
771.171	17785.1
771.507	17894.47
771.842	17863.06
772.178	18010.18
772.513	18034.81
772.849	18200.68
773.184	18066.22
773.519	18173.34
773.855	18220.11
774.19	18191.41
774.525	18306.67
774.86	18345.99
775.195	18367.68
775.53	18313.9
775.865	18340.34
776.2	18262.6
776.535	18235.25
776.87	18418.3
777.205	18392.99
777.539	18450.62
777.874	18430.96
778.209	18305.08
778.543	18351.64
778.878	18428.92
779.212	18371.3
779.547	18427.57
779.881	18479.32
780.215	18396.38
780.55	18486.77
780.884	18353.67
781.218	18414.01
781.552	18329.49
781.886	18309.15
782.22	18277.74
782.554	18314.57
782.888	18181.7
783.222	18044.53
783.556	18143.05
783.889	18162.26
784.223	18091.98
784.557	18043.62
784.89	18144.86
785.224	18080.91
785.557	18028.71
785.891	17994.58
786.224	17979.89
786.558	17943.29
786.891	17918.65
787.224	17814.48
787.557	17829.39
787.891	17826.9
788.224	17721.14
788.557	17788.49
788.89	17766.34
789.223	17748.49
789.556	17718.21
789.888	17674.59
790.221	17524.99
790.554	17412.9
790.887	17548.72
791.219	17420.14
791.552	17468.04
791.884	17370.87
792.217	17307.37
792.549	17245
792.882	17285
793.214	17143.31
793.546	17219.24
793.879	17096.98
794.211	17008.39
794.543	17033.7
794.875	17062.63
795.207	17085.23
795.539	16892.01
795.871	16856.76
796.203	16777.44
796.535	16719.36
796.867	16739.7
797.198	16692.47
797.53	16697.67
797.862	16539.48
798.193	16568.86
798.525	16481.85
798.856	16494.51
799.188	16367.73
799.519	16475.3
799.85	16326.6
800.182	16309.2
800.513	16318.7
800.844	16230.56
801.175	16288.87
801.506	16226.72
801.837	16207.29
802.168	16116.67
802.499	16036.67
802.83	16001.19
803.161	15975.88
803.491	15947.18
803.822	15913.73
804.153	15886.62
804.483	15698.6
804.814	15701.76
805.145	15764.59
805.475	15719.61
805.805	15711.03
806.136	15635.55
806.466	15630.8
806.796	15522.56
807.126	15494.54
807.457	15351.26
807.787	15476.91
808.117	15271.27
808.447	15267.42
808.777	15415.89
809.107	15307.42
809.436	15233.98
809.766	15231.04
810.096	15232.17
810.426	15155.11
810.755	15117.37
811.085	15125.28
811.414	15013.64
811.744	15045.06
812.073	14864.72
812.403	14975.45
812.732	14933.19
813.061	14943.59
813.39	14740.66
813.719	14779.53
814.049	14793.76
814.378	14795.57
814.707	14683.71
815.036	14668.57
815.365	14596.25
815.693	14519.19
816.022	14556.48
816.351	14520.32
816.68	14477.39
817.008	14528.01
817.337	14340.67
817.665	14301.35
817.994	14331.63
818.322	14324.85
818.651	14247.34
818.979	14267.22
819.307	14236.26
819.636	14298.18
819.964	14202.82
820.292	14228.13
820.62	14150.39
820.948	14206.66
821.276	14123.72
821.604	14094.35
821.932	14077.85
822.259	14183.61
822.587	14136.61
822.915	14123.5
823.243	14111.3
823.57	14100.45
823.898	14067.68
824.225	14138.41
824.553	14127.79
824.88	14103.39
825.207	14177.96
825.535	14059.32
825.862	14103.39
826.189	14036.95
826.516	14179.09
826.843	14105.19
827.17	14161.24
827.497	14169.15
827.824	14175.47
828.151	14109.26
828.478	14137.06
828.805	14134.35
829.131	14151.52
829.458	14136.38
829.785	14023.84
830.111	14106.78
830.438	14221.58
830.764	14158.75
831.09	14196.94
831.417	14006.89
831.743	14128.7
832.069	14133.89
832.395	14045.53
832.722	14126.44
833.048	14025.42
833.374	14141.13
833.7	13974.8
834.026	13970.73
834.351	13996.95
834.677	13970.28
835.003	14051.41
835.329	13973.45
835.654	13885.76
835.98	13868.59
836.306	13965.54
836.631	13862.04
836.956	13953.79
837.282	13874.92
837.607	13895.48
837.932	13835.37
838.258	13843.96
838.583	13804.41
838.908	13725.09
839.233	13797.86
839.558	13697.07
839.883	13634.47
840.208	13649.84
840.533	13565.55
840.858	13636.96
841.182	13610.52
841.507	13535.94
841.832	13519.67
842.156	13391.99
842.481	13449.17
842.805	13468.6
843.13	13365.78
843.454	13373.01
843.778	13339.56
844.103	13374.37
844.427	13297.53
844.751	13310.41
845.075	13208.27
845.399	13152.45
845.723	13180.02
846.047	13169.4
846.371	12981.38
846.695	13068.39
847.019	13006.47
847.343	12853.7
847.666	12837.2
847.99	12721.73
848.313	12738.22
848.637	12681.5
848.96	12657.1
849.284	12546.37
849.607	12510.89
849.931	12554.27
850.254	12496.42
850.577	12373.71
850.9	12217.79
851.223	12286.26
851.546	12239.25
851.869	12092.59
852.192	12230.44
852.515	12051.24
852.838	12013.95
853.161	12084.23
853.483	12047.4
853.806	11937.79
854.129	11870.68
854.451	11884.69
854.774	11822.32
855.096	11774.63
855.419	11736.44
855.741	11712.94
856.063	11696.44
856.385	11619.84
856.708	11524.92
857.03	11504.13
857.352	11568.76
857.674	11493.29
857.996	11510.91
858.318	11465.04
858.64	11434.53
858.961	11319.96
859.283	11339.17
859.605	11269.79
859.926	11281.99
860.248	11265.49
860.57	11260.52
860.891	11212.16
861.212	11176.01
861.534	11153.18
861.855	11068.89
862.176	11114.99
862.498	11047.42
862.819	11089.91
863.14	10971.04
863.461	10975.11
863.782	10958.38
864.103	11004.71
864.424	10908.22
864.745	10946.18
865.065	10898.27
865.386	10883.13
865.707	10868.9
866.027	10873.19
866.348	10834.77
866.668	10781.44
866.989	10740.99
867.309	10740.08
867.63	10702.8
867.95	10677.04
868.27	10670.03
868.59	10703.25
868.91	10626.19
869.23	10602.69
869.55	10547.1
869.87	10615.57
870.19	10699.63
870.51	10615.34
870.83	10598.62
871.15	10545.51
871.469	10534.89
871.789	10544.84
872.109	10441.11
872.428	10408.57
872.748	10445.86
873.067	10459.19
873.386	10423.71
873.706	10433.88
874.025	10299.64
874.344	10375.12
874.663	10306.65
874.982	10324.5
875.301	10360.89
875.62	10271.85
875.939	10290.15
876.258	10252.41
876.577	10287.44
876.896	10227.33
877.214	10246.76
877.533	10305.29
877.852	10227.78
878.17	10165.18
878.489	10232.08
878.807	10169.7
879.125	10132.64
879.444	10088.58
879.762	10138.52
880.08	10123.6
880.398	10048.8
880.716	10081.8
881.034	9937.85
881.352	10056.94
881.67	9924.97
881.988	9964.51
882.306	9920.9
882.624	9877.73
882.941	9838.87
883.259	9863.27
883.577	9777.62
883.894	9813.1
884.212	9746.89
884.529	9793.44
884.846	9738.98
885.164	9660.57
885.481	9683.84
885.798	9676.84
886.115	9572.66
886.432	9627.12
886.75	9550.96
887.067	9504.86
887.383	9596.61
887.7	9593.22
888.017	9461.47
888.334	9494.47
888.651	9458.31
888.967	9492.66
889.284	9359.33
889.6	9375.83
889.917	9354.81
890.233	9383.96
890.55	9289.05
890.866	9297.41
891.182	9240.69
891.498	9226
891.815	9204.76
892.131	9214.25
892.447	9176.51
892.763	9069.39
893.079	9036.85
893.395	9039.11
893.71	9053.58
894.026	9005.89
894.342	9051.32
894.657	8998.89
894.973	8946.69
895.289	8913.24
895.604	8866.46
895.92	8843.19
896.235	8760.48
896.55	8820.81
896.865	8780.36
897.181	8762.96
897.496	8746.46
897.811	8675.96
898.126	8633.47
898.441	8587.15
898.756	8531.33
899.071	8543.31
899.386	8522.97
899.7	8417.21
900.015	8390.54
900.33	8369.07
900.644	8384.44
900.959	8321.84
901.273	8321.17
901.588	8271.9
901.902	8165.69
902.216	8278.91
902.531	8207.72
902.845	8219.93
903.159	8131.34
903.473	8060.38
903.787	8122.75
904.101	8004.56
904.415	7991.91
904.729	8001.17
905.042	7896.54
905.356	7895.19
905.67	7895.41
905.984	7893.83
906.297	7828.07
906.611	7768.64
906.924	7794.63
907.237	7800.28
907.551	7767.28
907.864	7701.97
908.177	7711.01
908.491	7624.69
908.804	7601.41
909.117	7532.26
909.43	7569.55
909.743	7535.2
910.056	7475.76
910.368	7495.42
910.681	7370.68
910.994	7371.81
911.307	7382.66
911.619	7249.56
911.932	7342.66
912.244	7221.99
912.557	7205.26
912.869	7178.6
913.181	7142.67
913.494	7146.73
913.806	7070.35
914.118	7052.72
914.43	7015.44
914.742	6948.09
915.054	6979.96
915.366	6963.23
915.678	6988.55
915.99	6875.1
916.302	6889.34
916.613	6838.49
916.925	6788.1
917.236	6814.76
917.548	6801.21
917.859	6754.2
918.171	6667.2
918.482	6691.38
918.794	6659.51
919.105	6606.18
919.416	6569.8
919.727	6564.38
920.038	6487.32
920.349	6512.63
920.66	6518.05
920.971	6483.02
921.282	6371.61
921.593	6380.65
921.903	6342.91
922.214	6307.43
922.525	6315.57
922.835	6348.34
923.146	6297.94
923.456	6283.25
923.767	6222.01
924.077	6234.44
924.387	6189.02
924.697	6134.56
925.008	6189.92
925.318	6108.34
925.628	6067.89
925.938	6078.06
926.248	6003.94
926.558	6004.16
926.867	5935.69
927.177	5932.75
927.487	5892.98
927.796	5878.07
928.106	5867.9
928.416	5861.12
928.725	5862.02
929.034	5792.87
929.344	5776.15
929.653	5767.56
929.962	5699.31
930.271	5698.18
930.581	5680.1
930.89	5649.82
931.199	5646.21
931.508	5586.55
931.817	5546.32
932.125	5560.33
932.434	5564.85
932.743	5526.89
933.051	5447.12
933.36	5467.91
933.669	5449.83
933.977	5427.91
934.286	5403.28
934.594	5380
934.902	5369.15
935.21	5344.75
935.519	5351.53
935.827	5274.47
936.135	5331.41
936.443	5236.05
936.751	5224.3
937.059	5201.93
937.367	5177.07
937.674	5204.19
937.982	5142.94
938.29	5142.94
938.597	5102.27
938.905	5064.3
939.213	5082.38
939.52	5032.21
939.827	5029.73
940.135	5027.47
940.442	5007.58
940.749	4970.07
941.056	5008.26
941.363	4921.25
941.67	4846
941.977	4834.03
942.284	4861.37
942.591	4843.06
942.898	4803.29
943.205	4773.01
943.511	4747.47
943.818	4754.93
944.125	4718.32
944.431	4691.66
944.738	4652.34
945.044	4678.55
945.35	4636.97
945.657	4609.17
945.963	4585.67
946.269	4571.66
946.575	4566.01
946.881	4522.17
947.187	4533.02
947.493	4480.36
947.799	4478.78
948.105	4429.29
948.41	4422.28
948.716	4426.35
949.022	4430.42
949.327	4405.11
949.633	4354.72
949.938	4321.04
950.244	4312.46
950.549	4275.17
950.854	4247.6
951.16	4315.62
951.465	4231.33
951.77	4195.17
952.075	4201.5
952.38	4221.16
952.685	4203.99
952.99	4197.66
953.294	4150.2
953.599	4116.3
953.904	4092.8
954.209	4062.52
954.513	4064.55
954.818	4056.64
955.122	4025.01
955.426	4028.85
955.731	4003.76
956.035	3930.32
956.339	3976.65
956.643	3928.06
956.948	3878.34
957.252	3878.34
957.556	3905.69
957.86	3891.9
958.163	3885.58
958.467	3842.64
958.771	3826.14
959.075	3824.79
959.378	3811.23
959.682	3801.28
959.985	3780.27
960.289	3719.25
960.592	3712.47
960.896	3706.6
961.199	3724.45
961.502	3681.29
961.805	3665.92
962.108	3620.72
962.411	3599.48
962.714	3599.71
963.017	3618.69
963.32	3620.5
963.623	3570.1
963.926	3593.83
964.228	3562.65
964.531	3533.95
964.833	3529.43
965.136	3499.82
965.438	3479.94
965.741	3476.32
966.043	3408.53
966.345	3418.24
966.648	3443.33
966.95	3394.52
967.252	3399.49
967.554	3396.1
967.856	3380.96
968.158	3337.79
968.46	3372.59
968.761	3332.14
969.063	3292.15
969.365	3298.7
969.666	3303.67
969.968	3244.91
970.269	3259.83
970.571	3209.89
970.872	3262.32
971.174	3219.38
971.475	3197.01
971.776	3200.4
972.077	3138.7
972.378	3153.62
972.679	3135.77
972.98	3146.39
973.281	3124.92
973.582	3096.9
973.883	3107.52
974.183	3032.94
974.484	3062.55
974.785	3054.19
975.085	3032.26
975.386	3016.9
975.686	2976.22
975.986	3000.4
976.287	2982.1
976.587	2957.01
976.887	2972.15
977.187	2975.09
977.487	2943.91
977.787	2928.09
978.087	2903.68
978.387	2854.64
978.687	2892.83
978.987	2853.74
979.286	2846.96
979.586	2843.34
979.885	2802.44
980.185	2805.38
980.484	2790.01
980.784	2763.12
981.083	2784.14
981.382	2750.24
981.682	2801.54
981.981	2723.57
982.28	2735.1
982.579	2701.65
982.878	2692.84
983.177	2663.24
983.475	2693.52
983.774	2660.98
984.073	2670.69
984.372	2597.25
984.67	2619.17
984.969	2611.26
985.267	2582.11
985.566	2596.34
985.864	2549.11
986.162	2553.41
986.461	2562.9
986.759	2552.73
987.057	2526.97
987.355	2540.07
987.653	2524.26
987.951	2507.08
988.249	2439.74
988.547	2507.98
988.844	2470.7
989.142	2464.14
989.44	2443.81
989.737	2422.56
990.035	2413.52
990.332	2411.04
990.63	2367.2
990.927	2359.29
991.224	2369.01
991.521	2371.27
991.819	2340.98
992.116	2335.56
992.413	2350.93
992.71	2328.33
993.006	2354.77
993.303	2310.93
993.6	2274.09
993.897	2263.25
994.193	2261.21
994.49	2198.84
994.787	2231.83
995.083	2239.97
995.379	2186.86
995.676	2223.7
995.972	2213.3
996.268	2203.59
996.565	2172.63
996.861	2151.16
997.157	2156.58
997.453	2161.78
997.749	2126.98
998.044	2115.68
998.34	2085.62
998.636	2106.64
998.932	2117.49
999.227	2085.4
999.523	2072.52
999.818	2039.97
1000.114	2059.64
1000.409	2021.9
1000.704	2028.45
1001	2049.01
1001.295	1980.77
1001.59	2002.69
1001.885	1978.06
1002.18	1940.32
1002.475	1956.59
1002.77	1942.58
1003.065	1921.33
1003.359	1922.92
1003.654	1935.8
1003.949	1948
1004.243	1887.66
1004.538	1907.55
1004.832	1887.21
1005.127	1877.94
1005.421	1840.88
1005.715	1823.03
1006.009	1838.85
1006.304	1821.68
1006.598	1813.31
1006.892	1785.29
1007.186	1807.21
1007.48	1774.67
1007.773	1755.01
1008.067	1778.06
1008.361	1782.13
1008.655	1758.4
1008.948	1737.38
1009.242	1722.69
1009.535	1712.53
1009.829	1701.45
1010.122	1678.18
1010.415	1683.15
1010.708	1696.71
1011.001	1648.57
1011.295	1652.64
1011.588	1652.64
1011.881	1636.37
1012.173	1642.47
1012.466	1615.58
1012.759	1597.95
1013.052	1593.88
1013.344	1577.61
1013.637	1593.66
1013.93	1578.52
1014.222	1565.18
1014.514	1577.61
1014.807	1525.64
1015.099	1541.46
1015.391	1532.64
1015.683	1512.98
1015.976	1522.02
1016.268	1485.41
1016.56	1502.14
1016.851	1458.52
1017.143	1464.17
1017.435	1464.62
1017.727	1460.1
1018.018	1451.06
1018.31	1430.95
1018.602	1409.93
1018.893	1425.08
1019.185	1370.84
1019.476	1379.2
1019.767	1405.64
1020.058	1356.15
1020.35	1383.49
1020.641	1353.89
1020.932	1342.14
1021.223	1349.6
1021.514	1329.03
1021.804	1319.54
1022.095	1315.7
1022.386	1304.4
1022.677	1314.12
1022.967	1276.38
1023.258	1283.84
1023.548	1286.77
1023.839	1277.73
1024.129	1256.72
1024.419	1278.64
1024.709	1218.3
1025	1251.07
1025.29	1258.07
1025.58	1221.24
1025.87	1204.52
1026.16	1201.8
1026.449	1181.24
1026.739	1164.52
1027.029	1174.91
1027.319	1183.73
1027.608	1164.29
1027.898	1148.47
1028.187	1143.05
1028.477	1147.12
1028.766	1145.99
1029.055	1122.71
1029.344	1142.15
1029.634	1124.29
1029.923	1108.93
1030.212	1117.74
1030.501	1115.03
1030.79	1115.93
1031.078	1091.3
1031.367	1062.83
1031.656	1084.97
1031.945	1096.72
1032.233	1050.4
1032.522	1042.49
1032.81	1045.65
1033.099	1036.61
1033.387	1041.13
1033.675	1051.53
1033.963	1025.31
1034.251	1018.53
1034.54	1007.91
1034.828	996.61
1035.116	974.69
1035.403	993
1035.691	978.53
1035.979	972.21
1036.267	977.4
1036.554	964.07
1036.842	979.66
1037.129	940.79
1037.417	959.78
1037.704	960.23
1037.992	941.7
1038.279	905.77
1038.566	918.65
1038.853	918.65
1039.14	918.65
