Data from hue_220_FLMS001491_00055.txt Node
Date: Tue Feb 07 16:39:39 GMT 2017
User: dcchb
Spectrometer: FLMS00149
Trigger mode: 0
Integration Time (sec): 2.000000E-2
Scans to average: 10
Electric dark correction enabled: true
Nonlinearity correction enabled: false
Boxcar width: 0
XAxis mode: Wavelengths
Number of Pixels in Spectrum: 2048
>>>>>Begin Spectral Data<<<<<
341.393	-13.67
341.776	-13.67
342.16	-13.67
342.543	-50.28
342.927	-67.23
343.31	-62.94
343.693	-75.82
344.077	-71.07
344.46	-80.11
344.843	-48.93
345.226	-45.99
345.61	-24.97
345.993	-25.88
346.376	-12.54
346.759	12.54
347.142	30.17
347.525	38.76
347.908	67
348.291	95.25
348.674	92.77
349.057	111.75
349.44	130.51
349.823	137.51
350.206	140.22
350.588	177.96
350.971	222.03
351.354	216.15
351.737	223.38
352.119	264.29
352.502	248.02
352.884	275.81
353.267	273.78
353.65	299.54
354.032	294.79
354.414	297.05
354.797	311.97
355.179	318.75
355.562	308.81
355.944	327.56
356.326	318.52
356.709	334.12
357.091	342.48
357.473	315.13
357.855	313.33
358.238	331.4
358.62	331.86
359.002	327.34
359.384	323.27
359.766	325.98
360.148	327.11
360.53	342.93
360.912	327.11
361.294	344.06
361.676	333.21
362.057	331.4
362.439	325.53
362.821	330.73
363.203	330.27
363.584	317.84
363.966	318.3
364.348	298.18
364.729	313.1
365.111	324.62
365.493	306.55
365.874	313.55
366.256	305.64
366.637	302.7
367.019	283.95
367.4	303.83
367.781	320.1
368.163	327.34
368.544	295.02
368.925	327.11
369.306	295.92
369.688	299.09
370.069	318.07
370.45	304.51
370.831	284.4
371.212	315.36
371.593	305.87
371.974	304.74
372.355	305.42
372.736	319.2
373.117	312.2
373.498	314.68
373.879	309.03
374.26	312.42
374.641	298.86
375.021	318.52
375.402	311.29
375.783	307
376.163	328.01
376.544	303.38
376.925	328.01
377.305	332.08
377.686	318.97
378.066	312.42
378.447	314.68
378.827	328.69
379.208	311.74
379.588	317.84
379.968	330.5
380.349	321.91
380.729	317.84
381.109	331.18
381.489	332.53
381.87	307.22
382.25	322.59
382.63	354.23
383.01	322.36
383.39	322.82
383.77	316.71
384.15	346.32
384.53	333.66
384.91	327.11
385.29	321.23
385.67	337.28
386.049	347.9
386.429	343.83
386.809	342.93
387.189	334.79
387.568	359.65
387.948	357.62
388.328	336.83
388.707	337.05
389.087	362.59
389.466	367.33
389.846	349.71
390.225	354.68
390.605	336.38
390.984	352.19
391.363	372.76
391.743	360.56
392.122	376.6
392.501	352.65
392.881	390.61
393.26	386.09
393.639	369.59
394.018	345.87
394.397	373.89
394.776	356.26
395.155	374.11
395.534	366.21
395.913	374.79
396.292	392.65
396.671	370.05
397.05	375.7
397.429	399.2
397.808	383.15
398.186	374.79
398.565	383.61
398.944	389.03
399.323	399.88
399.701	393.77
400.08	406.66
400.458	407.79
400.837	412.08
401.215	391.29
401.594	415.47
401.972	415.7
402.351	407.33
402.729	416.83
403.107	415.7
403.486	417.5
403.864	428.58
404.242	416.37
404.62	430.38
404.999	439.2
405.377	440.33
405.755	445.98
406.133	448.46
406.511	450.72
406.889	456.82
407.267	461.57
407.645	464.96
408.023	476.71
408.401	456.15
408.779	465.41
409.156	487.56
409.534	491.85
409.912	481.46
410.29	503.6
410.667	513.77
411.045	511.29
411.422	528.46
411.8	517.39
412.178	546.09
412.555	543.15
412.933	561.68
413.31	551.28
413.687	561
414.065	579.31
414.442	590.15
414.819	605.29
415.197	584.96
415.574	604.84
415.951	603.71
416.328	622.47
416.705	602.13
417.082	634.22
417.46	645.97
417.837	635.58
418.214	626.76
418.591	654.79
418.967	643.03
419.344	666.31
419.721	672.64
420.098	702.02
420.475	705.63
420.852	708.57
421.228	740.88
421.605	732.52
421.982	731.62
422.358	753.99
422.735	757.16
423.111	731.85
423.488	788.57
423.864	793.09
424.241	812.52
424.617	839.86
424.994	837.61
425.37	814.78
425.746	841.67
426.123	864.72
426.499	860.88
426.875	879.86
427.251	910.6
427.627	911.95
428.003	916.02
428.379	929.58
428.756	946.08
429.132	957.15
429.507	978.17
429.883	966.19
430.259	975.45
430.635	989.47
431.011	1027.66
431.387	1035.34
431.763	1037.6
432.138	1038.96
432.514	1098.16
432.89	1088.67
433.265	1091.84
433.641	1124.15
434.016	1110.59
434.392	1132.29
434.767	1161.21
435.143	1153.75
435.518	1204.38
435.894	1223.13
436.269	1247.54
436.644	1257.93
437.02	1284.37
437.395	1288.67
437.77	1325.95
438.145	1349.46
438.52	1381.55
438.895	1393.97
439.271	1398.49
439.646	1478.72
440.021	1476.01
440.395	1450.47
440.77	1468.55
441.145	1492.96
441.52	1522.33
441.895	1527.98
442.27	1540.19
442.645	1577.7
443.019	1589.68
443.394	1593.07
443.769	1590.35
444.143	1598.72
444.518	1628.77
444.892	1636.91
445.267	1632.84
445.641	1634.87
446.016	1686.62
446.39	1687.75
446.764	1735.43
447.139	1732.72
447.513	1730.01
447.887	1735.21
448.262	1758.94
448.636	1750.58
449.01	1807.3
449.384	1810.46
449.758	1807.07
450.132	1839.39
450.506	1820.86
450.88	1840.29
451.254	1867.86
451.628	1877.58
452.002	1918.71
452.376	1920.51
452.75	1925.94
453.123	1992.83
453.497	1967.74
453.871	1969.55
454.244	2028.53
454.618	2041.42
454.992	2075.31
455.365	2062.43
455.739	2093.84
456.112	2130.9
456.486	2127.51
456.859	2130.9
457.232	2195.54
457.606	2200.28
457.979	2219.26
458.352	2255.42
458.725	2266.72
459.099	2320.28
459.472	2328.19
459.845	2343.33
460.218	2383.1
460.591	2400.73
460.964	2413.16
461.337	2459.71
461.71	2503.78
462.083	2478.92
462.456	2509.88
462.829	2520.27
463.201	2576.77
463.574	2555.07
463.947	2607.5
464.32	2667.61
464.692	2662.19
465.065	2709.19
465.438	2749.42
465.81	2739.48
466.183	2772.24
466.555	2819.7
466.928	2869.19
467.3	2835.52
467.672	2889.08
468.045	2962.52
468.417	2977.66
468.789	2960.71
469.161	3011.79
469.534	3062.86
469.906	3084.78
470.278	3143.31
470.65	3182.85
471.022	3188.96
471.394	3254.94
471.766	3282.74
472.138	3317.54
472.51	3363.64
472.882	3425.56
473.253	3440.47
473.625	3489.29
473.997	3562.51
474.369	3569.96
474.74	3632.79
475.112	3660.13
475.484	3727.47
475.855	3767.47
476.227	3768.83
476.598	3894.47
476.97	3844.31
477.341	3952.1
477.713	4026.9
478.084	4020.12
478.455	4131.53
478.827	4162.94
479.198	4271.87
479.569	4261.24
479.94	4328.59
480.311	4424.18
480.682	4480.67
481.053	4540.56
481.424	4636.83
481.795	4663.49
482.166	4700.55
482.537	4804.28
482.908	4848.12
483.279	4854.67
483.65	4968.34
484.021	5028.68
484.391	5068.23
484.762	5100.77
485.133	5169.24
485.503	5247.66
485.874	5257.83
486.244	5336.02
486.615	5463.92
486.985	5457.14
487.356	5548.44
487.726	5576.01
488.097	5640.42
488.467	5657.82
488.837	5753.41
489.207	5806.06
489.578	5834.76
489.948	5912.05
490.318	6023.01
490.688	6040.41
491.058	6147.52
491.428	6162.21
491.798	6234.53
492.168	6306.61
492.538	6306.16
492.908	6407.63
493.278	6431.58
493.648	6425.25
494.017	6483.33
494.387	6563.1
494.757	6609.88
495.126	6625.48
495.496	6675.19
495.866	6617.34
496.235	6731.46
496.605	6776.88
496.974	6801.52
497.344	6893.72
497.713	6834.06
498.082	6912.02
498.452	6954.51
498.821	6940.5
499.19	6969.87
499.559	7020.49
499.928	7087.16
500.298	7120.38
500.667	7102.53
501.036	7125.8
501.405	7178.46
501.774	7168.51
502.143	7230.43
502.512	7208.06
502.88	7319.47
503.249	7308.17
503.618	7286.25
503.987	7369.18
504.356	7309.07
504.724	7403.76
505.093	7334.84
505.462	7413.25
505.83	7463.19
506.199	7414.83
506.567	7503.87
506.936	7498.45
507.304	7562.4
507.672	7552.91
508.041	7584.32
508.409	7585
508.777	7651.21
509.145	7733.92
509.514	7659.8
509.882	7683.98
510.25	7698.67
510.618	7751.1
510.986	7684.88
511.354	7724.2
511.722	7758.1
512.09	7849.4
512.458	7808.72
512.826	7848.49
513.193	7862.96
513.561	7860.02
513.929	7874.93
514.297	7919
514.664	7869.96
515.032	7906.35
515.4	7904.31
515.767	7872.22
516.135	7934.82
516.502	7874.71
516.869	8033.57
517.237	7919.45
517.604	7911.54
517.972	7939.57
518.339	8007.59
518.706	7969.62
519.073	7927.14
519.44	7986.12
519.808	8050.75
520.175	8004.42
520.542	8112.89
520.909	8039.22
521.276	7971.43
521.643	8026.79
522.009	8020.92
522.376	8087.13
522.743	8081.71
523.11	8057.98
523.477	8097.75
523.843	8156.73
524.21	8243.96
524.577	8242.83
524.943	8247.13
525.31	8170.75
525.676	8207.13
526.043	8194.7
526.409	8208.26
526.776	8325.09
527.142	8235.6
527.508	8174.59
527.874	8222.95
528.241	8293.68
528.607	8235.15
528.973	8313.79
529.339	8227.24
529.705	8296.17
530.071	8316.05
530.437	8336.16
530.803	8247.35
531.169	8227.69
531.535	8240.57
531.901	8204.19
532.267	8236.51
532.632	8218.65
532.998	8239.44
533.364	8223.17
533.73	8224.98
534.095	8270.18
534.461	8226.34
534.826	8200.12
535.192	8199.45
535.557	8183.63
535.923	8121.48
536.288	8174.59
536.653	8123.29
537.019	8124.65
537.384	8098.43
537.749	8142.27
538.114	8090.3
538.479	8065.44
538.845	8085.32
539.21	8011.88
539.575	8050.75
539.94	8022.73
540.305	8009.17
540.67	7987.02
541.034	7976.85
541.399	7920.58
541.764	7937.08
542.129	7923.97
542.494	7916.74
542.858	7920.36
543.223	7896.18
543.587	7863.18
543.952	7881.04
544.316	7768.5
544.681	7796.29
545.045	7735.05
545.41	7771.43
545.774	7787.03
546.138	7788.38
546.503	7698.44
546.867	7672.23
547.231	7680.14
547.595	7672.45
547.959	7584.77
548.324	7639.23
548.688	7603.08
549.052	7549.52
549.416	7585.45
549.779	7540.03
550.143	7525.34
550.507	7494.83
550.871	7501.38
551.235	7465.45
551.599	7497.09
551.962	7520.37
552.326	7448.28
552.689	7434.49
553.053	7391.56
553.417	7396.3
553.78	7465.91
554.143	7399.24
554.507	7398.11
554.87	7318.79
555.234	7396.75
555.597	7362.86
555.96	7352.01
556.323	7248.51
556.686	7258.91
557.05	7342.29
557.413	7336.42
557.776	7329.41
558.139	7350.65
558.502	7334.84
558.865	7268.85
559.228	7294.61
559.59	7367.15
559.953	7299.36
560.316	7358.56
560.679	7346.59
561.041	7342.74
561.404	7346.36
561.767	7323.99
562.129	7331.9
562.492	7371.67
562.854	7332.12
563.217	7311.79
563.579	7326.93
563.941	7360.6
564.304	7401.5
564.666	7397.88
565.028	7424.78
565.39	7362.41
565.753	7420.48
566.115	7395.4
566.477	7404.44
566.839	7432.23
567.201	7454.38
567.563	7479.46
567.925	7497.99
568.287	7480.37
568.648	7509.75
569.01	7580.03
569.372	7614.38
569.734	7558.33
570.095	7575.96
570.457	7638.33
570.819	7649.63
571.18	7609.18
571.542	7673.58
571.903	7596.75
572.265	7581.16
572.626	7650.99
572.987	7656.41
573.349	7680.59
573.71	7691.66
574.071	7688.5
574.432	7702.96
574.794	7774.37
575.155	7752.45
575.516	7773.02
575.877	7740.25
576.238	7794.48
576.599	7779.8
576.96	7804.43
577.32	7745.67
577.681	7867.7
578.042	7856.18
578.403	7890.08
578.763	7867.48
579.124	7952.67
579.485	7969.62
579.845	8013.01
580.206	7953.35
580.566	7929.4
580.927	7957.42
581.287	8054.14
581.648	8016.63
582.008	8023.86
582.368	8006.91
582.728	8057.3
583.089	8060.69
583.449	8054.59
583.809	8087.81
584.169	8131.88
584.529	8100.69
584.889	8153.12
585.249	8095.27
585.609	8095.95
585.969	8156.96
586.329	8150.18
586.688	8123.52
587.048	8207.58
587.408	8187.02
587.768	8177.53
588.127	8205.32
588.487	8111.54
588.846	8276.96
589.206	8213.68
589.565	8229.95
589.925	8274.25
590.284	8316.96
590.643	8352.44
591.003	8329.16
591.362	8348.59
591.721	8393.34
592.08	8410.97
592.44	8431.53
592.799	8399.67
593.158	8325.32
593.517	8438.99
593.876	8356.28
594.235	8396.05
594.593	8387.69
594.952	8427.46
595.311	8422.26
595.67	8439.44
596.029	8524.18
596.387	8546.33
596.746	8508.36
597.104	8464.75
597.463	8444.18
597.822	8526.44
598.18	8471.08
598.538	8450.51
598.897	8542.49
599.255	8487.57
599.613	8617.06
599.972	8577.06
600.33	8541.58
600.688	8514.69
601.046	8578.19
601.404	8588.14
601.762	8579.32
602.12	8603.5
602.478	8629.26
602.836	8639.21
603.194	8586.1
603.552	8671.3
603.91	8556.27
604.268	8613.9
604.625	8566.44
604.983	8620.23
605.341	8563.96
605.698	8692.77
606.056	8675.59
606.413	8623.16
606.771	8661.35
607.128	8620.68
607.485	8612.99
607.843	8614.35
608.2	8655.03
608.557	8696.61
608.914	8647.8
609.272	8682.82
609.629	8685.99
609.986	8780
610.343	8713.1
610.7	8747.68
611.057	8774.8
611.414	8801.24
611.771	8756.72
612.127	8783.84
612.484	8803.5
612.841	8830.39
613.198	8809.6
613.554	8769.37
613.911	8860.22
614.267	8878.98
614.624	8775.7
614.98	8848.02
615.337	8850.28
615.693	8835.13
616.05	8891.18
616.406	8864.51
616.762	8905.19
617.118	8852.08
617.475	8893.21
617.831	8860.67
618.187	8911.07
618.543	8942.02
618.899	8972.31
619.255	8944.06
619.611	8952.65
619.967	8948.13
620.323	8955.36
620.678	8890.27
621.034	8883.5
621.39	8925.3
621.746	8859.99
622.101	9000.33
622.457	8929.6
622.812	8963.04
623.168	8990.84
623.523	8968.69
623.879	8970.5
624.234	8891.4
624.589	8962.59
624.945	8937.05
625.3	8935.25
625.655	8947
626.01	9022.02
626.365	8925.98
626.72	8968.92
627.075	8888.92
627.43	8905.87
627.785	8899.99
628.14	8960.78
628.495	8980.67
628.85	8954
629.205	8917.17
629.559	8921.01
629.914	8897.73
630.269	8925.75
630.623	8866.77
630.978	8817.51
631.332	8906.77
631.687	8864.29
632.041	8850.05
632.396	8878.3
632.75	8806.21
633.104	8817.96
633.459	8777.96
633.813	8775.48
634.167	8774.35
634.521	8817.28
634.875	8809.6
635.229	8798.3
635.583	8679.43
635.937	8665.2
636.291	8751.3
636.645	8698.87
636.999	8676.27
637.352	8691.41
637.706	8664.07
638.06	8704.97
638.413	8708.58
638.767	8642.37
639.121	8672.88
639.474	8595.82
639.828	8624.97
640.181	8649.38
640.534	8650.06
640.888	8568.93
641.241	8613.22
641.594	8566.67
641.947	8581.81
642.301	8560.79
642.654	8542.49
643.007	8532.77
643.36	8648.02
643.713	8553.79
644.066	8616.84
644.419	8570.74
644.771	8455.71
645.124	8395.6
645.477	8406.67
645.83	8358.09
646.182	8375.49
646.535	8327.58
646.888	8267.47
647.24	8246
647.593	8317.86
647.945	8285.09
648.298	8260.23
648.65	8207.81
649.002	8192.89
649.355	8232.44
649.707	8270.4
650.059	8287.35
650.411	8400.57
650.763	8323.28
651.115	8513.34
651.467	8415.26
651.819	8456.84
652.171	8467.23
652.523	8411.64
652.875	8372.55
653.227	8397.18
653.578	8450.96
653.93	8468.82
654.282	8380.01
654.633	8418.2
654.985	8458.87
655.337	8414.13
655.688	8429.27
656.039	8462.04
656.391	8411.87
656.742	8421.59
657.094	8447.12
657.445	8434.02
657.796	8414.36
658.147	8413.45
658.498	8382.27
658.849	8468.14
659.2	8400.57
659.551	8422.72
659.902	8450.06
660.253	8453.22
660.604	8411.87
660.955	8389.5
661.306	8488.48
661.656	8442.38
662.007	8459.1
662.358	8499.55
662.708	8448.25
663.059	8441.7
663.409	8445.31
663.76	8479.44
664.11	8455.03
664.461	8464.07
664.811	8520.11
665.161	8479.44
665.511	8507.01
665.862	8495.03
666.212	8521.7
666.562	8515.6
666.912	8409.16
667.262	8471.08
667.612	8451.42
667.962	8476.5
668.312	8503.84
668.662	8496.16
669.011	8454.58
669.361	8467.91
669.711	8477.18
670.06	8502.26
670.41	8434.69
670.76	8459.33
671.109	8438.76
671.459	8403.51
671.808	8413.23
672.157	8510.85
672.507	8403.06
672.856	8401.7
673.205	8378.2
673.554	8457.52
673.904	8397.41
674.253	8424.75
674.602	8346.11
674.951	8289.61
675.3	8184.76
675.649	8392.66
675.998	8319.67
676.346	8393.56
676.695	8354.92
677.044	8311.98
677.393	8320.8
677.741	8355.83
678.09	8351.31
678.438	8323.74
678.787	8296.17
679.135	8317.18
679.484	8265.66
679.832	8226.11
680.181	8217.3
680.529	8273.57
680.877	8166.9
681.225	8259.56
681.573	8266.79
681.922	8187.92
682.27	8201.71
682.618	8123.97
682.966	8075.83
683.314	8119.67
683.661	8124.87
684.009	8047.36
684.357	8075.15
684.705	8055.95
685.053	8038.32
685.4	8019.34
685.748	7984.99
686.095	7982.05
686.443	7979.11
686.79	7967.14
687.138	7939.57
687.485	7956.51
687.832	7922.62
688.18	7906.57
688.527	7815.95
688.874	7774.15
689.221	7830.42
689.568	7781.83
689.915	7828.61
690.262	7750.87
690.609	7686.24
690.956	7707.71
691.303	7723.75
691.65	7640.59
691.997	7672.91
692.344	7537.77
692.69	7565.56
693.037	7604.66
693.383	7495.51
693.73	7549.97
694.077	7503.19
694.423	7511.55
694.769	7464.78
695.116	7368.05
695.462	7384.55
695.808	7382.97
696.155	7385.23
696.501	7338.9
696.847	7282.86
697.193	7229.98
697.539	7250.77
697.885	7216.65
698.231	7205.57
698.577	7168.51
698.923	7129.87
699.269	7129.42
699.614	7099.14
699.96	7056.42
700.306	7046.26
700.651	6998.35
700.997	7018.01
701.342	7018.91
701.688	6924
702.033	6963.32
702.379	6944.34
702.724	6879.03
703.069	6905.24
703.415	6837.9
703.76	6774.17
704.105	6808.97
704.45	6798.8
704.795	6765.36
705.14	6745.7
705.485	6736.43
705.83	6697.79
706.175	6697.34
706.52	6667.51
706.865	6713.38
707.209	6582.31
707.554	6612.14
707.899	6578.47
708.243	6579.83
708.588	6571.69
708.932	6486.95
709.277	6511.81
709.621	6487.63
709.966	6440.62
710.31	6460.73
710.654	6426.84
710.998	6423.22
711.342	6449.21
711.687	6363.79
712.031	6341.42
712.375	6378.93
712.719	6430.23
713.063	6335.77
713.407	6413.73
713.75	6352.94
714.094	6299.38
714.438	6291.25
714.782	6330.57
715.125	6221.64
715.469	6296.22
715.812	6219.84
716.156	6233.85
716.499	6266.84
716.843	6243.79
717.186	6159.95
717.53	6199.5
717.873	6233.62
718.216	6163.79
718.559	6224.36
718.902	6106.85
719.246	6179.61
719.589	6160.85
719.932	6099.61
720.275	6076.34
720.617	6110.46
720.96	6102.1
721.303	6094.87
721.646	6095.55
721.989	6035.66
722.331	6153.4
722.674	6088.09
723.016	6073.17
723.359	6041.99
723.701	6048.32
724.044	6012.61
724.386	6016.23
724.729	6062.55
725.071	6047.86
725.413	5983.91
725.755	6037.69
726.097	6010.35
726.439	5968.54
726.782	5964.25
727.124	6059.39
727.465	5989.11
727.807	6009.67
728.149	6007.41
728.491	5987.98
728.833	5975.55
729.175	6009.9
729.516	5967.41
729.858	5991.59
730.199	5991.59
730.541	5971.93
730.882	5948.66
731.224	5959.73
731.565	5976.45
731.906	5957.02
732.248	5966.74
732.589	6007.64
732.93	5938.26
733.271	5990.01
733.612	5994.53
733.953	5968.32
734.294	5954.08
734.635	5934.65
734.976	6004.7
735.317	5962.22
735.658	5983.68
735.999	5964.02
736.339	5917.92
736.68	5987.07
737.021	5995.66
737.361	6039.5
737.702	6021.42
738.042	5977.81
738.383	5990.46
738.723	5976.23
739.063	6021.65
739.404	6079.73
739.744	5999.28
740.084	6012.16
740.424	6009.67
740.764	6037.69
741.104	6071.37
741.444	6065.72
741.784	6069.78
742.124	6145.71
742.464	6046.28
742.804	6116.11
743.143	6133.51
743.483	6163.57
743.823	6172.61
744.162	6203.57
744.502	6262.1
744.841	6253.06
745.181	6239.5
745.52	6308.42
745.86	6318.82
746.199	6338.03
746.538	6407.18
746.877	6400.62
747.216	6472.71
747.556	6429.32
747.895	6533.27
748.234	6543.67
748.573	6600.62
748.911	6670.67
749.25	6745.7
749.589	6764.45
749.928	6772.36
750.267	6859.82
750.605	6967.16
750.944	7043.32
751.283	7021.4
751.621	7193.14
751.96	7171.45
752.298	7247.38
752.636	7330.77
752.975	7405.34
753.313	7510.2
753.651	7635.17
753.989	7685.56
754.327	7808.27
754.666	7870.64
755.004	7991.32
755.342	8103.18
755.679	8292.32
756.017	8368.71
756.355	8547.23
756.693	8651.18
757.031	8708.36
757.368	8897.05
757.706	8994.9
758.044	9177.5
758.381	9401.22
758.719	9438.73
759.056	9683.47
759.394	9773.64
759.731	9829.46
760.068	10077.81
760.405	10126.17
760.743	10306.51
761.08	10509.89
761.417	10608.2
761.754	10751.24
762.091	10933.61
762.428	11104.23
762.765	11262.87
763.102	11486.36
763.438	11595.29
763.775	11822.85
764.112	11990.31
764.449	12146.01
764.785	12313.46
765.122	12375.61
765.458	12565.21
765.795	12756.61
766.131	12934.91
766.467	13037.28
766.804	13122.03
767.14	13238.41
767.476	13482.02
767.812	13645.86
768.148	13833.65
768.485	13880.43
768.821	13976.47
769.157	14099.18
769.492	14259.85
769.828	14408.55
770.164	14560.18
770.5	14657.81
770.836	14809.44
771.171	14879.27
771.507	14955.65
771.842	15104.57
772.178	15169.66
772.513	15335.08
772.849	15393.38
773.184	15519.03
773.519	15531.68
773.855	15605.35
774.19	15734.16
774.525	15721.51
774.86	15938.68
775.195	15935.51
775.53	16035.4
775.865	16073.14
776.2	16033.36
776.535	16074.94
776.87	16193.81
777.205	16175.51
777.539	16218.44
777.874	16411.21
778.209	16405.56
778.543	16382.06
778.878	16372.11
779.212	16467.02
779.547	16521.03
779.881	16625.89
780.215	16500.47
780.55	16698.88
780.884	16663.18
781.218	16648.26
781.552	16765.77
781.886	16658.21
782.22	16667.92
782.554	16606
782.888	16653.01
783.222	16614.59
783.556	16674.7
783.889	16697.75
784.223	16571.88
784.557	16624.99
784.89	16718.54
785.224	16620.69
785.557	16623.4
785.891	16654.14
786.224	16654.36
786.558	16610.75
786.891	16538.66
787.224	16466.35
787.557	16538.44
787.891	16603.74
788.224	16606.91
788.557	16589.96
788.89	16613.91
789.223	16647.81
789.556	16494.82
789.888	16509.28
790.221	16435.16
790.554	16367.59
790.887	16439.45
791.219	16447.59
791.552	16426.12
791.884	16348.61
792.217	16302.96
792.549	16277.65
792.882	16219.57
793.214	16268.84
793.546	16208.27
793.879	16192.23
794.211	16185.22
794.543	16276.75
794.875	16169.63
795.207	16168.28
795.539	16149.74
795.871	16133.02
796.203	16009.41
796.535	15989.07
796.867	15888.28
797.198	15891.9
797.53	15920.37
797.862	15863.42
798.193	15916.3
798.525	15872.01
798.856	15840.37
799.188	15675.63
799.519	15697.33
799.85	15571.91
800.182	15619.36
800.513	15599.93
800.844	15396.09
801.175	15604.9
801.506	15634.5
801.837	15448.52
802.168	15393.15
802.499	15420.95
802.83	15347.05
803.161	15332.14
803.491	15348.18
803.822	15205.81
804.153	15279.49
804.483	15208.3
804.814	15172.6
805.145	15174.4
805.475	15122.43
805.805	14997.23
806.136	15094.41
806.466	15040.4
806.796	15035.88
807.126	14911.81
807.457	14908.42
807.787	14907.97
808.117	14841.3
808.447	14770.35
808.777	14798.59
809.107	14795.66
809.436	14723.57
809.766	14770.12
810.096	14740.29
810.426	14624.81
810.755	14693.96
811.085	14653.51
811.414	14592.05
811.744	14545.95
812.073	14509.79
812.403	14440.64
812.732	14393.86
813.061	14410.13
813.39	14333.75
813.719	14305.05
814.049	14373.29
814.378	14369.45
814.707	14194.99
815.036	14260.53
815.365	14263.24
815.693	14117.93
816.022	14181.44
816.351	14152.96
816.68	14108.89
817.008	14143.47
817.337	14039.74
817.665	13988.22
817.994	13940.76
818.322	14083.81
818.651	13964.27
818.979	13907.77
819.307	14027.77
819.636	13930.59
819.964	13835.46
820.292	13842.69
820.62	13810.6
820.948	13910.48
821.276	13834.1
821.604	13774.21
821.932	13868.9
822.259	13957.03
822.587	13875.91
822.915	13808.34
823.243	13872.29
823.57	13782.35
823.898	13704.61
824.225	13752.52
824.553	13787.1
824.88	13867.32
825.207	13890.14
825.535	13810.15
825.862	13851.95
826.189	13679.75
826.516	13893.08
826.843	13989.12
827.17	13843.36
827.497	13895.11
827.824	13920.88
828.151	13935.11
828.478	13828
828.805	13890.14
829.131	13846.08
829.458	13864.16
829.785	13721.33
830.111	13865.96
830.438	13943.93
830.764	13938.73
831.09	13802.91
831.417	13859.18
831.743	13841.78
832.069	13868.67
832.395	13748.23
832.722	13831.61
833.048	13804.95
833.374	13845.4
833.7	13776.7
834.026	13857.15
834.351	13804.95
834.677	13704.39
835.003	13740.32
835.329	13721.79
835.654	13689.92
835.98	13615.12
836.306	13701
836.631	13637.27
836.956	13700.77
837.282	13675.69
837.607	13656.48
837.932	13599.76
838.258	13602.69
838.583	13571.51
838.908	13517.72
839.233	13512.3
839.558	13524.96
839.883	13445.86
840.208	13396.82
840.533	13428.46
840.858	13510.94
841.182	13438.18
841.507	13472.98
841.832	13292.87
842.156	13328.8
842.481	13267.56
842.805	13195.7
843.13	13269.82
843.454	13260.33
843.778	13160.67
844.103	13182.82
844.427	13150.95
844.751	13092.88
845.075	13101.01
845.399	12965.42
845.723	12915.48
846.047	12940.56
846.371	12935.82
846.695	12907.8
847.019	12772.66
847.343	12763.85
847.666	12702.38
847.99	12513.68
848.313	12581.7
848.637	12611.98
848.96	12536.51
849.284	12507.81
849.607	12404.08
849.931	12392.56
850.254	12333.12
850.577	12201.83
850.9	12105.33
851.223	12155.5
851.546	12054.94
851.869	12007.03
852.192	12053.58
852.515	11911.89
852.838	11878.44
853.161	11864.66
853.483	11854.04
853.806	11800.48
854.129	11859.46
854.451	11686.81
854.774	11647.94
855.096	11560.04
855.419	11645.46
855.741	11559.13
856.063	11524.1
856.385	11448.17
856.708	11408.17
857.03	11420.15
857.352	11391.68
857.674	11350.55
857.996	11301.74
858.318	11283.88
858.64	11282.08
858.961	11218.58
859.283	11203.66
859.605	11056.77
859.926	11027.85
860.248	11072.82
860.57	11059.26
860.891	11109.65
861.212	11054.51
861.534	10968.86
861.855	10999.82
862.176	10989.43
862.498	10921.63
862.819	10955.08
863.14	10874.18
863.461	10897.68
863.782	10821.07
864.103	10912.37
864.424	10772.26
864.745	10769.32
865.065	10775.42
865.386	10759.83
865.707	10716.44
866.027	10722.54
866.348	10669.89
866.668	10715.09
866.989	10685.48
867.309	10642.77
867.63	10623.79
867.95	10576.11
868.27	10519.84
868.59	10571.13
868.91	10527.29
869.23	10503.34
869.55	10457.92
869.87	10512.38
870.19	10486.16
870.51	10449.56
870.83	10466.96
871.15	10412.27
871.469	10345.38
871.789	10450.23
872.109	10305.83
872.428	10362.1
872.748	10425.6
873.067	10349.67
873.386	10343.8
873.706	10286.4
874.025	10217.7
874.344	10226.28
874.663	10245.72
874.982	10247.08
875.301	10216.79
875.62	10214.31
875.939	10183.35
876.258	10187.19
876.577	10161.43
876.896	10109.68
877.214	10088.89
877.533	10119.85
877.852	10094.99
878.17	10042.11
878.489	10117.59
878.807	10101.99
879.125	10074.2
879.444	10098.83
879.762	9958.95
880.08	9996.23
880.398	9950.36
880.716	10009.79
881.034	9891.83
881.352	9895.9
881.67	9876.01
881.988	9777.03
882.306	9773.87
882.624	9753.3
882.941	9735.9
883.259	9685.06
883.577	9740.87
883.894	9716.02
884.212	9673.3
884.529	9700.65
884.846	9630.82
885.164	9627.66
885.481	9532.07
885.798	9571.16
886.115	9566.87
886.432	9534.55
886.75	9488
887.067	9532.74
887.383	9398.06
887.7	9505.63
888.017	9444.38
888.334	9445.06
888.651	9405.06
888.967	9343.14
889.284	9285.29
889.6	9290.94
889.917	9249.59
890.233	9212.75
890.55	9258.85
890.866	9244.16
891.182	9205.75
891.498	9170.04
891.815	9137.27
892.131	9001.46
892.447	9022.7
892.763	9035.81
893.079	8988.13
893.395	8910.39
893.71	8866.77
894.026	8954.23
894.342	8830.16
894.657	8822.03
894.973	8839.43
895.289	8827
895.604	8850.73
895.92	8717.17
896.235	8719.21
896.55	8643.28
896.865	8675.59
897.181	8581.81
897.496	8629.94
897.811	8591.07
898.126	8550.17
898.441	8457.52
898.756	8521.24
899.071	8365.54
899.386	8505.65
899.7	8391.53
900.015	8376.16
900.33	8290.74
900.644	8314.92
900.959	8314.02
901.273	8190.86
901.588	8176.62
901.902	8177.07
902.216	8145.89
902.531	8133.01
902.845	8105.89
903.159	8067.92
903.473	8005.33
903.787	7937.08
904.101	7954.71
904.415	7959.45
904.729	7878.32
905.042	7881.94
905.356	7797.2
905.67	7822.96
905.984	7737.99
906.297	7745.22
906.611	7737.76
906.924	7719.01
907.237	7610.53
907.551	7661.15
907.864	7594.72
908.177	7611.21
908.491	7511.33
908.804	7517.2
909.117	7457.77
909.43	7450.54
909.743	7369.18
910.056	7347.49
910.368	7347.94
910.681	7328.06
910.994	7263.88
911.307	7215.97
911.619	7207.16
911.932	7199.92
912.244	7131.22
912.557	7123.32
912.869	7104.78
913.181	7099.59
913.494	7009.42
913.806	7027.27
914.118	6996.09
914.43	6977.33
914.742	6968.52
915.054	6938.91
915.366	6881.97
915.678	6836.77
915.99	6877.45
916.302	6781.63
916.613	6785.25
916.925	6723.55
917.236	6740.73
917.548	6714.06
917.859	6716.32
918.171	6628.19
918.482	6620.28
918.794	6585.02
919.105	6619.83
919.416	6524.91
919.727	6526.72
920.038	6437.01
920.349	6408.53
920.66	6442.2
920.971	6394.97
921.282	6414.41
921.593	6372.37
921.903	6295.31
922.214	6348.87
922.525	6280.4
922.835	6305.03
923.146	6235.88
923.456	6194.75
923.767	6175.09
924.077	6213.06
924.387	6120.4
924.697	6105.26
925.008	6068.65
925.318	6010.58
925.628	6002.44
925.938	6014.19
926.248	5969.67
926.558	5925.83
926.867	5957.24
927.177	5907.08
927.487	5892.39
927.796	5825.95
928.106	5839.96
928.416	5810.81
928.725	5762.45
929.034	5722.9
929.344	5736.23
929.653	5753.86
929.962	5730.13
930.271	5641.77
930.581	5609.23
930.89	5643.13
931.199	5566.29
931.508	5549.57
931.817	5466.86
932.125	5570.14
932.434	5526.07
932.743	5489.91
933.051	5452.85
933.36	5443.81
933.669	5372.63
933.977	5395.9
934.286	5372.63
934.594	5330.82
934.902	5317.26
935.21	5302.8
935.519	5301.44
935.827	5295.79
936.135	5234.33
936.443	5214.44
936.751	5170.6
937.059	5208.11
937.367	5192.29
937.674	5194.78
937.982	5107.78
938.29	5101
938.597	5069.36
938.905	5049.7
939.213	5083.37
939.52	4996.59
939.827	4992.75
940.135	4944.62
940.442	4938.06
940.749	4952.3
941.056	4877.95
941.363	4834.11
941.67	4865.07
941.977	4806.54
942.284	4770.61
942.591	4776.71
942.898	4813.32
943.205	4796.15
943.511	4732.19
943.818	4711.4
944.125	4711.4
944.431	4690.39
944.738	4673.44
945.044	4646.32
945.35	4623.49
945.657	4591.4
945.963	4558.64
946.269	4551.41
946.575	4543.27
946.881	4532.88
947.187	4488.81
947.493	4483.84
947.799	4425.08
948.105	4461.92
948.41	4391.86
948.716	4435.7
949.022	4399.32
949.327	4386.66
949.633	4320.9
949.938	4350.96
950.244	4358.19
950.549	4319.77
950.854	4263.73
951.16	4294.92
951.465	4237.74
951.77	4197.52
952.075	4179.89
952.38	4181.92
952.685	4175.82
952.99	4153
953.294	4148.48
953.599	4116.61
953.904	4115.49
954.209	4070.29
954.513	4039.55
954.818	4043.62
955.122	4031.42
955.426	4000.69
955.731	3978.54
956.035	3971.76
956.339	3955.72
956.643	3976.51
956.948	3963.85
957.252	3931.54
957.556	3869.84
957.86	3853.12
958.163	3844.31
958.467	3879.56
958.771	3839.79
959.075	3797.75
959.378	3764.99
959.682	3791.88
959.985	3759.11
960.289	3779.9
960.592	3739.68
960.896	3686.8
961.199	3698.32
961.502	3665.55
961.805	3664.2
962.108	3677.3
962.411	3656.51
962.714	3614.03
963.017	3561.38
963.32	3621.94
963.623	3536.07
963.926	3604.31
964.228	3580.58
964.531	3507.82
964.833	3528.61
965.136	3482.28
965.438	3489.06
965.741	3454.49
966.043	3423.53
966.345	3445.45
966.648	3434.82
966.95	3430.98
967.252	3375.17
967.554	3375.84
967.856	3375.62
968.158	3327.03
968.46	3339.69
968.761	3348.95
969.063	3325.22
969.365	3283.19
969.666	3286.58
969.968	3259.91
970.269	3290.2
970.571	3242.51
970.872	3256.3
971.174	3213.36
971.475	3218.33
971.776	3176.3
972.077	3171.33
972.378	3145.79
972.679	3153.93
972.98	3107.6
973.281	3130.2
973.582	3131.56
973.883	3093.14
974.183	3065.57
974.484	3049.3
974.785	3042.97
975.085	3041.39
975.386	3043.2
975.686	3025.12
975.986	2992.12
976.287	2988.51
976.587	2985.12
976.887	2995.51
977.187	2942.18
977.487	2937.44
977.787	2882.3
978.087	2932.69
978.387	2904.9
978.687	2908.51
978.987	2871.22
979.286	2863.54
979.586	2854.28
979.885	2797.55
980.185	2790.32
980.484	2807.72
980.784	2768.85
981.083	2772.02
981.382	2776.09
981.682	2727.5
981.981	2721.17
982.28	2715.75
982.579	2707.39
982.878	2720.04
983.177	2661.96
983.475	2677.78
983.774	2665.58
984.073	2640.27
984.372	2619.48
984.67	2655.41
984.969	2619.71
985.267	2652.25
985.566	2615.19
985.864	2611.8
986.162	2590.33
986.461	2555.53
986.759	2541.52
987.057	2550.1
987.355	2527.73
987.653	2540.39
987.951	2504.91
988.249	2497.45
988.547	2512.82
988.844	2473.49
989.142	2424.23
989.44	2457.68
989.737	2408.19
990.035	2381.29
990.332	2416.09
990.63	2429.88
990.927	2379.26
991.224	2381.75
991.521	2353.72
991.819	2393.5
992.116	2340.39
992.413	2358.7
992.71	2313.27
993.006	2303.78
993.303	2296.78
993.6	2308.3
993.897	2287.74
994.193	2266.95
994.49	2275.76
994.787	2222.88
995.083	2242.31
995.379	2247.96
995.676	2207.96
995.972	2192.6
996.268	2187.85
996.565	2177.68
996.861	2174.52
997.157	2178.59
997.453	2180.62
997.749	2143.33
998.044	2119.61
998.34	2087.06
998.636	2082.54
998.932	2129.77
999.227	2112.83
999.523	2100.4
999.818	2060.17
1000.114	2058.36
1000.409	2023.34
1000.704	2066.05
1001	2022.21
1001.295	1989.89
1001.59	1979.95
1001.885	1997.12
1002.18	1975.2
1002.475	1969.78
1002.77	1939.05
1003.065	1921.87
1003.359	1931.36
1003.654	1921.64
1003.949	1904.02
1004.243	1926.39
1004.538	1895.88
1004.832	1905.15
1005.127	1887.3
1005.421	1867.86
1005.715	1850.46
1006.009	1837.13
1006.304	1833.29
1006.598	1790.57
1006.892	1825.38
1007.186	1786.73
1007.48	1784.92
1007.773	1779.5
1008.067	1773.4
1008.361	1763
1008.655	1762.1
1008.948	1762.1
1009.242	1756.68
1009.535	1719.39
1009.829	1661.99
1010.122	1717.81
1010.415	1690.69
1010.708	1664.25
1011.001	1678.71
1011.295	1689.33
1011.588	1663.12
1011.881	1648.88
1012.173	1632.16
1012.466	1633.06
1012.759	1628.32
1013.052	1605.72
1013.344	1624.93
1013.637	1610.01
1013.93	1603.46
1014.222	1549.22
1014.514	1581.77
1014.807	1550.13
1015.099	1528.89
1015.391	1538.6
1015.683	1523.24
1015.976	1522.11
1016.268	1509.45
1016.56	1511.03
1016.851	1512.16
1017.143	1512.39
1017.435	1475.55
1017.727	1476.68
1018.018	1496.34
1018.31	1465.84
1018.602	1462.9
1018.893	1427.19
1019.185	1421.77
1019.476	1394.65
1019.767	1427.87
1020.058	1394.65
1020.35	1390.36
1020.641	1380.19
1020.932	1328.67
1021.223	1360.53
1021.514	1318.04
1021.804	1322.34
1022.095	1340.42
1022.386	1300.42
1022.677	1301.55
1022.967	1307.65
1023.258	1290.02
1023.548	1290.25
1023.839	1268.1
1024.129	1265.39
1024.419	1239.18
1024.709	1262.68
1025	1258.16
1025.29	1239.4
1025.58	1249.12
1025.87	1219.06
1026.16	1218.39
1026.449	1224.49
1026.739	1201.66
1027.029	1192.17
1027.319	1194.21
1027.608	1174.32
1027.898	1168.67
1028.187	1186.97
1028.477	1163.25
1028.766	1140.87
1029.055	1159.86
1029.344	1153.3
1029.634	1116.92
1029.923	1136.81
1030.212	1096.81
1030.501	1101.33
1030.79	1093.42
1031.078	1075.79
1031.367	1092.51
1031.656	1077.82
1031.945	1083.93
1032.233	1057.94
1032.522	1065.17
1032.81	1077.37
1033.099	1047.54
1033.387	1029.69
1033.675	1011.61
1033.963	1011.84
1034.251	1039.18
1034.54	1014.32
1034.828	991.05
1035.116	1005.06
1035.403	995.34
1035.691	980.88
1035.979	994.89
1036.267	999.41
1036.554	985.85
1036.842	955.79
1037.129	938.39
1037.417	939.07
1037.704	960.31
1037.992	941.78
1038.279	907.66
1038.566	915.12
1038.853	915.12
1039.14	915.12
