Data from hue_30_FLMS001491_100.txt Node
Date: Mon Feb 06 15:06:26 GMT 2017
User: dcchb
Spectrometer: FLMS00149
Trigger mode: 0
Integration Time (sec): 2.000000E-2
Scans to average: 10
Electric dark correction enabled: true
Nonlinearity correction enabled: false
Boxcar width: 0
XAxis mode: Wavelengths
Number of Pixels in Spectrum: 2048
>>>>>Begin Spectral Data<<<<<
341.393	-18.56
341.776	-18.56
342.16	-18.56
342.543	-59.46
342.927	-79.35
343.31	-74.15
343.693	-74.83
344.077	-91.55
344.46	-58.78
344.843	-35.73
345.226	-54.04
345.61	-28.05
345.993	-21.04
346.376	-11.55
346.759	34.77
347.142	44.94
347.525	45.39
347.908	56.69
348.291	77.26
348.674	81.33
349.057	109.35
349.44	136.24
349.823	140.08
350.206	159.97
350.588	177.37
350.971	191.83
351.354	205.39
351.737	215.56
352.119	232.73
352.502	256.24
352.884	268.89
353.267	275.9
353.65	285.16
354.032	302.34
354.414	296.24
354.797	314.09
355.179	315.44
355.562	318.16
355.944	336.23
356.326	320.64
356.709	314.77
357.091	321.55
357.473	326.97
357.855	336.46
358.238	333.97
358.62	339.4
359.002	347.99
359.384	333.3
359.766	326.52
360.148	349.12
360.53	337.36
360.912	324.26
361.294	339.85
361.676	345.05
362.057	317.25
362.439	343.47
362.821	324.03
363.203	331.26
363.584	306.86
363.966	329.68
364.348	324.93
364.729	319.74
365.111	314.77
365.493	306.63
365.874	295.11
366.256	313.18
366.637	313.41
367.019	320.64
367.4	312.96
367.781	305.73
368.163	298.49
368.544	309.34
368.925	310.47
369.306	306.4
369.688	314.31
370.069	313.64
370.45	305.73
370.831	300.53
371.212	312.51
371.593	311.83
371.974	308.21
372.355	309.34
372.736	319.96
373.117	325.16
373.498	296.46
373.879	300.75
374.26	313.41
374.641	303.92
375.021	325.39
375.402	298.49
375.783	327.87
376.163	315.44
376.544	316.8
376.925	340.3
377.305	325.16
377.686	339.62
378.066	320.87
378.447	329
378.827	317.93
379.208	320.64
379.588	336.01
379.968	345.5
380.349	351.6
380.729	331.26
381.109	324.48
381.489	336.01
381.87	334.2
382.25	325.61
382.63	328.55
383.01	334.2
383.39	316.12
383.77	325.84
384.15	320.87
384.53	327.19
384.91	314.77
385.29	341.88
385.67	360.87
386.049	337.82
386.429	359.28
386.809	364.48
387.189	341.66
387.568	350.47
387.948	346.86
388.328	331.26
388.707	349.57
389.087	338.27
389.466	343.69
389.846	346.86
390.225	339.17
390.605	360.41
390.984	366.74
391.363	370.58
391.743	368.32
392.122	354.31
392.501	365.84
392.881	355.44
393.26	362.22
393.639	343.69
394.018	373.07
394.397	387.31
394.776	368.1
395.155	378.72
395.534	375.33
395.913	359.06
396.292	376.01
396.671	374.2
397.05	380.98
397.429	385.95
397.808	384.82
398.186	391.37
398.565	376.91
398.944	387.76
399.323	382.79
399.701	391.15
400.08	398.83
400.458	375.33
400.837	404.25
401.215	375.78
401.594	367.65
401.972	399.51
402.351	390.47
402.729	378.94
403.107	418.49
403.486	406.97
403.864	399.74
404.242	394.99
404.62	407.64
404.999	392.96
405.377	413.29
405.755	368.32
406.133	411.03
406.511	407.64
406.889	400.41
407.267	391.15
407.645	413.97
408.023	411.49
408.401	422.79
408.779	417.36
409.156	416.68
409.534	423.01
409.912	410.81
410.29	414.2
410.667	421.43
411.045	430.24
411.422	441.09
411.8	425.05
412.178	425.72
412.555	436.12
412.933	454.88
413.31	443.35
413.687	465.27
414.065	462.78
414.442	436.57
414.819	453.97
415.197	433.86
415.574	451.03
415.951	482.22
416.328	458.04
416.705	462.78
417.082	485.16
417.46	460.3
417.837	470.24
418.214	479.73
418.591	505.04
418.967	483.8
419.344	482.22
419.721	478.38
420.098	487.64
420.475	489.9
420.852	477.25
421.228	496.68
421.605	499.39
421.982	515.44
422.358	497.81
422.735	530.58
423.111	513.4
423.488	516.12
423.864	524.7
424.241	514.08
424.617	530.35
424.994	524.7
425.37	532.61
425.746	521.09
426.123	526.74
426.499	527.87
426.875	535.1
427.251	537.36
427.627	543.01
428.003	560.41
428.379	549.34
428.756	550.92
429.132	573.29
429.507	550.01
429.883	560.41
430.259	557.47
430.635	591.37
431.011	576.68
431.387	585.49
431.763	614.42
432.138	581.65
432.514	592.27
432.89	626.17
433.265	621.88
433.641	614.64
434.016	613.51
434.392	646.96
434.767	632.95
435.143	608.77
435.518	607.64
435.894	638.83
436.269	634.08
436.644	657.36
437.02	638.37
437.395	658.71
437.77	670.01
438.145	686.06
438.52	668.43
438.895	669.11
439.271	677.92
439.646	692.38
440.021	687.86
440.395	685.6
440.77	685.6
441.145	697.81
441.52	715.89
441.895	679.95
442.27	697.81
442.645	707.52
443.019	703.91
443.394	709.78
443.769	717.24
444.143	712.72
444.518	728.54
444.892	718.14
445.267	740.74
445.641	716.56
446.016	732.61
446.39	741.42
446.764	748.65
447.139	732.61
447.513	751.59
447.887	755.66
448.262	756.34
448.636	748.43
449.01	758.82
449.384	782.78
449.758	754.3
450.132	787.52
450.506	778.26
450.88	787.97
451.254	802.21
451.628	808.76
452.002	797.01
452.376	813.74
452.75	834.07
453.123	822.55
453.497	823.45
453.871	836.33
454.244	854.19
454.618	838.59
454.992	866.39
455.365	851.93
455.739	870.23
456.112	876.11
456.486	888.76
456.859	900.29
457.232	883.56
457.606	914.98
457.979	889.89
458.352	921.3
458.725	929.21
459.099	944.81
459.472	949.78
459.845	939.83
460.218	1001.08
460.591	989.1
460.964	976.22
461.337	1018.48
461.71	1004.01
462.083	1030.91
462.456	1024.13
462.829	1028.87
463.201	1030.23
463.574	1061.19
463.947	1046.72
464.32	1082.66
464.692	1115.2
465.065	1079.04
465.438	1107.97
465.81	1109.55
466.183	1143.44
466.555	1156.78
466.928	1143.22
467.3	1180.73
467.672	1200.84
468.045	1194.29
468.417	1209.66
468.789	1214.4
469.161	1202.43
469.534	1254.85
469.906	1290.79
470.278	1295.76
470.65	1308.19
471.022	1336.43
471.394	1328.98
471.766	1381.63
472.138	1396.77
472.51	1435.41
472.882	1412.14
473.253	1465.02
473.625	1461.63
473.997	1490.33
474.369	1516.09
474.74	1516.32
475.112	1570.78
475.484	1569.87
475.855	1638.12
476.227	1647.39
476.598	1699.81
476.97	1689.87
477.341	1761.73
477.713	1764.45
478.084	1805.12
478.455	1860.94
478.827	1884.22
479.198	1938
479.569	1943.2
479.94	2036.75
480.311	2028.62
480.682	2054.38
481.053	2162.4
481.424	2149.97
481.795	2209.63
482.166	2245.79
482.537	2277.88
482.908	2351.1
483.279	2397.2
483.65	2426.12
484.021	2481.49
484.391	2524.88
484.762	2561.03
485.133	2622.5
485.503	2672.9
485.874	2726.23
486.244	2763.29
486.615	2832.67
486.985	2891.65
487.356	2931.42
487.726	3001.02
488.097	3064.98
488.467	3075.82
488.837	3149.72
489.207	3252.32
489.578	3284.63
489.948	3303.61
490.318	3404.4
490.688	3437.62
491.058	3521.24
491.428	3557.39
491.798	3587.67
492.168	3683.26
492.538	3751.06
492.908	3782.25
493.278	3852.98
493.648	3836.48
494.017	3939.98
494.387	3926.42
494.757	4015.01
495.126	4070.83
495.496	4092.97
495.866	4171.84
496.235	4208.9
496.605	4279.86
496.974	4321.21
497.344	4318.28
497.713	4423.36
498.082	4451.15
498.452	4482.34
498.821	4526.63
499.19	4565.95
499.559	4595.78
499.928	4648.89
500.298	4703.35
500.667	4720.07
501.036	4781.09
501.405	4792.39
501.774	4801.65
502.143	4863.57
502.512	4898.15
502.88	4973.4
503.249	4921.65
503.618	4962.33
503.987	5059.27
504.356	5112.83
504.724	5138.59
505.093	5134.07
505.462	5210.23
505.83	5211.36
506.199	5286.84
506.567	5386.04
506.936	5334.75
507.304	5465.59
507.672	5418.59
508.041	5434.18
508.409	5477.34
508.777	5539.71
509.145	5535.87
509.514	5539.71
509.882	5617.68
510.25	5653.83
510.618	5666.26
510.986	5676.21
511.354	5773.15
511.722	5870.55
512.09	5772.02
512.458	5824
512.826	5902.64
513.193	5868.07
513.561	5870.78
513.929	5925.69
514.297	5986.26
514.664	6022.86
515.032	6045.46
515.4	6065.12
515.767	6135.86
516.135	6122.3
516.502	6059.47
516.869	6151.67
517.237	6222.18
517.604	6142.18
517.972	6248.17
518.339	6280.03
518.706	6315.74
519.073	6306.47
519.44	6330.2
519.808	6364.1
520.175	6385.34
520.542	6427.15
520.909	6507.82
521.276	6507.6
521.643	6539.69
522.009	6617.2
522.376	6604.32
522.743	6687.93
523.11	6691.77
523.477	6757.08
523.843	6802.96
524.21	6852.22
524.577	6922.5
524.943	6897.42
525.31	6887.47
525.676	6987.36
526.043	7027.81
526.409	7044.76
526.776	7080.46
527.142	7087.69
527.508	7203.4
527.874	7207.01
528.241	7254.7
528.607	7284.07
528.973	7388.7
529.339	7302.6
529.705	7385.54
530.071	7489.94
530.437	7485.88
530.803	7515.71
531.169	7583.5
531.535	7541.47
531.901	7550.73
532.267	7630.96
532.632	7716.83
532.998	7714.12
533.364	7785.98
533.73	7688.58
534.095	7849.93
534.461	7900.33
534.826	7855.58
535.192	7871.18
535.557	7969.93
535.923	7966.77
536.288	8040.66
536.653	8020.33
537.019	8078.4
537.384	8073.43
537.749	8164.05
538.114	8164.28
538.479	8196.14
538.845	8225.29
539.21	8216.25
539.575	8289.92
539.94	8268
540.305	8320.2
540.67	8313.88
541.034	8396.81
541.399	8416.47
541.764	8425.74
542.129	8513.42
542.494	8502.35
542.858	8583.47
543.223	8565.17
543.587	8597.71
543.952	8667.77
544.316	8718.39
544.681	8685.17
545.045	8764.94
545.41	8851.94
545.774	8863.47
546.138	8830.47
546.503	8936.91
546.867	8896.24
547.231	8954.31
547.595	8988.44
547.959	9030.47
548.324	8984.14
548.688	9071.37
549.052	9119.28
549.416	9170.8
549.779	9132.61
550.143	9215.1
550.507	9183.91
550.871	9314.98
551.235	9206.74
551.599	9315.43
551.962	9312.5
552.326	9348.88
552.689	9436.33
553.053	9433.4
553.417	9458.03
553.78	9576.44
554.143	9440.63
554.507	9516.56
554.87	9621.19
555.234	9644.92
555.597	9663.9
555.96	9665.25
556.323	9732.15
556.686	9707.51
557.05	9855.31
557.413	9831.13
557.776	9854.85
558.139	9898.47
558.502	9962.65
558.865	9929.88
559.228	10044.23
559.59	10024.11
559.953	9972.36
560.316	10093.04
560.679	10146.37
561.041	10214.62
561.404	10183.43
561.767	10248.29
562.129	10262.3
562.492	10372.81
562.854	10292.13
563.217	10289.42
563.579	10379.81
563.941	10342.98
564.304	10410.55
564.666	10629.07
565.028	10553.59
565.39	10594.5
565.753	10619.81
566.115	10648.51
566.477	10701.16
566.839	10692.57
567.201	10794.94
567.563	10833.13
567.925	10898.22
568.287	10899.57
568.648	10928.27
569.01	10954.71
569.372	11077.65
569.734	11066.12
570.095	11031.32
570.457	11178.89
570.819	11243.97
571.18	11254.82
571.542	11275.38
571.903	11303.4
572.265	11394.02
572.626	11376.62
572.987	11492.55
573.349	11488.03
573.71	11556.5
574.071	11606.45
574.432	11678.31
574.794	11850.06
575.155	11860
575.516	11850.51
575.877	12048.02
576.238	12125.53
576.599	12187.9
576.96	12314.68
577.32	12311.96
577.681	12394.67
578.042	12518.74
578.403	12617.04
578.763	12670.6
579.124	12894.77
579.485	12923.25
579.845	13118.95
580.206	13163.47
580.566	13230.36
580.927	13367.08
581.287	13534.53
581.648	13707.18
582.008	13892.49
582.368	13994.63
582.728	14104.69
583.089	14275.75
583.449	14365.24
583.809	14562.75
584.169	14740.6
584.529	14882.52
584.889	15207.26
585.249	15348.49
585.609	15368.83
585.969	15773.34
586.329	15879.78
586.688	16004.3
587.048	16263.05
587.408	16439.99
587.768	16756.14
588.127	16980.54
588.487	17046.53
588.846	17416.46
589.206	17577.36
589.565	17789.33
589.925	18173.73
590.284	18329.89
590.643	18580.05
591.003	18833.37
591.362	19079.24
591.721	19429.29
592.08	19563.98
592.44	19964.87
592.799	20099.33
593.158	20379.1
593.517	20588.36
593.876	20839.88
594.235	21133.65
594.593	21443.02
594.952	21657.48
595.311	21893.41
595.67	22185.38
596.029	22546.5
596.387	22704.46
596.746	23104
597.104	23239.81
597.463	23363.65
597.822	23691.78
598.18	23901.26
598.538	24225.1
598.897	24607.01
599.255	24565.2
599.613	25219.65
599.972	25184.62
600.33	25482.01
600.688	25545.74
601.046	25908.67
601.404	26240.41
601.762	26449.22
602.12	26629.1
602.478	26920.85
602.836	27178.01
603.194	27192.48
603.552	27661.84
603.91	27570.77
604.268	27998.11
604.625	28084.43
604.983	28516.28
605.341	28566.68
605.698	28666.56
606.056	29105.87
606.413	29207.34
606.771	29529.59
607.128	29630.83
607.485	29678.06
607.843	29878.51
608.2	30135.45
608.557	30513.75
608.914	30541.54
609.272	30789.22
609.629	30910.8
609.986	31294.52
610.343	31301.07
610.7	31715.07
611.057	31746.26
611.414	31816.31
611.771	32090.43
612.127	32248.39
612.484	32395.05
612.841	32605.22
613.198	32429.85
613.554	32663.52
613.911	32981.03
614.267	33012.21
614.624	33200.23
614.98	33277.51
615.337	33536.94
615.693	33642.48
616.05	33676.6
616.406	33903.71
616.762	34030.26
617.118	34063.48
617.475	34110.49
617.831	34385.51
618.187	34460.31
618.543	34633.41
618.899	34935.32
619.255	34845.16
619.611	35029.79
619.967	35248.31
620.323	35355.2
620.678	35230.68
621.034	35197.46
621.39	35238.82
621.746	35317.69
622.101	35883.55
622.457	35654.85
622.812	35745.02
623.168	35834.06
623.523	35894.85
623.879	36061.85
624.234	35939.14
624.589	36085.35
624.945	36210.55
625.3	36146.59
625.655	36261.62
626.01	36332.58
626.365	36339.36
626.72	36390.2
627.075	36407.83
627.43	36540.03
627.785	36490.99
628.14	36709.29
628.495	36756.29
628.85	36560.59
629.205	36706.58
629.559	36935.72
629.914	36899.79
630.269	36840.81
630.623	36616.64
630.978	36773.92
631.332	36920.58
631.687	36942.28
632.041	36844.88
632.396	36819.57
632.75	36728.95
633.104	36966.23
633.459	36833.81
633.813	36799.46
634.167	36818.21
634.521	36833.13
634.875	36850.75
635.229	36859.57
635.583	36744.32
635.937	36813.92
636.291	36660.93
636.645	36830.19
636.999	36723.98
637.352	36847.82
637.706	36750.87
638.06	36852.34
638.413	36797.2
638.767	36746.8
639.121	36701.15
639.474	36626.13
639.828	36605.11
640.181	36646.01
640.534	36761.49
640.888	36623.42
641.241	36546.13
641.594	36594.72
641.947	36606.24
642.301	36709.29
642.654	36541.16
643.007	36453.02
643.36	36521.72
643.713	36425.91
644.066	36648.27
644.419	36446.92
644.771	36245.35
645.124	35888.07
645.477	35843.32
645.83	35773.49
646.182	35382.09
646.535	35451.69
646.888	35638.13
647.24	35336.22
647.593	35574.4
647.945	35578.25
648.298	35369.21
648.65	35333.51
649.002	35207.18
649.355	35388.42
649.707	35255.54
650.059	35405.59
650.411	35860.95
650.763	35883.32
651.115	36342.52
651.467	36150.89
651.819	36110.66
652.171	36061.62
652.523	35997.44
652.875	36140.94
653.227	35833.83
653.578	36008.52
653.93	36013.71
654.282	35883.55
654.633	35790.9
654.985	36044.45
655.337	35804
655.688	35850.55
656.039	35947.05
656.391	35600.39
656.742	35843.55
657.094	35738.02
657.445	36035.86
657.796	35834.06
658.147	35677.9
658.498	35703.44
658.849	35745.92
659.2	35679.71
659.551	35718.35
659.902	35766.04
660.253	35645.81
660.604	35659.15
660.955	35639.71
661.306	35897.11
661.656	35638.58
662.007	35659.15
662.358	35629.54
662.708	35597.23
663.059	35686.27
663.409	35520.85
663.76	35657.57
664.11	35749.77
664.461	35724.46
664.811	35649.43
665.161	35681.07
665.511	35561.52
665.862	35632.48
666.212	35834.74
666.562	35708.86
666.912	35599.94
667.262	35622.99
667.612	35663.44
667.962	35724.23
668.312	35635.19
668.662	35737.11
669.011	35700.28
669.361	35613.72
669.711	35637.9
670.06	35445.37
670.41	35386.39
670.76	35321.98
671.109	35531.47
671.459	35470.45
671.808	35428.42
672.157	35439.72
672.507	35366.73
672.856	35359.95
673.205	35233.62
673.554	35416.67
673.904	35222.1
674.253	35452.6
674.602	35258.25
674.951	34713.41
675.3	34673.64
675.649	35254.19
675.998	35112.72
676.346	35295.77
676.695	35359.95
677.044	34987.75
677.393	35168.09
677.741	35154.3
678.09	35011.48
678.438	35072.04
678.787	35145.49
679.135	35180.52
679.484	34901.88
679.832	35005.6
680.181	34780.75
680.529	35072.72
680.877	34797.25
681.225	34706.63
681.573	34907.08
681.922	34585.05
682.27	34480.65
682.618	34580.08
682.966	34544.83
683.314	34661.21
683.661	34432.74
684.009	34265.51
684.357	34282.01
684.705	34169.24
685.053	34309.8
685.4	34237.72
685.748	34114.1
686.095	33974.45
686.443	33851.51
686.79	33896.48
687.138	33926.54
687.485	33950.94
687.832	33814.9
688.18	33730.61
688.527	33698.52
688.874	33595.92
689.221	33599.77
689.568	33373.78
689.915	33358.64
690.262	33283.39
690.609	33231.64
690.956	33042.94
691.303	33090.18
691.65	32933.8
691.997	32916.17
692.344	32882.72
692.69	32868.71
693.037	32779.67
693.383	32586.69
693.73	32682.5
694.077	32413.81
694.423	32431.89
694.769	32424.43
695.116	32279.35
695.462	32238.45
695.808	32170.65
696.155	32203.64
696.501	32062.18
696.847	31988.06
697.193	31781.96
697.539	31938.57
697.885	31621.29
698.231	31539.26
698.577	31640.95
698.923	31507.62
699.269	31400.73
699.614	31204.8
699.96	31228.98
700.306	31167.97
700.651	30965.94
700.997	30945.6
701.342	30889.1
701.688	30685.49
702.033	30764.13
702.379	30663.12
702.724	30701.31
703.069	30726.4
703.415	30276.46
703.76	30326.63
704.105	30358.5
704.45	30235.56
704.795	30032.18
705.14	30085.28
705.485	30045.96
705.83	29905.17
706.175	29947.43
706.52	29895.91
706.865	29721.9
707.209	29627.67
707.554	29603.04
707.899	29698.17
708.243	29504.96
708.588	29457.28
708.932	29251.63
709.277	29203.05
709.621	29354.91
709.966	29071.75
710.31	29185.65
710.654	28872.66
710.998	28982.03
711.342	28904.07
711.687	28820
712.031	28752.89
712.375	28670.18
712.719	28646.22
713.063	28624.98
713.407	28694.81
713.75	28518.54
714.094	28472.44
714.438	28300.02
714.782	28361.94
715.125	28179.12
715.469	28304.09
715.812	28113.36
716.156	27956.98
716.499	27932.8
716.843	27993.81
717.186	27793.37
717.53	27968.5
717.873	27909.97
718.216	27898.45
718.559	27726.02
718.902	27599.25
719.246	27652.8
719.589	27611.45
719.932	27482.86
720.275	27372.59
720.617	27388.18
720.96	27457.1
721.303	27423.66
721.646	27407.84
721.989	27216.66
722.331	27243.78
722.674	27173.49
723.016	27095.3
723.359	27065.02
723.701	27274.06
724.044	27014.18
724.386	26892.6
724.729	27035.65
725.071	26856.67
725.413	26849.66
725.755	26778.25
726.097	26664.81
726.439	26535.09
726.782	26585.71
727.124	26714.98
727.465	26624.58
727.807	26541.19
728.149	26390.24
728.491	26392.95
728.833	26427.75
729.175	26330.8
729.516	26369
729.858	26282.67
730.199	26351.6
730.541	26137.82
730.882	26260.3
731.224	26258.49
731.565	26063.69
731.906	26042.9
732.248	26100.75
732.589	25934.43
732.93	25931.49
733.271	25971.94
733.612	25839.07
733.953	25878.16
734.294	25836.58
734.635	25677.49
734.976	25846.98
735.317	25662.8
735.658	25595.46
735.999	25533.99
736.339	25614.67
736.68	25681.78
737.021	25537.38
737.361	25463.71
737.702	25553.2
738.042	25561.56
738.383	25321.11
738.723	25344.84
739.063	25319.08
739.404	25366.54
739.744	25317.27
740.084	25212.87
740.424	25244.73
740.764	25194.79
741.104	25231.85
741.444	25090.39
741.784	24997.05
742.124	25003.38
742.464	24979.2
742.804	24983.5
743.143	24892.65
743.483	24939.2
743.823	24845.65
744.162	24897.4
744.502	24784.18
744.841	24657.4
745.181	24800
745.52	24750.73
745.86	24677.51
746.199	24584.18
746.538	24519.33
746.877	24646.33
747.216	24622.15
747.556	24646.56
747.895	24474.13
748.234	24375.38
748.573	24452.66
748.911	24372.44
749.25	24337.18
749.589	24195.72
749.928	24331.54
750.267	24344.19
750.605	24080.69
750.944	24197.08
751.283	24113.69
751.621	24236.85
751.96	24025.1
752.298	24002.28
752.636	24011.77
752.975	23913.02
753.313	23828.72
753.651	23990.53
753.989	23886.8
754.327	23744.43
754.666	23646.36
755.004	23750.53
755.342	23580.82
755.679	23560.93
756.017	23509.41
756.355	23595.74
756.693	23484.78
757.031	23479.35
757.368	23369.98
757.706	23358.68
758.044	23269.19
758.381	23208.63
758.719	23140.61
759.056	23158.46
759.394	23061.29
759.731	22964.11
760.068	23026.26
760.405	22819.71
760.743	22934.96
761.08	22817.9
761.417	22781.29
761.754	22692.48
762.091	22528.42
762.428	22559.6
762.765	22344.24
763.102	22402.55
763.438	22383.79
763.775	22193.74
764.112	22334.53
764.449	22258.6
764.785	22108.99
765.122	21973.18
765.458	21871.49
765.795	22006.62
766.131	21890.24
766.467	21766.63
766.804	21739.06
767.14	21647.99
767.476	21581.1
767.812	21488.45
768.148	21516.92
768.485	21367.55
768.821	21266.76
769.157	21238.06
769.492	21185.18
769.828	21141.34
770.164	21007.55
770.5	20948.35
770.836	20921
771.171	20768.69
771.507	20793.32
771.842	20594.68
772.178	20644.17
772.513	20675.36
772.849	20489.6
773.184	20407.8
773.519	20341.36
773.855	20370.51
774.19	20202.83
774.525	20148.14
774.86	20047.58
775.195	20109.95
775.53	19976.4
775.865	19794.48
776.2	19756.51
776.535	19614.82
776.87	19634.03
777.205	19492.11
777.539	19399.24
777.874	19523.98
778.209	19314.04
778.543	19284.21
778.878	19163.31
779.212	19173.7
779.547	19016.65
779.881	19037.66
780.215	18879.25
780.55	18907.05
780.884	18907.5
781.218	18847.16
781.552	18799.7
781.886	18763.09
782.22	18558.35
782.554	18543.44
782.888	18384.12
783.222	18287.85
783.556	18243.11
783.889	18232.26
784.223	18040.18
784.557	18039.72
784.89	18078.59
785.224	17925.15
785.557	17867.07
785.891	17771.03
786.224	17807.87
786.558	17748.43
786.891	17529
787.224	17500.53
787.557	17519.74
787.891	17384.15
788.224	17416.91
788.557	17437.71
788.89	17295.56
789.223	17328.56
789.556	17100.09
789.888	17108.22
790.221	16973.31
790.554	16877.49
790.887	16919.07
791.219	16891.28
791.552	16762.02
791.884	16670.27
792.217	16701.45
792.549	16628.91
792.882	16468.24
793.214	16383.5
793.546	16539.88
793.879	16332.42
794.211	16266.44
794.543	16251.75
794.875	16221.01
795.207	16227.57
795.539	16165.42
795.871	16190.51
796.203	15986.44
796.535	15978.53
796.867	15929.95
797.198	15769.27
797.53	15859.44
797.862	15742.61
798.193	15671.65
798.525	15664.42
798.856	15654.93
799.188	15528.83
799.519	15433.24
799.85	15424.42
800.182	15423.75
800.513	15427.59
800.844	15215.39
801.175	15270.76
801.506	15234.83
801.837	15219.68
802.168	15082.29
802.499	15040.93
802.83	15047.71
803.161	14910.99
803.491	14935.85
803.822	14998.22
804.153	14896.08
804.483	14674.16
804.814	14726.14
805.145	14722.07
805.475	14724.56
805.805	14684.11
806.136	14626.93
806.466	14672.13
806.796	14579.7
807.126	14459.25
807.457	14382.19
807.787	14468.52
808.117	14348.3
808.447	14336.09
808.777	14362.76
809.107	14344.68
809.436	14165.47
809.766	14179.03
810.096	14136.78
810.426	14141.97
810.755	14103.78
811.085	14117.34
811.414	14027.17
811.744	13855.88
812.073	13913.73
812.403	13867.63
812.732	13767.07
813.061	13752.38
813.39	13732.27
813.719	13697.69
814.049	13746.05
814.378	13694.53
814.707	13650.46
815.036	13604.13
815.365	13486.4
815.693	13502.89
816.022	13492.95
816.351	13358.72
816.68	13337.7
817.008	13342.67
817.337	13227.19
817.665	13205.05
817.994	13249.11
818.322	13222.67
818.651	13177.93
818.979	13154.65
819.307	13167.31
819.636	13084.37
819.964	13046.63
820.292	13040.53
820.62	13061.1
820.948	12954.43
821.276	13069.46
821.604	12983.36
821.932	13042.57
822.259	13032.85
822.587	12969.8
822.915	12941.33
823.243	12970.03
823.57	12981.1
823.898	12949.01
824.225	12943.59
824.553	12933.87
824.88	12846.41
825.207	13005.28
825.535	12921.21
825.862	12939.74
826.189	12874.21
826.516	12936.81
826.843	13006.18
827.17	12952.4
827.497	12932.74
827.824	12996.01
828.151	12978.16
828.478	12906.3
828.805	12898.16
829.131	12862.91
829.458	12880.99
829.785	12759.86
830.111	12851.61
830.438	12937.03
830.764	12894.1
831.09	12881.89
831.417	12836.02
831.743	12814.78
832.069	12864.27
832.395	12791.73
832.722	12930.71
833.048	12779.07
833.374	12722.35
833.7	12783.14
834.026	12732.29
834.351	12734.55
834.677	12774.33
835.003	12680.99
835.329	12745.4
835.654	12752.4
835.98	12562.58
836.306	12622.01
836.631	12567.32
836.956	12606.65
837.282	12635.57
837.607	12589.47
837.932	12611.17
838.258	12565.07
838.583	12521.45
838.908	12465.41
839.233	12510.83
839.558	12497.72
839.883	12331.62
840.208	12444.62
840.533	12393.09
840.858	12381.34
841.182	12438.74
841.507	12429.02
841.832	12283.72
842.156	12319.42
842.481	12212.08
842.805	12230.38
843.13	12225.19
843.454	12208.01
843.778	12072.2
844.103	12165.3
844.427	11960.79
844.751	12134.79
845.075	11959.88
845.399	12011.86
845.723	11863.84
846.047	11973.67
846.371	11813.45
846.695	11779.78
847.019	11718.99
847.343	11718.31
847.666	11543.85
847.99	11504.3
848.313	11562.15
848.637	11450.74
848.96	11436.96
849.284	11428.37
849.607	11302.73
849.931	11314.02
850.254	11272.67
850.577	11156.74
850.9	11148.15
851.223	11150.64
851.546	11060.92
851.869	11030.42
852.192	11084.2
852.515	10893.7
852.838	10907.93
853.161	10873.13
853.483	10886.01
853.806	10776.19
854.129	10796.3
854.451	10731.22
854.774	10716.53
855.096	10638.34
855.419	10581.16
855.741	10642.86
856.063	10597.66
856.385	10498.68
856.708	10546.36
857.03	10439.92
857.352	10469.53
857.674	10421.84
857.996	10323.77
858.318	10363.54
858.64	10343.2
858.961	10309.53
859.283	10212.58
859.605	10183.21
859.926	10193.6
860.248	10204.9
860.57	10141.63
860.891	10123.77
861.212	10119.48
861.534	10076.77
861.855	10046.26
862.176	10025.7
862.498	10077.9
862.819	9999.26
863.14	9905.7
863.461	9989.99
863.782	9874.29
864.103	9926.49
864.424	9933.5
864.745	9936.21
865.065	9866.83
865.386	9889.2
865.707	9793.16
866.027	9874.74
866.348	9745.7
866.668	9786.83
866.989	9784.8
867.309	9684.69
867.63	9755.65
867.95	9743.22
868.27	9681.07
868.59	9693.95
868.91	9659.15
869.23	9620.28
869.55	9560.17
869.87	9624.58
870.19	9630.68
870.51	9579.61
870.83	9593.62
871.15	9484.02
871.469	9546.84
871.789	9558.14
872.109	9527.86
872.428	9432.94
872.748	9510.91
873.067	9463
873.386	9501.87
873.706	9460.97
874.025	9459.16
874.344	9335.32
874.663	9414.87
874.982	9359.27
875.301	9327.64
875.62	9335.09
875.939	9335.32
876.258	9253.74
876.577	9210.58
876.896	9306.62
877.214	9160.86
877.533	9202.89
877.852	9231.59
878.17	9252.84
878.489	9223.01
878.807	9176.45
879.125	9179.84
879.444	9135.1
879.762	9127.19
880.08	9175.1
880.398	9063.46
880.716	9060.75
881.034	9018.72
881.352	9027.76
881.67	9007.64
881.988	9021.66
882.306	9027.08
882.624	8968.55
882.941	8874.77
883.259	8916.12
883.577	8886.74
883.894	8858.27
884.212	8869.12
884.529	8812.85
884.846	8802.45
885.164	8766.97
885.481	8766.97
885.798	8777.14
886.115	8764.71
886.432	8701.44
886.75	8737.82
887.067	8664.38
887.383	8644.49
887.7	8672.29
888.017	8557.49
888.334	8616.69
888.651	8562.23
888.967	8528.34
889.284	8475.46
889.6	8499.41
889.917	8459.41
890.233	8407.66
890.55	8398.39
890.866	8454.66
891.182	8373.99
891.498	8383.71
891.815	8314.1
892.131	8292.64
892.447	8305.06
892.763	8303.93
893.079	8263.71
893.395	8265.97
893.71	8195.46
894.026	8211.28
894.342	8126.76
894.657	8126.76
894.973	8120.66
895.289	8083.15
895.604	8068.23
895.92	7961.57
896.235	7985.98
896.55	7958.63
896.865	7958.41
897.181	7903.94
897.496	7931.74
897.811	7861.69
898.126	7847.68
898.441	7745.08
898.756	7846.55
899.071	7742.14
899.386	7710.5
899.7	7680.45
900.015	7701.01
900.33	7601.81
900.644	7612.43
900.959	7594.8
901.273	7571.75
901.588	7455.59
901.902	7470.28
902.216	7541.69
902.531	7404.75
902.845	7445.65
903.159	7370.17
903.473	7365.43
903.787	7296.05
904.101	7285.43
904.415	7289.5
904.729	7225.54
905.042	7241.14
905.356	7132.44
905.67	7166.56
905.984	7174.25
906.297	7133.12
906.611	7072.55
906.924	7080.01
907.237	7000.24
907.551	7042.27
907.864	7034.36
908.177	6894.03
908.491	6967.92
908.804	6944.2
909.117	6834.37
909.43	6881.82
909.743	6768.38
910.056	6816.74
910.368	6775.39
910.681	6698.55
910.994	6699.68
911.307	6670.98
911.619	6623.53
911.932	6677.76
912.244	6569.97
912.557	6532.91
912.869	6549.86
913.181	6513.47
913.494	6517.77
913.806	6452.91
914.118	6463.08
914.43	6414.72
914.742	6448.16
915.054	6365.45
915.366	6313.25
915.678	6316.87
915.99	6279.13
916.302	6251.33
916.613	6248.4
916.925	6225.34
917.236	6186.25
917.548	6181.28
917.859	6140.38
918.171	6121.39
918.482	6096.53
918.794	6091.79
919.105	6036.2
919.416	6043.88
919.727	6007.05
920.038	5971.79
920.349	5954.39
920.66	5884.34
920.971	5891.57
921.282	5899.48
921.593	5796.66
921.903	5801.4
922.214	5775.87
922.525	5776.77
922.835	5730.44
923.146	5724.57
923.456	5730.67
923.767	5638.24
924.077	5738.13
924.387	5611.8
924.697	5573.16
925.008	5591.92
925.318	5589.2
925.628	5525.48
925.938	5538.13
926.248	5463.1
926.558	5478.02
926.867	5445.48
927.177	5395.99
927.487	5402.09
927.796	5389.89
928.106	5326.61
928.416	5310.11
928.725	5329.32
929.034	5261.08
929.344	5276.22
929.653	5278.48
929.962	5215.88
930.271	5184.92
930.581	5166.84
930.89	5120.74
931.199	5097.24
931.508	5123.9
931.817	5092.04
932.125	5077.8
932.434	5061.31
932.743	5023.12
933.051	5003.23
933.36	4948.99
933.669	4935.89
933.977	4928.88
934.286	4892.05
934.594	4937.7
934.902	4876.45
935.21	4847.53
935.519	4824.25
935.827	4836.91
936.135	4743.35
936.443	4752.16
936.751	4708.1
937.059	4705.84
937.367	4701.32
937.674	4703.35
937.982	4660.64
938.29	4663.8
938.597	4692.05
938.905	4582.45
939.213	4607.99
939.52	4569.57
939.827	4560.76
940.135	4564.6
940.442	4578.83
940.749	4479.18
941.056	4501.55
941.363	4443.24
941.67	4462.23
941.977	4405.05
942.284	4404.83
942.591	4320.99
942.898	4335.9
943.205	4371.61
943.511	4344.72
943.818	4309.01
944.125	4309.69
944.431	4248.67
944.738	4280.54
945.044	4283.25
945.35	4213.65
945.657	4187.43
945.963	4189.47
946.269	4159.86
946.575	4143.59
946.881	4179.75
947.187	4088.23
947.493	4092.75
947.799	4083.25
948.105	4042.8
948.41	4007.32
948.716	4043.03
949.022	4026.53
949.327	4005.06
949.633	3975.01
949.938	3921.9
950.244	4000.09
950.549	3949.47
950.854	3876.93
951.16	3887.1
951.465	3881.9
951.77	3855.46
952.075	3855.01
952.38	3826.31
952.685	3818.4
952.99	3749.93
953.294	3764.39
953.599	3744.73
953.904	3756.94
954.209	3711.74
954.513	3699.54
954.818	3746.09
955.122	3690.27
955.426	3659.54
955.731	3619.31
956.035	3643.27
956.339	3621.8
956.643	3610.05
956.948	3590.39
957.252	3553.55
957.556	3593.32
957.86	3551.52
958.163	3536.83
958.467	3507.9
958.771	3538.41
959.075	3482.82
959.378	3469.71
959.682	3477.17
959.985	3458.41
960.289	3424.06
960.592	3427.45
960.896	3408.92
961.199	3383.84
961.502	3353.56
961.805	3361.92
962.108	3339.77
962.411	3321.24
962.714	3274.46
963.017	3240.34
963.32	3296.83
963.623	3250.96
963.926	3249.15
964.228	3226.55
964.531	3233.33
964.833	3221.13
965.136	3166.44
965.438	3170.96
965.741	3162.6
966.043	3172.54
966.345	3108.82
966.648	3119.89
966.95	3080.12
967.252	3067.01
967.554	3106.56
967.856	3041.7
968.158	3039.67
968.46	3025.43
968.761	3048.25
969.063	3027.91
969.365	3031.53
969.666	2999.21
969.968	2977.97
970.269	2956.73
970.571	2966.45
970.872	2937.97
971.174	2919.67
971.475	2932.78
971.776	2910.63
972.077	2902.49
972.378	2890.97
972.679	2908.6
972.98	2857.98
973.281	2833.12
973.582	2851.65
973.883	2833.57
974.183	2779.33
974.484	2821.59
974.785	2750.41
975.085	2788.82
975.386	2767.13
975.686	2729.84
975.986	2768.49
976.287	2705.21
976.587	2721.03
976.887	2696.62
977.187	2660.47
977.487	2696.17
977.787	2679.22
978.087	2630.19
978.387	2658.66
978.687	2628.6
978.987	2641.03
979.286	2618.89
979.586	2570.98
979.885	2576.63
980.185	2582.05
980.484	2560.36
980.784	2577.98
981.083	2532.11
981.382	2510.19
981.682	2541.37
981.981	2497.76
982.28	2494.6
982.579	2469.51
982.878	2464.99
983.177	2442.62
983.475	2431.09
983.774	2434.71
984.073	2417.99
984.372	2408.27
984.67	2434.26
984.969	2414.37
985.267	2401.72
985.566	2356.97
985.864	2350.19
986.162	2364.88
986.461	2329.18
986.759	2312.91
987.057	2278.1
987.355	2292.79
987.653	2338.67
987.951	2309.97
988.249	2290.08
988.547	2283.75
988.844	2296.63
989.142	2272
989.44	2223.42
989.737	2251.66
990.035	2210.99
990.332	2209.18
990.63	2214.83
990.927	2217.09
991.224	2188.39
991.521	2166.24
991.819	2164.66
992.116	2167.15
992.413	2141.84
992.71	2113.14
993.006	2114.04
993.303	2124.89
993.6	2096.64
993.897	2086.02
994.193	2086.24
994.49	2095.51
994.787	2063.19
995.083	2062.06
995.379	2043.53
995.676	2046.92
995.972	2057.54
996.268	2024.1
996.565	2023.42
996.861	2014.16
997.157	1972.12
997.453	1995.17
997.749	1999.47
998.044	1973.03
998.34	1931.22
998.636	1949.75
998.932	1919.02
999.227	1911.79
999.523	1924.21
999.818	1905.23
1000.114	1881.73
1000.409	1905.46
1000.704	1867.27
1001	1866.82
1001.295	1857.32
1001.59	1855.97
1001.885	1809.19
1002.18	1824.56
1002.475	1830.88
1002.77	1792.92
1003.065	1768.96
1003.359	1759.02
1003.654	1803.31
1003.949	1783.65
1004.243	1753.82
1004.538	1747.27
1004.832	1723.99
1005.127	1735.97
1005.421	1732.58
1005.715	1721.96
1006.009	1719.93
1006.304	1714.05
1006.598	1673.83
1006.892	1693.26
1007.186	1674.5
1007.48	1655.07
1007.773	1681.51
1008.067	1657.78
1008.361	1647.61
1008.655	1617.78
1008.948	1615.52
1009.242	1625.69
1009.535	1583.66
1009.829	1603.55
1010.122	1564.68
1010.415	1574.39
1010.708	1562.19
1011.001	1552.47
1011.295	1559.25
1011.588	1559.48
1011.881	1515.19
1012.173	1556.32
1012.466	1507.5
1012.759	1515.86
1013.052	1488.97
1013.344	1496.43
1013.637	1469.09
1013.93	1460.95
1014.222	1446.26
1014.514	1498.24
1014.807	1442.42
1015.099	1457.56
1015.391	1438.35
1015.683	1432.93
1015.976	1411.69
1016.268	1406.71
1016.56	1408.3
1016.851	1395.87
1017.143	1385.92
1017.435	1379.82
1017.727	1380.95
1018.018	1345.02
1018.31	1366.49
1018.602	1366.49
1018.893	1305.7
1019.185	1325.81
1019.476	1312.48
1019.767	1287.4
1020.058	1299.15
1020.35	1282.65
1020.641	1260.5
1020.932	1269.77
1021.223	1270.9
1021.514	1262.31
1021.804	1248.53
1022.095	1234.29
1022.386	1238.13
1022.677	1229.32
1022.967	1220.5
1023.258	1222.54
1023.548	1204.01
1023.839	1202.2
1024.129	1170.56
1024.419	1184.8
1024.709	1164.91
1025	1170.56
1025.29	1152.48
1025.58	1149.32
1025.87	1136.89
1026.16	1159.49
1026.449	1138.47
1026.739	1148.42
1027.029	1113.84
1027.319	1126.72
1027.608	1114.97
1027.898	1109.1
1028.187	1094.18
1028.477	1069.32
1028.766	1087.63
1029.055	1062.32
1029.344	1068.64
1029.634	1070
1029.923	1044.46
1030.212	1053.28
1030.501	1038.14
1030.79	1019.38
1031.078	1039.72
1031.367	1008.76
1031.656	1035.2
1031.945	999.49
1032.233	991.81
1032.522	990.91
1032.81	979.38
1033.099	1001.3
1033.387	955.88
1033.675	963.11
1033.963	955.43
1034.251	950.68
1034.54	955.43
1034.828	966.27
1035.116	945.71
1035.403	953.39
1035.691	916.33
1035.979	915.2
1036.267	922.21
1036.554	926.5
1036.842	898.71
1037.129	880.17
1037.417	893.51
1037.704	874.98
1037.992	891.7
1038.279	889.89
1038.566	876.11
1038.853	876.11
1039.14	876.11
