Data from hue_90_FLMS001491_60.txt Node
Date: Mon Feb 06 15:25:21 GMT 2017
User: dcchb
Spectrometer: FLMS00149
Trigger mode: 0
Integration Time (sec): 2.000000E-2
Scans to average: 10
Electric dark correction enabled: true
Nonlinearity correction enabled: false
Boxcar width: 0
XAxis mode: Wavelengths
Number of Pixels in Spectrum: 2048
>>>>>Begin Spectral Data<<<<<
341.393	-6.31
341.776	-6.31
342.16	-6.31
342.543	-60.78
342.927	-74.33
343.31	-67.78
343.693	-83.83
344.077	-88.57
344.46	-66.88
344.843	-34.11
345.226	-32.75
345.61	-41.34
345.993	-27.56
346.376	-0.44
346.759	16.51
347.142	25.78
347.525	57.64
347.908	61.26
348.291	76.17
348.674	82.05
349.057	123.85
349.44	120.46
349.823	116.85
350.206	156.17
350.588	181.7
350.971	212.89
351.354	220.12
351.737	235.94
352.119	241.59
352.502	244.98
352.884	269.61
353.267	266
353.65	292.89
354.032	286.56
354.414	318.65
354.797	324.53
355.179	292.66
355.562	333.79
355.944	315.94
356.326	329.27
356.709	311.87
357.091	337.41
357.473	327.69
357.855	339.67
358.238	324.75
358.62	364.3
359.002	338.08
359.384	328.14
359.766	308.25
360.148	349.16
360.53	327.24
360.912	338.76
361.294	327.24
361.676	322.94
362.057	341.93
362.439	323.17
362.821	326.33
363.203	332.43
363.584	334.92
363.966	329.95
364.348	320.68
364.729	309.38
365.111	314.58
365.493	312.77
365.874	314.13
366.256	302.38
366.637	321.59
367.019	310.74
367.4	303.28
367.781	286.56
368.163	318.42
368.544	320.46
368.925	292.21
369.306	319.1
369.688	306.9
370.069	319.1
370.45	295.37
370.831	313.45
371.212	289.72
371.593	299.89
371.974	312.1
372.355	309.38
372.736	315.26
373.117	300.12
373.498	319.78
373.879	303.28
374.26	330.85
374.641	308.48
375.021	310.51
375.402	315.03
375.783	295.83
376.163	324.98
376.544	348.25
376.925	339.21
377.305	341.7
377.686	335.37
378.066	327.46
378.447	326.79
378.827	313.68
379.208	327.24
379.588	334.69
379.968	315.71
380.349	321.59
380.729	330.4
381.109	309.84
381.489	328.14
381.87	347.35
382.25	325.88
382.63	327.01
383.01	312.55
383.39	327.92
383.77	327.46
384.15	327.92
384.53	338.31
384.91	332.66
385.29	345.99
385.67	343.73
386.049	350.74
386.429	349.61
386.809	328.82
387.189	359.55
387.568	349.38
387.948	358.87
388.328	343.06
388.707	356.61
389.087	335.37
389.466	332.89
389.846	350.29
390.225	343.96
390.605	362.04
390.984	352.1
391.363	359.55
391.743	346.67
392.122	334.69
392.501	356.39
392.881	355.49
393.26	353.9
393.639	365.43
394.018	363.62
394.397	355.03
394.776	384.86
395.155	371.3
395.534	378.76
395.913	373.34
396.292	379.67
396.671	360.68
397.05	358.65
397.429	381.25
397.808	390.96
398.186	369.5
398.565	391.64
398.944	387.35
399.323	394.81
399.701	377.86
400.08	390.74
400.458	385.54
400.837	367.69
401.215	373.79
401.594	418.99
401.972	382.15
402.351	417.4
402.729	404.98
403.107	401.59
403.486	398.42
403.864	394.58
404.242	398.65
404.62	403.62
404.999	392.09
405.377	405.43
405.755	404.98
406.133	407.46
406.511	425.99
406.889	423.73
407.267	416.95
407.645	426.44
408.023	423.05
408.401	421.25
408.779	427.12
409.156	416.73
409.534	434.35
409.912	420.57
410.29	437.29
410.667	431.19
411.045	445.88
411.422	439.55
411.8	461.24
412.178	450.4
412.555	455.14
412.933	467.8
413.31	465.54
413.687	459.44
414.065	469.83
414.442	463.96
414.819	449.27
415.197	461.02
415.574	463.05
415.951	506.89
416.328	489.04
416.705	490.4
417.082	475.48
417.46	469.38
417.837	491.53
418.214	496.27
418.591	489.94
418.967	505.54
419.344	516.84
419.721	515.93
420.098	497.63
420.475	515.03
420.852	497.18
421.228	519.77
421.605	506.22
421.982	513.45
422.358	513.45
422.735	532.43
423.111	516.61
423.488	557.29
423.864	534.46
424.241	515.25
424.617	546.21
424.994	523.84
425.37	569.94
425.746	555.93
426.123	568.13
426.499	561.13
426.875	585.76
427.251	571.07
427.627	580.34
428.003	555.48
428.379	596.61
428.756	583.28
429.132	583.05
429.507	601.35
429.883	584.41
430.259	601.35
430.635	603.61
431.011	585.54
431.387	614.01
431.763	605.42
432.138	617.4
432.514	639.77
432.89	630.05
433.265	650.39
433.641	646.1
434.016	669.83
434.392	647.91
434.767	674.35
435.143	645.65
435.518	676.61
435.894	659.43
436.269	677.28
436.644	669.38
437.02	666.66
437.395	690.84
437.77	682.93
438.145	703.27
438.52	706.89
438.895	728.36
439.271	722.71
439.646	726.1
440.021	733.78
440.395	731.75
440.77	737.85
441.145	759.32
441.52	760.45
441.895	765.42
442.27	752.76
442.645	756.15
443.019	774.68
443.394	787.79
443.769	771.52
444.143	768.13
444.518	778.52
444.892	788.02
445.267	775.36
445.641	796.6
446.016	839.54
446.39	791.63
446.764	814
447.139	814
447.513	819.65
447.887	830.73
448.262	820.11
448.636	835.92
449.01	828.69
449.384	853.33
449.758	845.19
450.132	877.05
450.506	865.53
450.88	855.13
451.254	839.31
451.628	884.06
452.002	881.12
452.376	899.43
452.75	906.2
453.123	908.92
453.497	895.58
453.871	941.23
454.244	937.16
454.618	949.82
454.992	936.03
455.365	938.29
455.739	981.46
456.112	977.39
456.486	969.93
456.859	994.56
457.232	1008.35
457.606	1038.18
457.979	1039.99
458.352	1040.66
458.725	1046.54
459.099	1073.21
459.472	1076.6
459.845	1087.67
460.218	1107.33
460.591	1122.92
460.964	1112.98
461.337	1148.01
461.71	1152.98
462.083	1167.44
462.456	1203.15
462.829	1196.14
463.201	1188.68
463.574	1226.2
463.947	1230.49
464.32	1267.78
464.692	1264.39
465.065	1276.59
465.438	1308.45
465.81	1329.02
466.183	1333.31
466.555	1353.65
466.928	1362.24
467.3	1370.83
467.672	1391.16
468.045	1432.97
468.417	1468.9
468.789	1479.75
469.161	1478.62
469.534	1567.66
469.906	1537.6
470.278	1559.75
470.65	1593.87
471.022	1618.95
471.394	1643.59
471.766	1696.47
472.138	1717.71
472.51	1757.93
472.882	1785.28
473.253	1807.2
473.625	1847.42
473.997	1914.77
474.369	1923.13
474.74	1985.27
475.112	2011.26
475.484	2049.9
475.855	2135.33
476.227	2168.09
476.598	2194.98
476.97	2259.62
477.341	2340.97
477.713	2387.75
478.084	2449.89
478.455	2469.1
478.827	2526.73
479.198	2683.56
479.569	2699.6
479.94	2741.86
480.311	2814.86
480.682	2913.61
481.053	3000.16
481.424	3056.43
481.795	3145.02
482.166	3254.17
482.537	3302.53
482.908	3421.62
483.279	3458.45
483.65	3562.86
484.021	3677.88
484.391	3725.79
484.762	3868.61
485.133	3929.18
485.503	4017.99
485.874	4161.71
486.244	4281.26
486.615	4380.92
486.985	4490.74
487.356	4587.24
487.726	4682.6
488.097	4828.59
488.467	4871.3
488.837	5122.14
489.207	5178.64
489.578	5360.33
489.948	5407.1
490.318	5558.06
490.688	5571.39
491.058	5737.94
491.428	5895.68
491.798	5997.82
492.168	6172.28
492.538	6254.76
492.908	6353.75
493.278	6521.2
493.648	6599.61
494.017	6763.68
494.387	6895.88
494.757	6908.53
495.126	7085.7
495.496	7201.86
495.866	7237.79
496.235	7464.68
496.605	7543.32
496.974	7697.89
497.344	7805.91
497.713	7896.98
498.082	7993.02
498.452	8138.11
498.821	8206.58
499.19	8302.85
499.559	8417.19
499.928	8460.36
500.298	8521.6
500.667	8703.51
501.036	8746
501.405	8850.18
501.774	8890.85
502.143	9004.75
502.512	9076.61
502.88	9233.22
503.249	9297.4
503.618	9376.72
503.987	9404.96
504.356	9515.7
504.724	9597.5
505.093	9707.56
505.462	9726.09
505.83	9723.6
506.199	9911.39
506.567	9974.67
506.936	9991.39
507.304	10216.24
507.672	10213.08
508.041	10185.96
508.409	10321.78
508.777	10376.24
509.145	10443.81
509.514	10499.85
509.882	10550.7
510.25	10628.89
510.618	10717.7
510.986	10741.43
511.354	10761.31
511.722	10901.65
512.09	10936
512.458	11002.44
512.826	11008.99
513.193	11162.21
513.561	11118.82
513.929	11192.71
514.297	11268.64
514.664	11284.92
515.032	11374.18
515.4	11379.15
515.767	11362.43
516.135	11495.31
516.502	11366.04
516.869	11608.97
517.237	11582.53
517.604	11521.29
517.972	11679.93
518.339	11674.74
518.706	11615.75
519.073	11742.3
519.44	11756.32
519.808	11882.41
520.175	11791.34
520.542	11954.95
520.909	11941.85
521.276	11962.64
521.643	12062.07
522.009	12009.64
522.376	12090.09
522.743	12138.45
523.11	12182.29
523.477	12207.15
523.843	12369.86
524.21	12354.27
524.577	12458.22
524.943	12395.62
525.31	12451.44
525.676	12571.89
526.043	12520.59
526.409	12494.37
526.776	12592
527.142	12689.17
527.508	12575.5
527.874	12650.3
528.241	12617.54
528.607	12682.62
528.973	12791.09
529.339	12715.84
529.705	12737.53
530.071	12814.37
530.437	12783.63
530.803	12869.05
531.169	12840.58
531.535	12814.37
531.901	12709.06
532.267	12764.88
532.632	12832.22
532.998	12785.44
533.364	12864.08
533.73	12842.61
534.095	12783.86
534.461	12892.1
534.826	12889.17
535.192	12833.35
535.557	12805.1
535.923	12743.86
536.288	12727.36
536.653	12778.66
537.019	12679
537.384	12687.59
537.749	12680.36
538.114	12755.84
538.479	12616.86
538.845	12710.87
539.21	12564.43
539.575	12626.8
539.94	12629.51
540.305	12607.14
540.67	12587.71
541.034	12514.26
541.399	12488.27
541.764	12463.19
542.129	12494.15
542.494	12421.16
542.858	12445.56
543.223	12401.95
543.587	12366.69
543.952	12299.35
544.316	12376.19
544.681	12237.88
545.045	12273.59
545.41	12276.53
545.774	12238.79
546.138	12265.23
546.503	12181.84
546.867	12161.05
547.231	12154.72
547.595	12107.04
547.959	12190.2
548.324	12071.11
548.688	12061.17
549.052	11996.31
549.416	12030.66
549.779	12031.79
550.143	12016.42
550.507	12027.27
550.871	11937.55
551.235	11910.44
551.599	11957.21
551.962	11892.58
552.326	11867.95
552.689	11947.5
553.053	11850.78
553.417	11804
553.78	11783.89
554.143	11711.34
554.507	11713.15
554.87	11719.71
555.234	11865.92
555.597	11692.81
555.96	11600.16
556.323	11783.89
556.686	11616.88
557.05	11702.98
557.413	11717.22
557.776	11641.97
558.139	11723.1
558.502	11625.92
558.865	11617.34
559.228	11671.57
559.59	11609.43
559.953	11596.55
560.316	11712.02
560.679	11696.43
561.041	11724.9
561.404	11682.87
561.767	11636.09
562.129	11630.89
562.492	11817.33
562.854	11711.12
563.217	11665.02
563.579	11688.52
563.941	11689.65
564.304	11780.95
564.666	11775.3
565.028	11847.84
565.39	11761.51
565.753	11775.52
566.115	11810.33
566.477	11822.75
566.839	11847.39
567.201	11871.57
567.563	11830.66
567.925	11814.62
568.287	11775.98
568.648	11855.07
569.01	11954.28
569.372	11928.29
569.734	11837.44
570.095	11941.62
570.457	11936.88
570.819	12001.28
571.18	11909.76
571.542	12007.16
571.903	11919.25
572.265	12081.5
572.626	12027.04
572.987	11992.24
573.349	12016.65
573.71	12005.12
574.071	12046.48
574.432	12057.55
574.794	12149.07
575.155	12073.82
575.516	12072.47
575.877	12175.97
576.238	12061.62
576.599	12098
576.96	12126.93
577.32	12111.56
577.681	12189.3
578.042	12134.61
578.403	12144.55
578.763	12091.45
579.124	12131.67
579.485	12127.6
579.845	12156.08
580.206	12153.14
580.566	12121.5
580.927	12136.19
581.287	12199.02
581.648	12168.28
582.008	12169.86
582.368	12133.03
582.728	12137.55
583.089	12107.27
583.449	12116.98
583.809	12140.71
584.169	12185.68
584.529	12111.33
584.889	12151.56
585.249	12080.15
585.609	12066.82
585.969	12110.2
586.329	12005.35
586.688	12057.55
587.048	12034.95
587.408	12040.38
587.768	12003.99
588.127	11996.99
588.487	11992.02
588.846	12103.42
589.206	11940.04
589.565	12015.97
589.925	12044.9
590.284	11988.63
590.643	11912.7
591.003	12062.97
591.362	12062.07
591.721	11918.57
592.08	11996.53
592.44	12011.9
592.799	11974.61
593.158	12005.12
593.517	11895.29
593.876	11922.86
594.235	11898.91
594.593	11959.02
594.952	11926.48
595.311	11860.49
595.67	11915.63
596.029	12014.39
596.387	11899.14
596.746	11972.35
597.104	11905.92
597.463	11822.3
597.822	11878.57
598.18	11840.15
598.538	11809.87
598.897	11942.98
599.255	11813.04
599.613	11950.21
599.972	11814.17
600.33	11928.06
600.688	11806.03
601.046	11963.32
601.404	11869.76
601.762	11898.01
602.12	11965.58
602.478	11893.26
602.836	11917.21
603.194	11919.93
603.552	11876.54
603.91	11820.72
604.268	11887.61
604.625	11809.42
604.983	11942.98
605.341	11881.96
605.698	11896.2
606.056	11940.94
606.413	11886.26
606.771	11907.05
607.128	11943.43
607.485	11843.32
607.843	11946.14
608.2	11849.19
608.557	11973.26
608.914	11926.25
609.272	11942.52
609.629	11973.03
609.986	11992.24
610.343	11925.35
610.7	12077.44
611.057	12021.62
611.414	11976.42
611.771	12088.74
612.127	12020.04
612.484	12013.71
612.841	12050.77
613.198	12080.6
613.554	12045.12
613.911	12056.19
614.267	12030.88
614.624	12036.99
614.98	12043.09
615.337	12149.07
615.693	12138
616.05	12001.05
616.406	12147.49
616.762	12080.83
617.118	12167.38
617.475	12099.13
617.831	12226.36
618.187	12209.18
618.543	12112.46
618.899	12236.3
619.255	12208.28
619.611	12129.19
619.967	12273.59
620.323	12243.76
620.678	12218.68
621.034	12166.7
621.39	12155.17
621.746	12187.04
622.101	12306.36
622.457	12160.82
622.812	12265.68
623.168	12208.96
623.523	12284.89
623.879	12265.23
624.234	12200.37
624.589	12252.35
624.945	12281.05
625.3	12229.07
625.655	12219.58
626.01	12209.86
626.365	12261.39
626.72	12239.01
627.075	12232.69
627.43	12180.26
627.785	12079.24
628.14	12248.28
628.495	12163.99
628.85	12200.82
629.205	12152.24
629.559	12163.08
629.914	12164.44
630.269	12114.95
630.623	12145.91
630.978	12139.36
631.332	12155.63
631.687	12166.7
632.041	12070.88
632.396	12163.99
632.75	12076.76
633.104	12138.45
633.459	12013.71
633.813	12069.3
634.167	12041.73
634.521	12010.77
634.875	12042.18
635.229	11879.48
635.583	11958.57
635.937	11907.05
636.291	11849.42
636.645	11928.97
636.999	11938.68
637.352	11918.57
637.706	11839.25
638.06	11904.79
638.413	11845.35
638.767	11822.98
639.121	11817.33
639.474	11737.78
639.828	11778.69
640.181	11742.53
640.534	11845.8
640.888	11785.47
641.241	11724.45
641.594	11710.44
641.947	11774.85
642.301	11704.11
642.654	11765.81
643.007	11800.16
643.36	11708.63
643.713	11620.27
644.066	11758.8
644.419	11605.58
644.771	11608.97
645.124	11508.64
645.477	11405.82
645.83	11435.87
646.182	11367.17
646.535	11290.34
646.888	11244.92
647.24	11261.86
647.593	11381.64
647.945	11289.21
648.298	11317
648.65	11192.71
649.002	11104.58
649.355	11244.01
649.707	11193.84
650.059	11334.18
650.411	11379.6
650.763	11502.76
651.115	11554.74
651.467	11508.64
651.819	11573.95
652.171	11447.62
652.523	11470.67
652.875	11506.15
653.227	11424.57
653.578	11541.18
653.93	11442.2
654.282	11447.85
654.633	11427.06
654.985	11464.35
655.337	11440.84
655.688	11450.79
656.039	11609.43
656.391	11471.58
656.742	11466.83
657.094	11434.29
657.445	11481.75
657.796	11474.29
658.147	11475.19
658.498	11495.76
658.849	11458.47
659.2	11525.59
659.551	11474.06
659.902	11607.62
660.253	11519.03
660.604	11561.52
660.955	11458.02
661.306	11469.77
661.656	11561.29
662.007	11614.62
662.358	11535.53
662.708	11548.41
663.059	11558.13
663.409	11545.02
663.76	11615.3
664.11	11599.03
664.461	11548.19
664.811	11484.01
665.161	11582.99
665.511	11580.27
665.862	11603.78
666.212	11634.74
666.562	11636.09
666.912	11656.2
667.262	11566.49
667.612	11592.7
667.962	11548.64
668.312	11553.16
668.662	11611.69
669.011	11584.57
669.361	11502.54
669.711	11550.9
670.06	11555.42
670.41	11431.58
670.76	11477.45
671.109	11563.78
671.459	11472.03
671.808	11544.57
672.157	11609.88
672.507	11467.74
672.856	11440.62
673.205	11448.07
673.554	11511.35
673.904	11387.29
674.253	11535.53
674.602	11441.75
674.951	11339.15
675.3	11272.71
675.649	11448.07
675.998	11431.13
676.346	11378.02
676.695	11399.94
677.044	11406.49
677.393	11384.12
677.741	11475.42
678.09	11411.01
678.438	11279.27
678.787	11385.03
679.135	11340.73
679.484	11227.74
679.832	11267.74
680.181	11221.87
680.529	11308.42
680.877	11215.76
681.225	11173.05
681.573	11250.57
681.922	11120.17
682.27	11071.14
682.618	11100.29
682.966	11043.79
683.314	11125.37
683.661	11060.51
684.009	11027.29
684.357	10948.43
684.705	10985.04
685.053	10952.95
685.4	10903.46
685.748	10877.69
686.095	10919.73
686.443	10903.46
686.79	10816.45
687.138	10866.4
687.485	10806.51
687.832	10762.44
688.18	10816.45
688.527	10700.52
688.874	10714.53
689.221	10711.37
689.568	10694.87
689.915	10580.98
690.262	10556.57
690.609	10576.69
690.956	10529.23
691.303	10536.01
691.65	10486.52
691.997	10405.62
692.344	10354.77
692.69	10421.89
693.037	10354.54
693.383	10235.68
693.73	10312.51
694.077	10188.45
694.423	10214.43
694.769	10181.22
695.116	10165.62
695.462	10087.88
695.808	10078.85
696.155	10075.23
696.501	9979.64
696.847	9964.5
697.193	9937.38
697.539	9948.68
697.885	9832.52
698.231	9872.3
698.577	9812.64
698.923	9771.06
699.269	9733.09
699.614	9709.59
699.96	9582.81
700.306	9673.66
700.651	9576.94
700.997	9548.24
701.342	9566.09
701.688	9474.57
702.033	9445.42
702.379	9470.05
702.724	9427.56
703.069	9390.28
703.415	9327.68
703.76	9310.28
704.105	9307.34
704.45	9310.73
704.795	9184.63
705.14	9117.06
705.485	9180.56
705.83	9135.82
706.175	9151.19
706.52	9073
706.865	9037.29
707.209	9080.23
707.554	9057.86
707.899	9122.94
708.243	8993.68
708.588	8971.08
708.932	8876.84
709.277	8928.59
709.621	8844.53
709.966	8863.51
710.31	8802.72
710.654	8799.56
710.998	8730.41
711.342	8782.61
711.687	8746.9
712.031	8611.31
712.375	8607.92
712.719	8613.8
713.063	8626.91
713.407	8681.59
713.75	8589.62
714.094	8633.69
714.438	8548.72
714.782	8552.33
715.125	8455.84
715.469	8494.71
715.812	8472.11
716.156	8456.51
716.499	8495.16
716.843	8543.29
717.186	8390.53
717.53	8411.09
717.873	8483.41
718.216	8405.67
718.559	8362.73
718.902	8350.53
719.246	8375.84
719.589	8369.96
719.932	8330.19
720.275	8272.79
720.617	8299.46
720.96	8274.82
721.303	8307.59
721.646	8266.24
721.989	8269.85
722.331	8261.49
722.674	8244.77
723.016	8169.29
723.359	8228.95
723.701	8175.17
724.044	8172.23
724.386	8148.95
724.729	8156.86
725.071	8155.05
725.413	8160.7
725.755	8133.13
726.097	8135.17
726.439	8099.01
726.782	8148.27
727.124	8124.32
727.465	8064.66
727.807	8105.34
728.149	8062.4
728.491	8125
728.833	8159.57
729.175	8063.98
729.516	8077.32
729.858	8058.79
730.199	8109.18
730.541	8125.9
730.882	8080.03
731.224	8084.1
731.565	8060.82
731.906	8067.82
732.248	8117.77
732.589	8070.08
732.93	8044.77
733.271	8091.1
733.612	8016.75
733.953	8097.88
734.294	8020.59
734.635	8034.38
734.976	8111.21
735.317	8023.53
735.658	8046.13
735.999	8031.44
736.339	8016.75
736.68	8110.08
737.021	8072.57
737.361	8054.27
737.702	8116.64
738.042	8065.79
738.383	8035.28
738.723	8087.94
739.063	8131.55
739.404	8159.12
739.744	8150.31
740.084	8089.74
740.424	8135.62
740.764	8147.82
741.104	8133.81
741.444	8067.6
741.784	8090.87
742.124	8208.84
742.464	8189.63
742.804	8172.91
743.143	8213.81
743.483	8290.42
743.823	8252.68
744.162	8278.67
744.502	8245.45
744.841	8285.22
745.181	8303.52
745.52	8376.52
745.86	8431.66
746.199	8441.83
746.538	8455.84
746.877	8449.28
747.216	8544.2
747.556	8573.35
747.895	8607.02
748.234	8594.14
748.573	8719.33
748.911	8724.3
749.25	8742.61
749.589	8769.28
749.928	8909.38
750.267	8957.07
750.605	9058.53
750.944	9103.28
751.283	9137.85
751.621	9279.32
751.96	9232.31
752.298	9384.85
752.636	9459.43
752.975	9497.39
753.313	9618.07
753.651	9684.05
753.989	9790.49
754.327	9884.73
754.666	9932.86
755.004	10082.23
755.342	10191.16
755.679	10357.71
756.017	10342.12
756.355	10546.63
756.693	10655.55
757.031	10690.35
757.368	10767.64
757.706	10968.31
758.044	11104.13
758.381	11153.85
758.719	11275.88
759.056	11474.06
759.394	11613.72
759.731	11687.84
760.068	11814.84
760.405	11896.65
760.743	12112.46
761.08	12273.36
761.417	12296.19
761.754	12536.86
762.091	12613.02
762.428	12759.45
762.765	12877.19
763.102	13022.72
763.438	13098.2
763.775	13203.73
764.112	13449.38
764.449	13525.99
764.785	13650.5
765.122	13739.99
765.458	13848.69
765.795	14002.81
766.131	14153.31
766.467	14229.7
766.804	14370.71
767.14	14445.74
767.476	14583.81
767.812	14694.54
768.148	14887.31
768.485	14829.91
768.821	14880.3
769.157	15099.05
769.492	15073.97
769.828	15271.25
770.164	15280.29
770.5	15424.69
770.836	15432.38
771.171	15536.33
771.507	15586.72
771.842	15614.97
772.178	15719.83
772.513	15789.66
772.849	15846.6
773.184	15860.84
773.519	15972.48
773.855	16043.66
774.19	16066.26
774.525	16134.05
774.86	16169.53
775.195	16199.81
775.53	16320.26
775.865	16279.36
776.2	16222.19
776.535	16131.57
776.87	16307.61
777.205	16339.25
777.539	16328.4
777.874	16314.39
778.209	16367.04
778.543	16384.67
778.878	16387.38
779.212	16358.23
779.547	16357.78
779.881	16418.34
780.215	16280.26
780.55	16387.61
780.884	16447.04
781.218	16392.13
781.552	16461.05
781.886	16455.17
782.22	16345.8
782.554	16447.04
782.888	16215.86
783.222	16269.64
783.556	16259.02
783.889	16183.54
784.223	16169.08
784.557	16317.55
784.89	16281.17
785.224	16265.58
785.557	16132.92
785.891	16228.29
786.224	16122.53
786.558	16217.89
786.891	16054.28
787.224	16089.53
787.557	16123.88
787.891	16095.18
788.224	16047.95
788.557	16065.13
788.89	16047.05
789.223	16067.16
789.556	15947.17
789.888	15906.71
790.221	15906.94
790.554	15831.46
790.887	15832.59
791.219	15798.92
791.552	15840.95
791.884	15624.91
792.217	15694.29
792.549	15640.28
792.882	15605.03
793.214	15505.82
793.546	15523.22
793.879	15474.18
794.211	15438.93
794.543	15467.4
794.875	15357.58
795.207	15525.93
795.539	15383.79
795.871	15428.54
796.203	15158.49
796.535	15208.2
796.867	15238.26
797.198	15158.49
797.53	15283.23
797.862	15156
798.193	15153.74
798.525	14953.97
798.856	15070.13
799.188	14967.76
799.519	14978.15
799.85	14759.17
800.182	14817.03
800.513	14870.81
800.844	14671.04
801.175	14790.59
801.506	14812.51
801.837	14637.37
802.168	14681.44
802.499	14638.27
802.83	14483.48
803.161	14550.37
803.491	14520.99
803.822	14551.04
804.153	14453.65
804.483	14337.94
804.814	14273.76
805.145	14259.75
805.475	14296.59
805.805	14220.66
806.136	14269.7
806.466	14232.86
806.796	14157.83
807.126	14068.57
807.457	14107.21
807.787	14066.99
808.117	14055.01
808.447	13944.05
808.777	14032.87
809.107	13995.58
809.436	13898.86
809.766	13919.65
810.096	13875.81
810.426	13824.96
810.755	13835.13
811.085	13789.03
811.414	13741.8
811.744	13725.08
812.073	13647.11
812.403	13645.53
812.732	13572.54
813.061	13538.64
813.39	13464.29
813.719	13542.48
814.049	13620.67
814.378	13505.42
814.707	13508.59
815.036	13446.21
815.365	13334.13
815.693	13229.27
816.022	13227.24
816.351	13179.33
816.68	13148.82
817.008	13258.42
817.337	13104.53
817.665	13058.65
817.994	13101.82
818.322	13149.72
818.651	13042.61
818.979	13036.51
819.307	13070.18
819.636	12991.08
819.964	12953.35
820.292	13025.43
820.62	12930.07
820.948	12955.15
821.276	12934.36
821.604	12928.26
821.932	12934.59
822.259	12944.53
822.587	13001.93
822.915	12927.81
823.243	12994.02
823.57	12914.93
823.898	12869.05
824.225	12831.99
824.553	12840.81
824.88	12839.9
825.207	12948.83
825.535	12848.72
825.862	12967.81
826.189	12806.46
826.516	12969.39
826.843	12987.92
827.17	13027.69
827.497	12979.79
827.824	12925.55
828.151	12999.22
828.478	12937.98
828.805	12985.21
829.131	12900.92
829.458	12869.28
829.785	12880.81
830.111	12926.45
830.438	12923.06
830.764	12906.79
831.09	12954.02
831.417	12901.37
831.743	12913.35
832.069	12856.63
832.395	12918.09
832.722	12818.21
833.048	12810.75
833.374	12840.58
833.7	12834.25
834.026	12841.71
834.351	12869.73
834.677	12806.68
835.003	12922.39
835.329	12793.12
835.654	12809.62
835.98	12681.49
836.306	12828.6
836.631	12625.9
836.956	12719.45
837.282	12755.84
837.607	12707.25
837.932	12668.16
838.258	12756.97
838.583	12655.73
838.908	12593.58
839.233	12727.36
839.558	12590.19
839.883	12556.52
840.208	12482.85
840.533	12468.39
840.858	12456.18
841.182	12520.36
841.507	12474.26
841.832	12415.28
842.156	12340.93
842.481	12347.71
842.805	12302.06
843.13	12301.39
843.454	12258.22
843.778	12214.83
844.103	12221.84
844.427	12111.56
844.751	12274.27
845.075	12209.86
845.399	12139.81
845.723	12029.75
846.047	12082.18
846.371	11919.25
846.695	11995.4
847.019	11887.84
847.343	11765.35
847.666	11744.34
847.99	11761.74
848.313	11699.82
848.637	11560.16
848.96	11644.91
849.284	11550.67
849.607	11632.02
849.931	11474.97
850.254	11361.52
850.577	11305.71
850.9	11268.19
851.223	11241.53
851.546	11197.01
851.869	11145.94
852.192	11173.51
852.515	10994.53
852.838	11051.25
853.161	10991.82
853.483	11040.85
853.806	10943.68
854.129	10871.82
854.451	10849.45
854.774	10828.66
855.096	10804.02
855.419	10706.4
855.741	10759.96
856.063	10668.21
856.385	10620.07
856.708	10596.12
857.03	10626.4
857.352	10699.85
857.674	10592.96
857.996	10515.9
858.318	10505.05
858.64	10522.22
858.961	10475.22
859.283	10422.79
859.605	10331.72
859.926	10357.71
860.248	10288.33
860.57	10293.08
860.891	10256.24
861.212	10270.93
861.534	10280.87
861.855	10210.37
862.176	10163.59
862.498	10186.41
862.819	10227.32
863.14	10134.44
863.461	10077.26
863.782	10092.86
864.103	10112.29
864.424	10037.72
864.745	10037.04
865.065	10034.1
865.386	9979.19
865.707	9930.15
866.027	9905.97
866.348	9957.04
866.668	9946.42
866.989	9898.28
867.309	9838.4
867.63	9884.5
867.95	9849.7
868.27	9747.1
868.59	9767.67
868.91	9734.45
869.23	9750.72
869.55	9780.32
869.87	9754.33
870.19	9738.52
870.51	9658.52
870.83	9729.02
871.15	9685.41
871.469	9678.86
871.789	9685.18
872.109	9667.33
872.428	9647.67
872.748	9685.64
873.067	9613.77
873.386	9613.55
873.706	9512.31
874.025	9487.9
874.344	9520.67
874.663	9614.45
874.982	9526.09
875.301	9544.85
875.62	9454.23
875.939	9473.89
876.258	9462.59
876.577	9436.38
876.896	9351.86
877.214	9365.87
877.533	9359.32
877.852	9339.66
878.17	9341.24
878.489	9370.84
878.807	9359.09
879.125	9274.57
879.444	9325.19
879.762	9237.51
880.08	9287.45
880.398	9185.76
880.716	9278.87
881.034	9282.93
881.352	9210.62
881.67	9197.74
881.988	9133.79
882.306	9087.23
882.624	9160.45
882.941	9115.25
883.259	9036.84
883.577	9080.45
883.894	9075.26
884.212	9019.21
884.529	8982.38
884.846	9002.04
885.164	8964.75
885.481	8898.76
885.798	8936.95
886.115	8901.93
886.432	8859.22
886.75	8843.85
887.067	8850.85
887.383	8794.81
887.7	8852.66
888.017	8731.76
888.334	8790.52
888.651	8714.36
888.967	8731.76
889.284	8621.03
889.6	8646.57
889.917	8621.48
890.233	8582.39
890.55	8589.39
890.866	8543.97
891.182	8528.38
891.498	8489.96
891.815	8437.08
892.131	8403.41
892.447	8394.6
892.763	8370.19
893.079	8328.61
893.395	8356.4
893.71	8281.15
894.026	8357.08
894.342	8258.33
894.657	8230.31
894.973	8202.74
895.289	8162.06
895.604	8220.59
895.92	8099.01
896.235	8063.3
896.55	8066.47
896.865	8126.13
897.181	8019.69
897.496	8020.14
897.811	7958.67
898.126	7919.81
898.441	7934.49
898.756	7927.49
899.071	7898.11
899.386	7830.09
899.7	7815.63
900.015	7762.07
900.33	7669.87
900.644	7706.25
900.959	7670.55
901.273	7697.21
901.588	7664.45
901.902	7602.53
902.216	7528.63
902.531	7542.87
902.845	7496.77
903.159	7446.15
903.473	7399.37
903.787	7393.49
904.101	7361.18
904.415	7317.34
904.729	7360.27
905.042	7324.79
905.356	7282.08
905.67	7240.73
905.984	7214.97
906.297	7238.47
906.611	7154.18
906.924	7120.5
907.237	7163.67
907.551	7085.7
907.864	7009.1
908.177	7079.6
908.491	7030.34
908.804	6999.15
909.117	6976.33
909.43	6902.21
909.743	6898.14
910.056	6850.91
910.368	6864.47
910.681	6811.13
910.994	6773.4
911.307	6732.94
911.619	6702.21
911.932	6727.52
912.244	6659.5
912.557	6654.75
912.869	6637.35
913.181	6535.89
913.494	6602.33
913.806	6521.2
914.118	6506.96
914.43	6503.35
914.742	6427.87
915.054	6467.41
915.366	6408.89
915.678	6406.85
915.99	6310.81
916.302	6334.31
916.613	6270.58
916.925	6279.17
917.236	6323.01
917.548	6196.91
917.859	6218.16
918.171	6222
918.482	6164.15
918.794	6121.44
919.105	6210.02
919.416	6074.66
919.727	6063.13
920.038	6048.67
920.349	5995.11
920.66	5962.57
920.971	5979.29
921.282	5924.15
921.593	5893.64
921.903	5876.92
922.214	5827.88
922.525	5868.33
922.835	5841.67
923.146	5776.81
923.456	5766.64
923.767	5746.53
924.077	5731.61
924.387	5662.46
924.697	5644.84
925.008	5675.8
925.318	5578.62
925.628	5617.27
925.938	5620.21
926.248	5564.84
926.558	5531.39
926.867	5512.41
927.177	5514.67
927.487	5466.99
927.796	5402.81
928.106	5436.93
928.416	5397.39
928.725	5384.28
929.034	5351.96
929.344	5404.39
929.653	5325.75
929.962	5317.16
930.271	5255.7
930.581	5232.87
930.89	5182.93
931.199	5171.4
931.508	5184.74
931.817	5155.58
932.125	5146.55
932.434	5157.17
932.743	5092.99
933.051	5073.78
933.36	5074.46
933.669	5012.76
933.977	5022.48
934.286	5000.56
934.594	4982.93
934.902	4946.55
935.21	4933.44
935.519	4909.04
935.827	4894.57
936.135	4885.31
936.443	4894.8
936.751	4840.79
937.059	4869.72
937.367	4795.82
937.674	4759.89
937.982	4758.31
938.29	4726.22
938.597	4721.25
938.905	4685.31
939.213	4687.57
939.52	4629.04
939.827	4647.35
940.135	4643.28
940.442	4568.48
940.749	4573
941.056	4558.09
941.363	4527.58
941.67	4536.62
941.977	4519.22
942.284	4449.61
942.591	4452.1
942.898	4413.01
943.205	4469.95
943.511	4416.4
943.818	4378.66
944.125	4334.59
944.431	4316.06
944.738	4346.11
945.044	4351.76
945.35	4305.89
945.657	4226.34
945.963	4236.74
946.269	4237.87
946.575	4266.79
946.881	4218.89
947.187	4201.71
947.493	4154.48
947.799	4156.74
948.105	4114.71
948.41	4129.17
948.716	4147.02
949.022	4111.54
949.327	4074.26
949.633	4067.48
949.938	4057.08
950.244	4012.79
950.549	3956.75
950.854	3998.55
951.16	3990.64
951.465	3940.48
951.77	3883.98
952.075	3905.9
952.38	3908.39
952.685	3889.63
952.99	3890.08
953.294	3845.79
953.599	3786.13
953.904	3834.26
954.209	3769.41
954.513	3746.81
954.818	3795.62
955.122	3731.67
955.426	3749.52
955.731	3719.01
956.035	3662.74
956.339	3664.32
956.643	3672.69
956.948	3639.01
957.252	3671.1
957.556	3668.62
957.86	3627.26
958.163	3606.92
958.467	3633.82
958.771	3549.75
959.075	3598.79
959.378	3550.2
959.682	3573.03
959.985	3484.67
960.289	3490.77
960.592	3479.7
960.896	3481.73
961.199	3450.54
961.502	3438.57
961.805	3403.77
962.108	3384.11
962.411	3374.84
962.714	3344.56
963.017	3343.2
963.32	3344.56
963.623	3329.19
963.926	3308.18
964.228	3330.32
964.531	3268.4
964.833	3272.47
965.136	3248.06
965.438	3272.24
965.741	3234.05
966.043	3223.66
966.345	3217.1
966.648	3197.22
966.95	3161.96
967.252	3160.16
967.554	3136.2
967.856	3100.72
968.158	3128.29
968.46	3131.68
968.761	3105.7
969.063	3105.7
969.365	3057.79
969.666	3087.84
969.968	3015.75
970.269	3044.23
970.571	3011.91
970.872	2992.93
971.174	2970.33
971.475	2977.79
971.776	2967.39
972.077	2938.69
972.378	2952.03
972.679	2948.41
972.98	2952.03
973.281	2932.82
973.582	2888.98
973.883	2895.53
974.183	2848.07
974.484	2888.98
974.785	2864.12
975.085	2837.23
975.386	2821.41
975.686	2790.68
975.986	2773.73
976.287	2752.48
976.587	2753.61
976.887	2759.94
977.187	2759.49
977.487	2752.48
977.787	2722.2
978.087	2686.5
978.387	2692.37
978.687	2718.81
978.987	2673.62
979.286	2680.4
979.586	2657.57
979.885	2628.19
980.185	2592.49
980.484	2607.63
980.784	2574.86
981.083	2591.81
981.382	2559.49
981.682	2561.53
981.981	2555.88
982.28	2546.84
982.579	2507.07
982.878	2506.16
983.177	2520.4
983.475	2500.74
983.774	2509.33
984.073	2484.47
984.372	2495.77
984.67	2455.99
984.969	2433.17
985.267	2447.86
985.566	2448.31
985.864	2420.29
986.162	2432.49
986.461	2408.99
986.759	2411.25
987.057	2329.44
987.355	2357.24
987.653	2374.19
987.951	2367.41
988.249	2362.89
988.547	2318.6
988.844	2315.21
989.142	2313.63
989.44	2288.09
989.737	2286.96
990.035	2245.15
990.332	2244.25
990.63	2248.54
990.927	2227.98
991.224	2191.82
991.521	2230.46
991.819	2209.45
992.116	2195.44
992.413	2180.75
992.71	2171.93
993.006	2177.81
993.303	2155.66
993.6	2130.81
993.897	2141.88
994.193	2132.16
994.49	2129
994.787	2096.68
995.083	2097.36
995.379	2098.04
995.676	2058.94
995.972	2091.71
996.268	2055.55
996.565	2021.66
996.861	2006.52
997.157	2016.46
997.453	2014.2
997.749	1992.96
998.044	2011.03
998.34	1979.85
998.636	1973.97
998.932	1955.44
999.227	1954.54
999.523	1955.44
999.818	1935.33
1000.114	1942.34
1000.409	1911.83
1000.704	1897.14
1001	1893.07
1001.295	1894.88
1001.59	1876.8
1001.885	1893.3
1002.18	1860.76
1002.475	1856.69
1002.77	1829.8
1003.065	1814.66
1003.359	1839.06
1003.654	1827.76
1003.949	1814.2
1004.243	1777.37
1004.538	1779.18
1004.832	1784.15
1005.127	1766.97
1005.421	1744.38
1005.715	1738.5
1006.009	1761.1
1006.304	1772.17
1006.598	1699.63
1006.892	1718.84
1007.186	1691.27
1007.48	1649.01
1007.773	1672.29
1008.067	1665.73
1008.361	1670.48
1008.655	1644.26
1008.948	1640.65
1009.242	1655.56
1009.535	1623.25
1009.829	1600.65
1010.122	1602.68
1010.415	1620.08
1010.708	1588.67
1011.001	1580.09
1011.295	1576.02
1011.588	1531.95
1011.881	1544.61
1012.173	1533.31
1012.466	1530.6
1012.759	1521.33
1013.052	1507.09
1013.344	1483.82
1013.637	1491.73
1013.93	1484.04
1014.222	1481.78
1014.514	1461.22
1014.807	1494.21
1015.099	1462.35
1015.391	1475.68
1015.683	1440.65
1015.976	1435
1016.268	1412.41
1016.56	1422.12
1016.851	1418.06
1017.143	1392.52
1017.435	1390.03
1017.727	1397.94
1018.018	1371.28
1018.31	1353.2
1018.602	1383.03
1018.893	1329.02
1019.185	1314.78
1019.476	1328.57
1019.767	1342.8
1020.058	1318.85
1020.35	1291.96
1020.641	1280.88
1020.932	1289.02
1021.223	1294.44
1021.514	1253.09
1021.804	1259.42
1022.095	1266.42
1022.386	1266.42
1022.677	1254.9
1022.967	1211.51
1023.258	1203.6
1023.548	1233.65
1023.839	1223.26
1024.129	1210.83
1024.419	1198.4
1024.709	1185.07
1025	1168.12
1025.29	1151.62
1025.58	1157.27
1025.87	1157.05
1026.16	1140.32
1026.449	1129.7
1026.739	1107.1
1027.029	1131.51
1027.319	1125.63
1027.608	1126.31
1027.898	1092.87
1028.187	1102.36
1028.477	1084.96
1028.766	1082.47
1029.055	1098.52
1029.344	1105.97
1029.634	1095.8
1029.923	1069.59
1030.212	1056.94
1030.501	1075.92
1030.79	1042.47
1031.078	1073.43
1031.367	1022.36
1031.656	1021.46
1031.945	1005.19
1032.233	1021.46
1032.522	1014.45
1032.81	993.66
1033.099	1016.03
1033.387	999.31
1033.675	981.46
1033.963	970.84
1034.251	969.48
1034.54	955.47
1034.828	942.81
1035.116	958.86
1035.403	934.23
1035.691	941.91
1035.979	946.43
1036.267	942.59
1036.554	907.11
1036.842	894.23
1037.129	899.65
1037.417	903.49
1037.704	881.8
1037.992	884.96
1038.279	884.28
1038.566	889.26
1038.853	889.26
1039.14	889.26
