Data from hue_320_FLMS001491_32.txt Node
Date: Mon Feb 06 15:47:06 GMT 2017
User: dcchb
Spectrometer: FLMS00149
Trigger mode: 0
Integration Time (sec): 2.000000E-2
Scans to average: 10
Electric dark correction enabled: true
Nonlinearity correction enabled: false
Boxcar width: 0
XAxis mode: Wavelengths
Number of Pixels in Spectrum: 2048
>>>>>Begin Spectral Data<<<<<
341.393	-21.76
341.776	-21.76
342.16	-21.76
342.543	-75.32
342.927	-70.13
343.31	-71.03
343.693	-77.13
344.077	-70.35
344.46	-56.11
344.843	-54.08
345.226	-59.5
345.61	-24.7
345.993	-12.95
346.376	7.84
346.759	2.87
347.142	25.01
347.525	24.79
347.908	64.33
348.291	90.1
348.674	107.5
349.057	103.43
349.44	131.23
349.823	136.65
350.206	145.69
350.588	192.69
350.971	221.17
351.354	224.33
351.737	244.44
352.119	252.13
352.502	269.07
352.884	267.94
353.267	276.53
353.65	280.6
354.032	289.41
354.414	313.14
354.797	298.23
355.179	311.79
355.562	350.2
355.944	322.86
356.326	302.75
356.709	343.88
357.091	323.54
357.473	336.87
357.855	316.31
358.238	343.65
358.62	326.47
359.002	332.58
359.384	322.63
359.766	328.96
360.148	337.77
360.53	323.31
360.912	352.91
361.294	337.55
361.676	339.36
362.057	333.25
362.439	301.62
362.821	317.66
363.203	309.07
363.584	321.95
363.966	317.21
364.348	327.38
364.729	314.05
365.111	325.8
365.493	312.92
365.874	296.19
366.256	309.98
366.637	306.59
367.019	313.14
367.4	319.47
367.781	302.07
368.163	312.92
368.544	295.29
368.925	306.59
369.306	313.14
369.688	309.75
370.069	307.49
370.45	303.88
370.831	311.56
371.212	295.51
371.593	303.88
371.974	316.31
372.355	303.65
372.736	304.33
373.117	302.97
373.498	317.21
373.879	304.1
374.26	321.05
374.641	314.5
375.021	300.03
375.402	328.73
375.783	333.48
376.163	333.93
376.544	325.12
376.925	341.39
377.305	313.59
377.686	318.79
378.066	301.39
378.447	332.12
378.827	332.8
379.208	332.12
379.588	305.68
379.968	351.56
380.349	337.32
380.729	332.58
381.109	331.22
381.489	325.57
381.87	323.08
382.25	333.25
382.63	349.75
383.01	338.9
383.39	361.5
383.77	342.07
384.15	327.6
384.53	343.42
384.91	331.67
385.29	332.35
385.67	321.28
386.049	364.21
386.429	369.41
386.809	356.53
387.189	365.57
387.568	331.67
387.948	349.98
388.328	369.41
388.707	347.26
389.087	369.41
389.466	346.59
389.846	343.88
390.225	339.36
390.605	375.74
390.984	360.37
391.363	356.53
391.743	357.21
392.122	374.61
392.501	355.17
392.881	379.13
393.26	362.86
393.639	362.18
394.018	385.91
394.397	371.45
394.776	368.28
395.155	361.95
395.534	380.03
395.913	377.55
396.292	366.7
396.671	388.39
397.05	374.83
397.429	378.68
397.808	388.85
398.186	356.3
398.565	385.68
398.944	382.07
399.323	393.37
399.701	402.18
400.08	390.88
400.458	392.91
400.837	398.56
401.215	432.69
401.594	377.77
401.972	390.65
402.351	408.96
402.729	427.49
403.107	409.18
403.486	424.78
403.864	416.19
404.242	428.62
404.62	430.43
404.999	431.33
405.377	423.87
405.755	426.81
406.133	432.46
406.511	424.33
406.889	441.27
407.267	447.83
407.645	428.84
408.023	431.78
408.401	435.4
408.779	466.81
409.156	488.05
409.534	452.12
409.912	498.67
410.29	476.08
410.667	486.02
411.045	479.92
411.422	485.34
411.8	492.57
412.178	486.7
412.555	498.9
412.933	500.93
413.31	530.31
413.687	504.1
414.065	549.52
414.442	532.12
414.819	528.28
415.197	532.34
415.574	552.23
415.951	565.79
416.328	577.99
416.705	564.66
417.082	572.57
417.46	594.49
417.837	573.47
418.214	594.04
418.591	596.3
418.967	614.15
419.344	594.94
419.721	625.22
420.098	611.21
420.475	625
420.852	615.51
421.228	646.47
421.605	658.22
421.982	643.75
422.358	646.47
422.735	669.74
423.111	674.94
423.488	693.24
423.864	685.79
424.241	666.13
424.617	694.6
424.994	671.32
425.37	694.15
425.746	701.61
426.123	721.94
426.499	733.24
426.875	719.91
427.251	749.74
427.627	746.58
428.003	787.25
428.379	753.13
428.756	783.41
429.132	812.79
429.507	787.71
429.883	779.34
430.259	811.43
430.635	848.72
431.011	830.87
431.387	812.56
431.763	827.25
432.138	823.64
432.514	852.11
432.89	831.09
433.265	863.64
433.641	859.57
434.016	905.44
434.392	901.15
434.767	928.04
435.143	916.74
435.518	923.52
435.894	939.79
436.269	919.68
436.644	956.06
437.02	942.5
437.395	992.67
437.77	962.84
438.145	991.54
438.52	989.28
438.895	1019.11
439.271	1015.95
439.646	1019.79
440.021	1000.36
440.395	1040.81
440.77	1052.33
441.145	1018.43
441.52	1036.51
441.895	1048.72
442.27	1043.29
442.645	1051.65
443.019	1076.74
443.394	1083.74
443.769	1066.34
444.143	1079.22
444.518	1079.9
444.892	1071.99
445.267	1117.64
445.641	1111.54
446.016	1116.28
446.39	1137.75
446.764	1129.17
447.139	1099.34
447.513	1148.83
447.887	1121.03
448.262	1126.91
448.636	1151.54
449.01	1122.61
449.384	1147.47
449.758	1150.41
450.132	1151.54
450.506	1182.27
450.88	1188.37
451.254	1166
451.628	1180.69
452.002	1185.21
452.376	1198.77
452.75	1187.47
453.123	1201.03
453.497	1207.58
453.871	1232.44
454.244	1263.17
454.618	1255.72
454.992	1273.12
455.365	1254.81
455.739	1262.5
456.112	1286.22
456.486	1290.74
456.859	1278.99
457.232	1314.92
457.606	1299.56
457.979	1333.91
458.352	1345.88
458.725	1379.78
459.099	1363.06
459.472	1368.48
459.845	1401.25
460.218	1394.69
460.591	1398.08
460.964	1390.63
461.337	1434.47
461.71	1444.19
462.083	1469.04
462.456	1472.21
462.829	1445.54
463.201	1480.12
463.574	1486.22
463.947	1497.74
464.32	1534.8
464.692	1522.38
465.065	1530.96
465.438	1520.12
465.81	1579.32
466.183	1556.72
466.555	1603.28
466.928	1588.81
467.3	1601.92
467.672	1608.02
468.045	1662.03
468.417	1629.27
468.789	1648.47
469.161	1668.36
469.534	1694.35
469.906	1716.49
470.278	1716.27
470.65	1701.81
471.022	1774.35
471.394	1751.97
471.766	1812.76
472.138	1789.94
472.51	1823.61
472.882	1836.72
473.253	1878.98
473.625	1902.93
473.997	1917.17
474.369	1916.26
474.74	1964.62
475.112	1996.26
475.484	1994.91
475.855	1977.05
476.227	2028.35
476.598	2059.31
476.97	2071.97
477.341	2091.63
477.713	2140.44
478.084	2141.12
478.455	2191.51
478.827	2232.41
479.198	2257.95
479.569	2273.32
479.94	2285.74
480.311	2296.14
480.682	2348.12
481.053	2385.4
481.424	2427.44
481.795	2422.69
482.166	2433.76
482.537	2510.82
482.908	2542.91
483.279	2561.22
483.65	2548.11
484.021	2620.65
484.391	2638.96
484.762	2681.67
485.133	2654.77
485.503	2708.11
485.874	2763.47
486.244	2755.11
486.615	2810.7
486.985	2826.3
487.356	2852.96
487.726	2845.96
488.097	2900.64
488.467	2913.98
488.837	2960.98
489.207	2997.14
489.578	3055.89
489.948	3065.61
490.318	3067.42
490.688	3074.42
491.058	3169.56
491.428	3150.13
491.798	3189.22
492.168	3232.84
492.538	3267.64
492.908	3272.84
493.278	3288.66
493.648	3323.68
494.017	3374.3
494.387	3391.93
494.757	3409.56
495.126	3422.66
495.496	3425.15
495.866	3462.89
496.235	3500.18
496.605	3513.96
496.974	3486.62
497.344	3572.49
497.713	3547.41
498.082	3592.83
498.452	3577.01
498.821	3601.19
499.19	3599.83
499.559	3687.97
499.928	3689.78
500.298	3638.25
500.667	3726.39
501.036	3679.83
501.405	3730.23
501.774	3732.71
502.143	3793.95
502.512	3758.25
502.88	3791.02
503.249	3824.01
503.618	3834.63
503.987	3860.17
504.356	3808.42
504.724	3871.69
505.093	3869.43
505.462	3889.54
505.83	3913.05
506.199	3933.84
506.567	3950.11
506.936	3928.87
507.304	3958.02
507.672	4024.46
508.041	4000.73
508.409	4022.42
508.777	4065.81
509.145	4063.55
509.514	4034.85
509.882	4097.45
510.25	4047.96
510.618	4100.61
510.986	4108.3
511.354	4138.8
511.722	4186.94
512.09	4234.39
512.458	4172.25
512.826	4191.01
513.193	4206.6
513.561	4178.58
513.929	4221.06
514.297	4250.89
514.664	4249.76
515.032	4292.7
515.4	4311.45
515.767	4296.54
516.135	4331.57
516.502	4239.14
516.869	4319.59
517.237	4281.85
517.604	4301.06
517.972	4328.4
518.339	4352.13
518.706	4372.02
519.073	4354.17
519.44	4418.34
519.808	4447.27
520.175	4398.91
520.542	4418.34
520.909	4469.87
521.276	4470.55
521.643	4498.79
522.009	4566.36
522.376	4540.37
522.743	4535.18
523.11	4578.57
523.477	4594.61
523.843	4582.63
524.21	4632.12
524.577	4617.66
524.943	4692.24
525.31	4695.85
525.676	4786.24
526.043	4777.43
526.409	4799.13
526.776	4774.95
527.142	4807.03
527.508	4833.47
527.874	4908.05
528.241	4936.75
528.607	4900.59
528.973	4940.82
529.339	4942.85
529.705	4981.49
530.071	5001.15
530.437	5032.34
530.803	5084.32
531.169	5100.36
531.535	5061.49
531.901	5132
532.267	5130.87
532.632	5137.42
532.998	5186.01
533.364	5225.55
533.73	5210.19
534.095	5261.03
534.461	5253.35
534.826	5265.33
535.192	5337.87
535.557	5345.33
535.923	5310.75
536.288	5372.44
536.653	5401.6
537.019	5355.04
537.384	5437.3
537.749	5456.06
538.114	5451.76
538.479	5455.15
538.845	5478.88
539.21	5486.56
539.575	5544.42
539.94	5574.25
540.305	5604.98
540.67	5590.29
541.034	5618.09
541.399	5662.38
541.764	5674.36
542.129	5706.9
542.494	5750.51
542.858	5730.4
543.223	5755.26
543.587	5828.25
543.952	5798.42
544.316	5808.36
544.681	5814.24
545.045	5874.13
545.41	5943.95
545.774	5951.19
546.138	5909.38
546.503	5955.25
546.867	5976.5
547.231	6020.11
547.595	6046.55
547.959	6084.74
548.324	6031.86
548.688	6080.45
549.052	6109.6
549.416	6136.27
549.779	6095.14
550.143	6157.73
550.507	6211.74
550.871	6213.1
551.235	6214.91
551.599	6218.52
551.962	6268.47
552.326	6301.46
552.689	6294.45
553.053	6319.09
553.417	6350.95
553.78	6411.06
554.143	6382.59
554.507	6407.9
554.87	6422.36
555.234	6477.5
555.597	6462.13
555.96	6477.27
556.323	6523.6
556.686	6524.96
557.05	6506.42
557.413	6553.43
557.776	6563.15
558.139	6599.3
558.502	6648.79
558.865	6589.59
559.228	6643.6
559.59	6680.43
559.953	6654.44
560.316	6738.96
560.679	6756.81
561.041	6759.98
561.404	6769.24
561.767	6851.73
562.129	6824.83
562.492	6856.7
562.854	6903.25
563.217	6891.5
563.579	6896.02
563.941	6894.89
564.304	7013.98
564.666	7048.33
565.028	7017.37
565.39	7046.07
565.753	7110.02
566.115	7118.61
566.477	7111.15
566.839	7106.86
567.201	7179.85
567.563	7139.18
567.925	7280.87
568.287	7268.89
568.648	7244.03
569.01	7335.56
569.372	7355.67
569.734	7341.66
570.095	7412.39
570.457	7416.91
570.819	7423.01
571.18	7477.47
571.542	7510.69
571.903	7537.58
572.265	7572.61
572.626	7570.8
572.987	7653.06
573.349	7701.87
573.71	7786.62
574.071	7807.18
574.432	7886.73
574.794	7976.67
575.155	7983.67
575.516	8016.89
575.877	8096.89
576.238	8155.65
576.599	8143.44
576.96	8204.46
577.32	8359.03
577.681	8348.64
578.042	8437.22
578.403	8525.58
578.763	8604
579.124	8694.84
579.485	8830.66
579.845	8921.5
580.206	8942.29
580.566	9099.8
580.927	9232.91
581.287	9375.5
581.648	9377.08
582.008	9560.81
582.368	9739.79
582.728	9861.14
583.089	10036.5
583.449	10137.97
583.809	10375.25
584.169	10551.29
584.529	10637.84
584.889	10842.58
585.249	10973.2
585.609	11162.12
585.969	11424.71
586.329	11506.29
586.688	11801.65
587.048	12020.4
587.408	12270.79
587.768	12482.54
588.127	12696.77
588.487	12868.07
588.846	13224.89
589.206	13366.58
589.565	13640.47
589.925	13963.63
590.284	14171.76
590.643	14422.15
591.003	14759.09
591.362	15005.18
591.721	15252.18
592.08	15494.21
592.44	15862.56
592.799	16093.52
593.158	16340.97
593.517	16585.26
593.876	16873.16
594.235	17235.41
594.593	17538.45
594.952	17840.82
595.311	18092.79
595.67	18382.95
596.029	18736.39
596.387	19060.9
596.746	19461.79
597.104	19669.47
597.463	19850.25
597.822	20339.51
598.18	20499.96
598.538	20756.22
598.897	21160.5
599.255	21346.71
599.613	21950.76
599.972	22020.37
600.33	22213.13
600.688	22511.2
601.046	22944.18
601.404	23225.53
601.762	23494.9
602.12	23837.95
602.478	24092.86
602.836	24265.05
603.194	24486.97
603.552	24859.16
603.91	25032.72
604.268	25301.41
604.625	25537.79
604.983	25764
605.341	26068.17
605.698	26402.4
606.056	26702.28
606.413	26840.13
606.771	27114.02
607.128	27439.89
607.485	27422.03
607.843	27697.05
608.2	28016.37
608.557	28293.87
608.914	28507.65
609.272	28818.61
609.629	29070.13
609.986	29303.34
610.343	29429.66
610.7	29833.72
611.057	29914.62
611.414	30199.14
611.771	30403.88
612.127	30555.96
612.484	30668.73
612.841	30972.67
613.198	31076.4
613.554	31292.67
613.911	31573.34
614.267	31714.35
614.624	31968.58
614.98	31998.18
615.337	32417.38
615.693	32363.82
616.05	32453.54
616.406	32883.13
616.762	32809.69
617.118	32902.12
617.475	33145.05
617.831	33420.75
618.187	33462.1
618.543	33592.04
618.899	33972.6
619.255	34044.46
619.611	34024.57
619.967	34262.53
620.323	34521.06
620.678	34554.73
621.034	34614.84
621.39	34635.63
621.746	34674.27
622.101	35192.45
622.457	35031.1
622.812	35201.26
623.168	35358.32
623.523	35310.87
623.879	35533.68
624.234	35334.82
624.589	35664.3
624.945	35613.68
625.3	35827.46
625.655	35933
626.01	35977.29
626.365	36051.86
626.72	36030.17
627.075	36188.58
627.43	36254.8
627.785	36100
628.14	36326.43
628.495	36275.59
628.85	36419.08
629.205	36338.18
629.559	36564.17
629.914	36544.05
630.269	36639.87
630.623	36562.58
630.978	36666.54
631.332	36742.92
631.687	36884.61
632.041	36723.48
632.396	36836.47
632.75	36678.29
633.104	36876.25
633.459	36814.1
633.813	36801
634.167	36735.91
634.521	36910.15
634.875	36890.03
635.229	36856.81
635.583	36706.08
635.937	36814.78
636.291	36815.23
636.645	36818.85
636.999	36815.23
637.352	36910.37
637.706	36790.6
638.06	36976.81
638.413	36973.19
638.767	36695.46
639.121	36957.6
639.474	36692.52
639.828	36815.68
640.181	36892.97
640.534	36871.05
640.888	36737.04
641.241	36607.55
641.594	36759.41
641.947	36861.11
642.301	36703.37
642.654	36791.73
643.007	36902.24
643.36	36810.49
643.713	36740.88
644.066	36907.89
644.419	36599.42
644.771	36530.95
645.124	36197.17
645.477	36141.13
645.83	35950.85
646.182	35796.5
646.535	35743.85
646.888	35777.29
647.24	35641.93
647.593	35858.87
647.945	35810.06
648.298	35621.59
648.65	35592.67
649.002	35435.61
649.355	35765.32
649.707	35582.95
650.059	35724.64
650.411	36053.9
650.763	36192.88
651.115	36604.62
651.467	36436.71
651.819	36410.05
652.171	36253.89
652.523	36415.02
652.875	36318.3
653.227	36214.57
653.578	36451.17
653.93	36232.42
654.282	36169.37
654.633	36172.99
654.985	36198.3
655.337	36160.11
655.688	36234.23
656.039	36236.26
656.391	35974.58
656.742	36172.31
657.094	36093.44
657.445	36169.15
657.796	36043.5
658.147	36120.34
658.498	36076.95
658.849	36242.14
659.2	36024.29
659.551	35979.77
659.902	36170.73
660.253	36072.2
660.604	36023.39
660.955	35999.89
661.306	36083.95
661.656	36037.4
662.007	36025.2
662.358	36048.02
662.708	36041.24
663.059	35952.2
663.409	35769.61
663.76	36094.8
664.11	36027.23
664.461	36097.96
664.811	36040.11
665.161	36047.57
665.511	35969.61
665.862	35944.52
666.212	36118.75
666.562	36013.67
666.912	36007.34
667.262	35915.37
667.612	35966.89
667.962	35974.58
668.312	35924.63
668.662	35952.43
669.011	35906.33
669.361	35976.84
669.711	35843.51
670.06	35807.12
670.41	35972.99
670.76	35770.51
671.109	35837.18
671.459	35872.21
671.808	35791.08
672.157	35854.13
672.507	35638.31
672.856	35685.32
673.205	35799.67
673.554	35784.98
673.904	35694.13
674.253	35853.22
674.602	35679.9
674.951	35213.01
675.3	34972.34
675.649	35689.61
675.998	35640.8
676.346	35628.37
676.695	35681.25
677.044	35455.49
677.393	35512.22
677.741	35579.33
678.09	35467.25
678.438	35401.26
678.787	35525.1
679.135	35518.54
679.484	35268.38
679.832	35418.43
680.181	35211.88
680.529	35345.89
680.877	35181.15
681.225	35203.75
681.573	35452.78
681.922	35078.1
682.27	34949.74
682.618	35021.16
682.966	34789.07
683.314	34969.18
683.661	34897.77
684.009	34741.84
684.357	34679.02
684.705	34593.82
685.053	34727.6
685.4	34573.71
685.748	34417.56
686.095	34490.55
686.443	34427.05
686.79	34297.56
687.138	34361.51
687.485	34335.3
687.832	34218.46
688.18	34254.62
688.527	34099.82
688.874	34088.07
689.221	34040.84
689.568	33900.05
689.915	33894.63
690.262	33856.67
690.609	33854.18
690.956	33516.34
691.303	33686.73
691.65	33384.14
691.997	33529.44
692.344	33266.17
692.69	33298.71
693.037	33307.08
693.383	33075.22
693.73	33178.49
694.077	33016.24
694.423	32976.01
694.769	32926.3
695.116	32679.3
695.462	32686.08
695.808	32583.25
696.155	32651.27
696.501	32385.74
696.847	32516.59
697.193	32258.97
697.539	32295.58
697.885	32192.76
698.231	31954.57
698.577	32157.73
698.923	31976.49
699.269	31832.76
699.614	31661.47
699.96	31626.44
700.306	31623.5
700.651	31446.33
700.997	31511.19
701.342	31435.04
701.688	31291.54
702.033	31258.99
702.379	31144.87
702.724	31102.61
703.069	31066.46
703.415	30710.53
703.76	30813.58
704.105	30860.36
704.45	30759.12
704.795	30504.89
705.14	30546.24
705.485	30535.4
705.83	30449.52
706.175	30555.06
706.52	30346.48
706.865	30120.95
707.209	30309.19
707.554	29940.16
707.899	30189.87
708.243	29944
708.588	29939.03
708.932	29738.36
709.277	29702.43
709.621	29751.92
709.966	29531.36
710.31	29639.38
710.654	29355.09
710.998	29412.04
711.342	29452.49
711.687	29382.21
712.031	29140.63
712.375	29115.1
712.719	29181.99
713.063	29107.41
713.407	29092.27
713.75	28930.02
714.094	28936.12
714.438	28751.26
714.782	28859.28
715.125	28711.04
715.469	28685.05
715.812	28520.76
716.156	28368.67
716.499	28410.93
716.843	28401.22
717.186	28355.79
717.53	28412.74
717.873	28402.57
718.216	28331.39
718.559	28202.58
718.902	28144.95
719.246	28096.82
719.589	28094.78
719.932	27852.53
720.275	27990.61
720.617	27885.07
720.96	27815.02
721.303	27873.32
721.646	27948.12
721.989	27628.36
722.331	27656.38
722.674	27721.23
723.016	27684.85
723.359	27511.07
723.701	27633.78
724.044	27337.29
724.386	27397.85
724.729	27316.95
725.071	27313.56
725.413	27380
725.755	27352.43
726.097	27191.08
726.439	27015.26
726.782	27060.91
727.124	27161.48
727.465	26959.67
727.807	26947.47
728.149	26932.1
728.491	26958.32
728.833	26933.23
729.175	26889.84
729.516	26760.36
729.858	26697.08
730.199	26787.93
730.541	26625.67
730.882	26628.61
731.224	26792.67
731.565	26476.52
731.906	26609.17
732.248	26483.75
732.589	26396.75
732.93	26385.45
733.271	26459.57
733.612	26311.1
733.953	26361.72
734.294	26246.02
734.635	26220.03
734.976	26286.7
735.317	26115.4
735.658	26011.22
735.999	26114.5
736.339	25927.16
736.68	26068.17
737.021	26002.41
737.361	25843.09
737.702	25939.36
738.042	25906.14
738.383	25799.25
738.723	25779.82
739.063	25771.91
739.404	25721.74
739.744	25738.69
740.084	25673.15
740.424	25698.24
740.764	25653.27
741.104	25663.21
741.444	25527.17
741.784	25434.51
742.124	25384.8
742.464	25482.2
742.804	25368.3
743.143	25283.33
743.483	25422.54
743.823	25203.11
744.162	25286.95
744.502	25235.88
744.841	25073.17
745.181	25199.27
745.52	25079.5
745.86	25110.23
746.199	25002.66
746.538	24952.49
746.877	24907.07
747.216	25015.77
747.556	24887.18
747.895	24943
748.234	24811.93
748.573	24769.45
748.911	24727.64
749.25	24776.68
749.589	24546.63
749.928	24627.76
750.267	24547.31
750.605	24555.89
750.944	24524.93
751.283	24416.24
751.621	24470.7
751.96	24387.99
752.298	24232.74
752.636	24290.36
752.975	24239.74
753.313	24140.31
753.651	24252.4
753.989	24063.48
754.327	24016.7
754.666	23937.83
755.004	23946.19
755.342	23980.09
755.679	23921.56
756.017	23744.16
756.355	23819.64
756.693	23718.18
757.031	23770.15
757.368	23649.93
757.706	23645.64
758.044	23374
758.381	23430.05
758.719	23338.52
759.056	23462.14
759.394	23281.13
759.731	23147.34
760.068	23148.7
760.405	23043.84
760.743	22927.01
761.08	22963.39
761.417	22986.44
761.754	22761.14
762.091	22815.15
762.428	22728.15
762.765	22481.6
763.102	22575.16
763.438	22568.38
763.775	22372.22
764.112	22370.87
764.449	22374.71
764.785	22225.11
765.122	22140.59
765.458	21993.25
765.795	22001.38
766.131	21961.16
766.467	21916.19
766.804	21734.27
767.14	21586.25
767.476	21683.2
767.812	21530.21
768.148	21578.8
768.485	21485.01
768.821	21429.87
769.157	21372.93
769.492	21266.26
769.828	21209.54
770.164	21121.86
770.5	21085.02
770.836	21060.84
771.171	21010.9
771.507	20920.96
771.842	20719.61
772.178	20724.13
772.513	20695.2
772.849	20662.89
773.184	20522.78
773.519	20445.49
773.855	20400.97
774.19	20291.37
774.525	20323.24
774.86	20267.65
775.195	20184.94
775.53	19930.48
775.865	20012.28
776.2	19880.54
776.535	19679.64
776.87	19716.93
777.205	19555.35
777.539	19551.73
777.874	19575.91
778.209	19433.54
778.543	19455.91
778.878	19183.61
779.212	19344.96
779.547	19154.91
779.881	19184.74
780.215	19066.32
780.55	19000.33
780.884	18923.5
781.218	18843.5
781.552	18930.96
781.886	18752.2
782.22	18674.69
782.554	18616.16
782.888	18404.42
783.222	18337.53
783.556	18297.53
783.889	18227.7
784.223	18170.53
784.557	18012.79
784.89	18122.39
785.224	18112.45
785.557	17977.99
785.891	17867.48
786.224	17879.23
786.558	17845.34
786.891	17645.12
787.224	17588.39
787.557	17587.94
787.891	17464.33
788.224	17470.66
788.557	17416.87
788.89	17387.27
789.223	17253.71
789.556	17226.37
789.888	17089.42
790.221	17159.93
790.554	16992.48
790.887	17079.71
791.219	16937.34
791.552	16891.46
791.884	16861.86
792.217	16798.13
792.549	16777.12
792.882	16676.55
793.214	16579.83
793.546	16533.28
793.879	16427.75
794.211	16387.75
794.543	16408.31
794.875	16308.43
795.207	16335.77
795.539	16263.68
795.871	16243.8
796.203	16089.68
796.535	15989.57
796.867	15935.1
797.198	15867.53
797.53	15944.59
797.862	15818.04
798.193	15758.39
798.525	15753.41
798.856	15711.38
799.188	15528.11
799.519	15632.06
799.85	15398.85
800.182	15442.69
800.513	15435.91
800.844	15258.51
801.175	15437.49
801.506	15339.64
801.837	15255.35
802.168	15237.49
802.499	15101
802.83	15070.27
803.161	15018.29
803.491	14968.35
803.822	14987.33
804.153	14937.84
804.483	14871.63
804.814	14844.06
805.145	14815.81
805.475	14766.77
805.805	14669.37
806.136	14682.93
806.466	14650.62
806.796	14551.19
807.126	14589.15
807.457	14526.55
807.787	14466.89
808.117	14381.25
808.447	14363.17
808.777	14390.06
809.107	14282.04
809.436	14248.82
809.766	14320
810.096	14207.24
810.426	14091.31
810.755	14038.66
811.085	14089.73
811.414	14101.25
811.744	14034.36
812.073	13954.36
812.403	13878.43
812.732	13861.26
813.061	13856.06
813.39	13760.47
813.719	13716.63
814.049	13759.79
814.378	13719.12
814.707	13638.21
815.036	13688.38
815.365	13582.4
815.693	13436.19
816.022	13468.5
816.351	13358.9
816.68	13310.31
817.008	13526.35
817.337	13241.84
817.665	13249.98
817.994	13281.16
818.322	13257.43
818.651	13209.98
818.979	13132.92
819.307	13276.64
819.636	13119.58
819.964	13048.63
820.292	13116.19
820.62	13074.39
820.948	12993.03
821.276	13034.16
821.604	13045.24
821.932	13061.05
822.259	13000.27
822.587	13040.72
822.915	12965.46
823.243	12954.84
823.57	12903.32
823.898	12980.15
824.225	12948.29
824.553	12934.28
824.88	12939.48
825.207	12982.86
825.535	12974.28
825.862	12969.76
826.189	12916.65
826.516	13054.73
826.843	12995.29
827.17	13080.94
827.497	13039.13
827.824	13025.12
828.151	13034.61
828.478	12977.44
828.805	13050.66
829.131	12978.35
829.458	12963.66
829.785	12883.21
830.111	12932.24
830.438	12927.73
830.764	12932.02
831.09	12887.5
831.417	12923.66
831.743	12933.15
832.069	12867.84
832.395	12880.72
832.722	12985.12
833.048	12853.38
833.374	12897.9
833.7	12748.07
834.026	12810.21
834.351	12734.74
834.677	12826.48
835.003	12834.85
835.329	12791.23
835.654	12794.4
835.98	12684.57
836.306	12688.64
836.631	12706.71
836.956	12639.82
837.282	12704.23
837.607	12619.03
837.932	12592.14
838.258	12543.33
838.583	12624.23
838.908	12508.3
839.233	12623.55
839.558	12431.69
839.883	12457.91
840.208	12452.03
840.533	12369.77
840.858	12419.26
841.182	12450
841.507	12308.76
841.832	12294.07
842.156	12252.49
842.481	12341.75
842.805	12293.39
843.13	12266.5
843.454	12228.31
843.778	12138.82
844.103	12139.72
844.427	12155.77
844.751	12050.23
845.075	12098.82
845.399	12058.37
845.723	11932.5
846.047	11961.42
846.371	11849.34
846.695	11878.94
847.019	11721.88
847.343	11697.02
847.666	11700.41
847.99	11616.12
848.313	11640.98
848.637	11624.03
848.96	11619.06
849.284	11464.03
849.607	11408.89
849.931	11314.66
850.254	11283.25
850.577	11296.36
850.9	11238.96
851.223	11205.74
851.546	11140.2
851.869	11063.59
852.192	11150.14
852.515	11021.33
852.838	10917.83
853.161	10952.86
853.483	10932.3
853.806	10865.41
854.129	10801.91
854.451	10848.01
854.774	10751.29
855.096	10687.56
855.419	10727.33
855.741	10626.54
856.063	10558.07
856.385	10579.76
856.708	10523.95
857.03	10485.3
857.352	10537.51
857.674	10406.89
857.996	10461.35
858.318	10376.38
858.64	10405.76
858.961	10411.86
859.283	10278.98
859.605	10238.76
859.926	10256.61
860.248	10280.56
860.57	10226.55
860.891	10226.1
861.212	10135.26
861.534	10119.66
861.855	10054.13
862.176	10120.34
862.498	10030.4
862.819	10095.94
863.14	10059.55
863.461	10004.86
863.782	9984.75
864.103	9963.51
864.424	10002.6
864.745	9940.01
865.065	9924.19
865.386	9871.08
865.707	9879.67
866.027	9914.02
866.348	9840.35
866.668	9801.93
866.989	9798.77
867.309	9734.59
867.63	9817.98
867.95	9765.32
868.27	9653.69
868.59	9716.06
868.91	9665.44
869.23	9671.09
869.55	9650.98
869.87	9671.31
870.19	9580.47
870.51	9656.85
870.83	9603.74
871.15	9561.94
871.469	9587.47
871.789	9548.15
872.109	9579.34
872.428	9508.83
872.748	9532.11
873.067	9512.22
873.386	9476.74
873.706	9441.94
874.025	9469.96
874.344	9378.21
874.663	9472.9
874.982	9394.48
875.301	9326.24
875.62	9384.32
875.939	9335.73
876.258	9325.11
876.577	9321.72
876.896	9315.39
877.214	9260.93
877.533	9273.36
877.852	9248.73
878.17	9309.06
878.489	9185.9
878.807	9229.07
879.125	9159.69
879.444	9216.41
879.762	9187.71
880.08	9192.68
880.398	9108.39
880.716	9123.53
881.034	9065.68
881.352	9135.96
881.67	9075.17
881.988	9101.61
882.306	8999.92
882.624	8971.44
882.941	8989.07
883.259	8955.85
883.577	8879.02
883.894	8891.45
884.212	8875.18
884.529	8896.42
884.846	8831.11
885.164	8837.89
885.481	8777.78
885.798	8837.89
886.115	8783.65
886.432	8730.32
886.75	8742.07
887.067	8718.8
887.383	8672.7
887.7	8624.34
888.017	8696.65
888.334	8576.43
888.651	8594.51
888.967	8624.56
889.284	8549.76
889.6	8531
889.917	8469.76
890.233	8515.64
890.55	8439.71
890.866	8476.09
891.182	8375.08
891.498	8366.04
891.815	8327.17
892.131	8371.46
892.447	8352.93
892.763	8269.54
893.079	8208.98
893.395	8177.34
893.71	8165.59
894.026	8224.57
894.342	8175.76
894.657	8061.41
894.973	8083.33
895.289	8131.24
895.604	8082.43
895.92	7947.52
896.235	7967.18
896.55	7999.04
896.865	7896.9
897.181	7926.73
897.496	7931.02
897.811	7887.63
898.126	7822.55
898.441	7867.29
898.756	7786.17
899.071	7802.66
899.386	7727.64
899.7	7697.13
900.015	7679.5
900.33	7651.48
900.644	7631.37
900.959	7654.19
901.273	7586.4
901.588	7554.76
901.902	7501.88
902.216	7480.64
902.531	7444.03
902.845	7419.17
903.159	7373.75
903.473	7398.38
903.787	7357.02
904.101	7317.03
904.415	7296.69
904.729	7294.43
905.042	7239.29
905.356	7204.26
905.67	7245.16
905.984	7164.94
906.297	7159.52
906.611	7129.69
906.924	7100.53
907.237	7080.65
907.551	7076.58
907.864	6995
908.177	6993.64
908.491	7044.04
908.804	6956.13
909.117	6894.66
909.43	6856.7
909.743	6836.36
910.056	6814.44
910.368	6770.82
910.681	6781.45
910.994	6704.16
911.307	6727.89
911.619	6685.63
911.932	6625.74
912.244	6649.02
912.557	6614.44
912.869	6533.77
913.181	6570.6
913.494	6592.98
913.806	6478.18
914.118	6499.87
914.43	6423.04
914.742	6418.07
915.054	6423.94
915.366	6375.81
915.678	6346.88
915.99	6296.71
916.302	6219.65
916.613	6220.33
916.925	6239.09
917.236	6221.69
917.548	6163.61
917.859	6189.6
918.171	6137.17
918.482	6138.53
918.794	6118.86
919.105	6105.31
919.416	6043.84
919.727	6031.64
920.038	6032.09
920.349	5961.13
920.66	5894.01
920.971	5911.86
921.282	5872.77
921.593	5840.23
921.903	5805.88
922.214	5822.38
922.525	5770.4
922.835	5732.43
923.146	5760.46
923.456	5738.54
923.767	5716.16
924.077	5666.9
924.387	5665.54
924.697	5619.44
925.008	5602.49
925.318	5590.52
925.628	5583.74
925.938	5579.67
926.248	5470.75
926.558	5459.67
926.867	5481.82
927.177	5456.96
927.487	5380.8
927.796	5357.53
928.106	5383.06
928.416	5336.74
928.725	5343.29
929.034	5309.39
929.344	5317.98
929.653	5300.81
929.962	5194.82
930.271	5212.22
930.581	5195.72
930.89	5196.18
931.199	5108.72
931.508	5093.58
931.817	5092.45
932.125	5091.32
932.434	5112.11
932.743	5022.4
933.051	4973.36
933.36	4998.44
933.669	4980.82
933.977	4941.49
934.286	4894.04
934.594	4922.29
934.902	4903.08
935.21	4855.62
935.519	4851.55
935.827	4785.34
936.135	4807.71
936.443	4811.55
936.751	4765.23
937.059	4741.5
937.367	4722.74
937.674	4687.72
937.982	4656.98
938.29	4647.94
938.597	4641.84
938.905	4622.41
939.213	4595.97
939.52	4562.97
939.827	4572.92
940.135	4536.99
940.442	4535.86
940.749	4509.87
941.056	4528.62
941.363	4486.37
941.67	4462.18
941.977	4437.33
942.284	4377.44
942.591	4350.78
942.898	4389.42
943.205	4393.71
943.511	4384.22
943.818	4278.01
944.125	4328.18
944.431	4263.55
944.738	4260.61
945.044	4263.55
945.35	4240.95
945.657	4242.3
945.963	4208.63
946.269	4170.89
946.575	4184.45
946.881	4139.71
947.187	4197.33
947.493	4155.53
947.799	4137.45
948.105	4082.76
948.41	4072.82
948.716	4000.73
949.022	4038.24
949.327	3979.26
949.633	3979.03
949.938	3980.39
950.244	3961.41
950.549	3896.55
950.854	3930.67
951.16	3870.11
951.465	3890.67
951.77	3876.89
952.075	3843.9
952.38	3856.78
952.685	3806.16
952.99	3796.44
953.294	3815.87
953.599	3840.51
953.904	3746.5
954.209	3743.11
954.513	3802.32
954.818	3693.17
955.122	3687.97
955.426	3653.39
955.731	3681.41
956.035	3645.03
956.339	3636.9
956.643	3654.07
956.948	3589.21
957.252	3563.9
957.556	3521.19
957.86	3513.06
958.163	3538.37
958.467	3536.11
958.771	3528.88
959.075	3507.63
959.378	3481.19
959.682	3493.62
959.985	3436.45
960.289	3440.29
960.592	3404.36
960.896	3419.95
961.199	3401.65
961.502	3379.73
961.805	3367.07
962.108	3351.03
962.411	3353.97
962.714	3341.31
963.017	3260.63
963.32	3251.6
963.623	3290.92
963.926	3271.93
964.228	3224.25
964.531	3210.47
964.833	3226.29
965.136	3172.73
965.438	3177.7
965.741	3193.52
966.043	3188.77
966.345	3141.99
966.648	3139.51
966.95	3107.42
967.252	3089.79
967.554	3119.17
967.856	3068.1
968.158	3045.5
968.46	3049.34
968.761	3066.97
969.063	3019.96
969.365	3024.48
969.666	3003.24
969.968	2968.66
970.269	2993.52
970.571	2954.88
970.872	2948.78
971.174	2893.86
971.475	2921.43
971.776	2952.62
972.077	2866.52
972.378	2871.94
972.679	2871.49
972.98	2835.56
973.281	2867.42
973.582	2872.62
973.883	2841.66
974.183	2794.88
974.484	2800.76
974.785	2771.83
975.085	2796.01
975.386	2809.12
975.686	2763.92
975.986	2774.55
976.287	2738.84
976.587	2713.76
976.887	2683.47
977.187	2704.94
977.487	2692.74
977.787	2682.57
978.087	2685.96
978.387	2595.79
978.687	2663.14
978.987	2612.97
979.286	2608.45
979.586	2617.49
979.885	2601.44
980.185	2604.38
980.484	2622.91
980.784	2575
981.083	2587.88
981.382	2546.08
981.682	2521.22
981.981	2499.52
982.28	2490.49
982.579	2462.46
982.878	2493.2
983.177	2487.55
983.475	2488.23
983.774	2447.32
984.073	2447.1
984.372	2388.57
984.67	2428.79
984.969	2425.4
985.267	2377.72
985.566	2371.17
985.864	2401.22
986.162	2321.22
986.461	2373.43
986.759	2306.31
987.057	2341.11
987.355	2305.63
987.653	2322.81
987.951	2299.08
988.249	2308.12
988.547	2307.89
988.844	2272.86
989.142	2253.88
989.44	2253.88
989.737	2252.3
990.035	2252.07
990.332	2230.61
990.63	2184.5
990.927	2189.02
991.224	2200.55
991.521	2191.51
991.819	2158.06
992.116	2160.55
992.413	2144.73
992.71	2163.04
993.006	2120.55
993.303	2125.52
993.6	2137.73
993.897	2126.88
994.193	2117.61
994.49	2072.19
994.787	2078.74
995.083	2063.6
995.379	2071.74
995.676	2033.77
995.972	2068.8
996.268	2047.11
996.565	2005.3
996.861	1998.29
997.157	1979.99
997.453	2017.73
997.749	1995.13
998.044	1985.64
998.34	1973.44
998.636	1955.36
998.932	1954
999.227	1914.91
999.523	1911.97
999.818	1916.49
1000.114	1900.9
1000.409	1889.15
1000.704	1853.67
1001	1855.25
1001.295	1883.5
1001.59	1863.61
1001.885	1831.75
1002.18	1824.74
1002.475	1802.14
1002.77	1821.12
1003.065	1797.85
1003.359	1782.03
1003.654	1772.76
1003.949	1790.39
1004.243	1760.34
1004.538	1753.78
1004.832	1736.38
1005.127	1751.75
1005.421	1727.34
1005.715	1733.44
1006.009	1703.39
1006.304	1694.35
1006.598	1686.21
1006.892	1671.98
1007.186	1681.69
1007.48	1657.74
1007.773	1643.05
1008.067	1630.62
1008.361	1616.61
1008.655	1647.34
1008.948	1617.97
1009.242	1587.46
1009.535	1603.73
1009.829	1600.57
1010.122	1582.26
1010.415	1558.53
1010.708	1575.48
1011.001	1554.69
1011.295	1527.8
1011.588	1518.99
1011.881	1536.84
1012.173	1540.45
1012.466	1533.9
1012.759	1512.66
1013.052	1483.51
1013.344	1511.98
1013.637	1482.38
1013.93	1480.57
1014.222	1469.27
1014.514	1481.47
1014.807	1437.63
1015.099	1416.16
1015.391	1453.45
1015.683	1438.31
1015.976	1412.1
1016.268	1409.84
1016.56	1397.18
1016.851	1411.87
1017.143	1384.53
1017.435	1383.85
1017.727	1386.11
1018.018	1339.1
1018.31	1357.86
1018.602	1349.5
1018.893	1342.27
1019.185	1330.29
1019.476	1329.16
1019.767	1318.09
1020.058	1286.22
1020.35	1299.1
1020.641	1283.74
1020.932	1270.86
1021.223	1273.57
1021.514	1253.46
1021.804	1260.91
1022.095	1215.94
1022.386	1235.6
1022.677	1246.22
1022.967	1218.88
1023.258	1201.93
1023.548	1232.44
1023.839	1192.44
1024.129	1198.54
1024.419	1219.11
1024.709	1170.75
1025	1187.24
1025.29	1176.4
1025.58	1158.77
1025.87	1129.39
1026.16	1129.17
1026.449	1187.47
1026.739	1116.96
1027.029	1115.83
1027.319	1100.01
1027.608	1116.06
1027.898	1113.12
1028.187	1088.26
1028.477	1074.48
1028.766	1090.75
1029.055	1032.9
1029.344	1086.23
1029.634	1058.66
1029.923	1033.8
1030.212	1060.92
1030.501	1024.76
1030.79	1051.43
1031.078	1034.03
1031.367	1020.02
1031.656	999.9
1031.945	1009.85
1032.233	1008.72
1032.522	1005.78
1032.81	990.86
1033.099	965.1
1033.387	955.61
1033.675	987.7
1033.963	954.03
1034.251	943.18
1034.54	943.63
1034.828	956.29
1035.116	942.05
1035.403	947.93
1035.691	935.5
1035.979	946.35
1036.267	908.83
1036.554	901.6
1036.842	929.17
1037.129	922.84
1037.417	877.42
1037.704	895.95
1037.992	857.76
1038.279	887.82
1038.566	872.22
1038.853	872.22
1039.14	872.22
