Data from hue_320_FLMS001491_90.txt Node
Date: Mon Feb 06 15:47:50 GMT 2017
User: dcchb
Spectrometer: FLMS00149
Trigger mode: 0
Integration Time (sec): 2.000000E-2
Scans to average: 10
Electric dark correction enabled: true
Nonlinearity correction enabled: false
Boxcar width: 0
XAxis mode: Wavelengths
Number of Pixels in Spectrum: 2048
>>>>>Begin Spectral Data<<<<<
341.393	-5.62
341.776	-5.62
342.16	-5.62
342.543	-58.95
342.927	-53.76
343.31	-74.32
343.693	-69.57
344.077	-61.21
344.46	-43.59
344.843	-61.67
345.226	-43.36
345.61	-30.93
345.993	-3.14
346.376	-6.53
346.759	6.36
347.142	44.55
347.525	16.3
347.908	58.56
348.291	75.28
348.674	104.88
349.057	88.39
349.44	134.26
349.823	146.92
350.206	157.31
350.588	199.12
350.971	207.25
351.354	234.6
351.737	244.09
352.119	264.88
352.502	271.66
352.884	266.91
353.267	274.37
353.65	296.07
354.032	289.96
354.414	305.56
354.797	322.28
355.179	320.47
355.562	325.9
355.944	340.81
356.326	329.51
356.709	329.74
357.091	338.78
357.473	322.05
357.855	313.69
358.238	341.49
358.62	350.75
359.002	335.39
359.384	348.04
359.766	338.78
360.148	347.59
360.53	347.14
360.912	340.13
361.294	337.65
361.676	336.06
362.057	341.04
362.439	332.45
362.821	343.3
363.203	330.19
363.584	330.87
363.966	322.96
364.348	318.44
364.729	325.22
365.111	308.27
365.493	305.1
365.874	299.23
366.256	318.66
366.637	299.91
367.019	320.47
367.4	316.63
367.781	298.33
368.163	330.87
368.544	321.15
368.925	305.33
369.306	330.64
369.688	309.85
370.069	303.3
370.45	329.29
370.831	318.66
371.212	300.81
371.593	318.89
371.974	310.98
372.355	323.41
372.736	329.29
373.117	315.95
373.498	321.83
373.879	326.35
374.26	314.14
374.641	297.65
375.021	318.66
375.402	327.93
375.783	330.87
376.163	322.73
376.544	327.03
376.925	331.54
377.305	329.06
377.686	322.28
378.066	323.41
378.447	313.24
378.827	334.71
379.208	331.32
379.588	324.09
379.968	336.06
380.349	338.32
380.729	354.6
381.109	339.68
381.489	336.06
381.87	335.84
382.25	342.62
382.63	323.86
383.01	341.26
383.39	346.01
383.77	346.23
384.15	345.33
384.53	338.78
384.91	349.62
385.29	367.48
385.67	340.13
386.049	355.27
386.429	352.79
386.809	339.68
387.189	343.97
387.568	350.75
387.948	331.09
388.328	368.61
388.707	356.18
389.087	343.52
389.466	371.32
389.846	348.27
390.225	380.13
390.605	357.53
390.984	355.95
391.363	355.5
391.743	386.91
392.122	374.71
392.501	379.45
392.881	393.46
393.26	377.42
393.639	376.74
394.018	362.28
394.397	372
394.776	383.75
395.155	382.62
395.534	375.39
395.913	386.46
396.292	367.7
396.671	374.26
397.05	386.68
397.429	382.84
397.808	378.1
398.186	400.92
398.565	371.32
398.944	402.28
399.323	407.93
399.701	376.06
400.08	398.89
400.458	409.06
400.837	422.39
401.215	404.09
401.594	424.2
401.972	423.75
402.351	408.38
402.729	426.46
403.107	447.02
403.486	418.32
403.864	432.56
404.242	407.93
404.62	421.03
404.999	437.08
405.377	418.1
405.755	428.94
406.133	431.66
406.511	440.69
406.889	435.27
407.267	443.41
407.645	456.51
408.023	464.2
408.401	461.03
408.779	450.19
409.156	463.74
409.534	480.47
409.912	470.98
410.29	497.87
410.667	504.87
411.045	495.61
411.422	487.25
411.8	501.94
412.178	502.16
412.555	497.19
412.933	528.6
413.31	531.77
413.687	516.17
414.065	527.92
414.442	544.42
414.819	549.39
415.197	547.58
415.574	577.87
415.951	569.73
416.328	581.03
416.705	562.5
417.082	596.4
417.46	593.68
417.837	592.33
418.214	595.94
418.591	625.1
418.967	590.52
419.344	612.89
419.721	633.23
420.098	637.75
420.475	653.57
420.852	653.8
421.228	654.25
421.605	652.67
421.982	671.42
422.358	680.69
422.735	700.8
423.111	701.48
423.488	677.98
423.864	703.06
424.241	699.44
424.617	700.35
424.994	706.22
425.37	736.05
425.746	713.91
426.123	736.51
426.499	772.66
426.875	746.22
427.251	753.23
427.627	763.85
428.003	777.18
428.379	767.92
428.756	790.29
429.132	778.76
429.507	789.61
429.883	802.94
430.259	818.31
430.635	816.73
431.011	856.95
431.387	873.23
431.763	830.51
432.138	864.86
432.514	867.8
432.89	867.35
433.265	888.37
433.641	910.06
434.016	915.03
434.392	942.6
434.767	925.88
435.143	908.93
435.518	936.27
435.894	941.47
436.269	941.47
436.644	1020.57
437.02	981.7
437.395	989.83
437.77	1011.3
438.145	1013.11
438.52	1041.81
438.895	1026.22
439.271	1007.46
439.646	1051.75
440.021	1050.85
440.395	1070.28
440.77	1058.31
441.145	1056.72
441.52	1091.3
441.895	1092.88
442.27	1089.27
442.645	1102.15
443.019	1089.04
443.394	1123.16
443.769	1110.28
444.143	1090.17
444.518	1128.36
444.892	1110.96
445.267	1108.93
445.641	1136.5
446.016	1143.05
446.39	1133.56
446.764	1131.07
447.139	1148.25
447.513	1168.36
447.887	1167.68
448.262	1177.4
448.636	1169.04
449.01	1183.27
449.384	1192.99
449.758	1166.55
450.132	1208.13
450.506	1200.67
450.88	1225.08
451.254	1180.56
451.628	1201.58
452.002	1243.16
452.376	1222.59
452.75	1264.18
453.123	1244.29
453.497	1312.54
453.871	1257.17
454.244	1282.48
454.618	1282.25
454.992	1291.52
455.365	1305.3
455.739	1291.97
456.112	1299.2
456.486	1327.9
456.859	1379.43
457.232	1369.94
457.606	1353.66
457.979	1369.94
458.352	1386.43
458.725	1407.67
459.099	1411.52
459.472	1444.28
459.845	1443.83
460.218	1434.34
460.591	1428.01
460.964	1448.13
461.337	1477.5
461.71	1475.02
462.083	1521.8
462.456	1510.05
462.829	1549.59
463.201	1539.2
463.574	1528.12
463.947	1557.5
464.32	1574.45
464.692	1582.13
465.065	1576.94
465.438	1575.13
465.81	1631.4
466.183	1666.65
466.555	1663.71
466.928	1665.07
467.3	1648.57
467.672	1633.21
468.045	1708.68
468.417	1708.46
468.789	1729.02
469.161	1731.06
469.534	1755.01
469.906	1766.54
470.278	1776.03
470.65	1786.42
471.022	1835.23
471.394	1848.57
471.766	1887.66
472.138	1890.15
472.51	1917.49
472.882	1920.43
473.253	1929.7
473.625	1960.65
473.997	1978.96
474.369	2003.14
474.74	2026.42
475.112	2012.18
475.484	2055.34
475.855	2103.02
476.227	2122.91
476.598	2153.64
476.97	2180.08
477.341	2190.71
477.713	2234.77
478.084	2238.39
478.455	2268.44
478.827	2262.12
479.198	2340.08
479.569	2362.9
479.94	2392.06
480.311	2409.91
480.682	2470.47
481.053	2491.71
481.424	2511.15
481.795	2560.86
482.166	2566.74
482.537	2628.66
482.908	2639.51
483.279	2653.52
483.65	2690.13
484.021	2720.41
484.391	2763.57
484.762	2758.37
485.133	2790.46
485.503	2806.96
485.874	2894.42
486.244	2856.22
486.615	2883.79
486.985	2975.77
487.356	3004.92
487.726	3030.23
488.097	3029.55
488.467	3077.46
488.837	3095.77
489.207	3119.49
489.578	3178.02
489.948	3200.62
490.318	3218.25
490.688	3237.68
491.058	3277.46
491.428	3330.79
491.798	3362.88
492.168	3412.14
492.538	3361.75
492.908	3402.2
493.278	3436.55
493.648	3435.19
494.017	3476.32
494.387	3505.47
494.757	3569.88
495.126	3569.88
495.496	3545.47
495.866	3609.65
496.235	3601.97
496.605	3657.79
496.974	3662.08
497.344	3705.02
497.713	3692.59
498.082	3697.33
498.452	3741.4
498.821	3796.31
499.19	3759.25
499.559	3820.27
499.928	3845.58
500.298	3822.98
500.667	3845.8
501.036	3865.01
501.405	3899.81
501.774	3916.76
502.143	3896.65
502.512	3963.31
502.88	3999.7
503.249	3960.38
503.618	3975.97
503.987	3982.52
504.356	4022.75
504.724	4027.94
505.093	4072.46
505.462	4078.34
505.83	4095.97
506.199	4160.6
506.567	4136.87
506.936	4094.84
507.304	4190.88
507.672	4179.81
508.041	4179.58
508.409	4246.92
508.777	4247.15
509.145	4218
509.514	4240.59
509.882	4291.67
510.25	4284.89
510.618	4291.89
510.986	4352
511.354	4330.54
511.722	4397.88
512.09	4388.84
512.458	4398.78
512.826	4407.82
513.193	4419.12
513.561	4454.37
513.929	4424.32
514.297	4462.06
514.664	4519.23
515.032	4533.24
515.4	4514.49
515.767	4546.58
516.135	4547.25
516.502	4551.1
516.869	4606.69
517.237	4639.68
517.604	4585.44
517.972	4589.29
518.339	4680.36
518.706	4624.99
519.073	4657.08
519.44	4722.39
519.808	4713.58
520.175	4695.05
520.542	4764.87
520.909	4740.92
521.276	4759
521.643	4819.11
522.009	4833.35
522.376	4822.27
522.743	4879
523.11	4901.82
523.477	4961.93
523.843	4950.41
524.21	4990.86
524.577	4988.6
524.943	5019.33
525.31	5049.39
525.676	5041.93
526.043	5092.32
526.409	5145.88
526.776	5162.83
527.142	5133.23
527.508	5211.42
527.874	5281.92
528.241	5267.01
528.607	5267.46
528.973	5263.62
529.339	5318.31
529.705	5377.29
530.071	5400.11
530.437	5392.2
530.803	5451.64
531.169	5442.6
531.535	5449.6
531.901	5510.17
532.267	5464.07
532.632	5511.07
532.998	5510.84
533.364	5524.85
533.73	5597.85
534.095	5649.15
534.461	5694.79
534.826	5695.7
535.192	5690.73
535.557	5713.55
535.923	5736.37
536.288	5766.43
536.653	5785.41
537.019	5788.35
537.384	5836.26
537.749	5869.93
538.114	5876.26
538.479	5883.26
538.845	5901.79
539.21	5916.03
539.575	5946.31
539.94	5986.76
540.305	6039.64
540.67	6051.17
541.034	6096.59
541.399	6034.67
541.764	6090.94
542.129	6111.28
542.494	6138.4
542.858	6230.82
543.223	6223.37
543.587	6226.76
543.952	6231.95
544.316	6229.47
544.681	6267.66
545.045	6324.16
545.41	6297.26
545.774	6377.04
546.138	6357.83
546.503	6430.37
546.867	6448.67
547.231	6496.35
547.595	6484.83
547.959	6435.34
548.324	6509.69
548.688	6487.77
549.052	6518.05
549.416	6547.43
549.779	6640.08
550.143	6590.59
550.507	6668.33
550.871	6647.09
551.235	6633.3
551.599	6703.13
551.962	6794.43
552.326	6767.76
552.689	6773.64
553.053	6790.13
553.417	6834.88
553.78	6895.89
554.143	6865.84
554.507	6857.7
554.87	6907.42
555.234	7008.21
555.597	6941.31
555.96	6959.39
556.323	6993.29
556.686	7033.06
557.05	7104.25
557.413	7042.1
557.776	7025.61
558.139	7097.69
558.502	7086.4
558.865	7131.59
559.228	7174.08
559.59	7196
559.953	7187.86
560.316	7325.94
560.679	7327.07
561.041	7267.63
561.404	7358.48
561.767	7432.15
562.129	7381.98
562.492	7424.47
562.854	7380.17
563.217	7421.53
563.579	7451.36
563.941	7511.47
564.304	7572.03
564.666	7547.17
565.028	7629.21
565.39	7562.99
565.753	7636.44
566.115	7671.24
566.477	7674.18
566.839	7711.46
567.201	7776.77
567.563	7767.51
567.925	7770.67
568.287	7831.91
568.648	7855.87
569.01	7964.11
569.372	7949.88
569.734	7962.76
570.095	8053.38
570.457	8132.92
570.819	8108.06
571.18	8064.45
571.542	8118.23
571.903	8158.46
572.265	8198.46
572.626	8228.74
572.987	8301.73
573.349	8413.59
573.71	8389.86
574.071	8344.44
574.432	8485.45
574.794	8575.4
575.155	8564.32
575.516	8590.99
575.877	8615.17
576.238	8739.01
576.599	8832.79
576.96	8805.9
577.32	8972.22
577.681	9035.72
578.042	9150.97
578.403	9122.73
578.763	9201.14
579.124	9282.5
579.485	9474.13
579.845	9550.51
580.206	9617.85
580.566	9635.48
580.927	9819.21
581.287	9984.17
581.648	10025.53
582.008	10216.26
582.368	10278.85
582.728	10430.04
583.089	10598.62
583.449	10717.03
583.809	10876.8
584.169	11031.15
584.529	11118.15
584.889	11437.24
585.249	11492.83
585.609	11658.7
585.969	11868.19
586.329	12061.86
586.688	12336.2
587.048	12535.97
587.408	12668.17
587.768	12850.09
588.127	13132.11
588.487	13224.31
588.846	13667.47
589.206	13697.3
589.565	13942.49
589.925	14246.43
590.284	14483.49
590.643	14825.63
591.003	14992.4
591.362	15346.07
591.721	15528.66
592.08	15836.22
592.44	16077.8
592.799	16376.77
593.158	16571.8
593.517	16892.47
593.876	17165.23
594.235	17399.57
594.593	17665.78
594.952	18053.79
595.311	18268.93
595.67	18602.7
596.029	19018.96
596.387	19260.99
596.746	19507.31
597.104	19747.31
597.463	19958.6
597.822	20497.34
598.18	20526.95
598.538	20754.96
598.897	21259.13
599.255	21272.69
599.613	21979.56
599.972	22146.11
600.33	22470.62
600.688	22581.13
601.046	22892.53
601.404	23303.82
601.762	23496.81
602.12	23862.9
602.478	24148.77
602.836	24378.37
603.194	24638.48
603.552	24906.27
603.91	24902.42
604.268	25319.81
604.625	25444.78
604.983	25982.62
605.341	26007.48
605.698	26452.67
606.056	26694.69
606.413	26871.86
606.771	27141.46
607.128	27481.11
607.485	27575.8
607.843	27773.76
608.2	28142.11
608.557	28398.15
608.914	28396.57
609.272	28815.54
609.629	29054.86
609.986	29371.69
610.343	29371.91
610.7	29811.67
611.057	30013.02
611.414	30107.49
611.771	30309.29
612.127	30566.91
612.484	30758.54
612.841	30953.11
613.198	31150.4
613.554	31340.45
613.911	31577.96
614.267	31605.98
614.624	31801.9
614.98	31945.18
615.337	32317.82
615.693	32337.94
616.05	32589.91
616.406	32746.74
616.762	32962.55
617.118	33079.61
617.475	33170.91
617.831	33407.96
618.187	33479.15
618.543	33591.46
618.899	34040.94
619.255	33973.82
619.611	34064.44
619.967	34426.24
620.323	34479.12
620.678	34433.02
621.034	34619.91
621.39	34649.06
621.746	34659.46
622.101	35145.54
622.457	34938.54
622.812	35154.36
623.168	35304.18
623.523	35432.09
623.879	35539.43
624.234	35449.72
624.589	35555.93
624.945	35651.97
625.3	35865.75
625.655	35961.57
626.01	36006.09
626.365	36202.92
626.72	36043.83
627.075	36079.98
627.43	36217.38
627.785	36171.73
628.14	36265.97
628.495	36355.68
628.85	36520.65
629.205	36236.14
629.559	36562
629.914	36512.29
630.269	36658.95
630.623	36579.63
630.978	36440.88
631.332	36667.31
631.687	36862.11
632.041	36647.88
632.396	36848.1
632.75	36756.8
633.104	36792.73
633.459	36662.57
633.813	36675.22
634.167	36721.55
634.521	36794.32
634.875	36930.13
635.229	36839.51
635.583	36769.46
635.937	36747.54
636.291	36811.94
636.645	36808.33
636.999	36707.09
637.352	36848.78
637.706	36742.11
638.06	36929.68
638.413	36876.57
638.767	36799.29
639.121	36907.53
639.474	36713.41
639.828	36826.4
640.181	36924.03
640.534	36882
640.888	36653.08
641.241	36584.83
641.594	36748.44
641.947	36813.07
642.301	36766.97
642.654	36689.46
643.007	36745.95
643.36	36809.68
643.713	36817.37
644.066	36737.37
644.419	36631.16
644.771	36492.63
645.124	36058.29
645.477	36024.39
645.83	35888.8
646.182	35770.84
646.535	35703.5
646.888	35765.64
647.24	35616.04
647.593	35773.78
647.945	35811.06
648.298	35588.92
648.65	35497.4
649.002	35555.7
649.355	35464.41
649.707	35495.37
650.059	35713.21
650.411	36100.32
650.763	36168.57
651.115	36456.02
651.467	36350.03
651.819	36349.13
652.171	36192.3
652.523	36230.49
652.875	36162.69
653.227	36182.13
653.578	36373.08
653.93	36287.21
654.282	36168.79
654.633	36070.04
654.985	36176.25
655.337	36126.54
655.688	36118.4
656.039	36207.21
656.391	36014.9
656.742	36179.64
657.094	36045.63
657.445	36176.25
657.796	36075.46
658.147	36044.96
658.498	36002.25
658.849	36170.83
659.2	36164.5
659.551	35963.38
659.902	36176.7
660.253	35985.52
660.604	36174.44
660.955	36002.25
661.306	36084.96
661.656	35997.27
662.007	36125.18
662.358	36028.91
662.708	35950.72
663.059	35843.61
663.409	35878.18
663.76	35976.94
664.11	35999.76
664.461	35982.36
664.811	36074.11
665.161	35845.64
665.511	35841.8
665.862	36038.85
666.212	36043.15
666.562	36042.7
666.912	35865.75
667.262	35905.75
667.612	35881.8
667.962	35892.19
668.312	35813.1
668.662	35977.16
669.011	35889.48
669.361	35791.86
669.711	35933.32
670.06	35858.29
670.41	35691.07
670.76	35800.44
671.109	35950.72
671.459	35713.67
671.808	35749.14
672.157	35720.22
672.507	35685.19
672.856	35540.11
673.205	35691.52
673.554	35796.83
673.904	35682.48
674.253	35944.39
674.602	35628.7
674.951	35191.65
675.3	35007.24
675.649	35578.3
675.998	35592.54
676.346	35560
676.695	35600.67
677.044	35479.55
677.393	35416.72
677.741	35435.25
678.09	35480.9
678.438	35352.09
678.787	35485.65
679.135	35298.76
679.484	35110.52
679.832	35287.91
680.181	35091.76
680.529	35107.35
680.877	35127.24
681.225	35188.48
681.573	35325.88
681.922	35035.49
682.27	34948.49
682.618	34843.18
682.966	34881.37
683.314	34867.36
683.661	34755.5
684.009	34749.62
684.357	34672.56
684.705	34614.94
685.053	34617.65
685.4	34438.22
685.748	34381.27
686.095	34388.5
686.443	34255.4
686.79	34265.57
687.138	34395.06
687.485	34284.78
687.832	34142.63
688.18	34150.32
688.527	33992.35
688.874	33911.68
689.221	33828.74
689.568	33908.06
689.915	33837.56
690.262	33721.4
690.609	33659.93
690.956	33537.68
691.303	33462.43
691.65	33370.45
691.997	33343.11
692.344	33229.21
692.69	33198.03
693.037	33228.53
693.383	33051.59
693.73	33005.94
694.077	32844.81
694.423	32812.95
694.769	32708.77
695.116	32722.56
695.462	32646.63
695.808	32592.17
696.155	32563.01
696.501	32350.59
696.847	32250.03
697.193	32151.5
697.539	32165.28
697.885	31833.77
698.231	31950.15
698.577	31888.91
698.923	31918.51
699.269	31608.24
699.614	31542.25
699.96	31547.9
700.306	31558.97
700.651	31406.66
700.997	31359.88
701.342	31245.08
701.688	31248.25
702.033	31091.87
702.379	31117.4
702.724	31100.23
703.069	31147.46
703.415	30665.21
703.76	30634.93
704.105	30738.43
704.45	30692.78
704.795	30499.57
705.14	30457.76
705.485	30438.32
705.83	30196.75
706.175	30346.35
706.52	30204.43
706.865	30170.08
707.209	30099.8
707.554	29935.29
707.899	30073.59
708.243	29773.93
708.588	29671.34
708.932	29579.36
709.277	29564
709.621	29591.34
709.966	29367.84
710.31	29395.87
710.654	29168.3
710.998	29371.91
711.342	29327.17
711.687	29203.1
712.031	28972.6
712.375	28868.42
712.719	28809.44
713.063	28979.38
713.407	28941.87
713.75	28787.07
714.094	28741.87
714.438	28646.73
714.782	28798.37
715.125	28552.95
715.469	28629.33
715.812	28474.53
716.156	28325.39
716.499	28353.63
716.843	28368.1
717.186	28316.8
717.53	28392.73
717.873	28276.12
718.216	28171.72
718.559	28091.72
718.902	27972.4
719.246	28088.1
719.589	27908.9
719.932	27836.36
720.275	27778.51
720.617	27780.77
720.96	27771.5
721.303	27719.07
721.646	27640.43
721.989	27594.56
722.331	27682.24
722.674	27533.54
723.016	27496.71
723.359	27506.65
723.701	27431.17
724.044	27358.63
724.386	27185.3
724.729	27308.91
725.071	27162.25
725.413	27201.57
725.755	27242.48
726.097	27110.05
726.439	27074.34
726.782	26971.75
727.124	27049.71
727.465	26880
727.807	26859.21
728.149	26757.29
728.491	26748.7
728.833	26801.58
729.175	26675.94
729.516	26625.77
729.858	26637.52
730.199	26649.72
730.541	26494.25
730.882	26494.7
731.224	26715.71
731.565	26470.74
731.906	26403.63
732.248	26294.03
732.589	26356.85
732.93	26257.19
733.271	26185.78
733.612	26289.96
733.953	26324.76
734.294	26079.57
734.635	26140.81
734.976	26126.57
735.317	25944.88
735.658	26031.21
735.999	25999.8
736.339	25847.94
736.68	26045.22
737.021	25943.98
737.361	25747.37
737.702	25892.45
738.042	25755.06
738.383	25705.34
738.723	25776.3
739.063	25556.19
739.404	25783.31
739.744	25716.19
740.084	25454.5
740.424	25558.9
740.764	25527.94
741.104	25522.3
741.444	25314.62
741.784	25257.44
742.124	25422.41
742.464	25404.56
742.804	25227.16
743.143	25249.08
743.483	25197.56
743.823	25066.49
744.162	25081.18
744.502	25119.82
744.841	25062.87
745.181	25037.79
745.52	24957.79
745.86	25021.52
746.199	24843.89
746.538	25010.67
746.877	24984.23
747.216	24959.15
747.556	24827.17
747.895	25024
748.234	24713.5
748.573	24654.97
748.911	24639.83
749.25	24735.2
749.589	24577.69
749.928	24529.78
750.267	24650.91
750.605	24395.77
750.944	24574.52
751.283	24388.09
751.621	24407.52
751.96	24260.41
752.298	24195.32
752.636	24254.08
752.975	24111.94
753.313	24010.24
753.651	24097.25
753.989	23953.52
754.327	23947.87
754.666	23838.72
755.004	23867.65
755.342	23907.42
755.679	23840.76
756.017	23565.28
756.355	23739.29
756.693	23512.86
757.031	23666.07
757.368	23527.55
757.706	23524.83
758.044	23459.3
758.381	23369.13
758.719	23283.03
759.056	23288.23
759.394	23237.61
759.731	23078.74
760.068	22986.99
760.405	23030.38
760.743	22902.93
761.08	23055.47
761.417	22897.96
761.754	22843.95
762.091	22898.64
762.428	22645.99
762.765	22554.01
763.102	22577.06
763.438	22457.06
763.775	22339.1
764.112	22429.72
764.449	22442.15
764.785	22314.47
765.122	22121.93
765.458	22102.05
765.795	22048.26
766.131	21899.34
766.467	21832.22
766.804	21817.99
767.14	21752.9
767.476	21734.15
767.812	21588.16
768.148	21686.92
768.485	21495.96
768.821	21414.38
769.157	21251.9
769.492	21305.46
769.828	21337.77
770.164	21095.07
770.5	21033.6
770.836	21013.04
771.171	20934.17
771.507	20874.73
771.842	20735.98
772.178	20641.29
772.513	20625.25
772.849	20568.08
773.184	20511.81
773.519	20444.24
773.855	20381.19
774.19	20297.8
774.525	20113.62
774.86	20108.2
775.195	20097.13
775.53	19961.76
775.865	19968.54
776.2	19738.72
776.535	19624.82
776.87	19659.62
777.205	19575.56
777.539	19498.05
777.874	19579.17
778.209	19368.11
778.543	19374.21
778.878	19207.66
779.212	19210.14
779.547	19158.62
779.881	19090.83
780.215	18969.02
780.55	18938.29
780.884	18910.27
781.218	18827.1
781.552	18835.69
781.886	18693.32
782.22	18617.62
782.554	18560.22
782.888	18376.72
783.222	18360.45
783.556	18288.59
783.889	18197.06
784.223	18114.81
784.557	18097.41
784.89	18061.02
785.224	17946.9
785.557	17902.61
785.891	17919.78
786.224	17798.2
786.558	17800.24
786.891	17616.97
787.224	17644.76
787.557	17535.39
787.891	17480.25
788.224	17500.13
788.557	17496.74
788.89	17398.21
789.223	17338.56
789.556	17157.09
789.888	17148.05
790.221	17093.82
790.554	16996.42
790.887	16937.66
791.219	16901.28
791.552	16873.71
791.884	16767.27
792.217	16688.63
792.549	16728.63
792.882	16595.07
793.214	16455.64
793.546	16470.78
793.879	16375.64
794.211	16332.93
794.543	16391.46
794.875	16195.99
795.207	16399.15
795.539	16183.78
795.871	16138.36
796.203	16071.47
796.535	15904.69
796.867	16025.82
797.198	15859.5
797.53	15892.49
797.862	15848.65
798.193	15801.19
798.525	15657.7
798.856	15747.86
799.188	15539.28
799.519	15562.1
799.85	15433.52
800.182	15493.63
800.513	15455.89
800.844	15283.69
801.175	15371.83
801.506	15301.32
801.837	15222.68
802.168	15294.99
802.499	15187.88
802.83	15084.83
803.161	14950.6
803.491	15012.74
803.822	15066.3
804.153	14910.14
804.483	14801.67
804.814	14835.12
805.145	14717.16
805.475	14696.36
805.805	14668.57
806.136	14586.54
806.466	14581.34
806.796	14641
807.126	14478.74
807.457	14466.31
807.787	14461.34
808.117	14411.4
808.447	14330.95
808.777	14338.41
809.107	14264.29
809.436	14211.41
809.766	14240.78
810.096	14149.49
810.426	14180.22
810.755	14076.04
811.085	14033.78
811.414	14021.35
811.744	13920.34
812.073	13989.72
812.403	13932.54
812.732	13849.38
813.061	13800.8
813.39	13716.05
813.719	13737.07
814.049	13850.74
814.378	13718.54
814.707	13682.83
815.036	13640.8
815.365	13541.59
815.693	13494.81
816.022	13457.08
816.351	13402.16
816.68	13355.16
817.008	13371.2
817.337	13263.63
817.665	13236.52
817.994	13334.37
818.322	13197.2
818.651	13204.2
818.979	13180.25
819.307	13202.39
819.636	13136.86
819.964	13027.71
820.292	13115.39
820.62	13159.23
820.948	13053.7
821.276	13041.04
821.604	12973.7
821.932	12988.39
822.259	13009.4
822.587	12961.04
822.915	12977.54
823.243	13014.83
823.57	12981.38
823.898	12918.78
824.225	12929.18
824.553	12904.1
824.88	12925.34
825.207	13036.07
825.535	12812.12
825.862	12956.98
826.189	12928.73
826.516	12968.73
826.843	12971.21
827.17	13008.95
827.497	12907.26
827.824	12960.59
828.151	13083.98
828.478	12906.81
828.805	12979.12
829.131	12905
829.458	12900.71
829.785	12814.38
830.111	12871.33
830.438	12956.75
830.764	12918.78
831.09	12905.68
831.417	12915.85
831.743	12945.9
832.069	12860.26
832.395	12831.78
832.722	12821.84
833.048	12875.4
833.374	12842.18
833.7	12837.66
834.026	12796.98
834.351	12792.46
834.677	12732.12
835.003	12853.93
835.329	12784.1
835.654	12858.67
835.98	12678.34
836.306	12744.78
836.631	12576.42
836.956	12799.24
837.282	12716.53
837.607	12583.88
837.932	12626.36
838.258	12555.86
838.583	12627.49
838.908	12494.84
839.233	12527.61
839.558	12559.47
839.883	12497.33
840.208	12405.13
840.533	12431.11
840.858	12415.3
841.182	12409.65
841.507	12408.52
841.832	12319.25
842.156	12303.66
842.481	12274.96
842.805	12278.35
843.13	12228.41
843.454	12235.41
843.778	12154.74
844.103	12121.29
844.427	12116.77
844.751	12157
845.075	12042.2
845.399	12067.06
845.723	11940.96
846.047	11974.63
846.371	11877.68
846.695	11938.25
847.019	11728.53
847.343	11715.2
847.666	11693.51
847.99	11584.36
848.313	11658.25
848.637	11538.93
848.96	11533.28
849.284	11476.79
849.607	11417.58
849.931	11304.14
850.254	11300.97
850.577	11248.09
850.9	11074.09
851.223	11227.98
851.546	11081.32
851.869	11078.38
852.192	11048.55
852.515	10985.73
852.838	10935.11
853.161	11027.99
853.483	10915.22
853.806	10794.09
854.129	10804.26
854.451	10710.26
854.774	10686.75
855.096	10722.68
855.419	10654.89
855.741	10634.1
856.063	10576.7
856.385	10523.14
856.708	10579.19
857.03	10472.3
857.352	10531.5
857.674	10442.47
857.996	10422.13
858.318	10383.48
858.64	10376.03
858.961	10284.5
859.283	10250.83
859.605	10284.96
859.926	10280.21
860.248	10241.57
860.57	10129.71
860.891	10161.34
861.212	10087.22
861.534	10097.84
861.855	10080.22
862.176	10153.43
862.498	10084.73
862.819	10004.28
863.14	9976.94
863.461	10060.33
863.782	10003.83
864.103	9956.6
864.424	9855.14
864.745	10011.52
865.065	9886.55
865.386	9834.35
865.707	9879.77
866.027	9841.58
866.348	9870.96
866.668	9855.59
866.989	9758.42
867.309	9729.94
867.63	9780.56
867.95	9783.05
868.27	9715.48
868.59	9713.67
868.91	9751.18
869.23	9659.44
869.55	9656.95
869.87	9700.34
870.19	9631.41
870.51	9670.96
870.83	9670.96
871.15	9554.35
871.469	9586.89
871.789	9539.44
872.109	9611.75
872.428	9537.63
872.748	9530.17
873.067	9503.51
873.386	9556.61
873.706	9510.29
874.025	9434.13
874.344	9384.41
874.663	9428.71
874.982	9438.88
875.301	9410.18
875.62	9310.74
875.939	9313.23
876.258	9283.63
876.577	9369.27
876.896	9300.12
877.214	9276.39
877.533	9248.37
877.852	9291.76
878.17	9288.37
878.489	9239.33
878.807	9238.88
879.125	9207.24
879.444	9169.73
879.762	9226
880.08	9137.42
880.398	9090.64
880.716	9063.97
881.034	9083.63
881.352	9059.9
881.67	9074.59
881.988	9060.13
882.306	9038.66
882.624	9000.24
882.941	8955.5
883.259	8880.92
883.577	8910.98
883.894	8881.38
884.212	8855.16
884.529	8871.66
884.846	8870.76
885.164	8866.69
885.481	8769.29
885.798	8841.6
886.115	8782.62
886.432	8767.48
886.75	8715.28
887.067	8694.49
887.383	8674.38
887.7	8749.63
888.017	8646.81
888.334	8703.75
888.651	8572.01
888.967	8607.94
889.284	8560.93
889.6	8583.31
889.917	8491.56
890.233	8529.75
890.55	8469.41
890.866	8474.61
891.182	8404.1
891.498	8435.74
891.815	8336.53
892.131	8322.97
892.447	8321.17
892.763	8278.68
893.079	8269.42
893.395	8250.88
893.71	8184.67
894.026	8161.4
894.342	8204.33
894.657	8147.38
894.973	8064
895.289	8063.32
895.604	8098.12
895.92	8043.88
896.235	7974.73
896.55	8007.73
896.865	7997.11
897.181	7878.92
897.496	7883.89
897.811	7852.48
898.126	7829.2
898.441	7844.34
898.756	7781.97
899.071	7775.64
899.386	7764.34
899.7	7670.56
900.015	7700.16
900.33	7680.28
900.644	7633.5
900.959	7642.99
901.273	7551.24
901.588	7516.21
901.902	7498.59
902.216	7520.96
902.531	7510.57
902.845	7405.03
903.159	7381.3
903.473	7342.43
903.787	7373.85
904.101	7325.26
904.415	7329.78
904.729	7205.49
905.042	7274.64
905.356	7273.06
905.67	7240.29
905.984	7187.18
906.297	7156.68
906.611	7111.71
906.924	7128.2
907.237	7105.15
907.551	7071.71
907.864	7013.18
908.177	7009.11
908.491	7011.82
908.804	6930.02
909.117	6942.9
909.43	6855.44
909.743	6805.05
910.056	6843.01
910.368	6786.06
910.681	6713.75
910.994	6747.65
911.307	6720.53
911.619	6673.75
911.932	6698.38
912.244	6584.71
912.557	6584.04
912.869	6524.15
913.181	6574.32
913.494	6530.03
913.806	6492.06
914.118	6456.58
914.43	6443.7
914.742	6445.96
915.054	6372.29
915.366	6393.98
915.678	6362.57
915.99	6295
916.302	6302.91
916.613	6247.1
916.925	6231.5
917.236	6232.63
917.548	6173.2
917.859	6165.97
918.171	6146.53
918.482	6108.34
918.794	6111.28
919.105	6083.48
919.416	6054.11
919.727	6003.49
920.038	5979.76
920.349	5945.63
920.66	5939.53
920.971	5922.58
921.282	5896.6
921.593	5857.28
921.903	5832.19
922.214	5774.57
922.525	5835.36
922.835	5792.19
923.146	5716.94
923.456	5732.76
923.767	5683.95
924.077	5674.91
924.387	5636.49
924.697	5580.22
925.008	5612.54
925.318	5589.03
925.628	5605.53
925.938	5540.67
926.248	5510.62
926.558	5498.64
926.867	5448.47
927.177	5453.67
927.487	5422.26
927.796	5382.49
928.106	5392.88
928.416	5357.4
928.725	5365.99
929.034	5300
929.344	5317.4
929.653	5268.14
929.962	5252.77
930.271	5160.8
930.581	5216.16
930.89	5180.23
931.199	5109.27
931.508	5123.06
931.817	5105.66
932.125	5064.53
932.434	5069.95
932.743	5007.13
933.051	4975.26
933.36	5001.93
933.669	4972.78
933.977	4975.94
934.286	4888.26
934.594	4895.04
934.902	4859.56
935.21	4846.45
935.519	4921.03
935.827	4903.85
936.135	4789.51
936.443	4768.72
936.751	4779.56
937.059	4732.56
937.367	4678.1
937.674	4680.58
937.982	4690.75
938.29	4665.44
938.597	4637.87
938.905	4645.56
939.213	4580.7
939.52	4558.33
939.827	4552.22
940.135	4558.1
940.442	4517.65
940.749	4514.71
941.056	4515.62
941.363	4459.8
941.67	4455.96
941.977	4430.19
942.284	4430.19
942.591	4362.17
942.898	4390.2
943.205	4358.11
943.511	4343.19
943.818	4336.86
944.125	4265.23
944.431	4281.72
944.738	4268.39
945.044	4269.97
945.35	4267.03
945.657	4195.4
945.963	4187.04
946.269	4156.08
946.575	4162.18
946.881	4164.66
947.187	4122.63
947.493	4107.72
947.799	4113.14
948.105	4112.24
948.41	4027.27
948.716	4072.01
949.022	4058.23
949.327	4027.49
949.633	3953.37
949.938	3974.16
950.244	3963.54
950.549	3953.6
950.854	3928.96
951.16	3910.66
951.465	3917.21
951.77	3882.41
952.075	3847.16
952.38	3832.24
952.685	3858.91
952.99	3762.19
953.294	3799.25
953.599	3768.52
953.904	3775.97
954.209	3737.33
954.513	3719.03
954.818	3707.73
955.122	3703.21
955.426	3671.57
955.731	3669.54
956.035	3642.87
956.339	3601.29
956.643	3620.05
956.948	3604
957.252	3571.91
957.556	3530.1
957.86	3556.77
958.163	3554.74
958.467	3517
958.771	3533.04
959.075	3535.08
959.378	3462.76
959.682	3470.9
959.985	3417.11
960.289	3412.14
960.592	3423.22
960.896	3397.23
961.199	3381.63
961.502	3381.86
961.805	3398.36
962.108	3371.01
962.411	3364.01
962.714	3319.71
963.017	3255.08
963.32	3298.47
963.623	3253.05
963.926	3252.15
964.228	3240.85
964.531	3259.6
964.833	3218.25
965.136	3202.88
965.438	3197.68
965.741	3184.13
966.043	3181.19
966.345	3154.75
966.648	3148.19
966.95	3154.07
967.252	3099.61
967.554	3081.76
967.856	3057.57
968.158	3034.52
968.46	3041.76
968.761	3040.4
969.063	3009.21
969.365	3037.46
969.666	2985.26
969.968	2986.39
970.269	2983.45
970.571	2974.87
970.872	2926.96
971.174	2892.61
971.475	2925.38
971.776	2919.95
972.077	2897.81
972.378	2874.53
972.679	2903.68
972.98	2862.55
973.281	2847.86
973.582	2825.49
973.883	2832.27
974.183	2821.42
974.484	2791.37
974.785	2810.12
975.085	2775.1
975.386	2787.07
975.686	2777.58
975.986	2741.2
976.287	2751.82
976.587	2710.92
976.887	2726.74
977.187	2695.78
977.487	2699.62
977.787	2686.74
978.087	2664.36
978.387	2650.35
978.687	2668.88
978.987	2611.94
979.286	2607.19
979.586	2594.08
979.885	2603.58
980.185	2599.06
980.484	2559.73
980.784	2562.67
981.083	2529.68
981.382	2560.19
981.682	2539.62
981.981	2514.31
982.28	2535.33
982.579	2519.06
982.878	2509.57
983.177	2480.42
983.475	2456.69
983.774	2458.49
984.073	2477.03
984.372	2424.82
984.67	2410.36
984.969	2461.66
985.267	2412.62
985.566	2403.81
985.864	2367.42
986.162	2357.48
986.461	2341.66
986.759	2374.43
987.057	2300.76
987.355	2330.36
987.653	2301.44
987.951	2333.3
988.249	2327.42
988.547	2317.48
988.844	2256.01
989.142	2282
989.44	2226.86
989.737	2230.03
990.035	2251.95
990.332	2214.43
990.63	2200.65
990.927	2165.85
991.224	2175.79
991.521	2187.32
991.819	2162.01
992.116	2141.44
992.413	2149.12
992.71	2100.99
993.006	2174.89
993.303	2123.36
993.6	2122.01
993.897	2077.49
994.193	2117.94
994.49	2100.09
994.787	2086.75
995.083	2057.83
995.379	2059.86
995.676	2039.3
995.972	2048.79
996.268	2042.46
996.565	2020.77
996.861	1986.87
997.157	2015.57
997.453	1982.8
997.749	1988.68
998.044	1977.83
998.34	1960.65
998.636	1948.23
998.932	1964.72
999.227	1964.95
999.523	1919.75
999.818	1912.97
1000.114	1903.26
1000.409	1910.03
1000.704	1874.56
1001	1889.24
1001.295	1866.19
1001.59	1869.13
1001.885	1862.35
1002.18	1834.78
1002.475	1815.8
1002.77	1805.63
1003.065	1841.56
1003.359	1823.48
1003.654	1778.51
1003.949	1781.9
1004.243	1806.76
1004.538	1759.08
1004.832	1783.71
1005.127	1729.7
1005.421	1770.6
1005.715	1728.8
1006.009	1728.12
1006.304	1730.15
1006.598	1694
1006.892	1683.15
1007.186	1683.83
1007.48	1689.7
1007.773	1659.42
1008.067	1669.81
1008.361	1646.09
1008.655	1626.2
1008.948	1630.95
1009.242	1576.03
1009.535	1621.91
1009.829	1602.02
1010.122	1580.33
1010.415	1570.83
1010.708	1597.95
1011.001	1575.35
1011.295	1541.46
1011.588	1530.84
1011.881	1528.58
1012.173	1528.12
1012.466	1520.44
1012.759	1524.06
1013.052	1522.93
1013.344	1509.14
1013.637	1474.34
1013.93	1495.58
1014.222	1470.27
1014.514	1484.96
1014.807	1444.96
1015.099	1430.5
1015.391	1437.05
1015.683	1440.22
1015.976	1425.98
1016.268	1421.23
1016.56	1395.25
1016.851	1419.88
1017.143	1375.13
1017.435	1374.68
1017.727	1369.71
1018.018	1394.34
1018.31	1371.29
1018.602	1367.68
1018.893	1356.15
1019.185	1341.69
1019.476	1348.24
1019.767	1321.8
1020.058	1346.66
1020.35	1295.36
1020.641	1289.26
1020.932	1259.66
1021.223	1274.8
1021.514	1301.91
1021.804	1268.92
1022.095	1267.79
1022.386	1244.06
1022.677	1228.7
1022.967	1203.61
1023.258	1205.87
1023.548	1216.49
1023.839	1208.13
1024.129	1207
1024.419	1186.44
1024.709	1171.97
1025	1192.31
1025.29	1171.07
1025.58	1158.42
1025.87	1161.35
1026.16	1142.37
1026.449	1132.88
1026.739	1117.06
1027.029	1144.63
1027.319	1131.75
1027.608	1098.3
1027.898	1128.36
1028.187	1120.45
1028.477	1096.5
1028.766	1081.36
1029.055	1067.8
1029.344	1061.47
1029.634	1063.05
1029.923	1042.94
1030.212	1069.15
1030.501	1051.3
1030.79	1059.89
1031.078	1027.12
1031.367	1026.89
1031.656	1016.27
1031.945	1023.05
1032.233	1026.89
1032.522	1007.01
1032.81	981.7
1033.099	983.73
1033.387	998.65
1033.675	967.69
1033.963	954.58
1034.251	969.27
1034.54	972.43
1034.828	975.14
1035.116	937.63
1035.403	961.81
1035.691	971.3
1035.979	933.34
1036.267	921.81
1036.554	921.81
1036.842	922.26
1037.129	899.44
1037.417	917.74
1037.704	911.42
1037.992	885.88
1038.279	883.39
1038.566	869.38
1038.853	869.38
1039.14	869.38
