Data from hue_180_FLMS001491_00094.txt Node
Date: Tue Feb 07 16:47:44 GMT 2017
User: dcchb
Spectrometer: FLMS00149
Trigger mode: 0
Integration Time (sec): 2.000000E-2
Scans to average: 10
Electric dark correction enabled: true
Nonlinearity correction enabled: false
Boxcar width: 0
XAxis mode: Wavelengths
Number of Pixels in Spectrum: 2048
>>>>>Begin Spectral Data<<<<<
341.393	-5.17
341.776	-5.17
342.16	-5.17
342.543	-44.94
342.927	-63.92
343.31	-47.43
343.693	-84.04
344.077	-64.6
344.46	-54.89
344.843	-60.54
345.226	-52.17
345.61	-33.19
345.993	-31.38
346.376	5
346.759	10.88
347.142	38.9
347.525	38.45
347.908	62.85
348.291	80.48
348.674	90.2
349.057	101.49
349.44	123.87
349.823	154.37
350.206	143.3
350.588	191.89
350.971	214.26
351.354	215.16
351.737	224.88
352.119	261.49
352.502	247.03
352.884	269.17
353.267	308.72
353.65	307.59
354.032	290.64
354.414	297.65
354.797	296.29
355.179	311.21
355.562	302.17
355.944	338.1
356.326	342.62
356.709	324.54
357.091	322.96
357.473	331.09
357.855	332.67
358.238	332.22
358.62	330.64
359.002	313.47
359.384	329.29
359.766	339.45
360.148	342.62
360.53	331.54
360.912	317.99
361.294	345.78
361.676	322.96
362.057	326.8
362.439	326.12
362.821	337.87
363.203	332.22
363.584	328.38
363.966	302.85
364.348	341.94
364.729	324.31
365.111	322.96
365.493	337.87
365.874	314.37
366.256	326.8
366.637	313.01
367.019	309.17
367.4	303.52
367.781	308.95
368.163	287.25
368.544	306.23
368.925	317.31
369.306	333.8
369.688	315.05
370.069	311.43
370.45	301.26
370.831	305.33
371.212	296.52
371.593	303.3
371.974	304.2
372.355	280.92
372.736	291.77
373.117	314.6
373.498	302.62
373.879	323.18
374.26	302.39
374.641	333.35
375.021	302.39
375.402	313.92
375.783	311.66
376.163	311.43
376.544	321.15
376.925	313.24
377.305	314.82
377.686	303.75
378.066	339.68
378.447	345.33
378.827	309.17
379.208	303.98
379.588	329.06
379.968	337.42
380.349	326.57
380.729	324.31
381.109	330.64
381.489	305.1
381.87	339
382.25	362.28
382.63	320.92
383.01	331.77
383.39	337.65
383.77	344.2
384.15	346.23
384.53	334.03
384.91	332.22
385.29	336.52
385.67	346.46
386.049	332.45
386.429	343.3
386.809	327.03
387.189	334.03
387.568	354.37
387.948	350.3
388.328	361.37
388.707	343.07
389.087	357.31
389.466	372
389.846	366.8
390.225	356.86
390.605	337.19
390.984	387.81
391.363	372
391.743	357.76
392.122	374.03
392.501	383.3
392.881	360.24
393.26	368.61
393.639	360.02
394.018	374.48
394.397	367.7
394.776	353.47
395.155	368.83
395.534	380.36
395.913	385.78
396.292	386.23
396.671	381.26
397.05	375.16
397.429	356.4
397.808	392.11
398.186	407.02
398.565	419.9
398.944	401.37
399.323	384.42
399.701	383.07
400.08	395.72
400.458	393.92
400.837	420.81
401.215	410.64
401.594	386.01
401.972	412.45
402.351	424.65
402.729	417.64
403.107	415.61
403.486	416.51
403.864	411.77
404.242	414.71
404.62	429.17
404.999	456.97
405.377	459
405.755	453.8
406.133	436.17
406.511	435.95
406.889	448.15
407.267	466.68
407.645	461.49
408.023	463.52
408.401	469.39
408.779	477.76
409.156	497.42
409.534	488.6
409.912	484.76
410.29	517.75
410.667	482.28
411.045	524.76
411.422	504.42
411.8	539.22
412.178	531.09
412.555	527.47
412.933	541.93
413.31	564.08
413.687	560.01
414.065	566.12
414.442	586.23
414.819	551.88
415.197	574.25
415.574	595.94
415.951	576.51
416.328	601.59
416.705	587.13
417.082	625.1
417.46	611.54
417.837	641.14
418.214	656.51
418.591	632.33
418.967	641.82
419.344	652.44
419.721	675.04
420.098	677.98
420.475	689.28
420.852	689.73
421.228	710.52
421.605	701.48
421.982	736.73
422.358	723.4
422.735	738.09
423.111	734.02
423.488	770.63
423.864	743.29
424.241	772.21
424.617	795.26
424.994	786.22
425.37	798.43
425.746	788.71
426.123	833.23
426.499	825.54
426.875	851.08
427.251	858.54
427.627	875.49
428.003	865.32
428.379	894.92
428.756	913.22
429.132	874.36
429.507	889.04
429.883	879.1
430.259	940.57
430.635	917.74
431.011	934.69
431.387	945.54
431.763	985.99
432.138	975.14
432.514	967.91
432.89	995.93
433.265	1040
433.641	1051.75
434.016	1059.66
434.392	1081.13
434.767	1083.39
435.143	1116.84
435.518	1136.27
435.894	1118.42
436.269	1157.74
436.644	1190.73
437.02	1197.51
437.395	1181.01
437.77	1239.32
438.145	1241.35
438.52	1253.55
438.895	1287.9
439.271	1284.06
439.646	1334.23
440.021	1328.35
440.395	1344.85
440.77	1337.17
441.145	1382.59
441.52	1360.67
441.895	1381.01
442.27	1420.1
442.645	1403.38
443.019	1443.61
443.394	1456.49
443.769	1459.88
444.143	1446.54
444.518	1488.12
444.892	1479.54
445.267	1480.67
445.641	1529.71
446.016	1515.24
446.39	1539.42
446.764	1599.76
447.139	1568.57
447.513	1591.62
447.887	1571.29
448.262	1616.48
448.636	1626.43
449.01	1612.42
449.384	1655.13
449.758	1655.58
450.132	1661.45
450.506	1674.56
450.88	1714.56
451.254	1693.32
451.628	1733.54
452.002	1767.21
452.376	1755.69
452.75	1794.78
453.123	1781
453.497	1831.62
453.871	1822.81
454.244	1854.89
454.618	1894.67
454.992	1902.8
455.365	1894.22
455.739	2006.53
456.112	1980.99
456.486	1997.72
456.859	2038.39
457.232	2047.88
457.606	2051.73
457.979	2071.16
458.352	2117.71
458.725	2133.31
459.099	2164.27
459.472	2229.8
459.845	2189.58
460.218	2234.32
460.591	2256.24
460.964	2275.9
461.337	2293.53
461.71	2384.15
462.083	2418.95
462.456	2416.01
462.829	2419.17
463.201	2444.71
463.574	2477.25
463.947	2516.8
464.32	2569.9
464.692	2616
465.065	2617.59
465.438	2664.36
465.81	2683.12
466.183	2718.83
466.555	2835.43
466.928	2797.02
467.3	2815.77
467.672	2834.76
468.045	2911.36
468.417	2977.58
468.789	2994.98
469.161	3034.52
469.534	3109.55
469.906	3143
470.278	3156.33
470.65	3223.9
471.022	3276.1
471.394	3320.17
471.766	3393.16
472.138	3431.35
472.51	3507.73
472.882	3545.7
473.253	3630.22
473.625	3665.02
473.997	3748.4
474.369	3811.91
474.74	3837.89
475.112	3890.55
475.484	4001.96
475.855	4079.69
476.227	4100.26
476.598	4198.79
476.97	4259.58
477.341	4380.7
477.713	4463.19
478.084	4551.1
478.455	4575.5
478.827	4641.71
479.198	4782.95
479.569	4859.34
479.94	4967.81
480.311	5054.13
480.682	5147.46
481.053	5276.05
481.424	5336.84
481.795	5451.64
482.166	5552.65
482.537	5599.43
482.908	5743.83
483.279	5830.16
483.65	5897.95
484.021	6103.82
484.391	6153.99
484.762	6164.61
485.133	6271.5
485.503	6398.28
485.874	6499.74
486.244	6616.35
486.615	6722.56
486.985	6782.22
487.356	6949
487.726	7038.94
488.097	7200.97
488.467	7204.81
488.837	7378.14
489.207	7536.55
489.578	7630.34
489.948	7709.2
490.318	7819.94
490.688	7871.01
491.058	8057.9
491.428	8112.36
491.798	8218.34
492.168	8376.98
492.538	8430.77
492.908	8523.19
493.278	8586.92
493.648	8640.03
494.017	8760.25
494.387	8930.41
494.757	8908.95
495.126	8979.23
495.496	9037.08
495.866	9051.09
496.235	9268.26
496.605	9290.63
496.974	9295.83
497.344	9430.51
497.713	9482.04
498.082	9482.49
498.452	9604.75
498.821	9656.5
499.19	9666.44
499.559	9784.63
499.928	9782.14
500.298	9880.9
500.667	10009.03
501.036	9950.28
501.405	9973.33
501.774	10052.19
502.143	10098.97
502.512	10165.18
502.88	10232.08
503.249	10211.06
503.618	10289.48
503.987	10345.74
504.356	10404.95
504.724	10432.3
505.093	10389.59
505.462	10435.46
505.83	10564.95
506.199	10574.67
506.567	10751.16
506.936	10625.29
507.304	10720.65
507.672	10711.61
508.041	10779.41
508.409	10835.68
508.777	10823.02
509.145	10939.85
509.514	10909.8
509.882	10901.21
510.25	10952.96
510.618	10986.63
510.986	10965.16
511.354	11046.07
511.722	11115.67
512.09	11184.59
512.458	11112.5
512.826	11187.53
513.193	11276.57
513.561	11209.9
513.929	11298.94
514.297	11332.39
514.664	11359.5
515.032	11354.98
515.4	11466.39
515.767	11472.49
516.135	11401.31
516.502	11392.05
516.869	11455.32
517.237	11550.01
517.604	11470.01
517.972	11477.24
518.339	11529.22
518.706	11446.51
519.073	11553.4
519.44	11553.17
519.808	11575.54
520.175	11582.77
520.542	11615.99
520.909	11646.28
521.276	11632.49
521.643	11719.72
522.009	11638.82
522.376	11673.17
522.743	11684.24
523.11	11833.39
523.477	11779.38
523.843	11901.64
524.21	11859.83
524.577	11978.24
524.943	11922.43
525.31	11992.48
525.676	11952.93
526.043	11958.81
526.409	11973.95
526.776	11982.09
527.142	11888.3
527.508	11989.77
527.874	12017.11
528.241	12020.5
528.607	11984.35
528.973	11973.27
529.339	11973.95
529.705	12001.75
530.071	12019.83
530.437	11976.66
530.803	11955.19
531.169	11984.57
531.535	11917.46
531.901	11909.77
532.267	11830
532.632	11921.07
532.998	11954.97
533.364	11869.32
533.73	11804.46
534.095	11872.94
534.461	11868.19
534.826	11835.42
535.192	11758.82
535.557	11757.01
535.923	11691.7
536.288	11696.22
536.653	11684.24
537.019	11585.71
537.384	11621.87
537.749	11606.73
538.114	11481.31
538.479	11396.34
538.845	11400.86
539.21	11421.65
539.575	11336.68
539.94	11358.15
540.305	11380.97
540.67	11286.51
541.034	11234.99
541.399	11248.09
541.764	11142.33
542.129	11179.62
542.494	11111.83
542.858	11090.13
543.223	10970.81
543.587	11023.47
543.952	10894.66
544.316	10989.34
544.681	10904.15
545.045	10813.98
545.41	10789.12
545.774	10766.07
546.138	10766.3
546.503	10734.21
546.867	10647.21
547.231	10797.48
547.595	10626.19
547.959	10651.27
548.324	10505.51
548.688	10504.16
549.052	10520.66
549.416	10405.63
549.779	10312.98
550.143	10329.93
550.507	10312.3
550.871	10247.22
551.235	10197.73
551.599	10268.46
551.962	10209.7
552.326	10175.13
552.689	10110.5
553.053	10046.09
553.417	10058.52
553.78	10091.74
554.143	10093.1
554.507	10066.88
554.87	9932.42
555.234	10013.78
555.597	9903.95
555.96	9850.62
556.323	9854.23
556.686	9840.67
557.05	9862.37
557.413	9760.22
557.776	9767
558.139	9861.46
558.502	9753.22
558.865	9753.22
559.228	9706.21
559.59	9733.56
559.953	9677.51
560.316	9767
560.679	9692.65
561.041	9741.24
561.404	9755.25
561.767	9727
562.129	9660.79
562.492	9694.01
562.854	9681.36
563.217	9606.33
563.579	9649.27
563.941	9636.84
564.304	9669.38
564.666	9687.91
565.028	9692.43
565.39	9627.35
565.753	9675.71
566.115	9700.56
566.477	9692.65
566.839	9662.37
567.201	9759.55
567.563	9642.94
567.925	9726.1
568.287	9641.13
568.648	9715.25
569.01	9721.81
569.372	9721.35
569.734	9710.96
570.095	9751.18
570.457	9742.82
570.819	9752.99
571.18	9749.15
571.542	9701.47
571.903	9709.83
572.265	9736.5
572.626	9667.34
572.987	9740.79
573.349	9787.79
573.71	9746.21
574.071	9716.38
574.432	9713.45
574.794	9818.3
575.155	9804.74
575.516	9729.49
575.877	9757.51
576.238	9696.04
576.599	9737.63
576.96	9784.4
577.32	9765.87
577.681	9778.08
578.042	9731.75
578.403	9704.86
578.763	9785.53
579.124	9763.61
579.485	9779.88
579.845	9763.61
580.206	9788.7
580.566	9698.08
580.927	9699.89
581.287	9728.36
581.648	9681.81
582.008	9737.63
582.368	9778.53
582.728	9765.87
583.089	9728.36
583.449	9671.86
583.809	9678.19
584.169	9656.5
584.529	9732.65
584.889	9778.08
585.249	9654.24
585.609	9628.93
585.969	9656.05
586.329	9644.97
586.688	9626.22
587.048	9593.67
587.408	9605.2
587.768	9526.78
588.127	9571.53
588.487	9483.62
588.846	9541.92
589.206	9524.52
589.565	9479.55
589.925	9525.88
590.284	9558.65
590.643	9527.46
591.003	9501.93
591.362	9562.26
591.721	9545.99
592.08	9419.44
592.44	9403.85
592.799	9484.52
593.158	9409.5
593.517	9394.36
593.876	9464.64
594.235	9513.68
594.593	9502.15
594.952	9461.02
595.311	9432.55
595.67	9417.63
596.029	9434.36
596.387	9512.55
596.746	9505.99
597.104	9392.32
597.463	9368.82
597.822	9431.42
598.18	9378.54
598.538	9376.05
598.897	9450.18
599.255	9419.44
599.613	9424.41
599.972	9339.22
600.33	9371.31
600.688	9348.03
601.046	9330.4
601.404	9364.3
601.762	9260.8
602.12	9419.22
602.478	9421.02
602.836	9395.49
603.194	9327.92
603.552	9364.3
603.91	9280.24
604.268	9347.58
604.625	9373.12
604.983	9353
605.341	9305.55
605.698	9339.44
606.056	9306.22
606.413	9315.04
606.771	9314.81
607.128	9342.83
607.485	9347.58
607.843	9347.35
608.2	9350.06
608.557	9374.25
608.914	9398.88
609.272	9355.94
609.629	9393.68
609.986	9407.92
610.343	9342.38
610.7	9413.57
611.057	9378.76
611.414	9392.1
611.771	9397.75
612.127	9402.94
612.484	9411.53
612.841	9388.26
613.198	9434.36
613.554	9404.75
613.911	9423.28
614.267	9490.4
614.624	9460.34
614.98	9437.07
615.337	9480.91
615.693	9447.92
616.05	9458.31
616.406	9500.34
616.762	9471.42
617.118	9420.35
617.475	9479.1
617.831	9484.52
618.187	9513.9
618.543	9493.11
618.899	9532.66
619.255	9491.76
619.611	9546.44
619.967	9532.21
620.323	9612.43
620.678	9515.26
621.034	9485.2
621.39	9497.63
621.746	9481.13
622.101	9578.08
622.457	9514.81
622.812	9477.07
623.168	9537.86
623.523	9585.99
623.879	9545.99
624.234	9522.49
624.589	9527.46
624.945	9532.43
625.3	9543.28
625.655	9519.78
626.01	9551.42
626.365	9533.34
626.72	9542.6
627.075	9457.86
627.43	9522.04
627.785	9492.66
628.14	9505.32
628.495	9521.59
628.85	9474.13
629.205	9518.42
629.559	9502.83
629.914	9513.68
630.269	9473.23
630.623	9484.07
630.978	9452.89
631.332	9428.25
631.687	9480.23
632.041	9471.87
632.396	9367.24
632.75	9452.44
633.104	9401.36
633.459	9355.26
633.813	9373.79
634.167	9389.16
634.521	9324.3
634.875	9354.81
635.229	9368.82
635.583	9254.25
635.937	9367.01
636.291	9312.33
636.645	9242.72
636.999	9244.53
637.352	9313
637.706	9142.16
638.06	9274.81
638.413	9204.98
638.767	9189.62
639.121	9216.28
639.474	9143.06
639.828	9172.67
640.181	9126.57
640.534	9185.1
640.888	9159.56
641.241	9088.83
641.594	9118.88
641.947	9149.17
642.301	9092.9
642.654	9120.69
643.007	9119.79
643.36	9062.39
643.713	9133.8
644.066	9065.1
644.419	9065.78
644.771	9078.66
645.124	8880.02
645.477	8921.15
645.83	8854.03
646.182	8895.61
646.535	8821.94
646.888	8782.85
647.24	8699.01
647.593	8773.36
647.945	8779.23
648.298	8788.95
648.65	8740.14
649.002	8775.62
649.355	8786.01
649.707	8757.76
650.059	8845.9
650.411	8928.16
650.763	8926.35
651.115	9025.1
651.467	9024.88
651.819	8971.09
652.171	9012.45
652.523	8900.13
652.875	8954.6
653.227	8985.55
653.578	8939
653.93	8913.92
654.282	8934.71
654.633	8955.05
654.985	8931.77
655.337	8973.13
655.688	8971.54
656.039	9002.28
656.391	8943.3
656.742	9018.55
657.094	8927.48
657.445	9000.47
657.796	9003.86
658.147	8939.23
658.498	9022.62
658.849	9064.42
659.2	9043.86
659.551	8982.39
659.902	9045.21
660.253	9008.15
660.604	9043.63
660.955	8987.14
661.306	8995.05
661.656	9005.89
662.007	9012.45
662.358	9064.42
662.708	9029.62
663.059	9148.71
663.409	9024.65
663.76	9054.71
664.11	9051.09
664.461	9009.06
664.811	9117.3
665.161	9080.69
665.511	8997.08
665.862	9049.28
666.212	9116.17
666.562	9063.29
666.912	9047.25
667.262	9077.76
667.612	9053.58
667.962	9084.54
668.312	9077.98
668.662	9099.22
669.011	9056.51
669.361	9030.98
669.711	9019.45
670.06	8979.45
670.41	9051.77
670.76	9040.92
671.109	9089.96
671.459	8992.11
671.808	9000.92
672.157	9035.5
672.507	8943.75
672.856	8944.65
673.205	8915.73
673.554	9005.22
673.904	8931.09
674.253	8974.93
674.602	8979.45
674.951	8861.26
675.3	8859.68
675.649	8884.99
675.998	8947.36
676.346	8865.33
676.695	8880.7
677.044	8850.87
677.393	8889.96
677.741	8910.3
678.09	8826.46
678.438	8818.55
678.787	8814.94
679.135	8890.19
679.484	8727.26
679.832	8795.5
680.181	8758.22
680.529	8786.46
680.877	8702.17
681.225	8695.39
681.573	8742.85
681.922	8687.26
682.27	8689.07
682.618	8698.78
682.966	8695.39
683.314	8613.59
683.661	8628.73
684.009	8559.13
684.357	8612.01
684.705	8556.41
685.053	8564.1
685.4	8618.78
685.748	8529.07
686.095	8527.71
686.443	8476.64
686.79	8457.66
687.138	8452.24
687.485	8459.47
687.832	8414.27
688.18	8428.28
688.527	8354.38
688.874	8309.41
689.221	8339.47
689.568	8250.66
689.915	8258.34
690.262	8301.5
690.609	8238
690.956	8236.65
691.303	8220.83
691.65	8114.39
691.997	8162.3
692.344	8094.73
692.69	8105.13
693.037	8058.57
693.383	7978.35
693.73	8017.22
694.077	8009.08
694.423	7934.28
694.769	7922.08
695.116	7890.44
695.462	7851.57
695.808	7860.61
696.155	7830.56
696.501	7802.31
696.847	7741.52
697.193	7698.13
697.539	7735.42
697.885	7748.53
698.231	7658.58
698.577	7629.66
698.923	7658.36
699.269	7562.54
699.614	7591.02
699.96	7512.6
700.306	7491.58
700.651	7407.97
700.997	7404.35
701.342	7369.1
701.688	7323.45
702.033	7314.86
702.379	7342.43
702.724	7270.12
703.069	7351.7
703.415	7212.04
703.76	7271.93
704.105	7202.1
704.45	7133.63
704.795	7125.72
705.14	7158.71
705.485	7139.05
705.83	7032.84
706.175	7068.77
706.52	7047.3
706.865	7094.76
707.209	7022.89
707.554	6965.04
707.899	7003.69
708.243	6883.46
708.588	6863.35
708.932	6842.33
709.277	6840.53
709.621	6866.74
709.966	6740.64
710.31	6801.21
710.654	6763.01
710.998	6735.44
711.342	6733.41
711.687	6727.99
712.031	6666.29
712.375	6670.36
712.719	6647.54
713.063	6686.86
713.407	6649.12
713.75	6634.43
714.094	6694.54
714.438	6644.37
714.782	6640.08
715.125	6609.12
715.469	6580.42
715.812	6572.74
716.156	6598.27
716.499	6560.76
716.843	6544.04
717.186	6503.59
717.53	6509.24
717.873	6531.38
718.216	6447.99
718.559	6438.95
718.902	6449.12
719.246	6497.71
719.589	6466.75
719.932	6390.59
720.275	6461.78
720.617	6414.1
720.96	6377.71
721.303	6373.65
721.646	6406.19
721.989	6371.16
722.331	6377.94
722.674	6416.58
723.016	6343.59
723.359	6347.43
723.701	6358.73
724.044	6364.83
724.386	6324.16
724.729	6346.3
725.071	6331.16
725.413	6341.56
725.755	6335.23
726.097	6313.76
726.439	6279.19
726.782	6309.92
727.124	6276.7
727.465	6305.63
727.807	6312.86
728.149	6280.77
728.491	6222.46
728.833	6271.05
729.175	6285.74
729.516	6290.26
729.858	6292.52
730.199	6309.01
730.541	6251.16
730.882	6237.38
731.224	6278.28
731.565	6292.29
731.906	6267.66
732.248	6290.71
732.589	6223.37
732.93	6212.52
733.271	6306.98
733.612	6236.93
733.953	6253.88
734.294	6295
734.635	6254.78
734.976	6282.12
735.317	6311.95
735.658	6242.58
735.999	6323.93
736.339	6255.91
736.68	6278.28
737.021	6266.53
737.361	6298.85
737.702	6311.95
738.042	6262.24
738.383	6317.15
738.723	6352.86
739.063	6307.21
739.404	6327.09
739.744	6356.25
740.084	6313.31
740.424	6372.74
740.764	6351.95
741.104	6406.64
741.444	6371.16
741.784	6386.08
742.124	6428.11
742.464	6413.19
742.804	6447.99
743.143	6466.3
743.483	6478.28
743.823	6469.46
744.162	6480.31
744.502	6532.74
744.841	6552.17
745.181	6626.97
745.52	6629.23
745.86	6650.02
746.199	6741.77
746.538	6725.05
746.877	6792.62
747.216	6802.79
747.556	6888.66
747.895	6855.89
748.234	6917.13
748.573	6984.03
748.911	7005.27
749.25	7089.79
749.589	7138.15
749.928	7214.75
750.267	7280.29
750.605	7326.16
750.944	7380.63
751.283	7434.64
751.621	7556.44
751.96	7589.66
752.298	7688.87
752.636	7812.93
752.975	7854.06
753.313	7924.11
753.651	8031.46
753.989	8128.18
754.327	8242.3
754.666	8313.48
755.004	8432.8
755.342	8534.95
755.679	8705.34
756.017	8743.75
756.355	8963.63
756.693	9001.37
757.031	9204.76
757.368	9308.03
757.706	9457.18
758.044	9551.87
758.381	9762.48
758.719	9828.7
759.056	10007.67
759.394	10154.11
759.731	10253.09
760.068	10372.86
760.405	10538.51
760.743	10723.14
761.08	10812.63
761.417	11000.64
761.754	11212.84
762.091	11337.13
762.428	11442.89
762.765	11640.17
763.102	11849.21
763.438	11958.58
763.775	12062.76
764.112	12261.85
764.449	12457.55
764.785	12588.17
765.122	12733.03
765.458	12822.74
765.795	13005.11
766.131	13140.93
766.467	13305.67
766.804	13396.96
767.14	13564.42
767.476	13720.8
767.812	13822.72
768.148	14031.75
768.485	14087.34
768.821	14186.55
769.157	14315.81
769.492	14429.71
769.828	14599.64
770.164	14647.1
770.5	14795.57
770.836	14932.97
771.171	14926.64
771.507	15074.89
771.842	15158.95
772.178	15253.64
772.513	15353.07
772.849	15405.27
773.184	15530.24
773.519	15584.48
773.855	15643.68
774.19	15698.15
774.525	15792.61
774.86	15878.71
775.195	15905.6
775.53	16016.33
775.865	16080.51
776.2	15997.8
776.535	15973.62
776.87	16081.19
777.205	16086.84
777.539	16160.06
777.874	16253.39
778.209	16225.82
778.543	16305.36
778.878	16221.07
779.212	16314.63
779.547	16380.84
779.881	16470.33
780.215	16331.8
780.55	16536.54
780.884	16438.01
781.218	16504.23
781.552	16548.52
781.886	16517.79
782.22	16371.12
782.554	16528.41
782.888	16407.28
783.222	16454.96
783.556	16409.54
783.889	16461.74
784.223	16460.84
784.557	16355.76
784.89	16544.45
785.224	16395.08
785.557	16385.81
785.891	16407.05
786.224	16360.5
786.558	16431.91
786.891	16387.85
787.224	16319.37
787.557	16330.45
787.891	16307.62
788.224	16351.01
788.557	16324.34
788.89	16332.48
789.223	16396.21
789.556	16189.21
789.888	16302.65
790.221	16200.96
790.554	16173.39
790.887	16202.09
791.219	16104.69
791.552	16090.9
791.884	16134.75
792.217	16083.67
792.549	16061.75
792.882	15925.26
793.214	15865.83
793.546	15946.95
793.879	15821.53
794.211	15731.37
794.543	15952.15
794.875	15777.47
795.207	15865.6
795.539	15860.85
795.871	15768.43
796.203	15673.29
796.535	15657.47
796.867	15636.23
797.198	15549
797.53	15536.34
797.862	15475.33
798.193	15513.52
798.525	15380.41
798.856	15452.96
799.188	15288.67
799.519	15281.21
799.85	15238.27
800.182	15255.9
800.513	15214.54
800.844	15158.05
801.175	15284.37
801.506	15142
801.837	15050.25
802.168	15093.19
802.499	15048.67
802.83	15003.48
803.161	15004.38
803.491	14969.8
803.822	15004.38
804.153	14938.17
804.483	14850.26
804.814	14749.92
805.145	14713.77
805.475	14874.89
805.805	14742.24
806.136	14734.78
806.466	14724.84
806.796	14653.88
807.126	14600.77
807.457	14550.83
807.787	14598.74
808.117	14536.37
808.447	14490.49
808.777	14446.88
809.107	14435.13
809.436	14344.96
809.766	14309.93
810.096	14325.3
810.426	14204.17
810.755	14325.75
811.085	14242.37
811.414	14243.95
811.744	14132.31
812.073	14126.21
812.403	14210.05
812.732	14069.49
813.061	14068.36
813.39	14017.51
813.719	13978.42
814.049	14041.47
814.378	13946.55
814.707	13876.73
815.036	13872.21
815.365	13788.82
815.693	13797.86
816.022	13785.88
816.351	13653
816.68	13656.62
817.008	13734.36
817.337	13521.48
817.665	13654.58
817.994	13664.3
818.322	13584.53
818.651	13579.78
818.979	13517.86
819.307	13546.34
819.636	13550.86
819.964	13450.97
820.292	13512.89
820.62	13471.31
820.948	13515.38
821.276	13542.05
821.604	13476.74
821.932	13464.53
822.259	13468.83
822.587	13451.88
822.915	13433.57
823.243	13508.83
823.57	13455.72
823.898	13490.52
824.225	13427.02
824.553	13376.85
824.88	13438.09
825.207	13496.62
825.535	13463.86
825.862	13474.25
826.189	13410.75
826.516	13573.68
826.843	13450.07
827.17	13497.07
827.497	13549.95
827.824	13503.4
828.151	13393.35
828.478	13500.92
828.805	13593.8
829.131	13434.48
829.458	13505.21
829.785	13380.47
830.111	13479.22
830.438	13472.89
830.764	13480.58
831.09	13542.27
831.417	13431.99
831.743	13455.72
832.069	13417.53
832.395	13405.33
832.722	13434.03
833.048	13418.43
833.374	13460.92
833.7	13356.97
834.026	13389.73
834.351	13374.59
834.677	13361.26
835.003	13370.98
835.329	13386.57
835.654	13309.73
835.98	13315.38
836.306	13335.72
836.631	13280.81
836.956	13348.83
837.282	13320.36
837.607	13264.54
837.932	13194.03
838.258	13185.44
838.583	13209.4
838.908	13188.38
839.233	13121.94
839.558	13074.94
839.883	13024.32
840.208	13115.16
840.533	13060.48
840.858	13008.27
841.182	13115.39
841.507	12986.81
841.832	12985.22
842.156	12899.8
842.481	12862.29
842.805	12851.67
843.13	12780.71
843.454	12841.5
843.778	12773.03
844.103	12739.13
844.427	12685.8
844.751	12687.15
845.075	12650.32
845.399	12592.92
845.723	12561.05
846.047	12534.16
846.371	12504.78
846.695	12473.15
847.019	12454.39
847.343	12345.47
847.666	12364.9
847.99	12164.91
848.313	12175.75
848.637	12161.52
848.96	12129.88
849.284	12053.5
849.607	12056.43
849.931	11999.94
850.254	11938.47
850.577	11901.64
850.9	11740.28
851.223	11772.83
851.546	11707.52
851.869	11596.56
852.192	11703
852.515	11528.09
852.838	11568.09
853.161	11562.66
853.483	11483.12
853.806	11413.74
854.129	11394.3
854.451	11430.46
854.774	11299.84
855.096	11315.66
855.419	11257.36
855.741	11239.96
856.063	11159.73
856.385	11162.45
856.708	11072.96
857.03	11088.78
857.352	11052.62
857.674	11048.55
857.996	10974.43
858.318	10988.44
858.64	10978.04
858.961	10892.85
859.283	10902.57
859.605	10786.19
859.926	10836.81
860.248	10803.13
860.57	10747.09
860.891	10756.13
861.212	10693.31
861.534	10587.09
861.855	10598.62
862.176	10552.97
862.498	10659.18
862.819	10663.93
863.14	10532.18
863.461	10491.05
863.782	10573.54
864.103	10510.49
864.424	10457.15
864.745	10474.78
865.065	10462.58
865.386	10444.95
865.707	10382.13
866.027	10366.99
866.348	10420.09
866.668	10328.57
866.989	10333.77
867.309	10270.04
867.63	10314.11
867.95	10282.92
868.27	10210.38
868.59	10322.47
868.91	10229.59
869.23	10246.31
869.55	10155.92
869.87	10242.24
870.19	10117.28
870.51	10217.61
870.83	10172.42
871.15	10115.02
871.469	10134.9
871.789	10138.29
872.109	10139.87
872.428	10037.28
872.748	10104.62
873.067	10071.85
873.386	10072.08
873.706	10048.8
874.025	9930.84
874.344	9895.81
874.663	10011.06
874.982	9995.47
875.301	9944.63
875.62	9903.27
875.939	9828.47
876.258	9838.19
876.577	9882.93
876.896	9903.04
877.214	9844.97
877.533	9809.26
877.852	9783.05
878.17	9792.77
878.489	9759.77
878.807	9743.27
879.125	9748.47
879.444	9686.55
879.762	9642.49
880.08	9743.27
880.398	9672.54
880.716	9674.58
881.034	9560.91
881.352	9591.19
881.67	9548.03
881.988	9593.9
882.306	9524.3
882.624	9475.71
882.941	9428.71
883.259	9455.37
883.577	9479.1
883.894	9414.02
884.212	9432.55
884.529	9356.62
884.846	9372.66
885.164	9412.89
885.481	9276.39
885.798	9342.61
886.115	9202.05
886.432	9311.87
886.75	9181.71
887.067	9209.05
887.383	9165.44
887.7	9187.13
888.017	9144.87
888.334	9124.31
888.651	9102.61
888.967	9132.9
889.284	9036.63
889.6	9036.63
889.917	8934.71
890.233	8985.33
890.55	8939.23
890.866	8902.62
891.182	8882.73
891.498	8866.24
891.815	8823.98
892.131	8760.7
892.447	8786.92
892.763	8723.64
893.079	8706.92
893.395	8706.47
893.71	8687.26
894.026	8659.91
894.342	8608.62
894.657	8552.57
894.973	8581.5
895.289	8541.27
895.604	8475.29
895.92	8508.96
896.235	8456.76
896.55	8495.17
896.865	8376.08
897.181	8373.37
897.496	8406.36
897.811	8348.28
898.126	8301.28
898.441	8337.66
898.756	8261.05
899.071	8172.02
899.386	8198.91
899.7	8125.01
900.015	8091.11
900.33	8040.49
900.644	8104
900.959	8024.22
901.273	8029.42
901.588	8031.91
901.902	7869.88
902.216	7976.77
902.531	7879.6
902.845	7922.76
903.159	7791.46
903.473	7768.86
903.787	7714.63
904.101	7681.41
904.415	7692.71
904.729	7664.23
905.042	7630.79
905.356	7608.87
905.67	7557.8
905.984	7531.58
906.297	7508.53
906.611	7513.05
906.924	7458.82
907.237	7476.22
907.551	7437.35
907.864	7376.11
908.177	7435.09
908.491	7344.24
908.804	7282.32
909.117	7194.19
909.43	7169.11
909.743	7143.8
910.056	7128.43
910.368	7173.17
910.681	7089.33
910.994	7094.76
911.307	7082.1
911.619	6974.08
911.932	7044.36
912.244	6962.78
912.557	6924.82
912.869	6928.43
913.181	6869
913.494	6832.39
913.806	6837.36
914.118	6779.74
914.43	6761.66
914.742	6727.08
915.054	6774.54
915.366	6677.37
915.678	6661.32
915.99	6680.08
916.302	6524.38
916.613	6526.18
916.925	6556.47
917.236	6577.48
917.548	6486.41
917.859	6552.85
918.171	6450.71
918.482	6425.17
918.794	6363.48
919.105	6327.55
919.416	6303.59
919.727	6372.52
920.038	6316.47
920.349	6296.59
920.66	6228.79
920.971	6215.68
921.282	6177.27
921.593	6142.69
921.903	6130.26
922.214	6128.45
922.525	6111.28
922.835	6113.77
923.146	6048.46
923.456	6015.69
923.767	6071.06
924.077	6029.02
924.387	6005.29
924.697	5899.99
925.008	5930.49
925.318	5932.75
925.628	5889.59
925.938	5891.17
926.248	5760.78
926.558	5820.44
926.867	5749.26
927.177	5756.49
927.487	5745.41
927.796	5641.91
928.106	5657.73
928.416	5623.16
928.725	5645.53
929.034	5620.22
929.344	5638.98
929.653	5563.05
929.962	5550.16
930.271	5513.78
930.581	5439.66
930.89	5456.61
931.199	5423.16
931.508	5408.02
931.817	5402.82
932.125	5350.17
932.434	5384.75
932.743	5324.63
933.051	5323.5
933.36	5280.34
933.669	5215.26
933.977	5237.63
934.286	5263.62
934.594	5214.13
934.902	5162.6
935.21	5156.73
935.519	5131.64
935.827	5110.4
936.135	5080.57
936.443	5045.55
936.751	5058.88
937.059	5067.47
937.367	5005.55
937.674	4972.1
937.982	4943.85
938.29	4990.63
938.597	4902.05
938.905	4902.27
939.213	4881.48
939.52	4864.08
939.827	4842.39
940.135	4853.23
940.442	4804.87
940.749	4827.92
941.056	4820.69
941.363	4776.17
941.67	4714.93
941.977	4734.59
942.284	4669.06
942.591	4663.63
942.898	4683.52
943.205	4654.6
943.511	4613.24
943.818	4566.24
944.125	4550.64
944.431	4531.43
944.738	4542.51
945.044	4498.89
945.35	4444.66
945.657	4450.08
945.963	4470.19
946.269	4465.45
946.575	4405.56
946.881	4385.22
947.187	4445.56
947.493	4334.83
947.799	4373.25
948.105	4318.33
948.41	4303.19
948.716	4323.3
949.022	4270.65
949.327	4285.79
949.633	4224.55
949.938	4219.58
950.244	4193.14
950.549	4200.82
950.854	4167.15
951.16	4126.93
951.465	4127.15
951.77	4131.67
952.075	4102.97
952.38	4112.24
952.685	4077.44
952.99	3994.5
953.294	4019.13
953.599	3993.14
953.904	3987.27
954.209	3959.47
954.513	3937.33
954.818	3911.11
955.122	3913.15
955.426	3922.86
955.731	3893.94
956.035	3858.23
956.339	3850.55
956.643	3843.09
956.948	3837.67
957.252	3766.03
957.556	3792.02
957.86	3747.5
958.163	3756.31
958.467	3757.44
958.771	3749.99
959.075	3728.29
959.378	3687.16
959.682	3663.66
959.985	3640.16
960.289	3677.45
960.592	3652.36
960.896	3638.35
961.199	3603.78
961.502	3592.48
961.805	3558.13
962.108	3573.27
962.411	3567.84
962.714	3556.32
963.017	3511.8
963.32	3495.3
963.623	3495.3
963.926	3472.48
964.228	3492.82
964.531	3429.77
964.833	3445.14
965.136	3411.24
965.438	3377.79
965.741	3363.1
966.043	3352.03
966.345	3353.16
966.648	3323.33
966.95	3351.58
967.252	3308.42
967.554	3279.94
967.856	3235.65
968.158	3244.46
968.46	3262.09
968.761	3211.92
969.063	3199.72
969.365	3184.13
969.666	3203.56
969.968	3163.56
970.269	3153.39
970.571	3157.01
970.872	3165.82
971.174	3096.44
971.475	3116.56
971.776	3100.29
972.077	3065.71
972.378	3112.94
972.679	3063.9
972.98	3032.04
973.281	3044.92
973.582	3003.34
973.883	3011.93
974.183	2952.72
974.484	2971.02
974.785	2997.69
975.085	2964.7
975.386	2964.24
975.686	2908.88
975.986	2917.69
976.287	2877.47
976.587	2890.8
976.887	2872.72
977.187	2880.86
977.487	2870.01
977.787	2842.89
978.087	2822.33
978.387	2846.51
978.687	2842.44
978.987	2761.99
979.286	2754.98
979.586	2767.64
979.885	2747.3
980.185	2732.16
980.484	2747.75
980.784	2702.33
981.083	2741.43
981.382	2721.09
981.682	2675.44
981.981	2700.07
982.28	2710.69
982.579	2642.22
982.878	2662.56
983.177	2612.39
983.475	2571.03
983.774	2583.69
984.073	2574.42
984.372	2586.63
984.67	2586.4
984.969	2554.99
985.267	2561.32
985.566	2566.97
985.864	2516.8
986.162	2474.77
986.461	2507.76
986.759	2485.61
987.057	2473.18
987.355	2468.89
987.653	2457.59
987.951	2451.94
988.249	2446.74
988.547	2418.27
988.844	2417.59
989.142	2421.43
989.44	2388.67
989.737	2395.67
990.035	2351.83
990.332	2350.93
990.63	2347.09
990.927	2337.82
991.224	2324.94
991.521	2314.54
991.819	2300.98
992.116	2263.92
992.413	2292.62
992.71	2261.44
993.006	2264.38
993.303	2244.94
993.6	2198.61
993.897	2209.69
994.193	2217.82
994.49	2217.82
994.787	2193.42
995.083	2161.33
995.379	2196.58
995.676	2162.68
995.972	2142.12
996.268	2124.94
996.565	2137.37
996.861	2127.66
997.157	2122.23
997.453	2091.72
997.749	2096.92
998.044	2112.97
998.34	2067.54
998.636	2070.93
998.932	2042.23
999.227	2021.44
999.523	2039.75
999.818	2013.31
1000.114	1990.03
1000.409	1997.26
1000.704	1978.28
1001	1980.32
1001.295	1965.17
1001.59	1957.04
1001.885	1957.94
1002.18	1964.72
1002.475	1921.56
1002.77	1953.65
1003.065	1917.27
1003.359	1876.59
1003.654	1896.48
1003.949	1857.15
1004.243	1862.58
1004.538	1856.48
1004.832	1868.68
1005.127	1813.99
1005.421	1833.43
1005.715	1820.55
1006.009	1823.71
1006.304	1797.04
1006.598	1792.75
1006.892	1775.35
1007.186	1709.59
1007.48	1742.13
1007.773	1744.62
1008.067	1771.73
1008.361	1716.82
1008.655	1702.58
1008.948	1705.07
1009.242	1683.37
1009.535	1686.76
1009.829	1660.32
1010.122	1693.77
1010.415	1651.51
1010.708	1643.83
1011.001	1642.24
1011.295	1623.26
1011.588	1646.31
1011.881	1636.14
1012.173	1583.49
1012.466	1591.62
1012.759	1606.99
1013.052	1573.55
1013.344	1555.24
1013.637	1565.41
1013.93	1543.94
1014.222	1516.37
1014.514	1536.03
1014.807	1492.87
1015.099	1519.99
1015.391	1507.11
1015.683	1475.24
1015.976	1499.2
1016.268	1485.64
1016.56	1444.51
1016.851	1467.56
1017.143	1445.19
1017.435	1444.06
1017.727	1436.6
1018.018	1418.07
1018.31	1414.45
1018.602	1427.79
1018.893	1408.35
1019.185	1390.95
1019.476	1376.26
1019.767	1366.55
1020.058	1368.13
1020.35	1357.51
1020.641	1349.6
1020.932	1343.27
1021.223	1304.4
1021.514	1308.02
1021.804	1308.47
1022.095	1289.03
1022.386	1303.95
1022.677	1296.94
1022.967	1262.82
1023.258	1232.54
1023.548	1247.23
1023.839	1245.19
1024.129	1229.6
1024.419	1257.4
1024.709	1214.23
1025	1245.87
1025.29	1187.57
1025.58	1193.22
1025.87	1200
1026.16	1188.47
1026.449	1193.44
1026.739	1164.52
1027.029	1176.72
1027.319	1146.66
1027.608	1158.64
1027.898	1124.97
1028.187	1135.37
1028.477	1150.73
1028.766	1120.45
1029.055	1116.16
1029.344	1086.1
1029.634	1097.85
1029.923	1073.45
1030.212	1084.29
1030.501	1091.3
1030.79	1067.34
1031.078	1067.8
1031.367	1041.81
1031.656	1054.69
1031.945	1018.08
1032.233	1062.83
1032.522	1049.49
1032.81	1060.57
1033.099	1017.63
1033.387	1044.97
1033.675	1014.01
1033.963	1002.04
1034.251	996.39
1034.54	982.6
1034.828	989.61
1035.116	982.15
1035.403	975.14
1035.691	964.07
1035.979	954.58
1036.267	963.39
1036.554	946.44
1036.842	953.9
1037.129	911.87
1037.417	932.66
1037.704	925.43
1037.992	950.06
1038.279	918.42
1038.566	897.86
1038.853	897.86
1039.14	897.86
