Data from hue_24_FLMS001491_00068.txt Node
Date: Tue Feb 07 17:12:36 GMT 2017
User: dcchb
Spectrometer: FLMS00149
Trigger mode: 0
Integration Time (sec): 2.000000E-2
Scans to average: 10
Electric dark correction enabled: true
Nonlinearity correction enabled: false
Boxcar width: 0
XAxis mode: Wavelengths
Number of Pixels in Spectrum: 2048
>>>>>Begin Spectral Data<<<<<
341.393	-8.04
341.776	-8.04
342.16	-8.04
342.543	-55.04
342.927	-61.82
343.31	-49.17
343.693	-80.8
344.077	-60.92
344.46	-79.67
344.843	-69.96
345.226	-46.45
345.61	-36.51
345.993	-35.83
346.376	-12.1
346.759	22.25
347.142	24.28
347.525	52.75
347.908	69.25
348.291	84.62
348.674	103.15
349.057	115.12
349.44	132.3
349.823	147.44
350.206	171.85
350.588	208.23
350.971	235.12
351.354	238.74
351.737	243.93
352.119	266.31
352.502	263.59
352.884	277.83
353.267	296.14
353.65	300.2
354.032	316.7
354.414	331.62
354.797	320.54
355.179	332.75
355.562	316.47
355.944	347.89
356.326	331.84
356.709	338.4
357.091	351.5
357.473	358.73
357.855	371.84
358.238	349.47
358.62	365.96
359.002	352.18
359.384	357.6
359.766	350.82
360.148	362.12
360.53	351.28
360.912	366.19
361.294	343.14
361.676	343.59
362.057	356.25
362.439	360.32
362.821	330.26
363.203	336.81
363.584	337.94
363.966	342.46
364.348	339.3
364.729	343.59
365.111	351.95
365.493	329.58
365.874	333.88
366.256	334.55
366.637	335.23
367.019	323.71
367.4	354.21
367.781	318.73
368.163	325.29
368.544	326.87
368.925	330.49
369.306	341.33
369.688	326.87
370.069	317.38
370.45	342.69
370.831	330.94
371.212	339.75
371.593	333.65
371.974	326.64
372.355	335.01
372.736	348.34
373.117	348.79
373.498	348.11
373.879	342.91
374.26	326.19
374.641	335.68
375.021	318.06
375.402	328
375.783	363.25
376.163	343.37
376.544	344.72
376.925	337.94
377.305	320.99
377.686	357.83
378.066	372.07
378.447	373.87
378.827	344.04
379.208	371.61
379.588	352.86
379.968	338.17
380.349	372.74
380.729	368.22
381.109	360.09
381.489	350.37
381.87	356.7
382.25	358.96
382.63	363.48
383.01	359.64
383.39	382.91
383.77	360.77
384.15	399.64
384.53	398.28
384.91	386.53
385.29	358.96
385.67	370.48
386.049	382.01
386.429	367.32
386.809	392.86
387.189	377.72
387.568	371.61
387.948	381.78
388.328	396.02
388.707	401.22
389.087	381.11
389.466	354.67
389.846	406.64
390.225	367.32
390.605	398.05
390.984	392.86
391.363	393.08
391.743	425.85
392.122	414.1
392.501	393.99
392.881	410.48
393.26	436.25
393.639	415.91
394.018	425.62
394.397	421.33
394.776	421.1
395.155	435.12
395.534	419.75
395.913	410.71
396.292	455.45
396.671	419.75
397.05	424.72
397.429	409.81
397.808	418.84
398.186	432.18
398.565	442.8
398.944	447.54
399.323	446.87
399.701	448.45
400.08	434.66
400.458	440.77
400.837	438.51
401.215	467.43
401.594	442.12
401.972	442.35
402.351	448.22
402.729	452.06
403.107	461.78
403.486	471.05
403.864	457.26
404.242	464.27
404.62	471.5
404.999	489.58
405.377	475.11
405.755	482.8
406.133	479.63
406.511	491.61
406.889	494.1
407.267	498.39
407.645	473.53
408.023	510.14
408.401	505.62
408.779	511.5
409.156	518.96
409.534	506.98
409.912	526.19
410.29	492.52
410.667	536.81
411.045	530.71
411.422	528.9
411.8	520.09
412.178	563.93
412.555	529.12
412.933	541.55
413.31	562.57
413.687	553.3
414.065	542.46
414.442	554.21
414.819	541.78
415.197	560.54
415.574	586.07
415.951	593.53
416.328	570.71
416.705	590.82
417.082	567.77
417.46	575.68
417.837	589.01
418.214	594.21
418.591	608.67
418.967	603.02
419.344	631.04
419.721	611.83
420.098	608.9
420.475	601.89
420.852	635.79
421.228	621.33
421.605	631.95
421.982	622.23
422.358	660.87
422.735	646.18
423.111	638.5
423.488	639.63
423.864	655.22
424.241	672.4
424.617	674.66
424.994	659.29
425.37	679.4
425.746	659.97
426.123	696.13
426.499	677.37
426.875	720.53
427.251	701.1
427.627	708.1
428.003	692.06
428.379	707.42
428.756	732.51
429.132	742.68
429.507	742
429.883	766.41
430.259	778.84
430.635	751.04
431.011	778.61
431.387	790.13
431.763	802.79
432.138	782
432.514	799.63
432.89	817.93
433.265	832.17
433.641	830.59
434.016	823.35
434.392	836.46
434.767	844.14
435.143	836.24
435.518	851.15
435.894	857.03
436.269	867.42
436.644	878.27
437.02	886.4
437.395	882.34
437.77	882.11
438.145	926.63
438.52	893.63
438.895	927.98
439.271	927.53
439.646	952.39
440.021	961.66
440.395	961.66
440.77	953.75
441.145	968.89
441.52	962.79
441.895	989.68
442.27	972.28
442.645	973.41
443.019	1013.41
443.394	1001.88
443.769	999.17
444.143	1008.66
444.518	1019.28
444.892	1017.93
445.267	1007.98
445.641	1032.39
446.016	1012.73
446.39	1021.99
446.764	1062.67
447.139	1042.11
447.513	1074.87
447.887	1047.75
448.262	1056.57
448.636	1085.95
449.01	1101.54
449.384	1086.17
449.758	1091.37
450.132	1099.5
450.506	1124.82
450.88	1151.48
451.254	1138.37
451.628	1113.97
452.002	1170.69
452.376	1188.99
452.75	1198.94
453.123	1188.09
453.497	1203.91
453.871	1208.2
454.244	1235.55
454.618	1222.67
454.992	1238.94
455.365	1257.01
455.739	1257.92
456.112	1273.29
456.486	1301.31
456.859	1321.42
457.232	1368.65
457.606	1320.06
457.979	1356.9
458.352	1353.06
458.725	1398.25
459.099	1418.82
459.472	1392.6
459.845	1430.57
460.218	1461.98
460.591	1454.52
460.964	1466.28
461.337	1491.36
461.71	1514.64
462.083	1528.42
462.456	1539.04
462.829	1560.51
463.201	1577.91
463.574	1552.37
463.947	1619.94
464.32	1642.54
464.692	1686.38
465.065	1652.71
465.438	1677.79
465.81	1703.33
466.183	1725.93
466.555	1730.45
466.928	1743.78
467.3	1763.67
467.672	1807.73
468.045	1836.66
468.417	1841.63
468.789	1848.19
469.161	1902.42
469.534	1907.39
469.906	1946.71
470.278	1990.78
470.65	1977.67
471.022	2030.55
471.394	2072.13
471.766	2085.24
472.138	2130.89
472.51	2167.27
472.882	2202.3
473.253	2187.39
473.625	2228.29
473.997	2292.24
474.369	2290.66
474.74	2355.97
475.112	2401.17
475.484	2411.11
475.855	2486.81
476.227	2527.72
476.598	2555.29
476.97	2602.29
477.341	2656.98
477.713	2726.13
478.084	2710.99
478.455	2775.39
478.827	2860.81
479.198	2882.96
479.569	2926.58
479.94	3031.43
480.311	3074.37
480.682	3147.81
481.053	3221.71
481.424	3256.06
481.795	3298.54
482.166	3360.91
482.537	3417.64
482.908	3446.56
483.279	3527.69
483.65	3639.55
484.021	3696.5
484.391	3728.36
484.762	3788.93
485.133	3818.98
485.503	3883.39
485.874	4020.33
486.244	4059.88
486.615	4126.09
486.985	4159.09
487.356	4242.02
487.726	4316.14
488.097	4381.68
488.467	4436.37
488.837	4502.81
489.207	4577.15
489.578	4679.3
489.948	4696.7
490.318	4815.34
490.688	4830.93
491.058	4934.88
491.428	4962.23
491.798	5039.06
492.168	5169.68
492.538	5191.83
492.908	5267.53
493.278	5328.32
493.648	5369.45
494.017	5452.61
494.387	5519.5
494.757	5601.76
495.126	5620.74
495.496	5644.7
495.866	5645.37
496.235	5725.37
496.605	5815.54
496.974	5844.46
497.344	5924.69
497.713	5975.31
498.082	6019.83
498.452	6074.06
498.821	6124.91
499.19	6113.84
499.559	6203.33
499.928	6269.09
500.298	6310.67
500.667	6399.48
501.036	6378.01
501.405	6474.05
501.774	6454.62
502.143	6495.97
502.512	6525.13
502.88	6585.24
503.249	6672.01
503.618	6689.64
503.987	6733.71
504.356	6764.44
504.724	6799.02
505.093	6871.1
505.462	6842.86
505.83	6880.14
506.199	6952.23
506.567	7021.16
506.936	6982.97
507.304	7129.4
507.672	7204.88
508.041	7215.28
508.409	7195.62
508.777	7282.17
509.145	7294.82
509.514	7337.53
509.882	7337.31
510.25	7472.44
510.618	7468.38
510.986	7480.13
511.354	7572.56
511.722	7547.02
512.09	7629.5
512.458	7686.45
512.826	7688.03
513.193	7750.86
513.561	7763.28
513.929	7836.05
514.297	7958.08
514.664	7938.2
515.032	8048.02
515.4	8076.72
515.767	8010.51
516.135	8134.57
516.502	8096.84
516.869	8169.83
517.237	8212.76
517.604	8223.16
517.972	8295.02
518.339	8299.09
518.706	8421.8
519.073	8366.88
519.44	8382.48
519.808	8488.46
520.175	8469.71
520.542	8606.43
520.909	8652.07
521.276	8609.82
521.643	8732.98
522.009	8744.05
522.376	8816.82
522.743	8842.35
523.11	8938.62
523.477	8976.36
523.843	9089.58
524.21	9127.32
524.577	9212.29
524.943	9157.15
525.31	9260.42
525.676	9386.74
526.043	9326.86
526.409	9439.85
526.776	9512.84
527.142	9537.93
527.508	9567.53
527.874	9635.33
528.241	9612.28
528.607	9693.63
528.973	9852.5
529.339	9814.98
529.705	9910.35
530.071	9942.66
530.437	10053.17
530.803	10102.43
531.169	10123.9
531.535	10122.32
531.901	10141.75
532.267	10231.02
532.632	10263.33
532.998	10286.16
533.364	10395.98
533.73	10364.57
534.095	10452.03
534.461	10527.28
534.826	10620.38
535.192	10680.5
535.557	10677.56
535.923	10662.87
536.288	10771.12
536.653	10812.02
537.019	10802.3
537.384	10947.38
537.749	10926.59
538.114	11020.15
538.479	10996.87
538.845	11096.3
539.21	11056.53
539.575	11157.32
539.94	11144.66
540.305	11219.24
540.67	11157.77
541.034	11273.7
541.399	11199.8
541.764	11396.86
542.129	11436.18
542.494	11395.28
542.858	11510.3
543.223	11489.29
543.587	11582.85
543.952	11527.93
544.316	11638.89
544.681	11733.35
545.045	11748.72
545.41	11771.99
545.774	11836.85
546.138	11894.02
546.503	11904.19
546.867	11880.24
547.231	12075.94
547.595	12042.72
547.959	12097.41
548.324	12139.89
548.688	12138.54
549.052	12152.32
549.416	12238.87
549.779	12274.58
550.143	12302.83
550.507	12377.85
550.871	12467.12
551.235	12384.18
551.599	12500.56
551.962	12521.8
552.326	12544.85
552.689	12668.24
553.053	12593.89
553.417	12715.92
553.78	12764.06
554.143	12798.18
554.507	12796.37
554.87	12820.55
555.234	13038.63
555.597	12942.36
555.96	12969.02
556.323	13005.18
556.686	13098.06
557.05	13173.76
557.413	13240.88
557.776	13282.46
558.139	13315.91
558.502	13336.47
558.865	13322.69
559.228	13385.96
559.59	13489.24
559.953	13489.01
560.316	13636.12
560.679	13681.1
561.041	13740.53
561.404	13789.79
561.767	13794.09
562.129	13841.54
562.492	13950.01
562.854	13919.73
563.217	13977.58
563.579	14063.01
563.941	14102.1
564.304	14128.99
564.666	14203.34
565.028	14228.43
565.39	14224.13
565.753	14288.54
566.115	14497.12
566.477	14439.27
566.839	14552.03
567.201	14570.11
567.563	14615.76
567.925	14658.24
568.287	14705.02
568.648	14639.94
569.01	14836.09
569.372	14891.91
569.734	14829.09
570.095	15022.75
570.457	15146.59
570.819	15135.52
571.18	15143.66
571.542	15220.94
571.903	15333.71
572.265	15392.69
572.626	15478.34
572.987	15465.68
573.349	15502.29
573.71	15538
574.071	15737.76
574.432	15762.85
574.794	15786.8
575.155	15902.73
575.516	15926.23
575.877	16053.46
576.238	16144.99
576.599	16243.97
576.96	16316.28
577.32	16423.4
577.681	16541.36
578.042	16664.97
578.403	16791.75
578.763	16803.27
579.124	16991.52
579.485	17102.7
579.845	17330.49
580.206	17423.37
580.566	17447.55
580.927	17550.82
581.287	17904.49
581.648	17912.4
582.008	18163.24
582.368	18288.21
582.728	18459.95
583.089	18660.4
583.449	18813.84
583.809	18925.25
584.169	19313.49
584.529	19379.48
584.889	19748.96
585.249	19840.93
585.609	20010.42
585.969	20294.48
586.329	20476.4
586.688	20748.71
587.048	21035.7
587.408	21186.89
587.768	21417.61
588.127	21673.88
588.487	21954.32
588.846	22465.72
589.206	22477.93
589.565	22820.52
589.925	23266.38
590.284	23359.03
590.643	23776.42
591.003	24136.41
591.362	24437.87
591.721	24796.06
592.08	24996.96
592.44	25344.74
592.799	25590.16
593.158	25965.97
593.517	26289.58
593.876	26548.1
594.235	26963.46
594.593	27266.5
594.952	27704.23
595.311	27881.85
595.67	28256.98
596.029	28775.39
596.387	29103.97
596.746	29476.84
597.104	29628.7
597.463	29895.13
597.822	30339.41
598.18	30581.22
598.538	30868.89
598.897	31464.58
599.255	31647.18
599.613	32222.53
599.972	32382.52
600.33	32818.9
600.688	32929.4
601.046	33442.84
601.404	33825.42
601.762	33992.2
602.12	34542.02
602.478	34740.2
602.836	35176.12
603.194	35141.77
603.552	35473.74
603.91	35666.51
604.268	36035.76
604.625	36339.93
604.983	36744.44
605.341	36795.74
605.698	37379.68
606.056	37747.13
606.413	37871.42
606.771	38278.19
607.128	38592.3
607.485	38589.37
607.843	38936.48
608.2	39313.64
608.557	39786.62
608.914	39790.69
609.272	40219.61
609.629	40638.8
609.986	40886.71
610.343	40880.38
610.7	41322.63
611.057	41563.3
611.414	41449.4
611.771	41848.94
612.127	42067.24
612.484	42189.95
612.841	42498.42
613.198	42715.13
613.554	42796.49
613.911	43129.59
614.267	43408.22
614.624	43424.95
614.98	43730.47
615.337	44095.89
615.693	44185.83
616.05	44139.96
616.406	44613.16
616.762	44604.12
617.118	44908.97
617.475	44925.25
617.831	45180.38
618.187	45365.69
618.543	45551.44
618.899	45918.89
619.255	45908.95
619.611	45933.58
619.967	46349.16
620.323	46398.65
620.678	46272.33
621.034	46306
621.39	46411.53
621.746	46523.85
622.101	46980.78
622.457	46772.88
622.812	46980.33
623.168	47041.8
623.523	47260.1
623.879	47557.72
624.234	47168.35
624.589	47504.16
624.945	47506.42
625.3	47764.49
625.655	47720.88
626.01	47825.06
626.365	47865.28
626.72	47818.05
627.075	47853.76
627.43	47981.44
627.785	47987.54
628.14	48068.21
628.495	48223.69
628.85	48136.91
629.205	48044.26
629.559	48281.54
629.914	48193.18
630.269	48232.73
630.623	48169.23
630.978	48232.05
631.332	48444.47
631.687	48469.11
632.041	48353.63
632.396	48491.48
632.75	48375.1
633.104	48543.91
633.459	48349.34
633.813	48366.74
634.167	48465.72
634.521	48519.05
634.875	48613.28
635.229	48483.8
635.583	48364.48
635.937	48470.91
636.291	48534.42
636.645	48402.22
636.999	48408.77
637.352	48528.54
637.706	48297.81
638.06	48565.6
638.413	48499.84
638.767	48386.62
639.121	48391.82
639.474	48309.56
639.828	48397.02
640.181	48405.61
640.534	48365.83
640.888	48338.71
641.241	48128.78
641.594	48257.59
641.947	48431.37
642.301	48253.97
642.654	48303.69
643.007	48416.45
643.36	48249.23
643.713	48237.02
644.066	48470.24
644.419	48094.88
644.771	47949.35
645.124	47550.04
645.477	47496.25
645.83	47282.92
646.182	47199.54
646.535	47092.87
646.888	47257.84
647.24	46981.91
647.593	47235.92
647.945	47177.84
648.298	46966.77
648.65	46950.73
649.002	46905.31
649.355	47042.25
649.707	46985.08
650.059	47219.2
650.411	47837.94
650.763	47636.36
651.115	47989.12
651.467	47974.66
651.819	47917.48
652.171	47717.94
652.523	47783.02
652.875	47805.4
653.227	47590.49
653.578	47854.43
653.93	47784.83
654.282	47586.87
654.633	47576.93
654.985	47662.35
655.337	47647.89
655.688	47735.79
656.039	47749.58
656.391	47492.18
656.742	47555.46
657.094	47545.06
657.445	47662.12
657.796	47585.06
658.147	47453.54
658.498	47593.42
658.849	47606.3
659.2	47562.46
659.551	47499.41
659.902	47607.43
660.253	47481.34
660.604	47442.47
660.955	47380.55
661.306	47523.37
661.656	47491.96
662.007	47491.73
662.358	47459.64
662.708	47487.21
663.059	47494.44
663.409	47148.46
663.76	47551.84
664.11	47414.67
664.461	47430.72
664.811	47475.69
665.161	47430.26
665.511	47289.48
665.862	47360.44
666.212	47402.69
666.562	47481.79
666.912	47312.3
667.262	47334
667.612	47200.89
667.962	47390.27
668.312	47343.03
668.662	47454.22
669.011	47336.26
669.361	47263.26
669.711	47268.46
670.06	47203.38
670.41	47048.13
670.76	47046.09
671.109	47206.77
671.459	47097.17
671.808	47172.42
672.157	47232.98
672.507	46968.58
672.856	46875.93
673.205	47135.81
673.554	47239.53
673.904	46993.67
674.253	47178.29
674.602	47129.93
674.951	46585.99
675.3	46334.93
675.649	46964.06
675.998	46979.65
676.346	46944.63
676.695	47104.17
677.044	46713.67
677.393	46836.38
677.741	46968.81
678.09	46900.56
678.438	46694.92
678.787	46926.55
679.135	46829.38
679.484	46519.33
679.832	46722.49
680.181	46430.29
680.529	46521.81
680.877	46478.88
681.225	46336.73
681.573	46539.67
681.922	46352.33
682.27	46193.91
682.618	46212.67
682.966	46179.68
683.314	46216.28
683.661	46148.04
684.009	46060.81
684.357	45795.96
684.705	45760.93
685.053	45968.83
685.4	45798.89
685.748	45584.66
686.095	45515.74
686.443	45428.28
686.79	45440.03
687.138	45487.04
687.485	45530.43
687.832	45289.76
688.18	45334.73
688.527	45019.48
688.874	44941.29
689.221	44996.2
689.568	44939.03
689.915	44884.79
690.262	44847.96
690.609	44757.34
690.956	44565.03
691.303	44686.83
691.65	44423.34
691.997	44450.91
692.344	44221.08
692.69	44114.42
693.037	44141.09
693.383	43806.86
693.73	44000.52
694.077	43678.95
694.423	43702
694.769	43686.41
695.116	43612.51
695.462	43542.23
695.808	43369.81
696.155	43329.81
696.501	43189.92
696.847	43189.47
697.193	42779.99
697.539	42973.43
697.885	42683.27
698.231	42625.42
698.577	42476.5
698.923	42565.99
699.269	42440.11
699.614	42187.69
699.96	42079.67
700.306	42077.86
700.651	41973.01
700.997	41938.66
701.342	41853.91
701.688	41844.65
702.033	41545.22
702.379	41449.86
702.724	41392
703.069	41558.1
703.415	41044.67
703.76	41194.72
704.105	40949.3
704.45	40877.22
704.795	40863.43
705.14	40519.26
705.485	40650.33
705.83	40420.28
706.175	40489.2
706.52	40437.23
706.865	40287.85
707.209	40238.59
707.554	40160.85
707.899	40146.16
708.243	39937.13
708.588	39922.66
708.932	39707.76
709.277	39683.58
709.621	39764.7
709.966	39519.51
710.31	39517.48
710.654	39369.69
710.998	39406.29
711.342	39291.5
711.687	39123.59
712.031	39070.94
712.375	38899.42
712.719	39004.95
713.063	38807.21
713.407	38990.49
713.75	38731.96
714.094	38816.48
714.438	38616.94
714.782	38583.72
715.125	38581.01
715.469	38576.49
715.812	38312.31
716.156	38049.72
716.499	38027.12
716.843	38126.1
717.186	37888.59
717.53	38090.17
717.873	38080.23
718.216	37929.05
718.559	37711.88
718.902	37446.35
719.246	37615.61
719.589	37485.21
719.932	37285.22
720.275	37356.18
720.617	37410.87
720.96	37227.82
721.303	37272.79
721.646	37237.76
721.989	37114.83
722.331	37276.41
722.674	37065.79
723.016	37052.01
723.359	36931.78
723.701	36918.22
724.044	36791.22
724.386	36666.71
724.729	36731.56
725.071	36612.24
725.413	36609.08
725.755	36553.94
726.097	36410.44
726.439	36225.36
726.782	36249.77
727.124	36385.36
727.465	36101.07
727.807	36165.02
728.149	36136.78
728.491	35875.31
728.833	36056.78
729.175	35911.47
729.516	35847.29
729.858	35812.49
730.199	35810.46
730.541	35824.69
730.882	35622.44
731.224	35781.08
731.565	35501.99
731.906	35560.52
732.248	35513.29
732.589	35387.64
732.93	35330.92
733.271	35227.65
733.612	35263.13
733.953	35344.71
734.294	35150.36
734.635	34938.16
734.976	35274.65
735.317	34893.42
735.658	34915.34
735.999	34874.89
736.339	34878.05
736.68	34988.33
737.021	34934.32
737.361	34741.56
737.702	34923.7
738.042	34642.35
738.383	34542.69
738.723	34795.57
739.063	34477.38
739.404	34683.03
739.744	34481.23
740.084	34383.83
740.424	34395.13
740.764	34226.54
741.104	34411.62
741.444	34158.07
741.784	34097.73
742.124	34102.25
742.464	34159.2
742.804	34026.1
743.143	33991.3
743.483	34005.76
743.823	33771.41
744.162	33896.83
744.502	33830.4
744.841	33636.28
745.181	33916.95
745.52	33683.28
745.86	33777.29
746.199	33646.9
746.538	33577.07
746.877	33650.97
747.216	33603.96
747.556	33486.68
747.895	33470.41
748.234	33406
748.573	33202.62
748.911	33282.16
749.25	33227.25
749.589	33074.71
749.928	33147.02
750.267	33138.44
750.605	33163.29
750.944	33053.02
751.283	32832.46
751.621	32970.53
751.96	32806.02
752.298	32859.35
752.636	32921.49
752.975	32651.67
753.313	32494.61
753.651	32621.84
753.989	32528.06
754.327	32424.78
754.666	32224.34
755.004	32268.63
755.342	32272.47
755.679	32389.76
756.017	32075.87
756.355	32074.51
756.693	31951.12
757.031	32003.78
757.368	31814.4
757.706	31691.69
758.044	31718.13
758.381	31699.15
758.719	31612.83
759.056	31607.63
759.394	31469.33
759.731	31318.82
760.068	31211.26
760.405	31199.5
760.743	31084.93
761.08	31214.19
761.417	30945.05
761.754	30896.24
762.091	30870.02
762.428	30707.54
762.765	30601.78
763.102	30680.87
763.438	30538.28
763.775	30331.5
764.112	30553.65
764.449	30444.72
764.785	30196.59
765.122	30124.05
765.458	29886.32
765.795	29872.31
766.131	29816.94
766.467	29745.98
766.804	29561.13
767.14	29537.63
767.476	29466.44
767.812	29336.28
768.148	29326.11
768.485	29152.55
768.821	29000.92
769.157	28965.44
769.492	28838.44
769.828	28920.24
770.164	28614.71
770.5	28526.13
770.836	28598.44
771.171	28305.8
771.507	28401.84
771.842	28093.82
772.178	28210.66
772.513	28008.63
772.849	28034.39
773.184	27744.23
773.519	27798.92
773.855	27616.77
774.19	27454.52
774.525	27465.59
774.86	27435.99
775.195	27374.07
775.53	27268.53
775.865	27066.28
776.2	26898.37
776.535	26796.23
776.87	26692.28
777.205	26700.19
777.539	26597.37
777.874	26623.13
778.209	26374.55
778.543	26330.03
778.878	26134.1
779.212	26181.33
779.547	26025.86
779.881	26114.21
780.215	25873.09
780.55	25946.54
780.884	25732.76
781.218	25632.87
781.552	25690.27
781.886	25374.12
782.22	25325.53
782.554	25243.73
782.888	24991.53
783.222	25006
783.556	24979.1
783.889	24766
784.223	24628.83
784.557	24529.4
784.89	24564.88
785.224	24555.39
785.557	24406.91
785.891	24411.43
786.224	24219.58
786.558	24247.82
786.891	24079.92
787.224	23953.82
787.557	23923.09
787.891	23896.19
788.224	23719.7
788.557	23822.52
788.89	23702.98
789.223	23681.06
789.556	23439.48
789.888	23385.25
790.221	23314.06
790.554	23112.26
790.887	23162.65
791.219	23057.57
791.552	22900.06
791.884	22774.19
792.217	22809.44
792.549	22654.64
792.882	22610.13
793.214	22544.82
793.546	22527.87
793.879	22445.61
794.211	22226.63
794.543	22307.76
794.875	22274.99
795.207	22316.12
795.539	22071.38
795.871	22145.28
796.203	21826.19
796.535	21776.02
796.867	21781
797.198	21755.46
797.53	21691.73
797.862	21510.95
798.193	21578.06
798.525	21355.24
798.856	21414
799.188	21252.65
799.519	21123.61
799.85	21042.26
800.182	21162.03
800.513	21016.27
800.844	20814.69
801.175	20972.2
801.506	20853.79
801.837	20697.86
802.168	20663.74
802.499	20533.8
802.83	20480.01
803.161	20422.16
803.491	20418.55
803.822	20419.67
804.153	20318.21
804.483	20243.41
804.814	20033.7
805.145	20169.74
805.475	20105.11
805.805	19837.54
806.136	19985.34
806.466	20012.68
806.796	19831.67
807.126	19722.29
807.457	19701.05
807.787	19701.5
808.117	19613.37
808.447	19536.31
808.777	19591.67
809.107	19424.9
809.436	19417.22
809.766	19325.24
810.096	19361.4
810.426	19240.04
810.755	19230.33
811.085	19248.18
811.414	19150.33
811.744	18958.02
812.073	19044.57
812.403	18921.86
812.732	18845.25
813.061	18879.6
813.39	18707.4
813.719	18666.95
814.049	18842.99
814.378	18687.97
814.707	18611.81
815.036	18560.06
815.365	18476
815.693	18338.83
816.022	18389.67
816.351	18398.26
816.68	18228.55
817.008	18229
817.337	18069
817.665	18160.07
817.994	18108.1
818.322	18158.49
818.651	18028.78
818.979	17892.28
819.307	18100.19
819.636	17973.64
819.964	17855.67
820.292	17920.98
820.62	17830.36
820.948	17758.95
821.276	17880.76
821.604	17787.2
821.932	17812.96
822.259	17833.75
822.587	17747.88
822.915	17706.3
823.243	17751.5
823.57	17610.48
823.898	17710.37
824.225	17602.12
824.553	17547.43
824.88	17732.74
825.207	17796.02
825.535	17627.21
825.862	17794.66
826.189	17693.87
826.516	17680.54
826.843	17782.23
827.17	17678.73
827.497	17761.67
827.824	17682.35
828.151	17707.66
828.478	17694.55
828.805	17768.9
829.131	17683.93
829.458	17575.23
829.785	17484.84
830.111	17560.32
830.438	17666.08
830.764	17643.93
831.09	17686.87
831.417	17598.51
831.743	17651.39
832.069	17600.77
832.395	17483.93
832.722	17557.38
833.048	17437.38
833.374	17571.16
833.7	17437.38
834.026	17474.22
834.351	17420.88
834.677	17432.18
835.003	17556.25
835.329	17476.25
835.654	17291.17
835.98	17302.92
836.306	17401
836.631	17279.64
836.956	17371.17
837.282	17433.09
837.607	17299.53
837.932	17257.95
838.258	17186.54
838.583	17186.31
838.908	17010.5
839.233	17123.49
839.558	17081.91
839.883	16956.04
840.208	16976.6
840.533	16928.92
840.858	16987
841.182	16991.06
841.507	16931.41
841.832	16723.95
842.156	16735.25
842.481	16726.66
842.805	16668.14
843.13	16750.17
843.454	16654.8
843.778	16575.71
844.103	16620.23
844.427	16380.23
844.751	16533
845.075	16484.41
845.399	16384.07
845.723	16291.87
846.047	16326.22
846.371	16238.99
846.695	16095.95
847.019	16033.35
847.343	16027.7
847.666	15809.17
847.99	15848.5
848.313	15824.32
848.637	15689.4
848.96	15600.59
849.284	15599.69
849.607	15548.62
849.931	15427.72
850.254	15408.51
850.577	15397.21
850.9	15210.77
851.223	15242.86
851.546	15096.43
851.869	15014.17
852.192	15031.79
852.515	14961.74
852.838	14841.97
853.161	14890.55
853.483	14764.91
853.806	14816.66
854.129	14742.31
854.451	14713.16
854.774	14648.08
855.096	14583.22
855.419	14514.52
855.741	14416.89
856.063	14465.48
856.385	14343.22
856.708	14335.32
857.03	14318.14
857.352	14274.98
857.674	14184.13
857.996	14213.96
858.318	14063.23
858.64	14164.02
858.961	14139.39
859.283	14029.11
859.605	13979.39
859.926	13988.43
860.248	13958.83
860.57	13796.12
860.891	13901.65
861.212	13731.26
861.534	13728.33
861.855	13771.49
862.176	13690.59
862.498	13705.28
862.819	13749.57
863.14	13687.2
863.461	13610.14
863.782	13586.86
864.103	13581.21
864.424	13493.98
864.745	13570.59
865.065	13479.29
865.386	13400.65
865.707	13409.24
866.027	13448.33
866.348	13312.52
866.668	13332.86
866.989	13263.48
867.309	13279.52
867.63	13276.81
867.95	13177.15
868.27	13227.55
868.59	13136.02
868.91	13144.61
869.23	13170.37
869.55	12993.66
869.87	13181.9
870.19	13025.52
870.51	13114.1
870.83	13109.81
871.15	12992.98
871.469	12978.74
871.789	12965.18
872.109	13047.67
872.428	12867.78
872.748	12873.43
873.067	12843.83
873.386	12914.56
873.706	12913.21
874.025	12730.61
874.344	12773.55
874.663	12813.32
874.982	12829.14
875.301	12698.97
875.62	12629.6
875.939	12681.8
876.258	12713.66
876.577	12693.55
876.896	12650.39
877.214	12606.1
877.533	12586.66
877.852	12593.89
878.17	12559.32
878.489	12532.42
878.807	12580.56
879.125	12433.22
879.444	12403.61
879.762	12433.67
880.08	12416.95
880.398	12393.67
880.716	12392.99
881.034	12292.43
881.352	12323.39
881.67	12305.76
881.988	12284.07
882.306	12256.5
882.624	12211.98
882.941	12098.76
883.259	12064.19
883.577	12147.35
883.894	12064.64
884.212	12021.93
884.529	12100.8
884.846	12052.21
885.164	11991.87
885.481	11906.68
885.798	11945.77
886.115	11925.66
886.432	11870.07
886.75	11820.81
887.067	11830.3
887.383	11732.67
887.7	11795.95
888.017	11741.94
888.334	11746
888.651	11758.43
888.967	11723.86
889.284	11607.48
889.6	11677.76
889.917	11517.54
890.233	11518.21
890.55	11510.3
890.866	11515.5
891.182	11476.18
891.498	11428.05
891.815	11377.2
892.131	11333.81
892.447	11348.73
892.763	11254.72
893.079	11247.03
893.395	11268.96
893.71	11170.2
894.026	11159.58
894.342	11103.08
894.657	11070.54
894.973	11070.32
895.289	11004.78
895.604	10930.43
895.92	10894.73
896.235	10885.46
896.55	10848.85
896.865	10848.85
897.181	10770.21
897.496	10734.51
897.811	10693.38
898.126	10659.25
898.441	10614.96
898.756	10605.47
899.071	10538.58
899.386	10488.18
899.7	10407.96
900.015	10465.81
900.33	10412.71
900.644	10374.06
900.959	10313.27
901.273	10289.55
901.588	10268.53
901.902	10148.76
902.216	10200.73
902.531	10127.74
902.845	10125.26
903.159	10046.84
903.473	10023.11
903.787	10005.03
904.101	10020.17
904.415	9924.36
904.729	9934.75
905.042	9848.65
905.356	9758.26
905.67	9795.77
905.984	9764.36
906.297	9673.74
906.611	9655.44
906.924	9561.43
907.237	9656.79
907.551	9603.01
907.864	9534.09
908.177	9549.45
908.491	9433.3
908.804	9470.13
909.117	9284.15
909.43	9296.8
909.743	9212.06
910.056	9303.58
910.368	9228.56
910.681	9250.03
910.994	9115.79
911.307	9081.22
911.619	9061.78
911.932	9077.6
912.244	8986.76
912.557	8951.05
912.869	8977.72
913.181	8902.01
913.494	8882.8
913.806	8798.06
914.118	8739.98
914.43	8761
914.742	8687.1
915.054	8687.55
915.366	8669.93
915.678	8620.66
915.99	8594.22
916.302	8512.42
916.613	8497.95
916.925	8478.52
917.236	8466.32
917.548	8380.9
917.859	8365.3
918.171	8340.67
918.482	8293.89
918.794	8230.62
919.105	8248.02
919.416	8182.48
919.727	8152.65
920.038	8179.09
920.349	8118.3
920.66	8041.24
920.971	8025.42
921.282	8024.97
921.593	8032.2
921.903	7897.29
922.214	7832.44
922.525	7868.82
922.835	7856.84
923.146	7701.82
923.456	7777.3
923.767	7694.36
924.077	7690.74
924.387	7677.64
924.697	7652.55
925.008	7625.21
925.318	7588.37
925.628	7531.65
925.938	7396.51
926.248	7382.73
926.558	7382.73
926.867	7379.57
927.177	7307.03
927.487	7368.72
927.796	7259.12
928.106	7218.67
928.416	7235.16
928.725	7198.78
929.034	7140.7
929.344	7120.14
929.653	7122.4
929.962	7021.38
930.271	7003.98
930.581	6999.91
930.89	6935.28
931.199	6906.36
931.508	6832.69
931.817	6889.41
932.125	6822.29
932.434	6840.82
932.743	6769.64
933.051	6741.16
933.36	6691.67
933.669	6672.24
933.977	6629.76
934.286	6592.92
934.594	6642.41
934.902	6553.37
935.21	6556.99
935.519	6547.5
935.827	6527.16
936.135	6468.86
936.443	6415.75
936.751	6385.92
937.059	6418.91
937.367	6365.13
937.674	6388.41
937.982	6300.05
938.29	6310.89
938.597	6255.98
938.905	6231.8
939.213	6128.75
939.52	6198.81
939.827	6154.74
940.135	6146.38
940.442	6073.84
940.749	6048.53
941.056	6043.1
941.363	5999.49
941.67	5946.16
941.977	5889.89
942.284	5981.86
942.591	5898.25
942.898	5881.53
943.205	5889.89
943.511	5808.08
943.818	5805.37
944.125	5756.33
944.431	5785.03
944.738	5729.67
945.044	5688.54
945.35	5685.37
945.657	5619.39
945.963	5622.1
946.269	5588.88
946.575	5559.05
946.881	5521.31
947.187	5518.82
947.493	5495.1
947.799	5470.46
948.105	5434.76
948.41	5384.14
948.716	5446.28
949.022	5409.22
949.327	5378.94
949.633	5316.34
949.938	5324.03
950.244	5328.09
950.549	5241.77
950.854	5226.4
951.16	5247.42
951.465	5213.75
951.77	5217.14
952.075	5102.56
952.38	5114.09
952.685	5175.1
952.99	5067.76
953.294	5071.38
953.599	5055.79
953.904	4969.91
954.209	4978.73
954.513	4936.24
954.818	4924.72
955.122	4955.22
955.426	4919.07
955.731	4864.83
956.035	4878.39
956.339	4848.11
956.643	4836.81
956.948	4772.63
957.252	4783.7
957.556	4739.86
957.86	4787.54
958.163	4748.9
958.467	4674.1
958.771	4651.5
959.075	4663.25
959.378	4624.61
959.682	4653.54
959.985	4617.6
960.289	4555.46
960.592	4533.99
960.896	4545.06
961.199	4500.55
961.502	4487.66
961.805	4465.52
962.108	4503.94
962.411	4467.1
962.714	4428.46
963.017	4439.3
963.32	4404.05
963.623	4365.63
963.926	4367.22
964.228	4366.31
964.531	4341.68
964.833	4317.27
965.136	4248.8
965.438	4262.13
965.741	4223.49
966.043	4197.73
966.345	4227.56
966.648	4163.15
966.95	4130.16
967.252	4138.97
967.554	4083.38
967.856	4097.84
968.158	4054
968.46	4050.61
968.761	4054.46
969.063	4030.95
969.365	4053.33
969.666	4009.03
969.968	3971.75
970.269	3975.14
970.571	3930.17
970.872	3938.3
971.174	3878.87
971.475	3869.15
971.776	3888.36
972.077	3850.39
972.378	3811.3
972.679	3825.99
972.98	3780.56
973.281	3790.51
973.582	3804.07
973.883	3757.29
974.183	3731.75
974.484	3771.98
974.785	3708.93
975.085	3724.07
975.386	3675.03
975.686	3711.64
975.986	3607.24
976.287	3630.51
976.587	3591.87
976.887	3585.09
977.187	3564.07
977.487	3582.38
977.787	3520.46
978.087	3530.4
978.387	3489.5
978.687	3502.38
978.987	3488.82
979.286	3463.06
979.586	3465.54
979.885	3424.64
980.185	3417.64
980.484	3401.82
980.784	3355.04
981.083	3392.55
981.382	3361.82
981.682	3336.51
981.981	3324.98
982.28	3282.27
982.579	3296.06
982.878	3295.61
983.177	3249.28
983.475	3282.27
983.774	3238.43
984.073	3230.75
984.372	3178.77
984.67	3211.54
984.969	3214.25
985.267	3210.86
985.566	3146.68
985.864	3129.73
986.162	3131.09
986.461	3064.88
986.759	3082.28
987.057	3082.96
987.355	3044.09
987.653	3058.32
987.951	3057.42
988.249	3010.64
988.547	3003.18
988.844	3019.68
989.142	3010.42
989.44	2988.95
989.737	2957.76
990.035	2964.31
990.332	2907.37
990.63	2910.76
990.927	2905.79
991.224	2914.6
991.521	2875.28
991.819	2852.45
992.116	2847.26
992.413	2845.67
992.71	2814.71
993.006	2809.97
993.303	2797.31
993.6	2769.07
993.897	2752.57
994.193	2765.22
994.49	2732.46
994.787	2704.66
995.083	2692.91
995.379	2709.86
995.676	2666.92
995.972	2668.73
996.268	2633.7
996.565	2635.96
996.861	2636.64
997.157	2604.78
997.453	2610.43
997.749	2585.79
998.044	2556.64
998.34	2528.85
998.636	2518
998.932	2516.42
999.227	2520.48
999.523	2512.8
999.818	2468.73
1000.114	2486.36
1000.409	2489.98
1000.704	2423.99
1001	2439.81
1001.295	2418.11
1001.59	2423.99
1001.885	2454.72
1002.18	2426.48
1002.475	2396.65
1002.77	2381.28
1003.065	2366.82
1003.359	2303.32
1003.654	2303.77
1003.949	2302.19
1004.243	2330.21
1004.538	2310.32
1004.832	2284.56
1005.127	2280.26
1005.421	2237.33
1005.715	2208.63
1006.009	2224
1006.304	2205.01
1006.598	2185.58
1006.892	2174.28
1007.186	2209.76
1007.48	2169.99
1007.773	2137.44
1008.067	2128.4
1008.361	2151.91
1008.655	2120.04
1008.948	2076.2
1009.242	2100.61
1009.535	2071.46
1009.829	2090.21
1010.122	2075.75
1010.415	2037.11
1010.708	2019.25
1011.001	2001.63
1011.295	2002.76
1011.588	2012.48
1011.881	1973.15
1012.173	1980.61
1012.466	1953.27
1012.759	1930.67
1013.052	1935.42
1013.344	1933.16
1013.637	1903.1
1013.93	1913.49
1014.222	1911.69
1014.514	1881.63
1014.807	1907.85
1015.099	1891.35
1015.391	1866.04
1015.683	1854.29
1015.976	1844.8
1016.268	1805.7
1016.56	1806.15
1016.851	1797.57
1017.143	1754.63
1017.435	1745.59
1017.727	1757.34
1018.018	1748.3
1018.31	1748.75
1018.602	1721.64
1018.893	1704.91
1019.185	1703.56
1019.476	1672.37
1019.767	1682.99
1020.058	1660.17
1020.35	1659.94
1020.641	1671.69
1020.932	1636.44
1021.223	1590.79
1021.514	1579.72
1021.804	1596.22
1022.095	1586.27
1022.386	1586.5
1022.677	1577.68
1022.967	1556.44
1023.258	1579.04
1023.548	1528.19
1023.839	1541.3
1024.129	1516.9
1024.419	1513.73
1024.709	1517.8
1025	1479.83
1025.29	1485.71
1025.58	1497.01
1025.87	1461.3
1026.16	1460.63
1026.449	1456.33
1026.739	1420.4
1027.029	1410.23
1027.319	1392.38
1027.608	1419.72
1027.898	1388.31
1028.187	1390.34
1028.477	1434.64
1028.766	1381.31
1029.055	1346.96
1029.344	1342.44
1029.634	1329.56
1029.923	1323.23
1030.212	1316.9
1030.501	1311.02
1030.79	1292.27
1031.078	1284.13
1031.367	1286.39
1031.656	1278.26
1031.945	1272.38
1032.233	1254.3
1032.522	1254.08
1032.81	1248.43
1033.099	1226.51
1033.387	1223.8
1033.675	1233.74
1033.963	1192.61
1034.251	1221.08
1034.54	1193.51
1034.828	1181.99
1035.116	1176.79
1035.403	1143.12
1035.691	1165.27
1035.979	1165.04
1036.267	1132.5
1036.554	1122.56
1036.842	1093.86
1037.129	1125.72
1037.417	1112.61
1037.704	1102.22
1037.992	1108.32
1038.279	1094.31
1038.566	1084.82
1038.853	1084.82
1039.14	1084.82
