Data from hue_290_FLMS001491_00055.txt Node
Date: Tue Feb 07 15:52:55 GMT 2017
User: dcchb
Spectrometer: FLMS00149
Trigger mode: 0
Integration Time (sec): 2.000000E-2
Scans to average: 10
Electric dark correction enabled: true
Nonlinearity correction enabled: false
Boxcar width: 0
XAxis mode: Wavelengths
Number of Pixels in Spectrum: 2048
>>>>>Begin Spectral Data<<<<<
341.393	-3.46
341.776	-3.46
342.16	-3.46
342.543	-66.51
342.927	-54.98
343.31	-76.9
343.693	-59.5
344.077	-65.15
344.46	-61.31
344.843	-49.56
345.226	-65.61
345.61	-23.35
345.993	-11.37
346.376	9.42
346.759	4.9
347.142	13.71
347.525	56.88
347.908	46.71
348.291	84.9
348.674	85.58
349.057	110.66
349.44	114.28
349.823	136.87
350.206	159.47
350.588	186.82
350.971	196.08
351.354	223.88
351.737	215.29
352.119	241.73
352.502	249.41
352.884	280.15
353.267	278.57
353.65	281.28
354.032	299.81
354.414	314.05
354.797	298.9
355.179	289.64
355.562	305.01
355.944	314.27
356.326	300.49
356.709	332.58
357.091	329.41
357.473	338.45
357.855	328.28
358.238	325.8
358.62	346.81
359.002	355.17
359.384	330.99
359.766	333.93
360.148	324.67
360.53	326.93
360.912	325.34
361.294	305.46
361.676	339.81
362.057	337.55
362.439	322.18
362.821	307.72
363.203	314.27
363.584	345.68
363.966	326.93
364.348	325.57
364.729	324.21
365.111	307.94
365.493	303.65
365.874	316.98
366.256	312.69
366.637	315.63
367.019	324.44
367.4	324.44
367.781	305.91
368.163	316.76
368.544	289.19
368.925	319.69
369.306	313.82
369.688	314.05
370.069	308.17
370.45	286.7
370.831	326.02
371.212	305.23
371.593	316.31
371.974	322.41
372.355	300.03
372.736	306.59
373.117	305.46
373.498	315.63
373.879	305.01
374.26	301.62
374.641	309.53
375.021	296.87
375.402	323.08
375.783	310.2
376.163	314.5
376.544	335.97
376.925	314.27
377.305	309.07
377.686	313.59
378.066	315.18
378.447	328.06
378.827	325.57
379.208	334.84
379.588	325.34
379.968	319.02
380.349	353.59
380.729	329.86
381.109	322.18
381.489	314.05
381.87	324.44
382.25	341.16
382.63	332.12
383.01	332.12
383.39	334.16
383.77	343.88
384.15	330.77
384.53	344.1
384.91	333.03
385.29	349.07
385.67	331.9
386.049	357.43
386.429	332.35
386.809	317.44
387.189	345.68
387.568	345.23
387.948	359.92
388.328	370.54
388.707	365.12
389.087	332.35
389.466	368.51
389.846	333.03
390.225	351.78
390.605	387.94
390.984	360.82
391.363	362.18
391.743	370.54
392.122	374.83
392.501	373.93
392.881	376.19
393.26	382.97
393.639	372.35
394.018	393.37
394.397	391.11
394.776	393.82
395.155	378
395.534	373.48
395.913	408.51
396.292	388.39
396.671	379.81
397.05	401.5
397.429	379.81
397.808	364.67
398.186	390.65
398.565	399.24
398.944	378.45
399.323	419.35
399.701	408.73
400.08	392.69
400.458	403.31
400.837	406.47
401.215	423.87
401.594	418.68
401.972	436.98
402.351	431.78
402.729	420.94
403.107	420.71
403.486	433.59
403.864	430.43
404.242	429.3
404.62	443.99
404.999	436.75
405.377	435.17
405.755	439.92
406.133	455.96
406.511	447.6
406.889	484.66
407.267	454.15
407.645	465.91
408.023	483.76
408.401	488.05
408.779	488.5
409.156	482.4
409.534	500.93
409.912	519.92
410.29	524.66
410.667	509.75
411.045	502.74
411.422	503.19
411.8	537.09
412.178	554.27
412.555	534.83
412.933	521.72
413.31	566.92
413.687	574.15
414.065	568.73
414.442	583.42
414.819	607.82
415.197	603.53
415.574	590.42
415.951	621.83
416.328	628.84
416.705	643.3
417.082	625.22
417.46	642.85
417.837	625
418.214	663.41
418.591	652.12
418.967	698.67
419.344	684.88
419.721	693.24
420.098	685.11
420.475	699.8
420.852	694.37
421.228	727.82
421.605	719.68
421.982	747.25
422.358	730.98
422.735	742.96
423.111	762.4
423.488	763.98
423.864	771.89
424.241	787.03
424.617	798.78
424.994	798.78
425.37	814.82
425.746	827.7
426.123	838.78
426.499	836.97
426.875	823.86
427.251	833.13
427.627	865.9
428.003	874.26
428.379	890.08
428.756	901.37
429.132	911.54
429.507	921.49
429.883	919.45
430.259	958.77
430.635	952.45
431.011	978.89
431.387	970.3
431.763	1014.82
432.138	986.8
432.514	1032.22
432.89	1019.34
433.265	1045.78
433.641	1035.38
434.016	1042.84
434.392	1080.13
434.767	1094.36
435.143	1090.07
435.518	1099.11
435.894	1134.14
436.269	1168.26
436.644	1133.68
437.02	1158.77
437.395	1185.89
437.77	1192.21
438.145	1216.85
438.52	1217.07
438.895	1195.83
439.271	1208.94
439.646	1268.6
440.021	1259.33
440.395	1246.9
440.77	1259.78
441.145	1267.92
441.52	1302.04
441.895	1315.38
442.27	1295.04
442.645	1313.12
443.019	1302.49
443.394	1293
443.769	1345.66
444.143	1329.39
444.518	1375.49
444.892	1364.87
445.267	1365.32
445.641	1371.42
446.016	1380.23
446.39	1387.46
446.764	1396.73
447.139	1388.59
447.513	1387.01
447.887	1367.35
448.262	1401.02
448.636	1388.14
449.01	1420.01
449.384	1444.64
449.758	1462.26
450.132	1425.65
450.506	1467.69
450.88	1448.93
451.254	1444.41
451.628	1465.65
452.002	1465.88
452.376	1505.88
452.75	1483.28
453.123	1503.17
453.497	1524.41
453.871	1530.06
454.244	1574.35
454.618	1566.22
454.992	1594.69
455.365	1577.29
455.739	1620.9
456.112	1605.54
456.486	1612.54
456.859	1635.14
457.232	1683.95
457.606	1648.7
457.979	1688.25
458.352	1705.2
458.725	1676.95
459.099	1708.36
459.472	1740.9
459.845	1771.18
460.218	1783.39
460.591	1790.84
460.964	1780
461.337	1815.02
461.71	1827.9
462.083	1831.29
462.456	1845.76
462.829	1830.39
463.201	1864.06
463.574	1915.36
463.947	1915.13
464.32	1934.12
464.692	1947.22
465.065	1963.72
465.438	1953.32
465.81	1975.24
466.183	1994.45
466.555	2024.96
466.928	2038.75
467.3	2023.38
467.672	2045.75
468.045	2125.98
468.417	2116.26
468.789	2115.58
469.161	2110.61
469.534	2176.82
469.906	2190.38
470.278	2224.05
470.65	2225.63
471.022	2256.14
471.394	2285.97
471.766	2291.62
472.138	2304.5
472.51	2358.96
472.882	2380.88
473.253	2387.66
473.625	2430.15
473.997	2462.01
474.369	2463.37
474.74	2460.43
475.112	2490.26
475.484	2540.65
475.855	2559.18
476.227	2579.97
476.598	2620.88
476.97	2679.63
477.341	2666.75
477.713	2733.19
478.084	2754.21
478.455	2788.78
478.827	2782.91
479.198	2874.88
479.569	2890.93
479.94	2927.08
480.311	2943.81
480.682	2948.55
481.053	3045.27
481.424	3084.82
481.795	3091.83
482.166	3131.15
482.537	3122.56
482.908	3223.57
483.279	3242.78
483.65	3233.97
484.021	3273.97
484.391	3322.33
484.762	3301.54
485.133	3331.82
485.503	3387.64
485.874	3447.07
486.244	3473.51
486.615	3563
486.985	3531.81
487.356	3589.67
487.726	3593.73
488.097	3671.02
488.467	3677.12
488.837	3693.39
489.207	3772.03
489.578	3758.25
489.948	3815.2
490.318	3887.51
490.688	3854.29
491.058	3921.63
491.428	3922.31
491.798	3969.99
492.168	4054.96
492.538	4064.68
492.908	4012.03
493.278	4144.68
493.648	4142.65
494.017	4181.74
494.387	4223.55
494.757	4271.68
495.126	4297.22
495.496	4262.64
495.866	4314.17
496.235	4363.88
496.605	4333.37
496.974	4360.49
497.344	4397.1
497.713	4432.81
498.082	4422.41
498.452	4443.65
498.821	4495.63
499.19	4505.12
499.559	4477.33
499.928	4512.13
500.298	4536.08
500.667	4592.13
501.036	4547.38
501.405	4587.83
501.774	4615.85
502.143	4637.55
502.512	4656.53
502.88	4701.73
503.249	4676.42
503.618	4708.96
503.987	4665.34
504.356	4743.31
504.724	4790.76
505.093	4745.12
505.462	4750.09
505.83	4823.53
506.199	4841.61
506.567	4842.97
506.936	4876.86
507.304	4938.33
507.672	4953.02
508.041	4916.86
508.409	4955.73
508.777	5004.77
509.145	5004.77
509.514	4986.92
509.882	5050.64
510.25	5029.85
510.618	5056.29
510.986	5054.49
511.354	5095.16
511.722	5173.8
512.09	5136.07
512.458	5135.84
512.826	5156.18
513.193	5191.21
513.561	5174.71
513.929	5241.83
514.297	5247.7
514.664	5291.54
515.032	5286.34
515.4	5294.48
515.767	5303.29
516.135	5309.17
516.502	5284.31
516.869	5360.69
517.237	5365.66
517.604	5338.77
517.972	5396.4
518.339	5399.56
518.706	5424.87
519.073	5434.81
519.44	5404.08
519.808	5455.83
520.175	5407.7
520.542	5485.66
520.909	5500.58
521.276	5537.18
521.643	5516.85
522.009	5553.23
522.376	5626.67
522.743	5607.92
523.11	5702.38
523.477	5677.97
523.843	5771.3
524.21	5688.82
524.577	5769.72
524.943	5726.11
525.31	5759.55
525.676	5812.66
526.043	5800.23
526.409	5823.73
526.776	5892.2
527.142	5900.11
527.508	5931.3
527.874	5979.89
528.241	5979.21
528.607	6016.49
528.973	6036.15
529.339	6045.87
529.705	6097.17
530.071	6118.64
530.437	6154.57
530.803	6219.43
531.169	6183.5
531.535	6180.56
531.901	6176.94
532.267	6221.01
532.632	6253.55
532.998	6284.28
533.364	6272.76
533.73	6275.7
534.095	6267.11
534.461	6355.24
534.826	6417.16
535.192	6409.93
535.557	6474.11
535.923	6465.97
536.288	6461.45
536.653	6451.74
537.019	6456.26
537.384	6421
537.749	6590.49
538.114	6540.32
538.479	6538.51
538.845	6618.51
539.21	6617.61
539.575	6614.9
539.94	6671.62
540.305	6678.85
540.67	6704.84
541.034	6691.73
541.399	6782.58
541.764	6743.93
542.129	6705.97
542.494	6766.76
542.858	6816.25
543.223	6788.68
543.587	6809.92
543.952	6800.43
544.316	6842.01
544.681	6862.12
545.045	6852.18
545.41	6963.81
545.774	6956.81
546.138	6916.13
546.503	6969.46
546.867	6992.97
547.231	7007.43
547.595	7022.8
547.959	7001.33
548.324	7046.98
548.688	7077.03
549.052	7103.92
549.416	7083.13
549.779	7164.03
550.143	7131.04
550.507	7157.93
550.871	7198.61
551.235	7138.05
551.599	7225.05
551.962	7254.2
552.326	7220.3
552.689	7255.33
553.053	7276.57
553.417	7249.91
553.78	7354.31
554.143	7314.99
554.507	7291.94
554.87	7327.42
555.234	7415.1
555.597	7415.55
555.96	7398.15
556.323	7385.05
556.686	7446.29
557.05	7486.51
557.413	7500.52
557.776	7459.62
558.139	7491.94
558.502	7524.25
558.865	7514.31
559.228	7552.73
559.59	7577.58
559.953	7652.84
560.316	7719.73
560.679	7644.25
561.041	7716.34
561.404	7722.21
561.767	7745.49
562.129	7712.95
562.492	7773.51
562.854	7844.24
563.217	7809.44
563.579	7823.9
563.941	7892.15
564.304	7890.8
564.666	7964.24
565.028	7938.25
565.39	7931.92
565.753	7924.69
566.115	7951.13
566.477	7998.82
566.839	8027.97
567.201	8086.95
567.563	8072.26
567.925	8119.49
568.287	8129.43
568.648	8120.85
569.01	8172.37
569.372	8261.86
569.734	8263.44
570.095	8348.18
570.457	8342.31
570.819	8359.94
571.18	8332.82
571.542	8439.03
571.903	8502.98
572.265	8475.86
572.626	8505.47
572.987	8559.03
573.349	8556.31
573.71	8610.78
574.071	8611.23
574.432	8717.67
574.794	8784.33
575.155	8741.39
575.516	8837.66
575.877	8872.46
576.238	8859.58
576.599	8979.58
576.96	8995.63
577.32	9048.51
577.681	9108.39
578.042	9185
578.403	9226.13
578.763	9301.38
579.124	9391.55
579.485	9485.56
579.845	9403.07
580.206	9547.25
580.566	9567.81
580.927	9600.35
581.287	9748.6
581.648	9760.35
582.008	9913.34
582.368	10008.03
582.728	10051.42
583.089	10202.82
583.449	10212.54
583.809	10344.29
584.169	10479.65
584.529	10557.17
584.889	10695.24
585.249	10733.88
585.609	10836.48
585.969	10969.81
586.329	11099.98
586.688	11170.48
587.048	11296.13
587.408	11449.8
587.768	11525.73
588.127	11757.81
588.487	11773.41
588.846	11923.68
589.206	12008.65
589.565	12150.34
589.925	12298.36
590.284	12410.22
590.643	12601.41
591.003	12765.7
591.362	12883.66
591.721	13006.37
592.08	13127.27
592.44	13387.15
592.799	13429.63
593.158	13563.41
593.517	13720.92
593.876	13907.81
594.235	13950.52
594.593	14066.68
594.952	14177.86
595.311	14280.01
595.67	14504.18
596.029	14672.09
596.387	14774.91
596.746	14950.5
597.104	14998.63
597.463	15136.93
597.822	15342.12
598.18	15290.37
598.538	15484.49
598.897	15686.07
599.255	15714.32
599.613	16060.3
599.972	16147.53
600.33	16244.25
600.688	16260.29
601.046	16400.18
601.404	16617.35
601.762	16734.63
602.12	16950.44
602.478	17004.45
602.836	17079.71
603.194	17040.16
603.552	17224.56
603.91	17299.81
604.268	17489.86
604.625	17411.9
604.983	17709.75
605.341	17648.96
605.698	17939.34
606.056	17946.12
606.413	18029.51
606.771	18183.18
607.128	18199
607.485	18224.31
607.843	18364.87
608.2	18458.65
608.557	18572.55
608.914	18476.05
609.272	18713.11
609.629	18710.4
609.986	18911.52
610.343	18941.35
610.7	19157.39
611.057	19005.08
611.414	19155.36
611.771	19218.63
612.127	19441
612.484	19415.46
612.841	19515.57
613.198	19485.29
613.554	19665.63
613.911	19762.8
614.267	19878.05
614.624	19800.54
614.98	19881.44
615.337	20008.22
615.693	20017.26
616.05	20064.94
616.406	20242.56
616.762	20125.73
617.118	20193.97
617.475	20337.7
617.831	20354.2
618.187	20483.68
618.543	20419.05
618.899	20585.83
619.255	20610.46
619.611	20536.34
619.967	20767.74
620.323	20770.91
620.678	20751.7
621.034	20784.69
621.39	20795.77
621.746	20755.32
622.101	20963.67
622.457	20840.51
622.812	21049.32
623.168	21013.39
623.523	20985.59
623.879	21153.5
624.234	20994.18
624.589	21135.87
624.945	21038.92
625.3	21185.81
625.655	21232.82
626.01	21172.03
626.365	21261.97
626.72	21235.08
627.075	21202.54
627.43	21358.46
627.785	21318.69
628.14	21340.61
628.495	21333.61
628.85	21409.99
629.205	21262.42
629.559	21380.84
629.914	21375.86
630.269	21425.13
630.623	21235.53
630.978	21246.6
631.332	21372.25
631.687	21308.75
632.041	21273.04
632.396	21244.57
632.75	21258.13
633.104	21287.28
633.459	21209.77
633.813	21290.67
634.167	21198.92
634.521	21219.03
634.875	21165.47
635.229	21115.76
635.583	21105.14
635.937	21131.58
636.291	21109.2
636.645	21121.86
636.999	21087.06
637.352	21173.61
637.706	20924.58
638.06	21151.69
638.413	21063.33
638.767	21057.68
639.121	21083.89
639.474	20955.99
639.828	20984.69
640.181	21005.03
640.534	21044.12
640.888	21055.65
641.241	20835.31
641.594	20917.12
641.947	21009.55
642.301	20978.36
642.654	21040.51
643.007	21011.58
643.36	20913.5
643.713	20780.17
644.066	21121.63
644.419	20913.96
644.771	20762.77
645.124	20540.86
645.477	20555.77
645.83	20461.54
646.182	20390.58
646.535	20327.53
646.888	20431.26
647.24	20262.45
647.593	20472.61
647.945	20398.49
648.298	20285.72
648.65	20323.69
649.002	20234.88
649.355	20275.33
649.707	20242.79
650.059	20424.25
650.411	20582.21
650.763	20694.98
651.115	20874.86
651.467	20788.31
651.819	20775.88
652.171	20764.36
652.523	20721.19
652.875	20701.08
653.227	20642.1
653.578	20858.59
653.93	20698.59
654.282	20675.32
654.633	20699.72
654.985	20784.02
655.337	20706.96
655.688	20836.44
656.039	20863.11
656.391	20677.35
656.742	20848.87
657.094	20743.56
657.445	20867.4
657.796	20782.43
658.147	20763.9
658.498	20779.5
658.849	20845.71
659.2	20860.17
659.551	20687.52
659.902	20893.39
660.253	20784.02
660.604	20803.45
660.955	20736.56
661.306	20919.83
661.656	20912.37
662.007	20774.52
662.358	20826.5
662.708	20836.67
663.059	20803.22
663.409	20688.2
663.76	20920.28
664.11	20831.02
664.461	20847.29
664.811	20919.61
665.161	20908.31
665.511	20836.67
665.862	20734.07
666.212	20872.6
666.562	20905.37
666.912	20816.78
667.262	20854.97
667.612	20852.71
667.962	20855.43
668.312	20846.39
668.662	20903.56
669.011	20828.76
669.361	20732.27
669.711	20707.86
670.06	20770.46
670.41	20762.77
670.76	20712.61
671.109	20853.84
671.459	20691.14
671.808	20792.15
672.157	20769.78
672.507	20592.38
672.856	20690.23
673.205	20642.1
673.554	20784.02
673.904	20723.23
674.253	20796.9
674.602	20737.69
674.951	20367.98
675.3	20315.78
675.649	20652.04
675.998	20641.42
676.346	20644.81
676.695	20657.24
677.044	20531.37
677.393	20577.24
677.741	20529.79
678.09	20552.16
678.438	20411.6
678.787	20457.24
679.135	20547.64
679.484	20358.94
679.832	20440.3
680.181	20275.1
680.529	20338.83
680.877	20329.34
681.225	20361.65
681.573	20415.44
681.922	20262
682.27	20218.15
682.618	20145.16
682.966	20155.33
683.314	20172.05
683.661	20171.38
684.009	20023.13
684.357	19970.93
684.705	19915.34
685.053	20062.23
685.4	19921.89
685.748	19734.33
686.095	19712.41
686.443	19633.31
686.79	19664.27
687.138	19740.43
687.485	19601.22
687.832	19592.86
688.18	19598.06
688.527	19488.68
688.874	19401.91
689.221	19504.05
689.568	19350.61
689.915	19357.61
690.262	19281.91
690.609	19217.73
690.956	19144.51
691.303	19084.85
691.65	19019.09
691.997	19007.57
692.344	18990.16
692.69	18949.94
693.037	18821.58
693.383	18757.85
693.73	18808.7
694.077	18636.73
694.423	18628.37
694.769	18587.69
695.116	18606.22
695.462	18579.55
695.808	18474.25
696.155	18518.09
696.501	18295.95
696.847	18295.27
697.193	18168.49
697.539	18289.39
697.885	18005.78
698.231	18015.5
698.577	17994.48
698.923	17999.23
699.269	17951.1
699.614	17773.25
699.96	17702.97
700.306	17880.82
700.651	17604.44
700.997	17525.12
701.342	17572.35
701.688	17568.06
702.033	17417.78
702.379	17378.68
702.724	17415.97
703.069	17457.32
703.415	17095.75
703.76	17145.47
704.105	17120.38
704.45	17019.82
704.795	16965.36
705.14	16964
705.485	16875.87
705.83	16787.28
706.175	16823.89
706.52	16850.11
706.865	16697.8
707.209	16695.99
707.554	16627.29
707.899	16665.71
708.243	16581.19
708.588	16509.33
708.932	16456.9
709.277	16417.58
709.621	16398.59
709.966	16346.17
710.31	16328.54
710.654	16131.03
710.998	16166.06
711.342	16200.63
711.687	16201.99
712.031	16046.29
712.375	16056.46
712.719	16038.6
713.063	15949.34
713.407	16013.75
713.75	15882.22
714.094	15915.22
714.438	15854.65
714.782	15850.13
715.125	15704.15
715.469	15745.73
715.812	15687.43
716.156	15592.51
716.499	15607.88
716.843	15674.77
717.186	15576.24
717.53	15540.54
717.873	15657.14
718.216	15558.16
718.559	15518.62
718.902	15414.89
719.246	15511.16
719.589	15436.13
719.932	15344.84
720.275	15369.47
720.617	15368.56
720.96	15236.59
721.303	15355.23
721.646	15276.36
721.989	15221
722.331	15273.88
722.674	15241.34
723.016	15261.22
723.359	15197.95
723.701	15293.76
724.044	15098.06
724.386	15015.81
724.729	15174.45
725.071	15054.22
725.413	15080.44
725.755	15086.31
726.097	15009.7
726.439	14948.01
726.782	14984.17
727.124	15093.77
727.465	14953.89
727.807	14953.21
728.149	14926.54
728.491	14928.35
728.833	14926.99
729.175	14867.56
729.516	14884.96
729.858	14839.54
730.199	14980.78
730.541	14879.76
730.882	14850.84
731.224	14866.66
731.565	14877.96
731.906	14764.06
732.248	14820.1
732.589	14765.87
732.93	14780.33
733.271	14645.19
733.612	14767.45
733.953	14752.76
734.294	14717.51
734.635	14759.99
734.976	14765.87
735.317	14655.36
735.658	14655.59
735.999	14649.04
736.339	14689.49
736.68	14737.62
737.021	14695.81
737.361	14754.34
737.702	14749.82
738.042	14752.99
738.383	14683.16
738.723	14688.36
739.063	14705.76
739.404	14766.32
739.744	14622.14
740.084	14745.98
740.424	14745.53
740.764	14793.44
741.104	14828.92
741.444	14738.3
741.784	14778.07
742.124	14789.6
742.464	14806.55
742.804	14735.36
743.143	14851.74
743.483	14916.6
743.823	14837.05
744.162	14847.9
744.502	14908.46
744.841	14870.5
745.181	14902.81
745.52	14906.2
745.86	15028.69
746.199	15023.49
746.538	15030.04
746.877	15140.55
747.216	15173.77
747.556	15170.38
747.895	15291.96
748.234	15241.34
748.573	15205.41
748.911	15343.93
749.25	15432.07
749.589	15384.61
749.928	15535.11
750.267	15646.07
750.605	15689.46
750.944	15670.93
751.283	15746.18
751.621	15873.86
751.96	15859.17
752.298	15997.93
752.636	16172.16
752.975	16183.68
753.313	16063.91
753.651	16309.78
753.989	16349.1
754.327	16538.7
754.666	16448.31
755.004	16615.54
755.342	16683.56
755.679	16828.41
756.017	16915.64
756.355	17039.71
756.693	17035.19
757.031	17240.15
757.368	17243.09
757.706	17418.23
758.044	17448.06
758.381	17514.5
758.719	17688.5
759.056	17780.93
759.394	17969.17
759.731	17908.39
760.068	17978.44
760.405	18131.66
760.743	18225.21
761.08	18318.54
761.417	18389.28
761.754	18534.13
762.091	18663.39
762.428	18608.25
762.765	18681.02
763.102	18922.14
763.438	18856.61
763.775	18969.15
764.112	19055.25
764.449	19188.8
764.785	19175.7
765.122	19189.48
765.458	19202.36
765.795	19286.2
766.131	19384.96
766.467	19410.94
766.804	19342.02
767.14	19465.18
767.476	19555.8
767.812	19593.99
768.148	19689.58
768.485	19570.04
768.821	19667.43
769.157	19717.38
769.492	19709.02
769.828	19761.22
770.164	19637.15
770.5	19732.74
770.836	19826.75
771.171	19650.49
771.507	19828.11
771.842	19628.57
772.178	19808.45
772.513	19767.32
772.849	19901.1
773.184	19705.63
773.519	19881.44
773.855	19857.03
774.19	19806.87
774.525	19782.46
774.86	19708.34
775.195	19817.26
775.53	19733.65
775.865	19617.49
776.2	19566.87
776.535	19542.92
776.87	19584.5
777.205	19495.46
777.539	19555.57
777.874	19619.75
778.209	19398.06
778.543	19384.28
778.878	19397.16
779.212	19397.39
779.547	19314.22
779.881	19381.11
780.215	19231.29
780.55	19347.67
780.884	19282.13
781.218	19211.18
781.552	19186.09
781.886	19076.72
782.22	19011.18
782.554	19043.72
782.888	18880.11
783.222	18727.35
783.556	18814.58
783.889	18810.51
784.223	18657.74
784.557	18725.99
784.89	18703.39
785.224	18591.3
785.557	18524.19
785.891	18525.77
786.224	18426.11
786.558	18536.39
786.891	18186.34
787.224	18234.03
787.557	18248.49
787.891	18255.49
788.224	18246.91
788.557	18153.12
788.89	18070.87
789.223	18161.26
789.556	18033.81
789.888	17972.56
790.221	17921.04
790.554	17844.66
790.887	17810.31
791.219	17687.83
791.552	17656.19
791.884	17689.63
792.217	17499.81
792.549	17527.83
792.882	17427.72
793.214	17376.42
793.546	17379.36
793.879	17265.24
794.211	17192.92
794.543	17259.81
794.875	17164
795.207	17175.3
795.539	17125.81
795.871	17114.73
796.203	16889.43
796.535	16852.82
796.867	16839.03
797.198	16865.02
797.53	16813.95
797.862	16628.64
798.193	16594.07
798.525	16574.18
798.856	16580.06
799.188	16430.91
799.519	16360.86
799.85	16333.74
800.182	16365.15
800.513	16386.62
800.844	16201.54
801.175	16253.97
801.506	16278.6
801.837	16210.12
802.168	16157.02
802.499	16084.7
802.83	15982.79
803.161	15966.74
803.491	15974.65
803.822	15883.13
804.153	15785.95
804.483	15672.06
804.814	15689.23
805.145	15651.95
805.475	15680.42
805.805	15548.45
806.136	15601.33
806.466	15622.34
806.796	15517.49
807.126	15490.37
807.457	15376.7
807.787	15422.57
808.117	15322.92
808.447	15273.43
808.777	15317.27
809.107	15258.96
809.436	15172.41
809.766	15225.97
810.096	15131.06
810.426	15089.93
810.755	15072.08
811.085	15044.51
811.414	14952.53
811.744	14822.59
812.073	14831.4
812.403	14891.74
812.732	14770.61
813.061	14775.59
813.39	14740.56
813.719	14695.59
814.049	14742.14
814.378	14641.35
814.707	14657.62
815.036	14541.24
815.365	14527.91
815.693	14428.02
816.022	14404.3
816.351	14357.97
816.68	14338.08
817.008	14381.25
817.337	14185.55
817.665	14322.26
817.994	14273
818.322	14186.22
818.651	14106.9
818.979	14124.53
819.307	14172.21
819.636	14061.48
819.964	14009.73
820.292	14125.21
820.62	14093.12
820.948	13999.34
821.276	14045.89
821.604	14041.14
821.932	14060.35
822.259	13982.39
822.587	13994.82
822.915	13966.79
823.243	14015.61
823.57	13980.35
823.898	13959.56
824.225	13925.21
824.553	13965.21
824.88	13969.51
825.207	13994.14
825.535	13998.21
825.862	14066
826.189	13910.52
826.516	14006.57
826.843	14068.71
827.17	13963.18
827.497	14017.87
827.824	14012.44
828.151	13965.89
828.478	14001.82
828.805	14043.18
829.131	13912.11
829.458	13953.46
829.785	13863.52
830.111	13910.75
830.438	13975.61
830.764	13970.41
831.09	13981.26
831.417	13868.72
831.743	13943.97
832.069	13993.91
832.395	13818.78
832.722	13870.07
833.048	13849.96
833.374	13859.68
833.7	13830.98
834.026	13795.05
834.351	13769.06
834.677	13809.96
835.003	13793.01
835.329	13814.93
835.654	13749.62
835.98	13693.81
836.306	13696.97
836.631	13665.33
836.956	13740.59
837.282	13721.38
837.607	13675.28
837.932	13580.59
838.258	13729.06
838.583	13628.95
838.908	13546.69
839.233	13547.37
839.558	13463.08
839.883	13425.11
840.208	13351.44
840.533	13446.36
840.858	13438.67
841.182	13444.1
841.507	13427.82
841.832	13322.06
842.156	13213.14
842.481	13305.34
842.805	13290.43
843.13	13277.77
843.454	13145.12
843.778	13188.74
844.103	13137.66
844.427	13038.91
844.751	13145.57
845.075	13062.86
845.399	13037.1
845.723	12908.06
846.047	12991.45
846.371	12813.83
846.695	12834.17
847.019	12702.65
847.343	12645.02
847.666	12595.53
847.99	12620.84
848.313	12580.16
848.637	12468.53
848.96	12415.65
849.284	12463.1
849.607	12259.27
849.931	12303.11
850.254	12244.35
850.577	12183.56
850.9	12153.51
851.223	12098.37
851.546	11999.84
851.869	11976.11
852.192	11988.31
852.515	11949.22
852.838	11863.12
853.161	11873.29
853.483	11812.27
853.806	11741.09
854.129	11683.01
854.451	11679.17
854.774	11660.87
855.096	11583.13
855.419	11585.16
855.741	11574.09
856.063	11509.46
856.385	11417.26
856.708	11365.73
857.03	11445.73
857.352	11345.39
857.674	11313.08
857.996	11293.87
858.318	11136.59
858.64	11250.26
858.961	11159.41
859.283	11148.11
859.605	11095.91
859.926	11124.38
860.248	11141.33
860.57	11052.52
860.891	11025.4
861.212	10939.08
861.534	10945.18
861.855	10882.36
862.176	10935.91
862.498	10939.98
862.819	10859.08
863.14	10822.47
863.461	10859.76
863.782	10769.59
864.103	10777.73
864.424	10768.69
864.745	10798.74
865.065	10675.13
865.386	10651.63
865.707	10655.69
866.027	10694.34
866.348	10673.1
866.668	10616.15
866.989	10564.62
867.309	10534.12
867.63	10548.13
867.95	10514.68
868.27	10480.11
868.59	10561.01
868.91	10452.08
869.23	10419.32
869.55	10419.09
869.87	10453.89
870.19	10489.37
870.51	10430.84
870.83	10391.75
871.15	10347.45
871.469	10350.84
871.789	10362.14
872.109	10297.74
872.428	10257.51
872.748	10399.66
873.067	10278.08
873.386	10304.29
873.706	10331.41
874.025	10269.26
874.344	10169.15
874.663	10291.18
874.982	10140.68
875.301	10188.59
875.62	10118.53
875.939	10073.79
876.258	10104.97
876.577	10103.39
876.896	10035.15
877.214	10038.31
877.533	10080.79
877.852	10025.43
878.17	10000.8
878.489	9987.24
878.807	10001.47
879.125	9969.61
879.444	9898.43
879.762	9865.21
880.08	9853.23
880.398	9898.88
880.716	9932.1
881.034	9864.08
881.352	9812.78
881.67	9820.01
881.988	9766.9
882.306	9735.94
882.624	9791.54
882.941	9768.94
883.259	9662.27
883.577	9672.9
883.894	9610.07
884.212	9644.87
884.529	9613.01
884.846	9577.98
885.164	9559.68
885.481	9440.81
885.798	9509.06
886.115	9441.26
886.432	9471.32
886.75	9432
887.067	9497.53
887.383	9396.97
887.7	9403.75
888.017	9405.11
888.334	9398.1
888.651	9344.99
888.967	9371.21
889.284	9260.93
889.6	9217.99
889.917	9179.8
890.233	9196.75
890.55	9135.06
890.866	9149.97
891.182	9078.56
891.498	9113.81
891.815	9032.69
892.131	9041.05
892.447	8993.37
892.763	8948.39
893.079	8948.17
893.395	8891
893.71	8863.88
894.026	8903.65
894.342	8830.43
894.657	8807.83
894.973	8814.61
895.289	8738.23
895.604	8803.99
895.92	8709.53
896.235	8660.49
896.55	8674.73
896.865	8641.51
897.181	8559.48
897.496	8591.34
897.811	8554.05
898.126	8566.94
898.441	8445.58
898.756	8377.56
899.071	8399.48
899.386	8383.44
899.7	8327.39
900.015	8313.38
900.33	8247.4
900.644	8238.13
900.959	8269.54
901.273	8168.08
901.588	8179.83
901.902	8110.22
902.216	8072.26
902.531	8053.5
902.845	7992.04
903.159	7993.17
903.473	7978.7
903.787	7950.45
904.101	7947.74
904.415	7900.74
904.729	7827.97
905.042	7779.61
905.356	7799.5
905.67	7827.52
905.984	7725.83
906.297	7766.05
906.611	7681.76
906.924	7710.01
907.237	7665.04
907.551	7636.79
907.864	7626.17
908.177	7512.05
908.491	7552.05
908.804	7502.56
909.117	7457.59
909.43	7427.53
909.743	7377.36
910.056	7349.57
910.368	7345.27
910.681	7360.87
910.994	7268.89
911.307	7289.68
911.619	7211.72
911.932	7225.73
912.244	7141.66
912.557	7143.47
912.869	7147.54
913.181	7051.72
913.494	7079.07
913.806	7003.36
914.118	6970.59
914.43	6975.57
914.742	6990.48
915.054	6923.59
915.366	6853.99
915.678	6836.36
915.99	6834.1
916.302	6813.31
916.613	6798.62
916.925	6776.47
917.236	6721.79
917.548	6702.13
917.859	6680.88
918.171	6604.73
918.482	6575.8
918.794	6556.14
919.105	6568.8
919.416	6470.95
919.727	6453.77
920.038	6497.16
920.349	6405.64
920.66	6382.81
920.971	6402.47
921.282	6343.94
921.593	6288.13
921.903	6272.08
922.214	6296.94
922.525	6208.35
922.835	6165.42
923.146	6161.8
923.456	6163.38
923.767	6124.06
924.077	6121.35
924.387	6106.89
924.697	6072.54
925.008	6071.86
925.318	6051.3
925.628	6025.31
925.938	5903.5
926.248	5901.92
926.558	5960.9
926.867	5912.54
927.177	5877.74
927.487	5765.43
927.796	5764.75
928.106	5776.95
928.416	5788.25
928.725	5804.52
929.034	5686.79
929.344	5681.14
929.653	5675.49
929.962	5625.77
930.271	5642.27
930.581	5607.92
930.89	5589.84
931.199	5489.73
931.508	5467.58
931.817	5510.74
932.125	5486.11
932.434	5479.11
932.743	5402.73
933.051	5388.71
933.36	5428.94
933.669	5363.63
933.977	5346.68
934.286	5301.94
934.594	5278.66
934.902	5260.58
935.21	5224.65
935.519	5257.42
935.827	5222.84
936.135	5167.03
936.443	5132.9
936.751	5131.32
937.059	5116.86
937.367	5083.64
937.674	5085.45
937.982	5073.69
938.29	5036.18
938.597	5007.03
938.905	4975.39
939.213	4950.31
939.52	4930.2
939.827	4958.9
940.135	4920.25
940.442	4902.4
940.749	4851.1
941.056	4898.11
941.363	4837.09
941.67	4814.27
941.977	4756.19
942.284	4773.82
942.591	4745.57
942.898	4735.17
943.205	4685.91
943.511	4722.97
943.818	4674.83
944.125	4608.4
944.431	4621.73
944.738	4631.22
945.044	4580.83
945.35	4540.83
945.657	4519.13
945.963	4518.45
946.269	4505.8
946.575	4476.2
946.881	4420.15
947.187	4443.65
947.493	4424.22
947.799	4389.19
948.105	4363.66
948.41	4346.93
948.716	4368.85
949.022	4372.92
949.327	4322.3
949.633	4247.95
949.938	4244.34
950.244	4210.67
950.549	4255.18
950.854	4219.48
951.16	4192.59
951.465	4140.39
951.77	4139.26
952.075	4093.16
952.38	4136.54
952.685	4100.39
952.99	4033.72
953.294	4062.42
953.599	4034.17
953.904	3990.33
954.209	4026.26
954.513	4034.63
954.818	3974.74
955.122	3977.9
955.426	3918.24
955.731	3932.48
956.035	3908.53
956.339	3888.19
956.643	3884.57
956.948	3850
957.252	3845.48
957.556	3825.59
957.86	3833.27
958.163	3821.52
958.467	3800.06
958.771	3803.45
959.075	3740.85
959.378	3728.87
959.682	3741.75
959.985	3721.19
960.289	3705.59
960.592	3651.13
960.896	3646.61
961.199	3646.61
961.502	3622.88
961.805	3593.28
962.108	3612.49
962.411	3562.77
962.714	3532.94
963.017	3512.61
963.32	3544.02
963.623	3496.79
963.926	3499.05
964.228	3477.35
964.531	3443.23
964.833	3448.2
965.136	3450.69
965.438	3430.57
965.741	3384.7
966.043	3416.34
966.345	3356.68
966.648	3324.59
966.95	3367.52
967.252	3332.72
967.554	3321.65
967.856	3324.14
968.158	3288.43
968.46	3290.01
968.761	3278.94
969.063	3257.02
969.365	3269.9
969.666	3259.28
969.968	3223.35
970.269	3205.49
970.571	3171.15
970.872	3179.96
971.174	3148.77
971.475	3095.89
971.776	3141.77
972.077	3095.67
972.378	3090.92
972.679	3074.42
972.98	3041.21
973.281	3038.27
973.582	3042.79
973.883	3044.14
974.183	2975.22
974.484	3016.12
974.785	3000.75
975.085	3002.56
975.386	2977.7
975.686	2934.09
975.986	2949
976.287	2942.22
976.587	2872.62
976.887	2900.19
977.187	2869.68
977.487	2861.55
977.787	2845.5
978.087	2867.65
978.387	2818.84
978.687	2822.45
978.987	2843.92
979.286	2804.15
979.586	2772.74
979.885	2758.27
980.185	2757.6
980.484	2761.44
980.784	2748.33
981.083	2757.6
981.382	2741.33
981.682	2675.11
981.981	2698.84
982.28	2633.98
982.579	2639.41
982.878	2655.68
983.177	2623.36
983.475	2650.03
983.774	2645.28
984.073	2582.91
984.372	2561.44
984.67	2565.29
984.969	2563.48
985.267	2572.29
985.566	2535.91
985.864	2522.8
986.162	2510.82
986.461	2542.69
986.759	2497.26
987.057	2455.23
987.355	2462.46
987.653	2449.81
987.951	2469.02
988.249	2416.36
988.547	2422.24
988.844	2400.32
989.142	2418.62
989.44	2413.43
989.737	2351.51
990.035	2361.45
990.332	2386.53
990.63	2362.35
990.927	2371.62
991.224	2325.07
991.521	2326.42
991.819	2319.64
992.116	2307.89
992.413	2282.13
992.71	2237.38
993.006	2278.97
993.303	2251.17
993.6	2250.49
993.897	2248.46
994.193	2241
994.49	2216.37
994.787	2170.49
995.083	2164.62
995.379	2174.11
995.676	2150.16
995.972	2169.36
996.268	2150.61
996.565	2152.64
996.861	2135.47
997.157	2124.39
997.453	2110.16
997.749	2110.83
998.044	2108.8
998.34	2071.06
998.636	2083.26
998.932	2007.79
999.227	2050.72
999.523	2048.01
999.818	2037.39
1000.114	2002.36
1000.409	1971.85
1000.704	1979.09
1001	1989.48
1001.295	1920.33
1001.59	1969.82
1001.885	1921.69
1002.18	1918.75
1002.475	1929.37
1002.77	1951.29
1003.065	1927.11
1003.359	1921.91
1003.654	1892.53
1003.949	1858.19
1004.243	1891.41
1004.538	1836.72
1004.832	1843.5
1005.127	1874.46
1005.421	1795.14
1005.715	1844.17
1006.009	1826.55
1006.304	1804.63
1006.598	1804.4
1006.892	1789.71
1007.186	1753.78
1007.48	1741.35
1007.773	1747
1008.067	1709.26
1008.361	1727.57
1008.655	1725.08
1008.948	1697.06
1009.242	1684.86
1009.535	1708.81
1009.829	1691.18
1010.122	1661.58
1010.415	1658.19
1010.708	1651.86
1011.001	1639.21
1011.295	1637.85
1011.588	1623.39
1011.881	1601.92
1012.173	1627.91
1012.466	1614.58
1012.759	1578.87
1013.052	1579.32
1013.344	1571.41
1013.637	1550.17
1013.93	1533.9
1014.222	1515.82
1014.514	1502.26
1014.807	1538.87
1015.099	1508.59
1015.391	1530.96
1015.683	1500
1015.976	1509.27
1016.268	1490.74
1016.56	1460.23
1016.851	1480.34
1017.143	1451.42
1017.435	1423.62
1017.727	1457.29
1018.018	1434.24
1018.31	1391.53
1018.602	1391.76
1018.893	1403.73
1019.185	1387.69
1019.476	1373
1019.767	1384.3
1020.058	1353.57
1020.35	1351.76
1020.641	1361.48
1020.932	1325.32
1021.223	1316.28
1021.514	1350.18
1021.804	1324.19
1022.095	1304.08
1022.386	1281.7
1022.677	1255.26
1022.967	1309.05
1023.258	1278.77
1023.548	1249.39
1023.839	1280.12
1024.129	1264.3
1024.419	1241.25
1024.709	1222.72
1025	1214.13
1025.29	1187.69
1025.58	1220.24
1025.87	1173.23
1026.16	1192.44
1026.449	1200.35
1026.739	1197.41
1027.029	1158.32
1027.319	1161.93
1027.608	1168.26
1027.898	1149.96
1028.187	1159.67
1028.477	1144.53
1028.766	1122.16
1029.055	1123.52
1029.344	1114.7
1029.634	1094.59
1029.923	1093.91
1030.212	1108.83
1030.501	1077.19
1030.79	1093.01
1031.078	1073.12
1031.367	1028.83
1031.656	1059.34
1031.945	1058.88
1032.233	1020.92
1032.522	1022.73
1032.81	1035.16
1033.099	1020.92
1033.387	1012.78
1033.675	1037.87
1033.963	1002.39
1034.251	993.35
1034.54	985.44
1034.828	999.23
1035.116	984.31
1035.403	992.22
1035.691	992.22
1035.979	965.55
1036.267	963.07
1036.554	965.1
1036.842	941.37
1037.129	944.76
1037.417	912.22
1037.704	937.08
1037.992	931.43
1038.279	912.9
1038.566	919.68
1038.853	919.68
1039.14	919.68
