Data from hue_190_FLMS001491_00003.txt Node
Date: Tue Feb 07 16:44:42 GMT 2017
User: dcchb
Spectrometer: FLMS00149
Trigger mode: 0
Integration Time (sec): 2.000000E-2
Scans to average: 10
Electric dark correction enabled: true
Nonlinearity correction enabled: false
Boxcar width: 0
XAxis mode: Wavelengths
Number of Pixels in Spectrum: 2048
>>>>>Begin Spectral Data<<<<<
341.393	-2.81
341.776	-2.81
342.16	-2.81
342.543	-50.27
342.927	-73.77
343.31	-72.41
343.693	-54.56
344.077	-74
344.46	-59.53
344.843	-27.67
345.226	-47.78
345.61	-39.19
345.993	-34.9
346.376	-19.31
346.759	11.2
347.142	24.31
347.525	40.35
347.908	60.24
348.291	82.61
348.674	90.97
349.057	119.67
349.44	134.13
349.823	140.46
350.206	162.83
350.588	188.82
350.971	207.35
351.354	227.47
351.737	249.39
352.119	248.71
352.502	270.85
352.884	273.11
353.267	269.95
353.65	285.09
354.032	305.43
354.414	312.66
354.797	316.73
355.179	325.09
355.562	314.02
355.944	320.8
356.326	333.68
356.709	348.37
357.091	333.45
357.473	361.7
357.855	343.85
358.238	351.3
358.62	354.92
359.002	356.05
359.384	329.38
359.766	333
360.148	329.84
360.53	341.36
360.912	328.48
361.294	346.78
361.676	342.49
362.057	341.81
362.439	321.47
362.821	335.03
363.203	316.28
363.584	295.26
363.966	337.97
364.348	309.95
364.729	325.32
365.111	328.48
365.493	313.11
365.874	330.29
366.256	311.31
366.637	316.5
367.019	309.95
367.4	319.44
367.781	306.11
368.163	320.57
368.544	295.03
368.925	319.21
369.306	321.25
369.688	303.4
370.069	306.56
370.45	308.82
370.831	318.54
371.212	314.24
371.593	306.56
371.974	318.54
372.355	305.66
372.736	322.15
373.117	325.09
373.498	310.4
373.879	312.66
374.26	285.09
374.641	316.73
375.021	316.95
375.402	302.27
375.783	331.19
376.163	309.95
376.544	329.16
376.925	337.97
377.305	308.14
377.686	308.37
378.066	318.31
378.447	322.6
378.827	324.64
379.208	325.54
379.588	311.31
379.968	352.43
380.349	338.88
380.729	317.18
381.109	339.55
381.489	336.39
381.87	332.32
382.25	339.78
382.63	333.23
383.01	335.71
383.39	332.32
383.77	351.08
384.15	347.91
384.53	335.49
384.91	323.28
385.29	328.03
385.67	346.56
386.049	342.49
386.429	325.09
386.809	333.9
387.189	308.14
387.568	333.45
387.948	350.63
388.328	351.76
388.707	361.25
389.087	371.87
389.466	358.99
389.846	355.37
390.225	350.4
390.605	351.3
390.984	351.53
391.363	355.37
391.743	373.45
392.122	369.83
392.501	357.86
392.881	345.2
393.26	382.94
393.639	362.38
394.018	401.92
394.397	364.41
394.776	361.25
395.155	348.82
395.534	392.21
395.913	381.59
396.292	393.56
396.671	359.44
397.05	376.61
397.429	385.88
397.808	388.59
398.186	382.72
398.565	371.64
398.944	371.87
399.323	384.3
399.701	412.09
400.08	424.3
400.458	384.3
400.837	399.66
401.215	422.26
401.594	387.69
401.972	407.12
402.351	415.48
402.729	436.05
403.107	411.42
403.486	429.95
403.864	428.14
404.242	440.12
404.62	427.46
404.999	439.44
405.377	448.7
405.755	428.36
406.133	454.35
406.511	464.75
406.889	443.96
407.267	467.23
407.645	443.51
408.023	489.61
408.401	455.48
408.779	475.37
409.156	481.02
409.534	485.54
409.912	485.09
410.29	539.77
410.667	516.5
411.045	516.5
411.422	536.61
411.8	534.12
412.178	535.25
412.555	553.78
412.933	553.33
413.31	581.58
413.687	577.97
414.065	578.87
414.442	604.63
414.819	602.15
415.197	584.97
415.574	601.24
415.951	631.3
416.328	633.56
416.705	636.72
417.082	649.6
417.46	658.87
417.837	664.52
418.214	660.45
418.591	685.08
418.967	668.58
419.344	692.54
419.721	708.13
420.098	703.16
420.475	711.07
420.852	754.68
421.228	766.21
421.605	748.58
421.982	755.36
422.358	771.18
422.735	822.03
423.111	793.78
423.488	795.13
423.864	838.52
424.241	837.17
424.617	837.17
424.994	863.83
425.37	863.83
425.746	885.75
426.123	901.35
426.499	914.23
426.875	948.12
427.251	933.66
427.627	960.33
428.003	950.84
428.379	977.28
428.756	1009.59
429.132	1018.63
429.507	1013.43
429.883	1041.23
430.259	1042.36
430.635	1069.7
431.011	1073.09
431.387	1084.17
431.763	1097.27
432.138	1111.96
432.514	1130.72
432.89	1133.43
433.265	1175.92
433.641	1175.92
434.016	1205.97
434.392	1203.94
434.767	1248.46
435.143	1255.01
435.518	1290.94
435.894	1315.57
436.269	1321.45
436.644	1351.05
437.02	1368.9
437.395	1415.91
437.77	1432.63
438.145	1443.93
438.52	1433.76
438.895	1490.26
439.271	1499.3
439.646	1520.09
440.021	1549.24
440.395	1570.93
440.77	1578.62
441.145	1611.61
441.52	1647.09
441.895	1634.66
442.27	1685.05
442.645	1686.18
443.019	1678.28
443.394	1670.14
443.769	1736.13
444.143	1713.53
444.518	1778.84
444.892	1748.56
445.267	1777.93
445.641	1849.34
446.016	1823.81
446.39	1843.92
446.764	1873.98
447.139	1886.18
447.513	1895.22
447.887	1911.26
448.262	1891.15
448.636	1929.57
449.01	1983.35
449.384	1954.65
449.758	1952.17
450.132	1982.22
450.506	2016.8
450.88	2004.59
451.254	2033.52
451.628	2083.91
452.002	2086.85
452.376	2103.8
452.75	2146.06
453.123	2122.11
453.497	2152.84
453.871	2210.01
454.244	2190.8
454.618	2259.28
454.992	2281.2
455.365	2285.49
455.739	2370.69
456.112	2349.44
456.486	2357.81
456.859	2413.4
457.232	2481.42
457.606	2443
457.979	2499.72
458.352	2555.09
458.725	2573.17
459.099	2581.53
459.472	2633.28
459.845	2662.66
460.218	2669.66
460.591	2693.84
460.964	2686.16
461.337	2777.68
461.71	2809.54
462.083	2843.44
462.456	2883.89
462.829	2935.64
463.201	2945.13
463.574	2912.14
463.947	3005.7
464.32	3075.53
464.692	3094.96
465.065	3115.07
465.438	3160.5
465.81	3189.65
466.183	3235.52
466.555	3301.96
466.928	3342.64
467.3	3310.55
467.672	3386.93
468.045	3485.01
468.417	3494.95
468.789	3513.03
469.161	3592.58
469.534	3622.4
469.906	3673.02
470.278	3744.89
470.65	3800.48
471.022	3847.03
471.394	3906.24
471.766	3906.01
472.138	3985.79
472.51	4090.42
472.882	4129.28
473.253	4207.7
473.625	4253.35
473.997	4334.48
474.369	4345.78
474.74	4414.25
475.112	4481.37
475.484	4584.64
475.855	4664.19
476.227	4694.01
476.598	4812.43
476.97	4843.16
477.341	4995.02
477.713	5034.35
478.084	5073.67
478.455	5291.97
478.827	5278.86
479.198	5414.45
479.569	5494.9
479.94	5637.04
480.311	5589.81
480.682	5769.47
481.053	5926.52
481.424	5966.75
481.795	6051.95
482.166	6166.52
482.537	6214.65
482.908	6419.17
483.279	6420.07
483.65	6483.57
484.021	6712.49
484.391	6748.42
484.762	6806.05
485.133	6837.69
485.503	6986.84
485.874	7181.18
486.244	7186.6
486.615	7290.56
486.985	7369.2
487.356	7580.27
487.726	7571.68
488.097	7783.43
488.467	7800.37
488.837	7982.74
489.207	7997.66
489.578	8193.13
489.948	8208.95
490.318	8324.2
490.688	8329.85
491.058	8488.94
491.428	8531.65
491.798	8664.53
492.168	8763.51
492.538	8857.75
492.908	8948.14
493.278	9068.59
493.648	9122.15
494.017	9138.64
494.387	9239.43
494.757	9322.14
495.126	9390.84
495.496	9426.55
495.866	9478.97
496.235	9506.32
496.605	9656.14
496.974	9664.51
497.344	9733.43
497.713	9792.19
498.082	9805.07
498.452	9929.36
498.821	9983.14
499.19	9970.94
499.559	10013.2
499.928	10112.4
500.298	10082.12
500.667	10158.5
501.036	10182.91
501.405	10216.58
501.774	10230.14
502.143	10317.6
502.512	10397.37
502.88	10433.3
503.249	10377.48
503.618	10460.64
503.987	10507.2
504.356	10549.45
504.724	10638.72
505.093	10591.49
505.462	10612.28
505.83	10612.05
506.199	10719.17
506.567	10835.55
506.936	10781.31
507.304	10810.92
507.672	10870.8
508.041	10852.95
508.409	10895.89
508.777	10949.44
509.145	11002.55
509.514	10987.41
509.882	10990.12
510.25	10932.95
510.618	11038.71
510.986	11060.63
511.354	11154.18
511.722	11156.67
512.09	11124.81
512.458	11103.56
512.826	11235.76
513.193	11198.48
513.561	11165.71
513.929	11270.11
514.297	11284.35
514.664	11367.29
515.032	11260.85
515.4	11291.81
515.767	11268.31
516.135	11273.05
516.502	11255.65
516.869	11333.84
517.237	11406.15
517.604	11268.53
517.972	11368.64
518.339	11402.54
518.706	11366.16
519.073	11316.67
519.44	11365.7
519.808	11431.46
520.175	11393.95
520.542	11417.45
520.909	11370
521.276	11288.19
521.643	11469.2
522.009	11487.51
522.376	11429.21
522.743	11457.23
523.11	11475.08
523.477	11561.86
523.843	11530.9
524.21	11557.56
524.577	11531.35
524.943	11525.02
525.31	11591.69
525.676	11607.51
526.043	11581.07
526.409	11496.1
526.776	11579.71
527.142	11550.78
527.508	11448.87
527.874	11492.25
528.241	11446.38
528.607	11425.36
528.973	11461.29
529.339	11358.7
529.705	11469.66
530.071	11514.17
530.437	11470.79
530.803	11443.89
531.169	11341.3
531.535	11317.34
531.901	11350.11
532.267	11272.15
532.632	11215.2
532.998	11210.91
533.364	11300.17
533.73	11175.43
534.095	11163
534.461	11086.84
534.826	11184.92
535.192	11073.51
535.557	11143.79
535.923	10958.03
536.288	10960.06
536.653	10979.5
537.019	10811.59
537.384	10811.82
537.749	10859.28
538.114	10767.98
538.479	10663.58
538.845	10599.85
539.21	10573.41
539.575	10575.22
539.94	10460.42
540.305	10501.32
540.67	10413.19
541.034	10317.37
541.399	10356.24
541.764	10246.86
542.129	10260.87
542.494	10164.61
542.858	10125.74
543.223	10086.42
543.587	10029.47
543.952	9932.3
544.316	9963.03
544.681	9851.17
545.045	9864.95
545.41	9841.45
545.774	9771.85
546.138	9758.06
546.503	9669.7
546.867	9550.84
547.231	9609.82
547.595	9565.07
547.959	9510.84
548.324	9495.02
548.688	9370.28
549.052	9281.69
549.416	9345.19
549.779	9261.58
550.143	9193.78
550.507	9174.8
550.871	9104.29
551.235	9085.76
551.599	9045.09
551.962	8967.8
552.326	8960.12
552.689	8949.95
553.053	8903.62
553.417	8840.35
553.78	8901.14
554.143	8747.47
554.507	8755.83
554.87	8721.48
555.234	8749.05
555.597	8630.41
555.96	8560.81
556.323	8612.56
556.686	8512.22
557.05	8453.92
557.413	8487.14
557.776	8438.32
558.139	8466.35
558.502	8414.14
558.865	8349.96
559.228	8429.96
559.59	8371.21
559.953	8364.88
560.316	8360.81
560.679	8311.77
561.041	8288.5
561.404	8216.63
561.767	8288.5
562.129	8245.33
562.492	8269.97
562.854	8237.65
563.217	8161.72
563.579	8171.66
563.941	8196.07
564.304	8235.16
564.666	8242.17
565.028	8155.84
565.39	8111.55
565.753	8193.81
566.115	8157.65
566.477	8173.02
566.839	8143.19
567.201	8163.98
567.563	8157.88
567.925	8160.14
568.287	8153.36
568.648	8151.33
569.01	8119.01
569.372	8185
569.734	8159.91
570.095	8142.29
570.457	8139.8
570.819	8095.73
571.18	8099.12
571.542	8181.15
571.903	8082.85
572.265	8078.11
572.626	8091.89
572.987	8136.18
573.349	8068.16
573.71	8147.48
574.071	8078.33
574.432	8117.2
574.794	8114.94
575.155	8102.29
575.516	8172.57
575.877	8061.84
576.238	8061.38
576.599	8121.5
576.96	8102.74
577.32	8123.98
577.681	8126.24
578.042	8085.34
578.403	8060.71
578.763	8089.63
579.124	8024.32
579.485	8117.43
579.845	8076.75
580.206	8067.71
580.566	8063.19
580.927	7987.94
581.287	8069.29
581.648	8088.28
582.008	8046.24
582.368	8028.39
582.728	8037.66
583.089	7989.75
583.449	8074.04
583.809	7975.06
584.169	7961.95
584.529	7972.57
584.889	7967.38
585.249	8017.09
585.609	7918.11
585.969	7981.84
586.329	7883.99
586.688	7942.29
587.048	7907.04
587.408	7939.35
587.768	7914.95
588.127	7930.54
588.487	7846.02
588.846	7882.86
589.206	7785.23
589.565	7822.75
589.925	7852.8
590.284	7833.59
590.643	7853.71
591.003	7829.3
591.362	7854.61
591.721	7788.4
592.08	7835.4
592.44	7807.38
592.799	7828.85
593.158	7785.91
593.517	7841.28
593.876	7787.72
594.235	7733.71
594.593	7779.36
594.952	7746.82
595.311	7736.42
595.67	7736.87
596.029	7751.11
596.387	7761.73
596.746	7731.68
597.104	7702.07
597.463	7672.69
597.822	7690.77
598.18	7665.24
598.538	7641.06
598.897	7724.44
599.255	7627.95
599.613	7678.12
599.972	7664.56
600.33	7654.62
600.688	7646.48
601.046	7676.31
601.404	7618.23
601.762	7576.65
602.12	7626.14
602.478	7572.13
602.836	7694.84
603.194	7619.59
603.552	7571.23
603.91	7552.47
604.268	7627.27
604.625	7572.81
604.983	7572.81
605.341	7613.71
605.698	7535.3
606.056	7596.31
606.413	7575.3
606.771	7579.14
607.128	7627.05
607.485	7604.67
607.843	7565.13
608.2	7611.45
608.557	7597.44
608.914	7588.4
609.272	7641.51
609.629	7635.63
609.986	7646.71
610.343	7619.59
610.7	7682.19
611.057	7631.56
611.414	7692.35
611.771	7590.21
612.127	7638.12
612.484	7658.23
612.841	7628.18
613.198	7659.36
613.554	7574.84
613.911	7662.98
614.267	7717.66
614.624	7656.2
614.98	7702.3
615.337	7711.79
615.693	7639.02
616.05	7693.48
616.406	7689.64
616.762	7672.24
617.118	7670.43
617.475	7693.48
617.831	7692.81
618.187	7716.53
618.543	7668.85
618.899	7751.34
619.255	7775.97
619.611	7695.74
619.967	7754.05
620.323	7736.87
620.678	7705.46
621.034	7718.57
621.39	7708.85
621.746	7691
622.101	7872.69
622.457	7728.96
622.812	7738.91
623.168	7765.12
623.523	7678.8
623.879	7758.12
624.234	7749.75
624.589	7783.43
624.945	7747.49
625.3	7707.95
625.655	7755.86
626.01	7753.37
626.365	7704.78
626.72	7740.04
627.075	7752.69
627.43	7694.84
627.785	7754.73
628.14	7721.05
628.495	7649.64
628.85	7623.88
629.205	7691.9
629.559	7738.91
629.914	7666.14
630.269	7672.69
630.623	7608.29
630.978	7618.23
631.332	7711.79
631.687	7664.56
632.041	7628.63
632.396	7578.23
632.75	7540.72
633.104	7620.72
633.459	7613.71
633.813	7582.53
634.167	7555.86
634.521	7636.76
634.875	7614.84
635.229	7541.4
635.583	7550.66
635.937	7554.96
636.291	7506.6
636.645	7528.97
636.999	7489.65
637.352	7468.86
637.706	7450.78
638.06	7483.77
638.413	7504.79
638.767	7413.04
639.121	7479.25
639.474	7420.95
639.828	7386.83
640.181	7398.8
640.534	7439.25
640.888	7374.85
641.241	7397.9
641.594	7458.01
641.947	7415.98
642.301	7374.62
642.654	7352.25
643.007	7342.98
643.36	7342.31
643.713	7309.31
644.066	7387.73
644.419	7303.21
644.771	7313.38
645.124	7240.16
645.477	7210.11
645.83	7118.36
646.182	7159.71
646.535	7197.23
646.888	7154.06
647.24	7130.79
647.593	7180.73
647.945	7153.16
648.298	7156.1
648.65	7095.08
649.002	7079.94
649.355	7196.32
649.707	7129.21
650.059	7185.93
650.411	7256.66
650.763	7263.66
651.115	7383.89
651.467	7310.44
651.819	7316.32
652.171	7353.15
652.523	7243.1
652.875	7253.72
653.227	7279.71
653.578	7285.81
653.93	7287.39
654.282	7257.79
654.633	7262.54
654.985	7314.96
655.337	7282.65
655.688	7361.06
656.039	7340.27
656.391	7257.79
656.742	7284.68
657.094	7299.14
657.445	7306.6
657.796	7339.6
658.147	7289.43
658.498	7261.41
658.849	7378.24
659.2	7320.84
659.551	7284
659.902	7350.22
660.253	7344.34
660.604	7357.67
660.955	7317
661.306	7370.33
661.656	7336.88
662.007	7362.19
662.358	7369.42
662.708	7387.73
663.059	7375.07
663.409	7294.62
663.76	7406.26
664.11	7373.72
664.461	7404.45
664.811	7462.76
665.161	7394.96
665.511	7368.97
665.862	7358.58
666.212	7369.65
666.562	7391.57
666.912	7362.19
667.262	7444.23
667.612	7382.76
667.962	7342.53
668.312	7370.55
668.662	7394.73
669.011	7356.32
669.361	7373.72
669.711	7375.98
670.06	7404.9
670.41	7340.05
670.76	7299.37
671.109	7387.5
671.459	7380.5
671.808	7371.01
672.157	7454.17
672.507	7298.69
672.856	7355.64
673.205	7324.68
673.554	7344.11
673.904	7307.28
674.253	7345.24
674.602	7400.84
674.951	7229.99
675.3	7247.85
675.649	7263.66
675.998	7294.17
676.346	7286.26
676.695	7340.95
677.044	7222.31
677.393	7288.07
677.741	7268.18
678.09	7235.19
678.438	7210.78
678.787	7216.21
679.135	7188.64
679.484	7187.28
679.832	7184.12
680.181	7088.08
680.529	7164.91
680.877	7150.67
681.225	7095.99
681.573	7169.88
681.922	7078.36
682.27	7124.46
682.618	7104.8
682.966	7001.52
683.314	7095.99
683.661	7049.66
684.009	7028.42
684.357	7016.67
684.705	7003.56
685.053	7036.55
685.4	6957.46
685.748	6906.61
686.095	6946.16
686.443	6874.3
686.79	6913.17
687.138	6912.71
687.485	6966.5
687.832	6926.05
688.18	6804.92
688.527	6848.53
688.874	6793.62
689.221	6829.55
689.568	6794.75
689.915	6762.66
690.262	6742.77
690.609	6726.5
690.956	6693.51
691.303	6673.17
691.65	6655.32
691.997	6633.17
692.344	6613.51
692.69	6556.56
693.037	6572.84
693.383	6554.53
693.73	6565.6
694.077	6517.7
694.423	6506.62
694.769	6484.25
695.116	6462.1
695.462	6438.38
695.808	6360.19
696.155	6396.57
696.501	6315.67
696.847	6342.11
697.193	6288.55
697.539	6279.74
697.885	6243.8
698.231	6226.18
698.577	6245.16
698.923	6213.07
699.269	6183.02
699.614	6110.7
699.96	6128.55
700.306	6093.98
700.651	6063.7
700.997	6014.43
701.342	6032.28
701.688	5997.94
702.033	5978.5
702.379	6003.81
702.724	5942.8
703.069	5952.74
703.415	5859.41
703.76	5907.54
704.105	5897.83
704.45	5812.63
704.795	5846.08
705.14	5796.58
705.485	5792.97
705.83	5754.78
706.175	5739.64
706.52	5748.9
706.865	5700.32
707.209	5697.15
707.554	5647.66
707.899	5658.51
708.243	5670.26
708.588	5651.96
708.932	5606.76
709.277	5609.47
709.621	5623.93
709.966	5548.23
710.31	5568.12
710.654	5567.66
710.998	5522.69
711.342	5534.22
711.687	5497.38
712.031	5529.93
712.375	5491.73
712.719	5438.4
713.063	5470.72
713.407	5486.31
713.75	5394.56
714.094	5418.74
714.438	5411.06
714.782	5451.06
715.125	5374.68
715.469	5406.54
715.812	5389.36
716.156	5353.21
716.499	5369.93
716.843	5340.55
717.186	5322.7
717.53	5334.22
717.873	5321.57
718.216	5316.6
718.559	5329.25
718.902	5310.04
719.246	5311.63
719.589	5269.82
719.932	5240.89
720.275	5232.98
720.617	5271.63
720.96	5298.29
721.303	5228.24
721.646	5252.64
721.989	5178.3
722.331	5275.69
722.674	5286.77
723.016	5220.55
723.359	5246.54
723.701	5206.32
724.044	5248.12
724.386	5223.27
724.729	5238.41
725.071	5162.7
725.413	5224.17
725.755	5207.67
726.097	5206.09
726.439	5143.95
726.782	5235.02
727.124	5184.17
727.465	5180.33
727.807	5159.09
728.149	5195.24
728.491	5161.35
728.833	5154.79
729.175	5180.33
729.516	5183.72
729.858	5228.24
730.199	5221.68
730.541	5213.1
730.882	5183.72
731.224	5255.36
731.565	5170.84
731.906	5152.53
732.248	5216.04
732.589	5145.53
732.93	5138.75
733.271	5156.38
733.612	5180.33
733.953	5175.58
734.294	5158.41
734.635	5186.88
734.976	5133.1
735.317	5187.11
735.658	5130.84
735.999	5179.43
736.339	5189.6
736.68	5205.19
737.021	5214.45
737.361	5230.27
737.702	5261.91
738.042	5183.49
738.383	5247.45
738.723	5256.94
739.063	5263.27
739.404	5250.38
739.744	5248.58
740.084	5282.47
740.424	5281.34
740.764	5263.04
741.104	5264.4
741.444	5315.24
741.784	5269.59
742.124	5360.44
742.464	5358.4
742.804	5348.69
743.143	5352.98
743.483	5456.71
743.823	5424.62
744.162	5444.05
744.502	5450.38
744.841	5499.42
745.181	5555.69
745.52	5551.17
745.86	5627.78
746.199	5647.66
746.538	5645.18
746.877	5657.83
747.216	5786.64
747.556	5790.26
747.895	5829.58
748.234	5868.22
748.573	5929.69
748.911	6009.23
749.25	6069.57
749.589	6058.27
749.928	6153.64
750.267	6203.13
750.605	6270.24
750.944	6326.29
751.283	6449
751.621	6535.1
751.96	6576.9
752.298	6638.6
752.636	6769.89
752.975	6816.45
753.313	6868.42
753.651	7035.42
753.989	7126.04
754.327	7216.21
754.666	7281.29
755.004	7474.05
755.342	7634.05
755.679	7726.48
756.017	7818.23
756.355	8018
756.693	8112.46
757.031	8256.18
757.368	8348.38
757.706	8515.16
758.044	8658.2
758.381	8815.04
758.719	8932.1
759.056	9097.97
759.394	9337.28
759.731	9433.55
760.068	9653.66
760.405	9802.13
760.743	9894.1
761.08	10129.58
761.417	10301.1
761.754	10472.17
762.091	10613.41
762.428	10810.01
762.765	10951.7
763.102	11191.47
763.438	11302.43
763.775	11509.43
764.112	11732.02
764.449	11880.27
764.785	12037.1
765.122	12169.98
765.458	12350.08
765.795	12609.97
766.131	12670.98
766.467	12827.13
766.804	12970.63
767.14	13125.21
767.476	13367.91
767.812	13392.32
768.148	13657.85
768.485	13705.3
768.821	13779.88
769.157	13996.37
769.492	14221.22
769.828	14360.2
770.164	14347.09
770.5	14525.17
770.836	14655.56
771.171	14691.04
771.507	14846.06
771.842	14912.28
772.178	15003.57
772.513	15182.78
772.849	15321.76
773.184	15364.24
773.519	15546.84
773.855	15619.15
774.19	15593.16
774.525	15762.65
774.86	15839.26
775.195	15928.97
775.53	15907.05
775.865	16053.94
776.2	16064.34
776.535	15920.39
776.87	16106.82
777.205	16226.37
777.539	16260.72
777.874	16297.1
778.209	16265.91
778.543	16413.93
778.878	16332.13
779.212	16450.09
779.547	16417.32
779.881	16579.35
780.215	16504.33
780.55	16594.72
780.884	16528.96
781.218	16550.43
781.552	16670.88
781.886	16648.73
782.22	16603.76
782.554	16650.76
782.888	16622.06
783.222	16648.05
783.556	16679.46
783.889	16664.55
784.223	16546.81
784.557	16713.36
784.89	16811.21
785.224	16631.33
785.557	16527.6
785.891	16706.35
786.224	16623.87
786.558	16681.27
786.891	16571.44
787.224	16512.46
787.557	16543.19
787.891	16518.56
788.224	16596.3
788.557	16794.04
788.89	16575.51
789.223	16550.88
789.556	16535.06
789.888	16542.07
790.221	16490.77
790.554	16421.16
790.887	16509.98
791.219	16499.81
791.552	16439.24
791.884	16377.78
792.217	16443.08
792.549	16337.55
792.882	16311.34
793.214	16216.42
793.546	16282.64
793.879	16253.94
794.211	16164.22
794.543	16211.68
794.875	16196.31
795.207	16227.27
795.539	16130.32
795.871	16172.58
796.203	16109.31
796.535	15986.15
796.867	15902.31
797.198	15856.66
797.53	15980.5
797.862	15834.51
798.193	15952.48
798.525	15820.95
798.856	15861.63
799.188	15644.46
799.519	15735.31
799.85	15599.49
800.182	15663.22
800.513	15576.21
800.844	15475.88
801.175	15683.1
801.506	15503
801.837	15453.51
802.168	15440.63
802.499	15379.16
802.83	15302.55
803.161	15296.9
803.491	15409.67
803.822	15425.48
804.153	15323.79
804.483	15132.61
804.814	15136
805.145	15099.62
805.475	15050.35
805.805	15144.81
806.136	15083.8
806.466	15100.3
806.796	15070.47
807.126	14946.85
807.457	14930.81
807.787	14915.22
808.117	14844.03
808.447	14819.85
808.777	14804.94
809.107	14775.78
809.436	14654.21
809.766	14710.47
810.096	14623.7
810.426	14568.11
810.755	14705.73
811.085	14624.6
811.414	14574.21
811.744	14497.6
812.073	14575.56
812.403	14528.33
812.732	14434.78
813.061	14334.67
813.39	14460.99
813.719	14326.53
814.049	14378.05
814.378	14368.34
814.707	14303.71
815.036	14318.39
815.365	14166.53
815.693	14102.36
816.022	14151.39
816.351	14090.83
816.68	14073.88
817.008	14136.03
817.337	14051.28
817.665	13921.12
817.994	14068.01
818.322	13955.69
818.651	13934.68
818.979	13934.22
819.307	14033.2
819.636	13868.69
819.964	13872.08
820.292	13946.65
820.62	13926.77
820.948	13788.24
821.276	13880.21
821.604	13838.63
821.932	13879.54
822.259	13876.15
822.587	13848.35
822.915	13797.73
823.243	13969.93
823.57	13752.99
823.898	13850.84
824.225	13736.04
824.553	13796.83
824.88	13709.37
825.207	13818.52
825.535	13908.01
825.862	13896.94
826.189	13815.13
826.516	13883.15
826.843	13901
827.17	13949.14
827.497	13842.48
827.824	13807.67
828.151	13897.61
828.478	13833.66
828.805	13942.13
829.131	13931.29
829.458	13796.15
829.785	13823.94
830.111	13812.42
830.438	13861.91
830.764	13891.97
831.09	13848.8
831.417	13791.85
831.743	13830.5
832.069	13875.69
832.395	13807.67
832.722	13812.87
833.048	13775.36
833.374	13795.92
833.7	13782.14
834.026	13799.76
834.351	13803.61
834.677	13816.94
835.003	13804.96
835.329	13750.95
835.654	13769.71
835.98	13636.83
836.306	13713.21
836.631	13660.11
836.956	13712.31
837.282	13706.21
837.607	13636.38
837.932	13590.28
838.258	13560.45
838.583	13602.26
838.908	13524.52
839.233	13519.77
839.558	13551.64
839.883	13496.04
840.208	13458.08
840.533	13403.39
840.858	13504.63
841.182	13371.75
841.507	13407.01
841.832	13350.96
842.156	13337.63
842.481	13339.44
842.805	13265.32
843.13	13178.31
843.454	13228.25
843.778	13169.95
844.103	13191.87
844.427	13084.98
844.751	13119.78
845.075	13107.35
845.399	13062.83
845.723	12982.84
846.047	12942.16
846.371	12848.83
846.695	12931.54
847.019	12788.27
847.343	12802.95
847.666	12710.98
847.99	12669.85
848.313	12589.85
848.637	12529.29
848.96	12561.38
849.284	12514.15
849.607	12428.73
849.931	12373.14
850.254	12262.4
850.577	12221.5
850.9	12205.68
851.223	12094.05
851.546	12066.02
851.869	12086.81
852.192	12088.17
852.515	11886.59
852.838	11860.83
853.161	11894.96
853.483	11839.36
853.806	11826.71
854.129	11740.38
854.451	11713.72
854.774	11685.47
855.096	11630.78
855.419	11591.69
855.741	11558.02
856.063	11497
856.385	11557.79
856.708	11488.64
857.03	11434.4
857.352	11426.49
857.674	11395.53
857.996	11361.64
858.318	11289.77
858.64	11270.11
858.961	11210.91
859.283	11213.62
859.605	11065.37
859.926	11115.54
860.248	11099.04
860.57	11113.51
860.891	11070.12
861.212	11048.65
861.534	11002.55
861.855	10932.27
862.176	10910.12
862.498	10970.01
862.819	10907.64
863.14	10946.05
863.461	10838.94
863.782	10836
864.103	10868.09
864.424	10812.5
864.745	10835.77
865.065	10732.73
865.386	10729.79
865.707	10738.83
866.027	10729.34
866.348	10733.4
866.668	10642.33
866.989	10708.77
867.309	10572.96
867.63	10658.83
867.95	10587.87
868.27	10572.96
868.59	10617.7
868.91	10568.21
869.23	10548.1
869.55	10490.02
869.87	10512.85
870.19	10511.94
870.51	10458.84
870.83	10462.68
871.15	10412.06
871.469	10483.47
871.789	10470.36
872.109	10390.81
872.428	10402.79
872.748	10301.78
873.067	10418.84
873.386	10302.91
873.706	10340.65
874.025	10290.93
874.344	10257.26
874.663	10249.8
874.982	10261.1
875.301	10256.35
875.62	10233.3
875.939	10263.36
876.258	10190.37
876.577	10128.22
876.896	10128.22
877.214	10152.4
877.533	10088.68
877.852	10130.26
878.17	10123.48
878.489	10045.51
878.807	10023.14
879.125	10015.46
879.444	10029.69
879.762	10089.58
880.08	9995.57
880.398	9982.92
880.716	9934.1
881.034	9933.65
881.352	9910.6
881.67	9930.04
881.988	9856.37
882.306	9831.96
882.624	9827.67
882.941	9783.15
883.259	9743.83
883.577	9764.84
883.894	9702.24
884.212	9711.74
884.529	9676.26
884.846	9725.52
885.164	9644.39
885.481	9634.22
885.798	9615.92
886.115	9571.17
886.432	9594.68
886.75	9514.23
887.067	9502.48
887.383	9487.79
887.7	9519.65
888.017	9431.97
888.334	9413.44
888.651	9448.69
888.967	9429.26
889.284	9360.11
889.6	9331.86
889.917	9234.91
890.233	9233.56
890.55	9208.25
890.866	9206.44
891.182	9160.79
891.498	9162.6
891.815	9133.45
892.131	9177.51
892.447	9027.46
892.763	9060.68
893.079	9027.46
893.395	8951.76
893.71	8990.4
894.026	8928.03
894.342	8861.36
894.657	8820.46
894.973	8819.56
895.289	8859.1
895.604	8880.12
895.92	8788.82
896.235	8782.95
896.55	8710.41
896.865	8703.85
897.181	8658.66
897.496	8700.01
897.811	8602.61
898.126	8577.75
898.441	8537.98
898.756	8497.53
899.071	8480.13
899.386	8443.52
899.7	8373.01
900.015	8343.18
900.33	8244.88
900.644	8310.87
900.959	8360.81
901.273	8279.91
901.588	8246.46
901.902	8183.19
902.216	8118.11
902.531	8168.73
902.845	8072.91
903.159	8038.33
903.473	8018.9
903.787	7967.6
904.101	8006.92
904.415	7928.73
904.729	7924.21
905.042	7815.29
905.356	7874.27
905.67	7821.84
905.984	7896.19
906.297	7799.92
906.611	7735.97
906.924	7723.99
907.237	7664.11
907.551	7631.11
907.864	7552.7
908.177	7599.48
908.491	7542.53
908.804	7463.66
909.117	7477.22
909.43	7425.69
909.743	7430.21
910.056	7387.5
910.368	7398.35
910.681	7345.24
910.994	7276.77
911.307	7271.8
911.619	7295.98
911.932	7318.13
912.244	7180.05
912.557	7178.24
912.869	7116.1
913.181	7091.47
913.494	7054.18
913.806	7002.65
914.118	7003.33
914.43	6999.49
914.742	6928.53
915.054	6989.55
915.366	6850.79
915.678	6936.67
915.99	6823.45
916.302	6796.33
916.613	6789.33
916.925	6735.32
917.236	6713.62
917.548	6724.7
917.859	6733.74
918.171	6654.19
918.482	6582.33
918.794	6625.94
919.105	6608.99
919.416	6531.93
919.727	6503.68
920.038	6471.14
920.349	6465.49
920.66	6461.65
920.971	6406.96
921.282	6380.75
921.593	6364.93
921.903	6324.93
922.214	6316.57
922.525	6259.62
922.835	6280.19
923.146	6290.13
923.456	6166.52
923.767	6184.15
924.077	6227.53
924.387	6109.57
924.697	6065.05
925.008	6044.26
925.318	6056.24
925.628	6056.47
925.938	5988.9
926.248	5920.88
926.558	5945.28
926.867	5911.16
927.177	5936.02
927.487	5848.79
927.796	5828.9
928.106	5893.31
928.416	5863.7
928.725	5861.67
929.034	5752.97
929.344	5746.64
929.653	5765.63
929.962	5712.07
930.271	5677.49
930.581	5643.37
930.89	5597.72
931.199	5574.44
931.508	5608.57
931.817	5554.33
932.125	5574.9
932.434	5548.23
932.743	5500.55
933.051	5486.08
933.36	5498.51
933.669	5450.61
933.977	5405.18
934.286	5400.66
934.594	5393.21
934.902	5380.78
935.21	5301.91
935.519	5307.11
935.827	5312.08
936.135	5227.33
936.443	5260.55
936.751	5196.83
937.059	5212.42
937.367	5157.51
937.674	5213.32
937.982	5170.84
938.29	5098.98
938.597	5082.25
938.905	5042.48
939.213	5045.87
939.52	5018.53
939.827	5035.93
940.135	4955.25
940.442	4969.49
940.749	4925.87
941.056	4956.83
941.363	4878.42
941.67	4850.85
941.977	4847.01
942.284	4810.4
942.591	4803.39
942.898	4745.09
943.205	4729.72
943.511	4770.4
943.818	4748.25
944.125	4674.58
944.431	4663.96
944.738	4667.8
945.044	4665.32
945.35	4665.99
945.657	4601.81
945.963	4574.47
946.269	4540.8
946.575	4569.95
946.881	4542.83
947.187	4499.44
947.493	4458.31
947.799	4479.56
948.105	4424.87
948.41	4426.45
948.716	4436.85
949.022	4430.75
949.327	4423.74
949.633	4326.79
949.938	4336.74
950.244	4340.58
950.549	4242.95
950.854	4287.25
951.16	4282.5
951.465	4244.31
951.77	4243.63
952.075	4182.62
952.38	4192.79
952.685	4196.4
952.99	4150.75
953.294	4147.81
953.599	4131.77
953.904	4093.13
954.209	4115.05
954.513	4065.33
954.818	4045.44
955.122	4068.27
955.426	4047.48
955.731	4019.23
956.035	3991.21
956.339	3952.11
956.643	4003.86
956.948	3936.07
957.252	3926.35
957.556	3884.77
957.86	3892.91
958.163	3900.82
958.467	3852.23
958.771	3851.1
959.075	3837.54
959.378	3765.9
959.682	3816.52
959.985	3779.91
960.289	3725.45
960.592	3744.66
960.896	3684.55
961.199	3745.34
961.502	3665.12
961.805	3684.55
962.108	3648.84
962.411	3608.39
962.714	3611.33
963.017	3618.34
963.32	3600.71
963.623	3610.65
963.926	3576.76
964.228	3543.99
964.531	3499.24
964.833	3539.02
965.136	3477.32
965.438	3478.45
965.741	3518.45
966.043	3483.2
966.345	3469.87
966.648	3431.9
966.95	3400.72
967.252	3406.37
967.554	3417.21
967.856	3392.35
968.158	3342.64
968.46	3363.88
968.761	3293.6
969.063	3327.05
969.365	3316.42
969.666	3312.58
969.968	3269.42
970.269	3254.73
970.571	3244.11
970.872	3251.12
971.174	3224.9
971.475	3211.79
971.776	3209.08
972.077	3182.64
972.378	3186.48
972.679	3153.72
972.98	3118.01
973.281	3122.76
973.582	3113.72
973.883	3111.46
974.183	3071.68
974.484	3057.67
974.785	3066.49
975.085	3060.16
975.386	3052.25
975.686	3014.29
975.986	3005.92
976.287	3009.09
976.587	2951.91
976.887	2919.82
977.187	2966.38
977.487	2964.57
977.787	2968.86
978.087	2882.76
978.387	2894.29
978.687	2932.48
978.987	2839.15
979.286	2825.82
979.586	2870.33
979.885	2822.88
980.185	2791.01
980.484	2828.53
980.784	2794.4
981.083	2785.36
981.382	2790.56
981.682	2762.09
981.981	2764.57
982.28	2759.38
982.579	2705.82
982.878	2722.32
983.177	2741.98
983.475	2666.27
983.774	2654.52
984.073	2654.29
984.372	2656.33
984.67	2669.21
984.969	2640.51
985.267	2621.98
985.566	2587.18
985.864	2589.89
986.162	2562.32
986.461	2586.5
986.759	2556.67
987.057	2516.22
987.355	2531.36
987.653	2493.17
987.951	2487.97
988.249	2504.47
988.547	2494.3
988.844	2465.82
989.142	2484.58
989.44	2426.73
989.737	2463.34
990.035	2432.15
990.332	2434.64
990.63	2431.93
990.927	2418.37
991.224	2381.99
991.521	2383.79
991.819	2350.12
992.116	2346.73
992.413	2361.87
992.71	2337.01
993.006	2349.44
993.303	2361.65
993.6	2306.73
993.897	2299.5
994.193	2268.54
994.49	2249.56
994.787	2274.87
995.083	2237.36
995.379	2252.05
995.676	2243.46
995.972	2193.52
996.268	2227.41
996.565	2183.35
996.861	2195.78
997.157	2182.67
997.453	2153.74
997.749	2144.25
998.044	2123.46
998.34	2129.11
998.636	2103.8
998.932	2128.43
999.227	2097.02
999.523	2082.11
999.818	2081.43
1000.114	2069.45
1000.409	2094.99
1000.704	2059.96
1001	2045.27
1001.295	2038.49
1001.59	2024.25
1001.885	2031.26
1002.18	2016.35
1002.475	1976.35
1002.77	1964.82
1003.065	1949.23
1003.359	1960.53
1003.654	1943.8
1003.949	1903.81
1004.243	1877.82
1004.538	1880.08
1004.832	1892.96
1005.127	1891.15
1005.421	1847.08
1005.715	1840.3
1006.009	1865.16
1006.304	1837.59
1006.598	1829.01
1006.892	1812.06
1007.186	1793.07
1007.48	1794.88
1007.773	1780.19
1008.067	1780.65
1008.361	1750.82
1008.655	1791.04
1008.948	1744.94
1009.242	1768.44
1009.535	1736.13
1009.829	1717.37
1010.122	1710.36
1010.415	1711.72
1010.708	1707.88
1011.001	1665.85
1011.295	1690.7
1011.588	1662
1011.881	1641.44
1012.173	1650.71
1012.466	1634.43
1012.759	1638.73
1013.052	1605.73
1013.344	1578.39
1013.637	1573.87
1013.93	1571.16
1014.222	1575.68
1014.514	1563.02
1014.807	1556.24
1015.099	1561.44
1015.391	1551.05
1015.683	1533.87
1015.976	1523.7
1016.268	1495.91
1016.56	1502.91
1016.851	1486.42
1017.143	1476.02
1017.435	1462.24
1017.727	1483.03
1018.018	1447.77
1018.31	1473.31
1018.602	1442.35
1018.893	1451.16
1019.185	1405.51
1019.476	1401.22
1019.767	1404.16
1020.058	1361
1020.35	1401.67
1020.641	1367.1
1020.932	1386.98
1021.223	1372.07
1021.514	1373.65
1021.804	1340.2
1022.095	1342.46
1022.386	1341.11
1022.677	1324.61
1022.967	1302.24
1023.258	1317.15
1023.548	1276.7
1023.839	1275.35
1024.129	1309.02
1024.419	1252.07
1024.709	1267.44
1025	1269.47
1025.29	1274.67
1025.58	1249.13
1025.87	1234.67
1026.16	1205.75
1026.449	1201.9
1026.739	1229.25
1027.029	1181.79
1027.319	1195.58
1027.608	1195.12
1027.898	1190.15
1028.187	1166.65
1028.477	1144.96
1028.766	1142.92
1029.055	1163.49
1029.344	1112.64
1029.634	1135.69
1029.923	1125.75
1030.212	1134.11
1030.501	1132.07
1030.79	1094.79
1031.078	1104.73
1031.367	1071.74
1031.656	1077.84
1031.945	1063.15
1032.233	1067.44
1032.522	1074
1032.81	1058.63
1033.099	1041.68
1033.387	1046.65
1033.675	1020.89
1033.963	1023.38
1034.251	1027.44
1034.54	1040.78
1034.828	1019.99
1035.116	1022.02
1035.403	999.65
1035.691	983.6
1035.979	992.42
1036.267	983.15
1036.554	975.47
1036.842	946.77
1037.129	965.53
1037.417	946.77
1037.704	926.66
1037.992	943.38
1038.279	928.69
1038.566	936.6
1038.853	936.6
1039.14	936.6
