Data from hue_320_FLMS001491_20.txt Node
Date: Mon Feb 06 15:46:48 GMT 2017
User: dcchb
Spectrometer: FLMS00149
Trigger mode: 0
Integration Time (sec): 2.000000E-2
Scans to average: 10
Electric dark correction enabled: true
Nonlinearity correction enabled: false
Boxcar width: 0
XAxis mode: Wavelengths
Number of Pixels in Spectrum: 2048
>>>>>Begin Spectral Data<<<<<
341.393	-14.9
341.776	-14.9
342.16	-14.9
342.543	-49.02
342.927	-60.55
343.31	-61.45
343.693	-51.28
344.077	-74.79
344.46	-71.17
344.843	-50.15
345.226	-58.74
345.61	-38.85
345.993	-10.38
346.376	-15.35
346.759	19.9
347.142	29.39
347.525	45.66
347.908	64.65
348.291	67.81
348.674	88.37
349.057	116.4
349.44	138.09
349.823	148.26
350.206	169.5
350.588	193.46
350.971	216.05
351.354	214.92
351.737	243.17
352.119	260.57
352.502	237.3
352.884	274.81
353.267	309.16
353.65	301.93
354.032	290.63
354.414	280.46
354.797	306.22
355.179	346.9
355.562	322.49
355.944	359.55
356.326	335.15
356.709	360.91
357.091	332.66
357.473	341.7
357.855	360.68
358.238	324.53
358.62	347.12
359.002	336.73
359.384	340.12
359.766	323.17
360.148	318.88
360.53	334.47
360.912	349.84
361.294	341.93
361.676	351.64
362.057	325.66
362.439	323.85
362.821	329.95
363.203	337.63
363.584	354.81
363.966	324.75
364.348	335.15
364.729	328.82
365.111	330.63
365.493	329.5
365.874	329.95
366.256	331.76
366.637	314.81
367.019	308.93
367.4	335.15
367.781	323.62
368.163	335.15
368.544	303.73
368.925	321.81
369.306	318.88
369.688	322.49
370.069	318.42
370.45	297.86
370.831	314.36
371.212	298.09
371.593	311.42
371.974	320.91
372.355	331.76
372.736	313.68
373.117	310.06
373.498	332.43
373.879	316.39
374.26	304.64
374.641	314.58
375.021	325.88
375.402	329.05
375.783	295.15
376.163	313.68
376.544	350.51
376.925	324.53
377.305	340.57
377.686	331.53
378.066	348.48
378.447	327.69
378.827	345.77
379.208	327.01
379.588	343.28
379.968	319.33
380.349	317.29
380.729	334.02
381.109	340.12
381.489	340.12
381.87	350.74
382.25	339.21
382.63	344.64
383.01	332.66
383.39	348.25
383.77	347.8
384.15	352.77
384.53	338.76
384.91	360.68
385.29	369.5
385.67	366.11
386.049	357.74
386.429	341.02
386.809	371.53
387.189	351.19
387.568	365.2
387.948	360.68
388.328	367.91
388.707	344.41
389.087	387.8
389.466	375.82
389.846	371.08
390.225	360
390.605	379.89
390.984	371.76
391.363	366.33
391.743	366.78
392.122	392.55
392.501	372.43
392.881	358.65
393.26	365.65
393.639	368.14
394.018	377.41
394.397	392.77
394.776	396.16
395.155	381.7
395.534	398.65
395.913	378.76
396.292	418.31
396.671	382.15
397.05	400.23
397.429	385.31
397.808	385.09
398.186	402.04
398.565	402.26
398.944	417.4
399.323	409.95
399.701	408.82
400.08	383.51
400.458	424.18
400.837	410.85
401.215	426.9
401.594	395.48
401.972	398.65
402.351	417.18
402.729	415.14
403.107	408.82
403.486	433.9
403.864	406.56
404.242	443.84
404.62	434.58
404.999	429.83
405.377	446.56
405.755	412.88
406.133	438.87
406.511	423.28
406.889	462.83
407.267	447.01
407.645	461.92
408.023	468.25
408.401	459.89
408.779	437.97
409.156	483.62
409.534	487.91
409.912	480.91
410.29	489.27
410.667	515.25
411.045	505.76
411.422	506.22
411.8	508.25
412.178	514.12
412.555	522.49
412.933	527.46
413.31	544.63
413.687	546.21
414.065	562.94
414.442	566.55
414.819	559.1
415.197	556.84
415.574	585.54
415.951	598.87
416.328	569.72
416.705	581.69
417.082	595.48
417.46	587.34
417.837	590.96
418.214	603.61
418.591	630.51
418.967	611.52
419.344	636.61
419.721	622.37
420.098	630.51
420.475	641.81
420.852	668.7
421.228	653.1
421.605	668.92
421.982	668.92
422.358	658.98
422.735	682.03
423.111	702.37
423.488	705.98
423.864	683.61
424.241	705.31
424.617	734.91
424.994	720.9
425.37	718.19
425.746	741.92
426.123	743.5
426.499	742.82
426.875	734.91
427.251	776.04
427.627	780.33
428.003	776.72
428.379	796.15
428.756	821.69
429.132	809.03
429.507	821.01
429.883	813.78
430.259	845.19
430.635	834.12
431.011	835.47
431.387	858.07
431.763	883.83
432.138	880.44
432.514	890.39
432.89	917.28
433.265	901.23
433.641	893.55
434.016	918.41
434.392	951.18
434.767	951.85
435.143	951.85
435.518	949.37
435.894	961.57
436.269	964.96
436.644	978.07
437.02	984.85
437.395	988.46
437.77	1006.32
438.145	1004.73
438.52	1025.3
438.895	1046.54
439.271	1023.49
439.646	1067.56
440.021	1071.85
440.395	1056.26
440.77	1053.09
441.145	1079.99
441.52	1079.99
441.895	1093.09
442.27	1095.58
442.645	1088.8
443.019	1106.65
443.394	1117.95
443.769	1122.92
444.143	1130.83
444.518	1132.87
444.892	1136.71
445.267	1124.05
445.641	1157.27
446.016	1126.31
446.39	1153.66
446.764	1152.53
447.139	1155.92
447.513	1164.28
447.887	1190.49
448.262	1153.66
448.636	1185.97
449.01	1189.36
449.384	1188.01
449.758	1202.24
450.132	1207.67
450.506	1204.05
450.88	1204.95
451.254	1200.66
451.628	1204.5
452.002	1228
452.376	1233.43
452.75	1239.08
453.123	1267.33
453.497	1287.44
453.871	1266.2
454.244	1287.44
454.618	1268.23
454.992	1284.5
455.365	1300.32
455.739	1317.04
456.112	1317.72
456.486	1322.69
456.859	1377.38
457.232	1387.55
457.606	1362.01
457.979	1343.48
458.352	1378.06
458.725	1375.8
459.099	1385.97
459.472	1427.77
459.845	1427.1
460.218	1445.17
460.591	1460.31
460.964	1467.55
461.337	1477.26
461.71	1502.8
462.083	1502.57
462.456	1473.87
462.829	1483.36
463.201	1529.01
463.574	1540.76
463.947	1540.09
464.32	1571.95
464.692	1581.44
465.065	1548.45
465.438	1600.88
465.81	1603.81
466.183	1616.02
466.555	1646.75
466.928	1654.21
467.3	1676.58
467.672	1662.57
468.045	1694.43
468.417	1705.05
468.789	1726.75
469.161	1735.56
469.534	1755.22
469.906	1777.37
470.278	1773.53
470.65	1811.49
471.022	1843.36
471.394	1816.01
471.766	1859.17
472.138	1893.75
472.51	1904.37
472.882	1943.69
473.253	1947.99
473.625	1961.77
473.997	1999.51
474.369	1994.54
474.74	2014.88
475.112	2014.88
475.484	2079.28
475.855	2106.4
476.227	2104.59
476.598	2155.66
476.97	2139.84
477.341	2171.48
477.713	2195.89
478.084	2238.83
478.455	2266.4
478.827	2299.16
479.198	2318.82
479.569	2339.61
479.94	2387.3
480.311	2394.53
480.682	2473.62
481.053	2479.27
481.424	2520.4
481.795	2497.8
482.166	2539.16
482.537	2603.11
482.908	2593.84
483.279	2634.75
483.65	2660.28
484.021	2677.91
484.391	2724.91
484.762	2752.71
485.133	2805.14
485.503	2787.96
485.874	2831.8
486.244	2888.75
486.615	2873.84
486.985	2912.03
487.356	2975.08
487.726	3001.74
488.097	3032.48
488.467	2992.03
488.837	3077.45
489.207	3120.84
489.578	3154.73
489.948	3164.68
490.318	3199.03
490.688	3207.39
491.058	3265.92
491.428	3296.65
491.798	3306.14
492.168	3327.61
492.538	3363.09
492.908	3392.92
493.278	3437.21
493.648	3443.54
494.017	3504.78
494.387	3482.18
494.757	3544.1
495.126	3551.56
495.496	3531.45
495.866	3600.15
496.235	3569.19
496.605	3612.57
496.974	3657.32
497.344	3646.47
497.713	3697.77
498.082	3717.66
498.452	3744.32
498.821	3706.13
499.19	3729.41
499.559	3734.83
499.928	3787.94
500.298	3820.93
500.667	3875.39
501.036	3816.18
501.405	3845.79
501.774	3879.91
502.143	3886.01
502.512	3872.45
502.88	3924.43
503.249	3958.33
503.618	3922.4
503.987	3961.27
504.356	3997.42
504.724	3984.09
505.093	4017.08
505.462	4024.99
505.83	4017.08
506.199	4057.31
506.567	4074.03
506.936	4069.51
507.304	4105.89
507.672	4136.63
508.041	4150.19
508.409	4166.68
508.777	4180.47
509.145	4214.14
509.514	4153.8
509.882	4240.13
510.25	4260.69
510.618	4253.69
510.986	4282.39
511.354	4276.74
511.722	4316.28
512.09	4313.12
512.458	4345.66
512.826	4373.23
513.193	4349.73
513.561	4350.41
513.929	4376.62
514.297	4376.62
514.664	4428.82
515.032	4391.99
515.4	4430.63
515.767	4478.54
516.135	4445.09
516.502	4430.63
516.869	4487.35
517.237	4470.41
517.604	4490.29
517.972	4501.82
518.339	4545.66
518.706	4532.55
519.073	4577.97
519.44	4585.2
519.808	4629.04
520.175	4535.71
520.542	4607.8
520.909	4612.1
521.276	4610.74
521.643	4694.58
522.009	4648.93
522.376	4754.24
522.743	4739.78
523.11	4779.78
523.477	4810.28
523.843	4785.65
524.21	4854.58
524.577	4865.2
524.943	4906.55
525.31	4874.69
525.676	4886.44
526.043	4927.12
526.409	4955.82
526.776	5011.41
527.142	5004.18
527.508	5084.17
527.874	4999.2
528.241	5075.59
528.607	5100.22
528.973	5130.27
529.339	5121.01
529.705	5165.3
530.071	5269.48
530.437	5208.92
530.803	5229.03
531.169	5291.63
531.535	5284.62
531.901	5281.68
532.267	5300.21
532.632	5349.93
532.998	5338.63
533.364	5423.6
533.73	5403.94
534.095	5428.12
534.461	5444.84
534.826	5501.34
535.192	5513.54
535.557	5480.77
535.923	5504.28
536.288	5582.92
536.653	5575.01
537.019	5549.02
537.384	5637.83
537.749	5671.05
538.114	5736.13
538.479	5689.81
538.845	5700.88
539.21	5722.58
539.575	5763.03
539.94	5795.57
540.305	5833.31
540.67	5827.21
541.034	5821.56
541.399	5865.4
541.764	5852.97
542.129	5937.71
542.494	5913.3
542.858	5964.15
543.223	5944.49
543.587	5998.5
543.952	6035.11
544.316	6003.02
544.681	6013.87
545.045	6132.51
545.41	6087.54
545.774	6156.24
546.138	6159.17
546.503	6196.24
546.867	6230.13
547.231	6240.08
547.595	6283.01
547.959	6251.15
548.324	6277.14
548.688	6298.83
549.052	6363.24
549.416	6352.16
549.779	6381.54
550.143	6391.94
550.507	6501.31
550.871	6512.61
551.235	6474.19
551.599	6530.46
551.962	6498.6
552.326	6521.42
552.689	6547.86
553.053	6525.04
553.417	6575.89
553.78	6612.5
554.143	6594.87
554.507	6613.17
554.87	6635.32
555.234	6704.24
555.597	6695.21
555.96	6729.78
556.323	6740.85
556.686	6718.71
557.05	6816.33
557.413	6800.51
557.776	6817.69
558.139	6896.1
558.502	6845.26
558.865	6872.38
559.228	6935.2
559.59	6892.49
559.953	6947.85
560.316	7070.56
560.679	6996.44
561.041	7040.73
561.404	7010
561.767	7131.35
562.129	7102.2
562.492	7150.11
562.854	7145.14
563.217	7181.52
563.579	7168.64
563.941	7231.24
564.304	7208.64
564.666	7229.43
565.028	7295.19
565.39	7302.2
565.753	7341.06
566.115	7401.4
566.477	7443.66
566.839	7443.21
567.201	7480.5
567.563	7480.04
567.925	7498.8
568.287	7556.43
568.648	7554.39
569.01	7556.43
569.372	7630.77
569.734	7634.16
570.095	7649.76
570.457	7669.19
570.819	7753.03
571.18	7743.99
571.542	7799.36
571.903	7817.66
572.265	7873.93
572.626	7971.33
572.987	7951.9
573.349	8002.74
573.71	8000.03
574.071	8039.35
574.432	8169.97
574.794	8229.63
575.155	8263.07
575.516	8270.98
575.877	8373.81
576.238	8446.57
576.599	8481.6
576.96	8535.38
577.32	8646.57
577.681	8755.04
578.042	8760.01
578.403	8936.05
578.763	9005.2
579.124	9085.42
579.485	9193.22
579.845	9265.08
580.206	9354.8
580.566	9477.73
580.927	9603.6
581.287	9682.7
581.648	9796.82
582.008	9969.92
582.368	10086.75
582.728	10340.31
583.089	10422.11
583.449	10553.41
583.809	10766.96
584.169	11016.9
584.529	11083.34
584.889	11352.03
585.249	11502.54
585.609	11601.29
585.969	11926.71
586.329	12084.67
586.688	12290.76
587.048	12519.68
587.408	12782.73
587.768	13019.56
588.127	13213
588.487	13455.03
588.846	13852.53
589.206	13943.6
589.565	14277.83
589.925	14493.19
590.284	14766.86
590.643	14968.66
591.003	15356.9
591.362	15707.17
591.721	15871.01
592.08	16173.37
592.44	16528.85
592.799	16753.47
593.158	17099.23
593.517	17324.53
593.876	17720.23
594.235	17957.28
594.593	18176.26
594.952	18557.04
595.311	18831.61
595.67	19092.39
596.029	19484.02
596.387	19797.91
596.746	20151.12
597.104	20333.94
597.463	20628.62
597.822	20946.36
598.18	21138.44
598.538	21441.26
598.897	21815.71
599.255	22040.11
599.613	22675.58
599.972	22715.35
600.33	23106.98
600.688	23362.11
601.046	23735.89
601.404	24072.6
601.762	24220.62
602.12	24715.3
602.478	24947.15
602.836	25169.07
603.194	25289.74
603.552	25502.39
603.91	25836.4
604.268	26206.1
604.625	26391.64
604.983	26768.12
605.341	26816.71
605.698	27328.56
606.056	27597.71
606.413	27660.53
606.771	28105.04
607.128	28313.62
607.485	28386.84
607.843	28690.33
608.2	29043.32
608.557	29342.29
608.914	29379.81
609.272	29860.47
609.629	30027.25
609.986	30433.79
610.343	30316.28
610.7	30797.85
611.057	30903.83
611.414	31120.55
611.771	31404.39
612.127	31636.7
612.484	31668.33
612.841	32026.74
613.198	32028.78
613.554	32388.54
613.911	32633.28
614.267	32826.95
614.624	32803.45
614.98	33077.34
615.337	33413.15
615.693	33349.42
616.05	33624.44
616.406	33933.81
616.762	34023.07
617.118	34061.27
617.475	34254.93
617.831	34438.2
618.187	34622.38
618.543	34685.43
618.899	35047.45
619.255	35050.39
619.611	35227.34
619.967	35511.85
620.323	35447.44
620.678	35612.86
621.034	35683.14
621.39	35672.3
621.746	35945.51
622.101	36253.75
622.457	36125.39
622.812	36263.47
623.168	36406.51
623.523	36488.77
623.879	36719.05
624.234	36551.6
624.589	36798.59
624.945	36899.38
625.3	37040.85
625.655	36907.52
626.01	37044.46
626.365	37246.94
626.72	37234.52
627.075	37232.26
627.43	37213.27
627.785	37297.56
628.14	37404.23
628.495	37531
628.85	37584.79
629.205	37463.44
629.559	37723.09
629.914	37685.35
630.269	37682.64
630.623	37624.34
630.978	37650.32
631.332	37861.84
631.687	38019.58
632.041	37878.57
632.396	38086.7
632.75	37827.49
633.104	38049.18
633.459	37782.75
633.813	37801.73
634.167	37907.49
634.521	37925.8
634.875	38083.98
635.229	38073.14
635.583	37880.6
635.937	37972.35
636.291	37946.81
636.645	37938.9
636.999	37925.57
637.352	38162.4
637.706	38110.2
638.06	38137.99
638.413	38110.2
638.767	37826.82
639.121	38070.88
639.474	37836.31
639.828	37860.49
640.181	38126.92
640.534	38084.21
640.888	37919.02
641.241	37751.79
641.594	37863.65
641.947	37964.67
642.301	37764.44
642.654	37844.44
643.007	37971.45
643.36	37875.85
643.713	37907.94
644.066	38033.36
644.419	37737.1
644.771	37590.44
645.124	37305.02
645.477	37333.95
645.83	37079.49
646.182	36916.11
646.535	36832.27
646.888	36907.07
647.24	36793.85
647.593	36940.51
647.945	36848.54
648.298	36646.73
648.65	36677.02
649.002	36689.9
649.355	36660.07
649.707	36677.24
650.059	36791.59
650.411	37232.48
650.763	37305.02
651.115	37560.61
651.467	37509.08
651.819	37561.29
652.171	37408.07
652.523	37383.44
652.875	37410.56
653.227	37394.51
653.578	37592.25
653.93	37377.56
654.282	37286.94
654.633	37182.77
654.985	37286.72
655.337	37259.15
655.688	37345.47
656.039	37477.9
656.391	37087.63
656.742	37189.32
657.094	37170.56
657.445	37340.05
657.796	37372.36
658.147	37095.54
658.498	37196.1
658.849	37391.57
659.2	37218.7
659.551	37128.76
659.902	37189.54
660.253	37139.6
660.604	37174.63
660.955	37020.28
661.306	37197.91
661.656	37238.13
662.007	37142.31
662.358	37309.09
662.708	37140.51
663.059	37178.7
663.409	36967.86
663.76	37145.48
664.11	37168.75
664.461	37213.5
664.811	37191.13
665.161	37144.35
665.511	36952.49
665.862	37102.09
666.212	37147.06
666.562	37213.5
666.912	36954.52
667.262	37038.36
667.612	37055.99
667.962	37075.42
668.312	36947.29
668.662	37200.84
669.011	37113.39
669.361	37096.89
669.711	36992.26
670.06	36930.34
670.41	36920.4
670.76	36846.95
671.109	37066.84
671.459	36926.27
671.808	36915.88
672.157	36942.32
672.507	36783
672.856	36794.75
673.205	36822.1
673.554	36882.43
673.904	36773.51
674.253	37074.75
674.602	36757.47
674.951	36285.61
675.3	36232.28
675.649	36666.17
675.998	36767.41
676.346	36596.11
676.695	36805.6
677.044	36482.44
677.393	36702.33
677.741	36720.18
678.09	36628.2
678.438	36530.13
678.787	36570.58
679.135	36671.37
679.484	36340.3
679.832	36440.19
680.181	36286.29
680.529	36406.51
680.877	36178.72
681.225	36381.2
681.573	36425.05
681.922	36196.35
682.27	36120.19
682.618	36111.16
682.966	35979.41
683.314	36246.97
683.661	35965.4
684.009	35940.99
684.357	35784.84
684.705	35670.49
685.053	35806.76
685.4	35594.78
685.748	35622.13
686.095	35629.13
686.443	35490.38
686.79	35310.27
687.138	35373.77
687.485	35456.71
687.832	35220.56
688.18	35345.07
688.527	35056.72
688.874	35144.17
689.221	35150.95
689.568	35000.45
689.915	34933.33
690.262	34954.12
690.609	34789.38
690.956	34806.33
691.303	34766.11
691.65	34508.26
691.997	34644.53
692.344	34303.74
692.69	34285.89
693.037	34236.4
693.383	34017.42
693.73	34195.5
694.077	34001.61
694.423	34065.79
694.769	33939.23
695.116	33795.74
695.462	33788.5
695.808	33642.52
696.155	33678.9
696.501	33460.15
696.847	33302.64
697.193	33224.45
697.539	33266.94
697.885	32987.17
698.231	33061.07
698.577	33008.64
698.923	33070.11
699.269	32665.6
699.614	32672.38
699.96	32764.12
700.306	32628.53
700.651	32421.08
700.997	32444.36
701.342	32412.5
701.688	32427.64
702.033	32260.63
702.379	32195.1
702.724	32123.92
703.069	32178.6
703.415	31823.36
703.76	31829.23
704.105	31827.88
704.45	31857.48
704.795	31663.36
705.14	31538.62
705.485	31387.44
705.83	31417.95
706.175	31478.06
706.52	31322.58
706.865	31252.75
707.209	31109.93
707.554	30983.38
707.899	31015.47
708.243	30957.17
708.588	30969.14
708.932	30685.99
709.277	30680.34
709.621	30657.29
709.966	30591.07
710.31	30613.67
710.654	30422.27
710.998	30387.46
711.342	30347.92
711.687	30364.64
712.031	30145.21
712.375	29945.22
712.719	30097.53
713.063	30041.48
713.407	30051.88
713.75	29935.72
714.094	29915.61
714.438	29799
714.782	29803.98
715.125	29683.3
715.469	29733.24
715.812	29610.76
716.156	29377.32
716.499	29420.94
716.843	29431.56
717.186	29325.12
717.53	29304.33
717.873	29385.91
718.216	29309.75
718.559	29176.65
718.902	28952.25
719.246	29023.88
719.589	28926.94
719.932	28878.58
720.275	28783.66
720.617	28755.42
720.96	28714.51
721.303	28709.09
721.646	28732.37
721.989	28581.41
722.331	28706.6
722.674	28542.77
723.016	28517.68
723.359	28559.26
723.701	28324.92
724.044	28350.23
724.386	28268.2
724.729	28293.96
725.071	28201.08
725.413	28172.15
725.755	28206.5
726.097	28224.36
726.439	27813.52
726.782	27876.8
727.124	28036.79
727.465	27818.27
727.807	27778.72
728.149	27842.45
728.491	27741.43
728.833	27719.74
729.175	27696.69
729.516	27587.09
729.858	27477.26
730.199	27536.47
730.541	27477.03
730.882	27514.09
731.224	27621.21
731.565	27383.25
731.906	27358.16
732.248	27409.91
732.589	27269.58
732.93	27102.13
733.271	27199.75
733.612	27231.39
733.953	27249.47
734.294	27174.44
734.635	27021.9
734.976	27090.83
735.317	26917.5
735.658	26920.21
735.999	26903.04
736.339	26877.5
736.68	26917.72
737.021	26816.94
737.361	26712.98
737.702	26761.8
738.042	26640.67
738.383	26588.69
738.723	26728.8
739.063	26520.45
739.404	26543.27
739.744	26522.71
740.084	26399.77
740.424	26458.08
740.764	26335.82
741.104	26509.15
741.444	26347.57
741.784	26170.4
742.124	26130.4
742.464	26296.95
742.804	26171.53
743.143	26120.23
743.483	26041.82
743.823	25982.16
744.162	26042.27
744.502	26098.76
744.841	25879.79
745.181	26063.28
745.52	25870.29
745.86	25977.41
746.199	25822.39
746.538	25794.82
746.877	25841.59
747.216	25756.85
747.556	25692.67
747.895	25650.87
748.234	25500.81
748.573	25536.29
748.911	25511.21
749.25	25537.2
749.589	25314.38
749.928	25414.26
750.267	25414.49
750.605	25339.01
750.944	25150.99
751.283	25141.73
751.621	25136.98
751.96	25009.3
752.298	25052.46
752.636	24997.32
752.975	24873.48
753.313	24931.56
753.651	24915.29
753.989	24732.7
754.327	24562.08
754.666	24658.12
755.004	24529.76
755.342	24574.51
755.679	24541.74
756.017	24403.67
756.355	24482.76
756.693	24320.28
757.031	24394.63
757.368	24136.33
757.706	24189.21
758.044	24209.1
758.381	24203.22
758.719	24023.79
759.056	24006.39
759.394	23907.18
759.731	23855.66
760.068	23845.49
760.405	23619.73
760.743	23636.45
761.08	23680.75
761.417	23533.86
761.754	23416.8
762.091	23354.65
762.428	23338.84
762.765	23062.91
763.102	23294.32
763.438	23105.62
763.775	23011.16
764.112	22943.82
764.449	23060.88
764.785	22804.84
765.122	22714.22
765.458	22693.2
765.795	22697.95
766.131	22582.7
766.467	22445.98
766.804	22423.61
767.14	22345.42
767.476	22334.12
767.812	22136.16
768.148	22245.53
768.485	22083.05
768.821	21963.05
769.157	21979.32
769.492	21878.76
769.828	21877.86
770.164	21669.73
770.5	21645.55
770.836	21690.52
771.171	21511.76
771.507	21344.09
771.842	21277.42
772.178	21264.54
772.513	21192.45
772.849	21202.17
773.184	21134.83
773.519	21024.32
773.855	20922.18
774.19	20844.89
774.525	20739.58
774.86	20832.46
775.195	20738.68
775.53	20720.15
775.865	20561.73
776.2	20379.37
776.535	20312.93
776.87	20242.87
777.205	20243.1
777.539	20173.27
777.874	20175.08
778.209	19970.11
778.543	19792.04
778.878	19840.17
779.212	19704.13
779.547	19672.04
779.881	19674.98
780.215	19485.6
780.55	19655.77
780.884	19384.14
781.218	19292.61
781.552	19462.1
781.886	19225.5
782.22	19181.88
782.554	19054.2
782.888	18922.23
783.222	18917.71
783.556	18846.3
783.889	18693.53
784.223	18649.47
784.557	18679.3
784.89	18685.4
785.224	18459.42
785.557	18417.38
785.891	18409.47
786.224	18292.64
786.558	18291.06
786.891	18102.59
787.224	18026.21
787.557	18000.44
787.891	17977.62
788.224	17983.27
788.557	17960.45
788.89	17865.76
789.223	17936.04
789.556	17768.81
789.888	17665.99
790.221	17648.59
790.554	17423.28
790.887	17447.46
791.219	17455.6
791.552	17413.34
791.884	17323.4
792.217	17220.58
792.549	17218.09
792.882	16976.74
793.214	16913.47
793.546	17045.22
793.879	16993.47
794.211	16928.16
794.543	16894.94
794.875	16832.34
795.207	16866.01
795.539	16621.27
795.871	16659.92
796.203	16574.04
796.535	16514.38
796.867	16452.24
797.198	16324.78
797.53	16414.27
797.862	16200.72
798.193	16258.12
798.525	16149.87
798.856	16132.7
799.188	16109.87
799.519	15941.06
799.85	15886.83
800.182	15946.04
800.513	15876.66
800.844	15642.09
801.175	15813.16
801.506	15720.73
801.837	15596.44
802.168	15598.7
802.499	15628.98
802.83	15473.05
803.161	15376.78
803.491	15428.99
803.822	15512.83
804.153	15336.56
804.483	15159.39
804.814	15179.73
805.145	15210.46
805.475	15157.58
805.805	15038.04
806.136	15062.22
806.466	15132.05
806.796	15096.34
807.126	14890.24
807.457	14851.15
807.787	14914.88
808.117	14856.12
808.447	14777.7
808.777	14758.72
809.107	14713.53
809.436	14781.55
809.766	14684.15
810.096	14592.4
810.426	14597.82
810.755	14550.59
811.085	14464.49
811.414	14550.37
811.744	14334.1
812.073	14328
812.403	14352.41
812.732	14292.29
813.061	14248.68
813.39	14151.73
813.719	14163.26
814.049	14203.71
814.378	14095.91
814.707	14034.45
815.036	13989.7
815.365	14031.28
815.693	13859.08
816.022	13842.81
816.351	13839.65
816.68	13735.7
817.008	13756.71
817.337	13634.68
817.665	13657.06
817.994	13690.05
818.322	13586.32
818.651	13560.11
818.979	13623.84
819.307	13591.75
819.636	13533.44
819.964	13420.23
820.292	13507.46
820.62	13458.42
820.948	13443.28
821.276	13532.77
821.604	13424.29
821.932	13362.6
822.259	13484.86
822.587	13372.09
822.915	13360.34
823.243	13403.73
823.57	13274.02
823.898	13367.57
824.225	13277.41
824.553	13376.84
824.88	13338.65
825.207	13328.48
825.535	13420.9
825.862	13344.75
826.189	13267.91
826.516	13335.48
826.843	13372.54
827.17	13306.33
827.497	13434.24
827.824	13354.01
828.151	13402.83
828.478	13397.4
828.805	13323.51
829.131	13345.65
829.458	13266.33
829.785	13266.11
830.111	13341.36
830.438	13234.92
830.764	13316.5
831.09	13287.12
831.417	13249.84
831.743	13208.25
832.069	13252.32
832.395	13251.87
832.722	13248.93
833.048	13200.12
833.374	13238.76
833.7	13196.73
834.026	13244.41
834.351	13205.77
834.677	13187.46
835.003	13251.42
835.329	13130.97
835.654	13205.99
835.98	13089.39
836.306	13077.18
836.631	13066.11
836.956	13192.21
837.282	13083.06
837.607	13034.25
837.932	12937.98
838.258	12957.19
838.583	13012.78
838.908	12857.08
839.233	12928.71
839.558	12851.2
839.883	12833.35
840.208	12843.07
840.533	12827.47
840.858	12781.15
841.182	12831.09
841.507	12756.51
841.832	12699.79
842.156	12718.32
842.481	12678.55
842.805	12658.89
843.13	12579.12
843.454	12589.29
843.778	12520.81
844.103	12550.64
844.427	12494.83
844.751	12532.11
845.075	12489.18
845.399	12383.87
845.723	12370.31
846.047	12326.7
846.371	12197.43
846.695	12254.61
847.019	12127.15
847.343	12023.65
847.666	12010.55
847.99	11946.37
848.313	11974.39
848.637	11871.11
848.96	11806.94
849.284	11865.92
849.607	11736.65
849.931	11679.71
850.254	11613.95
850.577	11520.62
850.9	11553.61
851.223	11519.49
851.546	11355.87
851.869	11374.86
852.192	11362.65
852.515	11319.49
852.838	11210.34
853.161	11301.86
853.483	11185.71
853.806	11239.27
854.129	11095.32
854.451	11063.68
854.774	11098.71
855.096	10969.44
855.419	11006.5
855.741	10935.77
856.063	10828.2
856.385	10836.11
856.708	10870.24
857.03	10853.51
857.352	10767.19
857.674	10795.89
857.996	10745.72
858.318	10728.55
858.64	10653.75
858.961	10547.53
859.283	10596.57
859.605	10562.45
859.926	10564.48
860.248	10415.56
860.57	10435.67
860.891	10532.39
861.212	10422.11
861.534	10423.02
861.855	10379.18
862.176	10332.85
862.498	10280.42
862.819	10385.73
863.14	10284.94
863.461	10263.02
863.782	10262.12
864.103	10263.47
864.424	10215.79
864.745	10282.68
865.065	10182.35
865.386	10155.68
865.707	10198.62
866.027	10194.1
866.348	10131.95
866.668	10084.04
866.989	10083.82
867.309	10050.82
867.63	10077.94
867.95	10081.33
868.27	9949.13
868.59	9939.41
868.91	10014.44
869.23	9979.86
869.55	9852.86
869.87	9967.21
870.19	9887.89
870.51	9993.42
870.83	9946.87
871.15	9910.26
871.469	9823.94
871.789	9859.64
872.109	9907.1
872.428	9849.92
872.748	9834.56
873.067	9793.43
873.386	9834.78
873.706	9788.23
874.025	9725.18
874.344	9699.65
874.663	9705.07
874.982	9668.91
875.301	9689.02
875.62	9652.64
875.939	9591.85
876.258	9634.34
876.577	9581.23
876.896	9589.82
877.214	9585.3
877.533	9517.28
877.852	9496.94
878.17	9498.97
878.489	9512.31
878.807	9525.87
879.125	9472.53
879.444	9484.51
879.762	9383.27
880.08	9438.41
880.398	9447.9
880.716	9416.72
881.034	9372.2
881.352	9290.39
881.67	9345.98
881.988	9368.36
882.306	9274.35
882.624	9247.91
882.941	9224.18
883.259	9223.95
883.577	9191.86
883.894	9143.28
884.212	9133.79
884.529	9142.37
884.846	9112.99
885.164	9071.19
885.481	9017.86
885.798	9072.09
886.115	8935.82
886.432	8985.54
886.75	8873
887.067	8968.37
887.383	8945.09
887.7	8928.37
888.017	8880.68
888.334	8949.38
888.651	8856.73
888.967	8774.47
889.284	8765.89
889.6	8772.89
889.917	8747.58
890.233	8720.24
890.55	8609.73
890.866	8684.31
891.182	8621.26
891.498	8518.66
891.815	8580.81
892.131	8573.35
892.447	8520.47
892.763	8463.97
893.079	8529.96
893.395	8471.66
893.71	8426.91
894.026	8376.52
894.342	8363.64
894.657	8329.74
894.973	8356.63
895.289	8382.62
895.604	8341.04
895.92	8227.37
896.235	8208.84
896.55	8246.12
896.865	8224.88
897.181	8178.1
897.496	8123.42
897.811	8117.09
898.126	8105.34
898.441	8055.4
898.756	7982.86
899.071	8028.5
899.386	7992.35
899.7	7956.42
900.015	7892.01
900.33	7879.81
900.644	7814.72
900.959	7873.71
901.273	7870.77
901.588	7805.68
901.902	7747.38
902.216	7769.53
902.531	7769.08
902.845	7645.69
903.159	7591.23
903.473	7587.39
903.787	7536.99
904.101	7528.63
904.415	7517.56
904.729	7522.08
905.042	7401.63
905.356	7395.53
905.67	7406.6
905.984	7419.71
906.297	7385.13
906.611	7301.52
906.924	7268.75
907.237	7320.73
907.551	7278.47
907.864	7216.55
908.177	7218.13
908.491	7160.28
908.804	7164.57
909.117	7103.33
909.43	7073.95
909.743	7071.69
910.056	7003.22
910.368	6940.17
910.681	6942.66
910.994	6952.15
911.307	6922.77
911.619	6838.48
911.932	6842.09
912.244	6829.89
912.557	6781.76
912.869	6742.66
913.181	6715.09
913.494	6728.88
913.806	6659.95
914.118	6693.62
914.43	6661.76
914.742	6596
915.054	6582.67
915.366	6529.56
915.678	6514.87
915.99	6476.45
916.302	6392.39
916.613	6425.16
916.925	6483.01
917.236	6351.71
917.548	6326.63
917.859	6299.74
918.171	6338.83
918.482	6266.52
918.794	6275.1
919.105	6257.93
919.416	6185.61
919.727	6186.29
920.038	6185.39
920.349	6160.08
920.66	6099.97
920.971	6085.28
921.282	6087.99
921.593	6037.37
921.903	6000.76
922.214	5992.17
922.525	5928.45
922.835	5946.3
923.146	5886.86
923.456	5879.63
923.767	5842.12
924.077	5814.32
924.387	5747.43
924.697	5767.55
925.008	5749.02
925.318	5780.43
925.628	5719.64
925.938	5724.38
926.248	5651.62
926.558	5622.01
926.867	5603.93
927.177	5655.91
927.487	5557.61
927.796	5559.19
928.106	5522.58
928.416	5478.74
928.725	5512.86
929.034	5437.84
929.344	5484.84
929.653	5406.88
929.962	5343.38
930.271	5356.94
930.581	5297.95
930.89	5261.34
931.199	5285.3
931.508	5257.05
931.817	5242.81
932.125	5235.36
932.434	5230.39
932.743	5203.95
933.051	5164.85
933.36	5149.48
933.669	5108.58
933.977	5070.62
934.286	5035.36
934.594	5042.82
934.902	5052.76
935.21	5030.39
935.519	4994.69
935.827	4954.01
936.135	4913.33
936.443	4920.56
936.751	4862.03
937.059	4902.26
937.367	4846.21
937.674	4857.29
937.982	4851.86
938.29	4812.54
938.597	4789.27
938.905	4784.97
939.213	4753.56
939.52	4697.52
939.827	4717.86
940.135	4681.25
940.442	4680.34
940.749	4621.81
941.056	4707.69
941.363	4587.46
941.67	4601.48
941.977	4554.24
942.284	4549.95
942.591	4488.48
942.898	4467.92
943.205	4449.84
943.511	4425.21
943.818	4431.99
944.125	4417.07
944.431	4431.54
944.738	4402.16
945.044	4362.39
945.35	4337.53
945.657	4340.92
945.963	4316.74
946.269	4266.34
946.575	4286
946.881	4248.72
947.187	4244.2
947.493	4229.51
947.799	4241.71
948.105	4231.32
948.41	4149.74
948.716	4178.44
949.022	4130.3
949.327	4087.36
949.633	4123.97
949.938	4107.48
950.244	4041.72
950.549	4009.4
950.854	4038.78
951.16	4076.97
951.465	3983.86
951.77	3973.02
952.075	3949.51
952.38	3950.64
952.685	3919.69
952.99	3887.82
953.294	3923.98
953.599	3894.15
953.904	3880.82
954.209	3846.92
954.513	3875.17
954.818	3822.74
955.122	3812.34
955.426	3794.94
955.731	3740.48
956.035	3743.42
956.339	3710.65
956.643	3710.2
956.948	3672.46
957.252	3714.27
957.556	3676.08
957.86	3630.43
958.163	3625.68
958.467	3645.57
958.771	3625
959.075	3616.19
959.378	3553.14
959.682	3589.52
959.985	3521.05
960.289	3548.4
960.592	3491
960.896	3511.79
961.199	3495.29
961.502	3467.04
961.805	3437.66
962.108	3439.92
962.411	3389.53
962.714	3392.02
963.017	3382.07
963.32	3395.86
963.623	3371.45
963.926	3389.53
964.228	3312.02
964.531	3311.79
964.833	3297.33
965.136	3278.12
965.438	3265.24
965.741	3240.38
966.043	3228.4
966.345	3222.53
966.648	3222.08
966.95	3231.12
967.252	3197.9
967.554	3171.91
967.856	3189.08
968.158	3131.01
968.46	3093.49
968.761	3103.21
969.063	3094.62
969.365	3113.83
969.666	3085.36
969.968	3036.09
970.269	3032.25
970.571	3045.36
970.872	3005.13
971.174	3027.05
971.475	2980.05
971.776	2998.58
972.077	2989.54
972.378	2981.4
972.679	2958.81
972.98	2930.11
973.281	2914.29
973.582	2917.23
973.883	2922.88
974.183	2876.1
974.484	2858.47
974.785	2859.83
975.085	2888.53
975.386	2851.24
975.686	2832.03
975.986	2827.28
976.287	2797.23
976.587	2765.59
976.887	2794.52
977.187	2761.07
977.487	2737.57
977.787	2756.1
978.087	2712.26
978.387	2725.82
978.687	2700.28
978.987	2720.62
979.286	2678.59
979.586	2674.75
979.885	2647.63
980.185	2635.2
980.484	2639.27
980.784	2645.37
981.083	2648.76
981.382	2645.82
981.682	2611.47
981.981	2590
982.28	2585.26
982.579	2551.36
982.878	2568.08
983.177	2563.34
983.475	2521.53
983.774	2501.87
984.073	2501.42
984.372	2485.6
984.67	2509.55
984.969	2491.47
985.267	2478.14
985.566	2456.9
985.864	2457.8
986.162	2449.22
986.461	2400.85
986.759	2435.88
987.057	2402.21
987.355	2413.28
987.653	2387.07
987.951	2346.62
988.249	2358.14
988.547	2342.33
988.844	2317.47
989.142	2302.1
989.44	2331.7
989.737	2291.03
990.035	2273.17
990.332	2294.19
990.63	2269.11
990.927	2253.97
991.224	2241.54
991.521	2251.48
991.819	2225.49
992.116	2253.97
992.413	2212.84
992.71	2221.65
993.006	2207.19
993.303	2169.9
993.6	2204.48
993.897	2208.32
994.193	2180.52
994.49	2156.12
994.787	2111.82
995.083	2131.26
995.379	2113.4
995.676	2107.76
995.972	2079.51
996.268	2096.68
996.565	2059.85
996.861	2078.38
997.157	2084.48
997.453	2028.44
997.749	2046.06
998.044	2001.54
998.34	1990.24
998.636	2009.45
998.932	2027.08
999.227	1976.46
999.523	1989.57
999.818	1958.61
1000.114	1961.77
1000.409	1944.82
1000.704	1914.09
1001	1922.45
1001.295	1903.69
1001.59	1885.39
1001.885	1882.45
1002.18	1864.6
1002.475	1864.37
1002.77	1843.36
1003.065	1841.55
1003.359	1847.2
1003.654	1832.51
1003.949	1842.23
1004.243	1784.83
1004.538	1802
1004.832	1798.38
1005.127	1793.19
1005.421	1763.58
1005.715	1755.9
1006.009	1796.8
1006.304	1753.19
1006.598	1736.47
1006.892	1742.12
1007.186	1736.01
1007.48	1716.35
1007.773	1733.08
1008.067	1681.78
1008.361	1682.23
1008.655	1692.17
1008.948	1665.96
1009.242	1672.74
1009.535	1659.86
1009.829	1631.84
1010.122	1608.33
1010.415	1629.35
1010.708	1628.22
1011.001	1609.92
1011.295	1587.54
1011.588	1585.96
1011.881	1600.65
1012.173	1569.92
1012.466	1550.48
1012.759	1511.16
1013.052	1568.56
1013.344	1527.88
1013.637	1537.83
1013.93	1534.44
1014.222	1519.75
1014.514	1508.9
1014.807	1511.84
1015.099	1492.86
1015.391	1480.43
1015.683	1469.13
1015.976	1474.78
1016.268	1459.86
1016.56	1432.29
1016.851	1446.3
1017.143	1416.7
1017.435	1426.42
1017.727	1414.21
1018.018	1422.35
1018.31	1381.67
1018.602	1363.37
1018.893	1353.2
1019.185	1348.45
1019.476	1357.49
1019.767	1369.24
1020.058	1354.78
1020.35	1325.63
1020.641	1312.75
1020.932	1314.56
1021.223	1303.71
1021.514	1315.69
1021.804	1272.52
1022.095	1298.06
1022.386	1297.38
1022.677	1252.86
1022.967	1261.9
1023.258	1254.44
1023.548	1268.23
1023.839	1249.92
1024.129	1221.9
1024.419	1222.58
1024.709	1226.42
1025	1211.73
1025.29	1216.03
1025.58	1181.45
1025.87	1173.99
1026.16	1150.72
1026.449	1197.5
1026.739	1138.52
1027.029	1142.36
1027.319	1162.7
1027.608	1157.95
1027.898	1142.58
1028.187	1126.99
1028.477	1113.21
1028.766	1121.34
1029.055	1102.81
1029.344	1098.52
1029.634	1075.92
1029.923	1104.39
1030.212	1055.81
1030.501	1091.28
1030.79	1056.03
1031.078	1060.55
1031.367	1025.52
1031.656	1046.77
1031.945	1012.87
1032.233	1020.55
1032.522	1022.81
1032.81	1002.47
1033.099	1004.73
1033.387	1018.74
1033.675	995.02
1033.963	968.35
1034.251	977.62
1034.54	966.54
1034.828	964.28
1035.116	977.84
1035.403	951.85
1035.691	932.42
1035.979	971.74
1036.267	938.75
1036.554	930.16
1036.842	901.46
1037.129	905.98
1037.417	908.92
1037.704	903.49
1037.992	906.2
1038.279	936.49
1038.566	884.74
1038.853	884.74
1039.14	884.74
