Data from hue_22_FLMS001491_00098.txt Node
Date: Tue Feb 07 17:10:58 GMT 2017
User: dcchb
Spectrometer: FLMS00149
Trigger mode: 0
Integration Time (sec): 2.000000E-2
Scans to average: 10
Electric dark correction enabled: true
Nonlinearity correction enabled: false
Boxcar width: 0
XAxis mode: Wavelengths
Number of Pixels in Spectrum: 2048
>>>>>Begin Spectral Data<<<<<
341.393	-22.61
341.776	-22.61
342.16	-22.61
342.543	-58.09
342.927	-76.17
343.31	-58.77
343.693	-84.98
344.077	-50.63
344.46	-51.54
344.843	-62.16
345.226	-35.49
345.61	-36.62
345.993	-17.41
346.376	-2.73
346.759	-10.64
347.142	31.4
347.525	32.98
347.908	57.16
348.291	88.12
348.674	106.2
349.057	95.12
349.44	132.19
349.823	123.37
350.206	155.01
350.588	182.81
350.971	206.31
351.354	209.7
351.737	234.56
352.119	246.08
352.502	271.39
352.884	275.68
353.267	290.37
353.65	270.04
354.032	286.53
354.414	306.42
354.797	297.61
355.179	323.37
355.562	304.61
355.944	305.97
356.326	343.03
356.709	336.02
357.091	315.46
357.473	333.08
357.855	325.18
358.238	343.48
358.62	332.41
359.002	332.18
359.384	332.86
359.766	325.4
360.148	326.98
360.53	324.05
360.912	324.27
361.294	315.91
361.676	341.67
362.057	321.79
362.439	317.72
362.821	331.5
363.203	337.6
363.584	337.83
363.966	320.88
364.348	336.47
364.729	329.69
365.111	337.38
365.493	319.07
365.874	320.43
366.256	308.68
366.637	297.83
367.019	321.56
367.4	312.97
367.781	298.06
368.163	323.37
368.544	303.48
368.925	298.96
369.306	320.2
369.688	307.1
370.069	328.56
370.45	299.41
370.831	339.86
371.212	308
371.593	325.4
371.974	320.66
372.355	320.66
372.736	299.41
373.117	300.09
373.498	308.9
373.879	285.85
374.26	326.98
374.641	338.73
375.021	329.02
375.402	322.01
375.783	316.59
376.163	339.64
376.544	321.33
376.925	322.69
377.305	320.88
377.686	321.79
378.066	348.9
378.447	318.4
378.827	314.1
379.208	333.76
379.588	341.45
379.968	325.18
380.349	326.08
380.729	311.39
381.109	350.49
381.489	330.6
381.87	330.82
382.25	352.52
382.63	340.54
383.01	331.73
383.39	331.5
383.77	332.18
384.15	330.82
384.53	343.25
384.91	340.99
385.29	345.97
385.67	343.71
386.049	357.04
386.429	352.97
386.809	325.18
387.189	324.05
387.568	347.77
387.948	356.59
388.328	354.55
388.707	353.42
389.087	363.59
389.466	357.49
389.846	362.46
390.225	362.46
390.605	353.65
390.984	362.01
391.363	364.27
391.743	366.3
392.122	359.98
392.501	364.27
392.881	387.32
393.26	376.25
393.639	376.25
394.018	375.12
394.397	371.73
394.776	386.19
395.155	372.86
395.534	370.15
395.913	374.89
396.292	375.34
396.671	364.04
397.05	376.25
397.429	359.98
397.808	389.81
398.186	380.09
398.565	388.45
398.944	358.62
399.323	374.21
399.701	380.99
400.08	383.7
400.458	383.93
400.837	413.08
401.215	407.88
401.594	411.73
401.972	386.64
402.351	401.78
402.729	395.46
403.107	402.69
403.486	387.77
403.864	411.95
404.242	405.4
404.62	406.53
404.999	404.27
405.377	408.56
405.755	406.75
406.133	413.08
406.511	405.17
406.889	404.5
407.267	403.14
407.645	418.05
408.023	405.17
408.401	419.64
408.779	429.58
409.156	445.62
409.534	439.52
409.912	440.88
410.29	437.71
410.667	425.06
411.045	435.23
411.422	430.93
411.8	439.75
412.178	443.59
412.555	462.8
412.933	439.97
413.31	461.44
413.687	480.88
414.065	466.64
414.442	454.89
414.819	450.37
415.197	450.6
415.574	475
415.951	465.28
416.328	477.04
416.705	476.13
417.082	471.16
417.46	479.3
417.837	495.34
418.214	465.51
418.591	484.27
418.967	474.1
419.344	499.63
419.721	495.79
420.098	476.13
420.475	472.52
420.852	497.83
421.228	494.66
421.605	499.63
421.982	512.06
422.358	521.55
422.735	533.08
423.111	497.37
423.488	537.6
423.864	520.42
424.241	514.77
424.617	513.64
424.994	509.58
425.37	508.45
425.746	553.19
426.123	526.75
426.499	538.05
426.875	543.25
427.251	551.38
427.627	553.87
428.003	561.1
428.379	559.75
428.756	556.81
429.132	553.42
429.507	584.38
429.883	571.27
430.259	599.97
430.635	587.32
431.011	598.39
431.387	595
431.763	606.75
432.138	602.46
432.514	618.05
432.89	610.14
433.265	618.27
433.641	644.94
434.016	637.03
434.392	655.79
434.767	634.32
435.143	632.29
435.518	641.55
435.894	650.82
436.269	644.71
436.644	654.66
437.02	660.53
437.395	680.65
437.77	665.05
438.145	664.83
438.52	673.41
438.895	663.7
439.271	688.78
439.646	702.34
440.021	688.33
440.395	694.66
440.77	704.15
441.145	714.77
441.52	712.74
441.895	700.76
442.27	743.7
442.645	733.98
443.019	732.4
443.394	741.44
443.769	756.8
444.143	740.53
444.518	751.83
444.892	718.16
445.267	745.95
445.641	731.49
446.016	739.85
446.39	769.01
446.764	756.12
447.139	761.1
447.513	763.81
447.887	803.58
448.262	784.82
448.636	757.93
449.01	779.17
449.384	798.38
449.758	813.07
450.132	812.85
450.506	800.87
450.88	786.41
451.254	819.4
451.628	806.29
452.002	818.27
452.376	834.31
452.75	830.25
453.123	828.66
453.497	852.39
453.871	868.66
454.244	879.96
454.618	881.32
454.992	856.69
455.365	862.79
455.739	906.85
456.112	914.76
456.486	914.99
456.859	945.05
457.232	928.78
457.606	958.6
457.979	929.68
458.352	938.94
458.725	990.92
459.099	971.71
459.472	975.55
459.845	1004.25
460.218	1004.48
460.591	1006.51
460.964	1002.9
461.337	1030.02
461.71	1061.65
462.083	1032.28
462.456	1042.44
462.829	1063.01
463.201	1079.05
463.574	1050.81
463.947	1077.25
464.32	1102.56
464.692	1117.47
465.065	1118.83
465.438	1129.45
465.81	1151.37
466.183	1145.72
466.555	1187.53
466.928	1205.6
467.3	1215.77
467.672	1203.57
468.045	1244.92
468.417	1249.9
468.789	1267.52
469.161	1272.72
469.534	1284.25
469.906	1314.75
470.278	1330.57
470.65	1338.03
471.022	1383
471.394	1398.59
471.766	1423.9
472.138	1433.39
472.51	1473.39
472.882	1483.11
473.253	1494.18
473.625	1528.76
473.997	1542.54
474.369	1569.44
474.74	1578.02
475.112	1602.2
475.484	1642.88
475.855	1638.59
476.227	1670.9
476.598	1733.5
476.97	1726.27
477.341	1754.74
477.713	1802.88
478.084	1834.74
478.455	1873.83
478.827	1858.92
479.198	1932.59
479.569	1956.77
479.94	2030.67
480.311	2050.78
480.682	2085.13
481.053	2124.22
481.424	2187.72
481.795	2210.32
482.166	2240.15
482.537	2279.02
482.908	2362.41
483.279	2362.41
483.65	2406.48
484.021	2456.87
484.391	2519.24
484.762	2565.57
485.133	2563.08
485.503	2599.47
485.874	2657.32
486.244	2685.56
486.615	2749.52
486.985	2759.24
487.356	2834.49
487.726	2886.92
488.097	2986.12
488.467	2946.12
488.837	3047.14
489.207	3093.24
489.578	3127.14
489.948	3186.79
490.318	3176.17
490.688	3222.5
491.058	3254.36
491.428	3349.28
491.798	3380.69
492.168	3470.18
492.538	3443.51
492.908	3525.32
493.278	3586.33
493.648	3609.16
494.017	3643.28
494.387	3627.01
494.757	3683.96
495.126	3761.47
495.496	3787.23
495.866	3823.61
496.235	3869.71
496.605	3885.53
496.974	3955.81
497.344	3941.13
497.713	4006.89
498.082	4042.82
498.452	4073.33
498.821	4124.62
499.19	4140.22
499.559	4127.79
499.928	4176.15
500.298	4246.88
500.667	4293.43
501.036	4285.07
501.405	4322.13
501.774	4336.37
502.143	4360.55
502.512	4403.49
502.88	4437.61
503.249	4466.08
503.618	4478.29
503.987	4524.16
504.356	4562.35
504.724	4548.79
505.093	4584.05
505.462	4552.18
505.83	4655.91
506.199	4645.51
506.567	4721.44
506.936	4711.95
507.304	4733.19
507.672	4788.79
508.041	4805.74
508.409	4849.12
508.777	4899.97
509.145	4875.79
509.514	4889.12
509.882	4900.65
510.25	4958.95
510.618	4948.1
510.986	4963.47
511.354	5005.28
511.722	5026.07
512.09	5119.17
512.458	5078.72
512.826	5132.51
513.193	5148.1
513.561	5105.16
513.929	5184.93
514.297	5235.55
514.664	5198.72
515.032	5241.88
515.4	5257.25
515.767	5312.39
516.135	5356.91
516.502	5272.84
516.869	5364.82
517.237	5367.53
517.604	5386.28
517.972	5392.61
518.339	5435.32
518.706	5463.57
519.073	5443.01
519.44	5483.91
519.808	5528.2
520.175	5462.67
520.542	5588.31
520.909	5602.32
521.276	5606.62
521.643	5643.45
522.009	5617.01
522.376	5677.35
522.743	5681.19
523.11	5758.03
523.477	5767.52
523.843	5812.94
524.21	5876.67
524.577	5947.17
524.943	5894.07
525.31	5988.75
525.676	5965.03
526.043	5986.04
526.409	6053.16
526.776	6050.45
527.142	6126.15
527.508	6114.4
527.874	6158.02
528.241	6231.46
528.607	6195.98
528.973	6235.3
529.339	6247.73
529.705	6304
530.071	6339.93
530.437	6411.34
530.803	6391
531.169	6421.96
531.535	6414.05
531.901	6433.04
532.267	6480.04
532.632	6556.42
532.998	6493.15
533.364	6590.1
533.73	6572.24
534.095	6720.04
534.461	6751.67
534.826	6734.27
535.192	6722.97
535.557	6772.01
535.923	6745.57
536.288	6849.52
536.653	6833.03
537.019	6792.58
537.384	6885.68
537.749	6950.31
538.114	6942.85
538.479	6922.74
538.845	6996.64
539.21	6951.89
539.575	7090.42
539.94	7051.55
540.305	7126.35
540.67	7084.55
541.034	7140.14
541.399	7160.25
541.764	7170.42
542.129	7164.54
542.494	7235.73
542.858	7237.54
543.223	7292.22
543.587	7298.78
543.952	7415.38
544.316	7337.19
544.681	7391.88
545.045	7459.68
545.41	7472.33
545.774	7473.01
546.138	7497.42
546.503	7558.66
546.867	7525.89
547.231	7660.8
547.595	7614.25
547.959	7709.39
548.324	7666.68
548.688	7690.18
549.052	7744.87
549.416	7749.84
549.779	7804.07
550.143	7800.91
550.507	7894.02
550.871	7870.29
551.235	7875.26
551.599	7962.49
551.962	7923.62
552.326	7960.68
552.689	8013.33
553.053	8030.96
553.417	8030.51
553.78	8065.54
554.143	8146.44
554.507	8105.99
554.87	8154.8
555.234	8297.39
555.597	8158.42
555.96	8202.26
556.323	8306.21
556.686	8315.25
557.05	8374.23
557.413	8326.09
557.776	8435.92
558.139	8427.79
558.502	8450.84
558.865	8450.16
559.228	8546.43
559.59	8496.26
559.953	8506.88
560.316	8594.56
560.679	8660.78
561.041	8644.96
561.404	8717.27
561.767	8785.07
562.129	8654
562.492	8709.81
562.854	8745.74
563.217	8800.66
563.579	8827.32
563.941	8868
564.304	8881.79
564.666	8890.6
565.028	8975.8
565.39	8975.12
565.753	9030.71
566.115	9075.23
566.477	9152.74
566.839	9181.44
567.201	9225.73
567.563	9219.86
567.925	9336.92
568.287	9314.32
568.648	9406.29
569.01	9365.84
569.372	9392.51
569.734	9393.19
570.095	9438.38
570.457	9520.87
570.819	9502.56
571.18	9607.19
571.542	9621.43
571.903	9567.87
572.265	9807.41
572.626	9771.48
572.987	9763.12
573.349	9858.48
573.71	9867.3
574.071	9959.05
574.432	10030
574.794	10120.17
575.155	10148.42
575.516	10126.95
575.877	10259.15
576.238	10300.28
576.599	10380.05
576.96	10433.61
577.32	10530.78
577.681	10593.15
578.042	10736.2
578.403	10792.02
578.763	10939.36
579.124	11008.74
579.485	11062.97
579.845	11187.71
580.206	11320.37
580.566	11446.92
580.927	11571.21
581.287	11655.27
581.648	11804.42
582.008	11919.9
582.368	12132.77
582.728	12322.15
583.089	12463.84
583.449	12566.66
583.809	12808.91
584.169	13108.34
584.529	13099.75
584.889	13463.13
585.249	13488.9
585.609	13707.87
585.969	13981.31
586.329	14183.57
586.688	14428.08
587.048	14647.28
587.408	14884.79
587.768	15117.55
588.127	15416.76
588.487	15633.7
588.846	16010.19
589.206	16127.02
589.565	16564.97
589.925	16758.19
590.284	17138.74
590.643	17439.3
591.003	17750.25
591.362	18079.51
591.721	18402.67
592.08	18638.59
592.44	19007.17
592.799	19381.85
593.158	19647.38
593.517	19964.88
593.876	20245.1
594.235	20488.03
594.593	20976.84
594.952	21362.36
595.311	21592.41
595.67	22090.48
596.029	22428.1
596.387	22728.43
596.746	23125.71
597.104	23358.24
597.463	23661.96
597.822	24258.33
598.18	24463.75
598.538	24876.39
598.897	25282.94
599.255	25398.41
599.613	26086.76
599.972	26305.96
600.33	26654.43
600.688	26945.94
601.046	27292.38
601.404	27731.69
601.762	27960.83
602.12	28456.19
602.478	28736.86
602.836	29033.35
603.194	29113.57
603.552	29706.78
603.91	29845.53
604.268	30258.85
604.625	30422.01
604.983	30878.27
605.341	31145.16
605.698	31635.31
606.056	31802.09
606.413	32072.81
606.771	32250.44
607.128	32782.4
607.485	32825.79
607.843	33183.07
608.2	33492.44
608.557	33945.76
608.914	34148.47
609.272	34512.75
609.629	34725.17
609.986	35082.45
610.343	35110.02
610.7	35673.62
611.057	35761.98
611.414	35910
611.771	36272.93
612.127	36700.49
612.484	36697.1
612.841	37055.73
613.198	37090.54
613.554	37329.4
613.911	37816.84
614.267	37922.83
614.624	38050.96
614.98	38222.26
615.337	38588.8
615.693	38819.53
616.05	38746.09
616.406	39123.93
616.762	39101.78
617.118	39419.29
617.475	39608.66
617.831	39860.86
618.187	39954.42
618.543	40248.19
618.899	40565.02
619.255	40581.52
619.611	40647.05
619.967	40961.39
620.323	41205.46
620.678	41189.41
621.034	41235.06
621.39	41347.6
621.746	41485.9
622.101	41928.15
622.457	41748.72
622.812	41827.13
623.168	42207.01
623.523	42159.1
623.879	42444.07
624.234	42223.51
624.589	42541.01
624.945	42467.34
625.3	42776.94
625.655	42732.2
626.01	42990.95
626.365	42933.55
626.72	43020.78
627.075	43032.75
627.43	42919.31
627.785	43020.32
628.14	43251.05
628.495	43261.67
628.85	43354.55
629.205	43214.89
629.559	43581.21
629.914	43273.2
630.269	43505.51
630.623	43428.9
630.978	43589.35
631.332	43602.91
631.687	43733.07
632.041	43619.4
632.396	43774.65
632.75	43673.64
633.104	43862.11
633.459	43611.04
633.813	43752.73
634.167	43697.14
634.521	43780.76
634.875	43867.98
635.229	43887.42
635.583	43701.89
635.937	43723.58
636.291	43793.41
636.645	43792.51
636.999	43693.3
637.352	43966.74
637.706	43642.23
638.06	43920.19
638.413	43901.2
638.767	43747.76
639.121	43892.84
639.474	43657.6
639.828	43634.32
640.181	43761.55
640.534	43751.83
640.888	43725.39
641.241	43424.83
641.594	43562.23
641.947	43698.27
642.301	43579.63
642.654	43699.18
643.007	43806.29
643.36	43658.27
643.713	43609.01
644.066	43709.57
644.419	43509.12
644.771	43286.53
645.124	42976.71
645.477	42873.66
645.83	42781.23
646.182	42486.55
646.535	42480.45
646.888	42597.96
647.24	42334.69
647.593	42579.66
647.945	42394.58
648.298	42336.27
648.65	42351.64
649.002	42199.55
649.355	42171.76
649.707	42392.09
650.059	42525.65
650.411	42838.63
650.763	43068.23
651.115	43445.62
651.467	43386.19
651.819	43263.48
652.171	43155.46
652.523	43132.19
652.875	43109.13
653.227	42956.6
653.578	43274.33
653.93	43151.62
654.282	42947.56
654.633	42816.71
654.985	42955.24
655.337	43050.83
655.688	42989.59
656.039	43215.8
656.391	42887.67
656.742	42974.45
657.094	42986.43
657.445	43117.27
657.796	43023.26
658.147	42954.56
658.498	42924.96
658.849	42964.51
659.2	42947.78
659.551	42774
659.902	43092.64
660.253	42775.36
660.604	42890.38
660.955	42737.85
661.306	42936.48
661.656	42767.22
662.007	42839.09
662.358	42717.28
662.708	42807.67
663.059	42769.26
663.409	42599.77
663.76	42878.18
664.11	42926.31
664.461	42878.63
664.811	42868.24
665.161	42798.86
665.511	42722.48
665.862	42791.86
666.212	42818.52
666.562	42798.86
666.912	42642.93
667.262	42775.81
667.612	42648.58
667.962	42753.89
668.312	42686.1
668.662	42835.02
669.011	42681.12
669.361	42598.41
669.711	42620.33
670.06	42604.06
670.41	42542.37
670.76	42508.47
671.109	42525.42
671.459	42567.45
671.808	42387.35
672.157	42551.64
672.507	42393.45
672.856	42258.31
673.205	42366.1
673.554	42627.57
673.904	42411.3
674.253	42524.97
674.602	42432.99
674.951	41794.37
675.3	41703.07
675.649	42390.96
675.998	42113.91
676.346	42231.42
676.695	42437.29
677.044	41984.87
677.393	42182.38
677.741	42392.32
678.09	42195.49
678.438	42168.59
678.787	42180.12
679.135	42180.35
679.484	41816.74
679.832	42044.98
680.181	41868.26
680.529	41924.99
680.877	41733.35
681.225	41668.04
681.573	41886.12
681.922	41617.65
682.27	41492.91
682.618	41536.07
682.966	41468.05
683.314	41548.72
683.661	41344.89
684.009	41281.16
684.357	41139.92
684.705	41097.89
685.053	41130.43
685.4	41120.94
685.748	41069.19
686.095	40955.07
686.443	40854.28
686.79	40798.24
687.138	40809.53
687.485	40952.58
687.832	40722.3
688.18	40770.21
688.527	40441.18
688.874	40543.1
689.221	40370.9
689.568	40374.52
689.915	40267.63
690.262	40323.22
690.609	40121.42
690.956	40000.06
691.303	40123.22
691.65	39811.59
691.997	39741.99
692.344	39579.74
692.69	39578.38
693.037	39370.25
693.383	39230.37
693.73	39408.22
694.077	39063.82
694.423	38980.43
694.769	39031.28
695.116	38928.91
695.462	38850.04
695.808	38709.93
696.155	38802.81
696.501	38565.07
696.847	38498.63
697.193	38343.61
697.539	38476.94
697.885	38211.64
698.231	38202.37
698.577	38125.09
698.923	38067.46
699.269	37847.35
699.614	37681.25
699.96	37535.95
700.306	37509.96
700.651	37376.86
700.997	37390.64
701.342	37336.63
701.688	37073.36
702.033	37166.47
702.379	37051.67
702.724	36924.44
703.069	36864.33
703.415	36703.2
703.76	36752.01
704.105	36664.11
704.45	36737.32
704.795	36441.51
705.14	36398.58
705.485	36215.08
705.83	36152.03
706.175	36202.2
706.52	35992.26
706.865	35881.75
707.209	35858.03
707.554	35739.16
707.899	35676.11
708.243	35621.42
708.588	35544.59
708.932	35251.71
709.277	35279.28
709.621	35365.38
709.966	35196.57
710.31	35254.43
710.654	34940.31
710.998	35021.89
711.342	35101.21
711.687	34891.27
712.031	34689.02
712.375	34699.64
712.719	34775.79
713.063	34623.48
713.407	34733.76
713.75	34536.25
714.094	34564.5
714.438	34261.68
714.782	34378.97
715.125	34144.17
715.469	34349.82
715.812	34114.57
716.156	33919.77
716.499	33866.21
716.843	33899.21
717.186	33673.45
717.53	33896.95
717.873	33810.62
718.216	33720.91
718.559	33583.51
718.902	33437.3
719.246	33400.01
719.589	33199.79
719.932	33207.47
720.275	33287.92
720.617	33185.1
720.96	33055.16
721.303	33105.1
721.646	33172.67
721.989	32884.32
722.331	32990.3
722.674	32949.63
723.016	32921.61
723.359	32857.43
723.701	32922.28
724.044	32613.37
724.386	32513.71
724.729	32731.33
725.071	32517.55
725.413	32589.41
725.755	32461.51
726.097	32310.32
726.439	32184
726.782	32274.84
727.124	32330.89
727.465	32111.91
727.807	32125.24
728.149	32111.91
728.491	32027.17
728.833	31982.65
729.175	31811.35
729.516	31837.79
729.858	31802.99
730.199	31855.19
730.541	31722.32
730.882	31650.68
731.224	31817.68
731.565	31628.53
731.906	31618.82
732.248	31577.69
732.589	31518.71
732.93	31353.06
733.271	31341.08
733.612	31430.8
733.953	31292.72
734.294	31121.43
734.635	31162.33
734.976	31235.55
735.317	31028.32
735.658	30966.18
735.999	30997.36
736.339	30896.57
736.68	31069.45
737.021	31036.46
737.361	30839.17
737.702	30866.97
738.042	30782.68
738.383	30702
738.723	30690.7
739.063	30559.86
739.404	30698.61
739.744	30645.06
740.084	30589.92
740.424	30589.92
740.764	30529.13
741.104	30508.79
741.444	30367.32
741.784	30388.34
742.124	30296.59
742.464	30203.26
742.804	30123.49
743.143	30180.89
743.483	30264.95
743.823	30047.78
744.162	29872.87
744.502	30102.02
744.841	30026.77
745.181	30119.42
745.52	29783.84
745.86	29916.26
746.199	29898.41
746.538	29897.05
746.877	29827.68
747.216	29881.69
747.556	29704.29
747.895	29687.11
748.234	29729.15
748.573	29539.77
748.911	29550.62
749.25	29442.6
749.589	29325.09
749.928	29336.62
750.267	29421.59
750.605	29291.42
750.944	29193.12
751.283	29170.07
751.621	29195.38
751.96	29025.89
752.298	28989.28
752.636	29080.13
752.975	28859.79
753.313	28793.13
753.651	28897.31
753.989	28633.13
754.327	28694.37
754.666	28523.08
755.004	28590.19
755.342	28613.02
755.679	28474.04
756.017	28354.04
756.355	28412.35
756.693	28288.51
757.031	28356.75
757.368	28040.15
757.706	28170.32
758.044	28041.06
758.381	28141.39
758.719	27904.11
759.056	27959.7
759.394	27917.44
759.731	27542.31
760.068	27627.28
760.405	27580.05
760.743	27482.2
761.08	27589.54
761.417	27368.08
761.754	27361.3
762.091	27367.85
762.428	27147.75
762.765	26999.05
763.102	27062.1
763.438	26976.68
763.775	26842.22
764.112	26839.73
764.449	26857.58
764.785	26678.83
765.122	26510.7
765.458	26547.76
765.795	26368.11
766.131	26409.69
766.467	26291.72
766.804	26129.24
767.14	26082.69
767.476	26062.35
767.812	25887.89
768.148	25950.94
768.485	25679.99
768.821	25646.32
769.157	25635.24
769.492	25545.75
769.828	25552.53
770.164	25241.58
770.5	25324.74
770.836	25200.91
771.171	25013.11
771.507	25002.72
771.842	24794.14
772.178	24873.23
772.513	24741.48
772.849	24671.2
773.184	24583.97
773.519	24550.07
773.855	24378.78
774.19	24349.85
774.525	24301.04
774.86	24244.09
775.195	24225.34
775.53	24004.55
775.865	23913.93
776.2	23775.41
776.535	23602.76
776.87	23669.87
777.205	23554.39
777.539	23531.57
777.874	23459.71
778.209	23189.43
778.543	23253.39
778.878	23089.32
779.212	23084.12
779.547	22977.23
779.881	22968.87
780.215	22670.58
780.55	22813.4
780.884	22733.63
781.218	22620.41
781.552	22671.03
781.886	22530.47
782.22	22398.04
782.554	22366.18
782.888	22061.33
783.222	22189.01
783.556	21925.96
783.889	21926.19
784.223	21883.7
784.557	21741.34
784.89	21790.83
785.224	21526.65
785.557	21494.34
785.891	21422.93
786.224	21510.15
786.558	21491.85
786.891	21210.73
787.224	21035.14
787.557	21086.44
787.891	21090.73
788.224	20929.38
788.557	20987.91
788.89	20890.74
789.223	20910.85
789.556	20658.43
789.888	20624.3
790.221	20620.01
790.554	20305.21
790.887	20398.55
791.219	20253.92
791.552	20236.06
791.884	20120.81
792.217	20062.96
792.549	19944.32
792.882	19938.22
793.214	19837.2
793.546	19878.56
793.879	19777.32
794.211	19689.64
794.543	19698
794.875	19599.02
795.207	19549.08
795.539	19463.43
795.871	19598.57
796.203	19331.23
796.535	19242.87
796.867	19087.85
797.198	19176.66
797.53	19103.44
797.862	18924.91
798.193	18958.36
798.525	18883.56
798.856	18840.17
799.188	18668.2
799.519	18572.83
799.85	18596.79
800.182	18514.3
800.513	18587.75
800.844	18350.01
801.175	18484.92
801.506	18396.56
801.837	18261.43
802.168	18141.66
802.499	18188.43
802.83	18117.48
803.161	17953.41
803.491	18015.33
803.822	18056.91
804.153	17980.98
804.483	17850.36
804.814	17799.52
805.145	17681.55
805.475	17713.87
805.805	17683.36
806.136	17653.53
806.466	17635.23
806.796	17626.42
807.126	17356.14
807.457	17418.06
807.787	17410.6
808.117	17290.38
808.447	17199.53
808.777	17323.82
809.107	17119.99
809.436	17148.24
809.766	17151.85
810.096	16999.09
810.426	16912.76
810.755	16992.53
811.085	16968.58
811.414	16920.22
811.744	16763.39
812.073	16722.03
812.403	16765.87
812.732	16606.55
813.061	16633.22
813.39	16370.18
813.719	16422.6
814.049	16565.88
814.378	16374.24
814.707	16354.58
815.036	16326.56
815.365	16264.19
815.693	16133.57
816.022	16189.39
816.351	16078.21
816.68	16032.78
817.008	16129.51
817.337	15934.71
817.665	15916.86
817.994	15943.3
818.322	15945.56
818.651	15842.96
818.979	15868.5
819.307	15786.01
819.636	15839.34
819.964	15617.2
820.292	15685.22
820.62	15727.26
820.948	15652.46
821.276	15709.86
821.604	15700.36
821.932	15662.62
822.259	15712.34
822.587	15642.29
822.915	15576.53
823.243	15559.12
823.57	15531.1
823.898	15637.54
824.225	15529.3
824.553	15473.7
824.88	15538.33
825.207	15571.1
825.535	15586.92
825.862	15631.89
826.189	15555.96
826.516	15650.65
826.843	15564.77
827.17	15604.55
827.497	15549.41
827.824	15595.96
828.151	15571.55
828.478	15491.33
828.805	15675.73
829.131	15525.23
829.458	15522.52
829.785	15471.9
830.111	15546.92
830.438	15612.68
830.764	15549.41
831.09	15645.68
831.417	15409.3
831.743	15592.8
832.069	15539.69
832.395	15410.88
832.722	15495.4
833.048	15421.5
833.374	15376.98
833.7	15385.34
834.026	15360.71
834.351	15370.2
834.677	15375.4
835.003	15405.23
835.329	15357.77
835.654	15292.92
835.98	15261.28
836.306	15320.94
836.631	15286.82
836.956	15294.05
837.282	15300.83
837.607	15169.08
837.932	15238.23
838.258	15143.32
838.583	15150.77
838.908	15050.89
839.233	15052.02
839.558	15063.32
839.883	14935.86
840.208	14876.66
840.533	14944.23
840.858	14950.78
841.182	14918.24
841.507	14880.95
841.832	14772.03
842.156	14781.74
842.481	14741.07
842.805	14651.13
843.13	14683.67
843.454	14696.32
843.778	14652.48
844.103	14466.72
844.427	14412.04
844.751	14537.68
845.075	14514.63
845.399	14473.05
845.723	14377.23
846.047	14385.37
846.371	14267.63
846.695	14174.3
847.019	14047.3
847.343	14087.75
847.666	14009.79
847.99	13958.04
848.313	13964.82
848.637	13855.44
848.96	13836.68
849.284	13774.99
849.607	13707.42
849.931	13653.19
850.254	13615.9
850.577	13542.23
850.9	13445.06
851.223	13421.55
851.546	13370.48
851.869	13267.89
852.192	13354.66
852.515	13161.67
852.838	13116.03
853.161	13158.96
853.483	13068.79
853.806	13079.87
854.129	13005.29
854.451	12965.97
854.774	12905.41
855.096	12911.51
855.419	12858.4
855.741	12786.77
856.063	12702.7
856.385	12668.13
856.708	12632.65
857.03	12639.2
857.352	12578.64
857.674	12521.92
857.996	12562.14
858.318	12417.29
858.64	12443.05
858.961	12437.17
859.283	12314.69
859.605	12334.12
859.926	12354.92
860.248	12230.62
860.57	12229.95
860.891	12289.38
861.212	12202.15
861.534	12103.85
861.855	12141.14
862.176	12112.89
862.498	12081.02
862.819	12036.51
863.14	12023.17
863.461	11992.44
863.782	11946.34
864.103	12001.7
864.424	11893.01
864.745	11916.51
865.065	11907.24
865.386	11813.91
865.707	11828.6
866.027	11820.01
866.348	11761.94
866.668	11779.56
866.989	11709.51
867.309	11701.83
867.63	11709.28
867.95	11730.75
868.27	11567.59
868.59	11698.21
868.91	11582.51
869.23	11566.01
869.55	11542.06
869.87	11556.97
870.19	11545.22
870.51	11608.72
870.83	11510.42
871.15	11492.79
871.469	11388.16
871.789	11459.57
872.109	11437.88
872.428	11461.83
872.748	11460.7
873.067	11373.25
873.386	11427.03
873.706	11356.3
874.025	11247.83
874.344	11204.66
874.663	11325.11
874.982	11185.23
875.301	11173.03
875.62	11178.22
875.939	11156.3
876.258	11187.71
876.577	11199.01
876.896	11109.52
877.214	11104.78
877.533	11042.63
877.852	11036.98
878.17	11115.63
878.489	11051.9
878.807	11038.11
879.125	10996.53
879.444	11002.18
879.762	10895.74
880.08	10973.26
880.398	10922.64
880.716	10933.48
881.034	10846.48
881.352	10879.25
881.67	10809.65
881.988	10913.37
882.306	10787.95
882.624	10751.34
882.941	10735.52
883.259	10603.32
883.577	10623.44
883.894	10710.89
884.212	10593.83
884.529	10645.58
884.846	10568.52
885.164	10529.43
885.481	10504.34
885.798	10588.86
886.115	10487.17
886.432	10446.72
886.75	10425.02
887.067	10478.58
887.383	10393.84
887.7	10427.96
888.017	10383.67
888.334	10366.72
888.651	10284.91
888.967	10357.23
889.284	10222.99
889.6	10176.44
889.917	10194.75
890.233	10142.32
890.55	10134.86
890.866	10106.61
891.182	10110.91
891.498	10001.98
891.815	9958.59
892.131	9928.99
892.447	9939.84
892.763	9878.14
893.079	9847.18
893.395	9841.31
893.71	9790.69
894.026	9830.24
894.342	9718.15
894.657	9733.74
894.973	9689.22
895.289	9723.12
895.604	9653.29
895.92	9580.98
896.235	9548.66
896.55	9610.58
896.865	9508.66
897.181	9458.04
897.496	9486.74
897.811	9463.24
898.126	9419.17
898.441	9347.99
898.756	9305.73
899.071	9277.71
899.386	9243.36
899.7	9206.98
900.015	9211.04
900.33	9139.18
900.644	9083.81
900.959	9130.82
901.273	9059.41
901.588	9106.19
901.902	9039.3
902.216	8971.95
902.531	8916.36
902.845	8990.71
903.159	8897.83
903.473	8831.17
903.787	8803.82
904.101	8724.05
904.415	8787.1
904.729	8799.53
905.042	8702.13
905.356	8680.89
905.67	8588.91
905.984	8664.16
906.297	8525.19
906.611	8559.99
906.924	8554.56
907.237	8500.78
907.551	8467.79
907.864	8479.54
908.177	8443.38
908.491	8374.23
908.804	8362.93
909.117	8259.88
909.43	8201.35
909.743	8212.43
910.056	8205.42
910.368	8168.58
910.681	8099.43
910.994	8109.83
911.307	7985.99
911.619	8041.13
911.932	7969.27
912.244	7898.99
912.557	7926.11
912.869	7840.68
913.181	7825.99
913.494	7784.64
913.806	7755.49
914.118	7775.15
914.43	7663.97
914.742	7714.59
915.054	7663.06
915.366	7640.01
915.678	7603.85
915.99	7518.43
916.302	7463.52
916.613	7520.24
916.925	7471.65
917.236	7443.63
917.548	7395.95
917.859	7362.28
918.171	7354.37
918.482	7282.51
918.794	7257.65
919.105	7244.32
919.416	7196.86
919.727	7171.55
920.038	7103.3
920.349	7066.47
920.66	7067.14
920.971	7056.3
921.282	7071.89
921.593	6932.01
921.903	6964.32
922.214	6923.19
922.525	6910.99
922.835	6829.64
923.146	6817.66
923.456	6814.72
923.767	6790.99
924.077	6767.72
924.387	6742.86
924.697	6725.23
925.008	6645.91
925.318	6652.47
925.628	6589.42
925.938	6560.94
926.248	6479.14
926.558	6477.33
926.867	6447.27
927.177	6466.48
927.487	6493.83
927.796	6414.73
928.106	6355.98
928.416	6305.36
928.725	6378.8
929.034	6302.65
929.344	6308.29
929.653	6239.82
929.962	6193.5
930.271	6205.47
930.581	6163.21
930.89	6167.73
931.199	6113.72
931.508	6047.51
931.817	6100.39
932.125	6096.1
932.434	6047.06
932.743	5987.63
933.051	5989.21
933.36	5946.04
933.669	5887.97
933.977	5886.38
934.286	5936.33
934.594	5861.98
934.902	5783.56
935.21	5817.23
935.519	5754.64
935.827	5720.06
936.135	5748.76
936.443	5694.07
936.751	5651.14
937.059	5631.7
937.367	5582.44
937.674	5631.48
937.982	5571.36
938.29	5516.68
938.597	5582.66
938.905	5466.96
939.213	5464.25
939.52	5412.05
939.827	5458.6
940.135	5435.1
940.442	5368.66
940.749	5334.31
941.056	5364.59
941.363	5279.62
941.67	5257.47
941.977	5265.16
942.284	5273.29
942.591	5234.42
942.898	5200.08
943.205	5187.19
943.511	5153.97
943.818	5175.44
944.125	5083.24
944.431	5084.37
944.738	5087.08
945.044	5028.33
945.35	4999.18
945.657	4987.88
945.963	4926.41
946.269	4936.13
946.575	4937.94
946.881	4878.28
947.187	4890.7
947.493	4870.82
947.799	4871.27
948.105	4823.81
948.41	4808.9
948.716	4788.56
949.022	4763.25
949.327	4781.78
949.633	4709.92
949.938	4715.57
950.244	4713.99
950.549	4659.52
950.854	4654.78
951.16	4611.39
951.465	4565.06
951.77	4565.52
952.075	4585.85
952.38	4525.29
952.685	4522.58
952.99	4459.76
953.294	4481.9
953.599	4441.23
953.904	4402.36
954.209	4442.58
954.513	4372.98
954.818	4363.71
955.122	4330.72
955.426	4344.28
955.731	4299.53
956.035	4312.64
956.339	4300.89
956.643	4274
956.948	4225.86
957.252	4220.21
957.556	4218.41
957.86	4161.68
958.163	4172.53
958.467	4162.36
958.771	4159.2
959.075	4142.25
959.378	4109.26
959.682	4069.94
959.985	4048.69
960.289	4043.27
960.592	4000.78
960.896	4009.37
961.199	4030.16
961.502	3998.75
961.805	3957.17
962.108	3982.03
962.411	3919.88
962.714	3859.77
963.017	3885.99
963.32	3899.77
963.623	3839.43
963.926	3868.58
964.228	3841.24
964.531	3801.02
964.833	3817.06
965.136	3769.83
965.438	3713.56
965.741	3720.57
966.043	3732.54
966.345	3678.76
966.648	3711.98
966.95	3685.31
967.252	3636.95
967.554	3607.57
967.856	3647.8
968.158	3601.93
968.46	3594.69
968.761	3618.65
969.063	3580.23
969.365	3565.32
969.666	3550.4
969.968	3473.57
970.269	3504.53
970.571	3488.48
970.872	3460.46
971.174	3446.67
971.475	3405.55
971.776	3426.79
972.077	3415.26
972.378	3379.11
972.679	3385.43
972.98	3406.9
973.281	3340.01
973.582	3351.99
973.883	3299.11
974.183	3311.54
974.484	3290.75
974.785	3228.6
975.085	3295.49
975.386	3275.15
975.686	3222.95
975.986	3239.67
976.287	3229.28
976.587	3199
976.887	3199.22
977.187	3195.38
977.487	3113.12
977.787	3144.76
978.087	3113.35
978.387	3138.66
978.687	3097.53
978.987	3097.08
979.286	3065.89
979.586	3068.61
979.885	3084.42
980.185	3011.88
980.484	2987.25
980.784	3039
981.083	3002.62
981.382	2987.48
981.682	3019.79
981.981	2967.37
982.28	2907.25
982.579	2890.08
982.878	2874.71
983.177	2874.03
983.475	2886.01
983.774	2866.35
984.073	2830.65
984.372	2826.35
984.67	2820.02
984.969	2839.01
985.267	2813.25
985.566	2793.58
985.864	2760.59
986.162	2758.78
986.461	2760.59
986.759	2751.78
987.057	2728.95
987.355	2699.35
987.653	2735.51
987.951	2671.33
988.249	2676.3
988.547	2689.18
988.844	2650.54
989.142	2634.49
989.44	2612.35
989.737	2606.25
990.035	2596.08
990.332	2638.79
990.63	2571.67
990.927	2596.98
991.224	2554.27
991.521	2542.97
991.819	2507.94
992.116	2533.48
992.413	2539.81
992.71	2484.21
993.006	2502.52
993.303	2468.4
993.6	2488.06
993.897	2450.32
994.193	2423.42
994.49	2434.5
994.787	2413.93
995.083	2410.09
995.379	2437.89
995.676	2395.63
995.972	2382.75
996.268	2379.13
996.565	2338
996.861	2346.36
997.157	2310.21
997.453	2320.38
997.749	2278.8
998.044	2269.08
998.34	2258.91
998.636	2266.14
998.932	2274.28
999.227	2240.15
999.523	2251
999.818	2243.09
1000.114	2213.49
1000.409	2171.91
1000.704	2169.19
1001	2149.31
1001.295	2159.7
1001.59	2150.21
1001.885	2138.46
1002.18	2132.59
1002.475	2134.39
1002.77	2100.27
1003.065	2107.28
1003.359	2103.21
1003.654	2080.16
1003.949	2043.77
1004.243	2048.97
1004.538	2052.36
1004.832	2019.37
1005.127	2016.2
1005.421	1992.48
1005.715	1966.71
1006.009	1998.8
1006.304	1969.65
1006.598	1969.2
1006.892	1943.89
1007.186	1946.83
1007.48	1955.19
1007.773	1921.29
1008.067	1911.35
1008.361	1897.34
1008.655	1881.07
1008.948	1869.77
1009.242	1841.52
1009.535	1842.65
1009.829	1806.04
1010.122	1823.89
1010.415	1824.8
1010.708	1813.27
1011.001	1810.33
1011.295	1782.09
1011.588	1766.95
1011.881	1744.8
1012.173	1772.37
1012.466	1776.89
1012.759	1735.76
1013.052	1752.93
1013.344	1705.48
1013.637	1705.48
1013.93	1695.76
1014.222	1701.18
1014.514	1697.79
1014.807	1679.49
1015.099	1672.26
1015.391	1665.48
1015.683	1648.98
1015.976	1640.17
1016.268	1587.74
1016.56	1630.68
1016.851	1591.58
1017.143	1587.29
1017.435	1574.63
1017.727	1587.51
1018.018	1578.48
1018.31	1547.06
1018.602	1531.02
1018.893	1541.64
1019.185	1537.57
1019.476	1526.27
1019.767	1501.42
1020.058	1518.59
1020.35	1489.89
1020.641	1456.44
1020.932	1449.44
1021.223	1446.73
1021.514	1458.93
1021.804	1411.25
1022.095	1429.78
1022.386	1385.71
1022.677	1392.04
1022.967	1405.82
1023.258	1394.07
1023.548	1390.68
1023.839	1394.75
1024.129	1379.38
1024.419	1350.23
1024.709	1348.2
1025	1326.96
1025.29	1354.75
1025.58	1326.5
1025.87	1299.61
1026.16	1302.1
1026.449	1286.28
1026.739	1285.6
1027.029	1258.48
1027.319	1247.86
1027.608	1251.25
1027.898	1252.61
1028.187	1241.76
1028.477	1248.09
1028.766	1247.86
1029.055	1202.89
1029.344	1202.67
1029.634	1196.56
1029.923	1181.42
1030.212	1172.16
1030.501	1181.65
1030.79	1183.46
1031.078	1169.67
1031.367	1136.68
1031.656	1139.84
1031.945	1143.01
1032.233	1140.07
1032.522	1121.99
1032.81	1119.5
1033.099	1123.12
1033.387	1117.47
1033.675	1096
1033.963	1119.5
1034.251	1083.35
1034.54	1091.71
1034.828	1086.96
1035.116	1075.89
1035.403	1058.04
1035.691	1042.9
1035.979	1058.26
1036.267	1057.36
1036.554	1036.57
1036.842	1005.61
1037.129	1015.33
1037.417	976.46
1037.704	999.06
1037.992	1007.19
1038.279	994.31
1038.566	971.49
1038.853	971.49
1039.14	971.49
