Data from hue_22_FLMS001491_00018.txt Node
Date: Tue Feb 07 17:09:41 GMT 2017
User: dcchb
Spectrometer: FLMS00149
Trigger mode: 0
Integration Time (sec): 2.000000E-2
Scans to average: 10
Electric dark correction enabled: true
Nonlinearity correction enabled: false
Boxcar width: 0
XAxis mode: Wavelengths
Number of Pixels in Spectrum: 2048
>>>>>Begin Spectral Data<<<<<
341.393	0.51
341.776	0.51
342.16	0.51
342.543	-68.87
342.927	-59.38
343.31	-67.96
343.693	-52.15
344.077	-67.96
344.46	-63.9
344.843	-71.13
345.226	-42.88
345.61	-30
345.993	-19.15
346.376	-11.92
346.759	4.58
347.142	31.92
347.525	50.68
347.908	59.04
348.291	76.44
348.674	98.58
349.057	105.82
349.44	146.95
349.823	149.88
350.206	166.61
350.588	210.67
350.971	217.23
351.354	242.08
351.737	238.24
352.119	265.81
352.502	269.43
352.884	280.28
353.267	295.64
353.65	292.7
354.032	305.13
354.414	326.83
354.797	323.89
355.179	327.96
355.562	328.64
355.944	330.22
356.326	329.31
356.709	334.28
357.091	349.43
357.473	332.48
357.855	334.51
358.238	351.91
358.62	341.06
359.002	354.85
359.384	350.78
359.766	363.44
360.148	354.4
360.53	336.09
360.912	342.42
361.294	350.33
361.676	329.09
362.057	342.42
362.439	325.02
362.821	314.62
363.203	339.93
363.584	340.61
363.966	327.73
364.348	334.96
364.729	331.35
365.111	315.3
365.493	330.67
365.874	327.73
366.256	330.67
366.637	325.7
367.019	318.69
367.4	300.61
367.781	323.44
368.163	324.79
368.544	332.25
368.925	307.17
369.306	346.49
369.688	336.77
370.069	326.6
370.45	311.01
370.831	333.16
371.212	319.6
371.593	299.03
371.974	301.29
372.355	316.88
372.736	318.69
373.117	340.16
373.498	332.48
373.879	328.41
374.26	320.5
374.641	309.65
375.021	311.01
375.402	333.16
375.783	337.45
376.163	348.97
376.544	354.17
376.925	340.84
377.305	357.11
377.686	343.1
378.066	324.57
378.447	347.62
378.827	337
379.208	327.73
379.588	335.64
379.968	350.56
380.349	344.68
380.729	330.44
381.109	349.65
381.489	340.84
381.87	358.24
382.25	357.79
382.63	349.65
383.01	350.1
383.39	355.53
383.77	328.18
384.15	354.62
384.53	345.81
384.91	358.24
385.29	369.99
385.67	353.04
386.049	353.72
386.429	369.76
386.809	362.53
387.189	382.65
387.568	378.35
387.948	353.72
388.328	377.9
388.707	360.05
389.087	396.66
389.466	401.85
389.846	362.76
390.225	370.89
390.605	402.76
390.984	370.89
391.363	366.6
391.743	384.68
392.122	379.48
392.501	396.88
392.881	384.91
393.26	396.2
393.639	408.18
394.018	409.54
394.397	380.16
394.776	421.97
395.155	403.66
395.534	407.28
395.913	389.65
396.292	397.56
396.671	409.31
397.05	379.03
397.429	402.76
397.808	419.03
398.186	406.83
398.565	424
398.944	418.58
399.323	405.02
399.701	427.84
400.08	404.11
400.458	403.21
400.837	400.95
401.215	423.32
401.594	413.15
401.972	414.96
402.351	425.58
402.729	423.32
403.107	415.64
403.486	420.84
403.864	419.93
404.242	425.13
404.62	429.2
404.999	450.44
405.377	441.85
405.755	453.15
406.133	442.76
406.511	455.41
406.889	452.47
407.267	450.67
407.645	464.68
408.023	465.35
408.401	464.68
408.779	461.97
409.156	460.84
409.534	449.54
409.912	442.53
410.29	464.68
410.667	479.14
411.045	478.91
411.422	495.18
411.8	470.33
412.178	491.12
412.555	485.02
412.933	485.69
413.31	505.58
413.687	509.42
414.065	500.38
414.442	497.22
414.819	503.09
415.197	492.02
415.574	515.07
415.951	532.7
416.328	510.55
416.705	526.6
417.082	505.81
417.46	539.25
417.837	552.58
418.214	549.65
418.591	523.21
418.967	531.79
419.344	516.43
419.721	540.38
420.098	546.26
420.475	554.17
420.852	543.09
421.228	568.63
421.605	565.47
421.982	562.75
422.358	572.47
422.735	561.62
423.111	554.62
423.488	595.52
423.864	586.48
424.241	588.29
424.617	593.94
424.994	581.06
425.37	589.65
425.746	602.3
426.123	600.04
426.499	575.41
426.875	606.37
427.251	605.69
427.627	623.09
428.003	617.44
428.379	619.7
428.756	623.99
429.132	685.69
429.507	654.73
429.883	658.57
430.259	663.32
430.635	654.28
431.011	675.97
431.387	687.5
431.763	687.04
432.138	680.72
432.514	699.47
432.89	669.19
433.265	701.51
433.641	726.82
434.016	721.17
434.392	715.52
434.767	737.89
435.143	722.75
435.518	733.37
435.894	741.96
436.269	742.41
436.644	749.42
437.02	754.39
437.395	767.04
437.77	771.79
438.145	772.69
438.52	779.02
438.895	807.27
439.271	799.36
439.646	793.93
440.021	792.58
440.395	809.75
440.77	829.19
441.145	815.63
441.52	832.58
441.895	826.48
442.27	843.88
442.645	844.33
443.019	846.36
443.394	847.27
443.769	833.71
444.143	848.4
444.518	852.24
444.892	865.34
445.267	837.77
445.641	865.34
446.016	869.41
446.39	883.42
446.764	900.15
447.139	887.94
447.513	900.82
447.887	912.57
448.262	913.25
448.636	910.77
449.01	936.08
449.384	929.75
449.758	925.91
450.132	940.14
450.506	942.63
450.88	925.23
451.254	959.58
451.628	983.76
452.002	975.62
452.376	1004.1
452.75	996.64
453.123	988.96
453.497	1000.03
453.871	997.54
454.244	1032.8
454.618	1010.65
454.992	1050.42
455.365	1045
455.739	1062.4
456.112	1070.54
456.486	1082.51
456.859	1084.77
457.232	1097.43
457.606	1082.74
457.979	1140.14
458.352	1137.65
458.725	1130.2
459.099	1146.02
459.472	1187.37
459.845	1148.95
460.218	1194.38
460.591	1218.33
460.964	1217.43
461.337	1230.53
461.71	1225.79
462.083	1240.25
462.456	1231.21
462.829	1254.94
463.201	1290.87
463.574	1271.89
463.947	1306.91
464.32	1348.95
464.692	1339.23
465.065	1351.21
465.438	1365.67
465.81	1370.19
466.183	1409.96
466.555	1451.77
466.928	1445.44
467.3	1440.92
467.672	1464.42
468.045	1497.64
468.417	1489.28
468.789	1491.77
469.161	1512.56
469.534	1567.02
469.906	1579
470.278	1586.68
470.65	1630.97
471.022	1669.84
471.394	1661.93
471.766	1715.72
472.138	1673.23
472.51	1732.67
472.882	1781.25
473.253	1768.6
473.625	1838.65
473.997	1843.4
474.369	1859.89
474.74	1858.76
475.112	1933.79
475.484	1964.98
475.855	1978.76
476.227	1990.74
476.598	2065.99
476.97	2088.36
477.341	2117.97
477.713	2176.27
478.084	2165.42
478.455	2220.56
478.827	2275.02
479.198	2306.89
479.569	2344.63
479.94	2412.87
480.311	2416.94
480.682	2485.64
481.053	2573.55
481.424	2591.17
481.795	2605.86
482.166	2623.94
482.537	2670.72
482.908	2769.93
483.279	2777.38
483.65	2837.27
484.021	2910.04
484.391	2940.54
484.762	2984.16
485.133	3033.88
485.503	3050.6
485.874	3163.82
486.244	3151.39
486.615	3211.72
486.985	3294.21
487.356	3336.47
487.726	3362.91
488.097	3460.76
488.467	3483.58
488.837	3555.67
489.207	3591.15
489.578	3647.19
489.948	3732.84
490.318	3732.16
490.688	3761.31
491.058	3848.54
491.428	3856.45
491.798	3879.5
492.168	4012.15
492.538	4001.76
492.908	4070.46
493.278	4138.7
493.648	4199.04
494.017	4193.17
494.387	4266.16
494.757	4298.93
495.126	4354.52
495.496	4381.64
495.866	4428.19
496.235	4493.72
496.605	4451.69
496.974	4542.99
497.344	4552.03
497.713	4620.05
498.082	4619.6
498.452	4609.65
498.821	4720.61
499.19	4702.76
499.559	4748.86
499.928	4819.59
500.298	4877.67
500.667	4894.17
501.036	4928.51
501.405	4979.36
501.774	4958.8
502.143	5026.14
502.512	5040.38
502.88	5110.88
503.249	5106.36
503.618	5134.16
503.987	5134.38
504.356	5166.93
504.724	5198.11
505.093	5234.72
505.462	5239.24
505.83	5286.92
506.199	5335.74
506.567	5359.24
506.936	5387.71
507.304	5436.75
507.672	5440.37
508.041	5461.61
508.409	5518.1
508.777	5551.77
509.145	5550.19
509.514	5596.75
509.882	5641.94
510.25	5601.72
510.618	5695.27
510.986	5692.79
511.354	5810.75
511.722	5823.86
512.09	5831.32
512.458	5829.96
512.826	5843.74
513.193	5882.39
513.561	5909.51
513.929	5934.14
514.297	5982.95
514.664	6018.2
515.032	6047.81
515.4	6038.99
515.767	6097.75
516.135	6074.25
516.502	6077.64
516.869	6205.32
517.237	6226.33
517.604	6190.63
517.972	6220.68
518.339	6299.1
518.706	6282.83
519.073	6299.78
519.44	6328.25
519.808	6401.02
520.175	6355.37
520.542	6410.96
520.909	6512.43
521.276	6511.52
521.643	6526.89
522.009	6553.56
522.376	6570.51
522.743	6576.38
523.11	6662.71
523.477	6703.61
523.843	6771.86
524.21	6869.71
524.577	6915.35
524.943	6841.01
525.31	6952.87
525.676	6932.3
526.043	6987.9
526.409	6992.42
526.776	7096.82
527.142	7111.28
527.508	7178.4
527.874	7184.27
528.241	7230.15
528.607	7250.04
528.973	7361.9
529.339	7329.81
529.705	7423.82
530.071	7441.22
530.437	7496.13
530.803	7527.77
531.169	7535
531.535	7589.69
531.901	7549.46
532.267	7597.14
532.632	7642.12
532.998	7712.85
533.364	7740.42
533.73	7798.04
534.095	7812.73
534.461	7842.79
534.826	7858.83
535.192	7947.87
535.557	8001.88
535.923	7943.12
536.288	7999.39
536.653	8047.98
537.019	8036
537.384	8076.91
537.749	8133.85
538.114	8111.71
538.479	8210.01
538.845	8197.81
539.21	8208.43
539.575	8277.35
539.94	8324.36
540.305	8409.1
540.67	8340.63
541.034	8357.58
541.399	8437.8
541.764	8508.76
542.129	8504.24
542.494	8513.5
542.858	8575.88
543.223	8592.37
543.587	8611.81
543.952	8577.68
544.316	8718.47
544.681	8732.93
545.045	8746.27
545.41	8780.62
545.774	8831.01
546.138	8846.6
546.503	8885.02
546.867	8854.74
547.231	8955.3
547.595	8943.1
547.959	9053.38
548.324	8987.39
548.688	9048.41
549.052	9088.86
549.416	9070.33
549.779	9135.18
550.143	9163.88
550.507	9226.25
550.871	9145.8
551.235	9286.59
551.599	9414.72
551.962	9339.47
552.326	9392.8
552.689	9418.57
553.053	9411.33
553.417	9370.43
553.78	9565.45
554.143	9489.98
554.507	9592.57
554.87	9568.39
555.234	9673.25
555.597	9682.74
555.96	9695.85
556.323	9757.54
556.686	9755.28
557.05	9793.92
557.413	9890.19
557.776	9871.89
558.139	9939.68
558.502	9983.97
558.865	9937.2
559.228	10003.18
559.59	10004.77
559.953	10030.3
560.316	10181.48
560.679	10081.83
561.041	10206.34
561.404	10247.24
561.767	10286.79
562.129	10332.89
562.492	10438.43
562.854	10368.82
563.217	10402.72
563.579	10382.83
563.941	10465.32
564.304	10547.8
564.666	10554.13
565.028	10551.19
565.39	10611.98
565.753	10668.25
566.115	10728.59
566.477	10776.5
566.839	10808.13
567.201	10813.11
567.563	10828.25
567.925	10958.41
568.287	10895.82
568.648	11002.93
569.01	11051.74
569.372	11159.76
569.734	11067.56
570.095	11206.09
570.457	11260.33
570.819	11254.68
571.18	11247.9
571.542	11373.32
571.903	11325.63
572.265	11398.63
572.626	11519.3
572.987	11501.22
573.349	11558.17
573.71	11572.41
574.071	11675.91
574.432	11739.41
574.794	11823.7
575.155	11896.24
575.516	11877.48
575.877	12000.42
576.238	12103.24
576.599	12115.67
576.96	12186.18
577.32	12301.65
577.681	12338.26
578.042	12456
578.403	12518.82
578.763	12560.18
579.124	12736.22
579.485	12790.23
579.845	12963.78
580.206	13018.25
580.566	13222.31
580.927	13276.77
581.287	13421.62
581.648	13449.87
582.008	13746.81
582.368	13790.43
582.728	13925.11
583.089	14055.96
583.449	14202.39
583.809	14453.46
584.169	14525.78
584.529	14714.7
584.889	14988.14
585.249	15089.83
585.609	15257.28
585.969	15563.49
586.329	15649.14
586.688	15903.82
587.048	16186.3
587.408	16350.14
587.768	16602.11
588.127	16904.02
588.487	17006.16
588.846	17387.85
589.206	17489.54
589.565	17786.93
589.925	18124.78
590.284	18336.75
590.643	18698.1
591.003	18883.18
591.362	19250.4
591.721	19486.1
592.08	19814
592.44	20113.2
592.799	20335.34
593.158	20634.54
593.517	20898.72
593.876	21341.87
594.235	21545.93
594.593	21876.32
594.952	22303.2
595.311	22432.91
595.67	22889.4
596.029	23335.94
596.387	23566.67
596.746	24010.5
597.104	24062.47
597.463	24515.8
597.822	24916.69
598.18	25031.49
598.538	25436.68
598.897	25830.79
599.255	25933.61
599.613	26703.31
599.972	26774.27
600.33	27030.31
600.688	27359.79
601.046	27792.55
601.404	28063.5
601.762	28402.47
602.12	28856.92
602.478	29178.5
602.836	29435.21
603.194	29661.42
603.552	29978.25
603.91	30089.66
604.268	30508.41
604.625	30790.89
604.983	31199.46
605.341	31327.59
605.698	31858.65
606.056	32188.59
606.413	32286.44
606.771	32830.15
607.128	32899.53
607.485	32989.7
607.843	33303.36
608.2	33676.69
608.557	34146.28
608.914	34178.59
609.272	34648.19
609.629	34835.3
609.986	35212.69
610.343	35259.69
610.7	35709.4
611.057	35781.26
611.414	35986.23
611.771	36369.72
612.127	36741.69
612.484	36839.77
612.841	37094.9
613.198	37169.47
613.554	37395.01
613.911	37784.15
614.267	37905.27
614.624	38150.69
614.98	38324.02
615.337	38609.21
615.693	38705.48
616.05	38850.79
616.406	39336.88
616.762	39292.81
617.118	39517.44
617.475	39691.44
617.831	39907.26
618.187	39919.91
618.543	40083.52
618.899	40554.47
619.255	40568.71
619.611	40637.18
619.967	40905.2
620.323	41182.48
620.678	41033.78
621.034	41025.19
621.39	41382.7
621.746	41305.19
622.101	41922.12
622.457	41555.12
622.812	41897.94
623.168	41983.36
623.523	42133.41
623.879	42312.39
624.234	42166.63
624.589	42456.12
624.945	42447.75
625.3	42837.12
625.655	42667.18
626.01	42876.9
626.365	42889.1
626.72	42932.71
627.075	42998.02
627.43	43008.19
627.785	43187.17
628.14	43306.94
628.495	43390.33
628.85	43316.21
629.205	43138.36
629.559	43511.45
629.914	43414.73
630.269	43559.82
630.623	43552.13
630.978	43466.26
631.332	43628.06
631.687	43792.8
632.041	43526.37
632.396	43794.16
632.75	43708.06
633.104	43783.99
633.459	43549.65
633.813	43769.98
634.167	43830.77
634.521	43819.24
634.875	43847.94
635.229	43873.48
635.583	43699.25
635.937	43805.68
636.291	43787.15
636.645	43904.21
636.999	43831.22
637.352	43915.29
637.706	43692.02
638.06	43843.2
638.413	43870.99
638.767	43680.26
639.121	43913.03
639.474	43710.77
639.828	43697.44
640.181	43750.09
640.534	43855.85
640.888	43767.49
641.241	43497.67
641.594	43639.14
641.947	43906.92
642.301	43689.08
642.654	43872.12
643.007	43722.97
643.36	43800.71
643.713	43691.79
644.066	43846.14
644.419	43563.43
644.771	43413.38
645.124	43029.66
645.477	42913.05
645.83	42651.82
646.182	42572.5
646.535	42604.59
646.888	42610.69
647.24	42457.47
647.593	42804.35
647.945	42753.06
648.298	42432.84
648.65	42344.25
649.002	42437.58
649.355	42578.6
649.707	42397.81
650.059	42673.96
650.411	43155.31
650.763	43113.95
651.115	43550.55
651.467	43459.7
651.819	43405.69
652.171	43185.36
652.523	43370.67
652.875	43287.73
653.227	43110.79
653.578	43443.89
653.93	43289.99
654.282	43028.3
654.633	43031.24
654.985	43182.88
655.337	43158.7
655.688	43155.53
656.039	43212.25
656.391	42939.94
656.742	42994.18
657.094	43051.35
657.445	43181.52
657.796	43007.74
658.147	42954.86
658.498	42982.66
658.849	43123.67
659.2	43047.74
659.551	42979.49
659.902	43060.62
660.253	43049.77
660.604	43098.58
660.955	42823.79
661.306	43088.19
661.656	43015.87
662.007	42998.93
662.358	43058.36
662.708	42992.37
663.059	42948.31
663.409	42874.86
663.76	42841.42
664.11	43056.1
664.461	42994.63
664.811	43024.46
665.161	42966.84
665.511	42878.93
665.862	42975.42
666.212	42972.49
666.562	42994.86
666.912	42766.62
667.262	42965.25
667.612	42964.58
667.962	42913.5
668.312	42862.43
668.662	42995.54
669.011	42891.13
669.361	42829.21
669.711	42760.29
670.06	42736.11
670.41	42757.8
670.76	42593.74
671.109	42892.04
671.459	42744.24
671.808	42696.56
672.157	42861.75
672.507	42617.69
672.856	42572.72
673.205	42605.94
673.554	42765.71
673.904	42434.42
674.253	42596.68
674.602	42635.32
674.951	42044.15
675.3	41756.7
675.649	42489.33
675.998	42342.67
676.346	42544.7
676.695	42625.15
677.044	42283.92
677.393	42455.21
677.741	42572.04
678.09	42416.12
678.438	42378.38
678.787	42365.5
679.135	42455.89
679.484	42088.67
679.832	42347.42
680.181	42078.95
680.529	42121.89
680.877	41980.87
681.225	41972.06
681.573	42275.1
681.922	41943.13
682.27	41741.11
682.618	41803.48
682.966	41741.11
683.314	41838.5
683.661	41667.89
684.009	41617.72
684.357	41486.2
684.705	41428.12
685.053	41524.39
685.4	41377.27
685.748	41241.23
686.095	41165.53
686.443	41110.84
686.79	41095.02
687.138	41055.7
687.485	40983.39
687.832	40976.15
688.18	40987.23
688.527	40795.37
688.874	40781.58
689.221	40761.02
689.568	40624.75
689.915	40468.6
690.262	40538.43
690.609	40420.69
690.956	40248.72
691.303	40313.57
691.65	39987.71
691.997	40014.15
692.344	39814.83
692.69	39881.27
693.037	39725.11
693.383	39462.75
693.73	39579.58
694.077	39384.11
694.423	39256.2
694.769	39302.07
695.116	39200.38
695.462	39156.09
695.808	38891.01
696.155	39023.21
696.501	38787.06
696.847	38856.66
697.193	38551.13
697.539	38644.24
697.885	38426.39
698.231	38382.1
698.577	38433.62
698.923	38391.59
699.269	38155.44
699.614	37931.26
699.96	37872.28
700.306	37852.39
700.651	37792.28
700.997	37576.47
701.342	37637.71
701.688	37488.11
702.033	37486.08
702.379	37298.06
702.724	37198.85
703.069	37213.77
703.415	36792.99
703.76	37020.1
704.105	36910.05
704.45	36809.94
704.795	36721.12
705.14	36613.78
705.485	36574.91
705.83	36404.07
706.175	36556.84
706.52	36347.58
706.865	36334.69
707.209	36256.05
707.554	35924.99
707.899	36167.92
708.243	36030.97
708.588	35842.5
708.932	35628.95
709.277	35612.23
709.621	35586.92
709.966	35394.61
710.31	35563.42
710.654	35149.64
710.998	35354.83
711.342	35255.4
711.687	35210.88
712.031	34941.74
712.375	34892.02
712.719	34965.69
713.063	34822.64
713.407	35018.57
713.75	34735.87
714.094	34641.41
714.438	34593.72
714.782	34645.7
715.125	34376.1
715.469	34494.97
715.812	34270.34
716.156	34228.99
716.499	34217.69
716.843	34206.84
717.186	34068.09
717.53	34188.31
717.873	34264.47
718.216	34153.96
718.559	33975.21
718.902	33707.42
719.246	33904.02
719.589	33699.06
719.932	33582.9
720.275	33613.86
720.617	33567.31
720.96	33614.09
721.303	33496.8
721.646	33447.31
721.989	33327.54
722.331	33463.81
722.674	33149.47
723.016	33172.29
723.359	32940.43
723.701	33255
724.044	32936.37
724.386	32779.99
724.729	32917.61
725.071	32933.43
725.413	32771.4
725.755	32738.18
726.097	32585.19
726.439	32490.73
726.782	32465.64
727.124	32606.2
727.465	32445.98
727.807	32485.98
728.149	32346.55
728.491	32171.41
728.833	32347.68
729.175	32204.18
729.516	32262.71
729.858	32223.84
730.199	32213.9
730.541	32069.95
730.882	31944.53
731.224	32125.09
731.565	31848.71
731.906	31867.69
732.248	31919.9
732.589	31727.36
732.93	31700.47
733.271	31574.37
733.612	31706.12
733.953	31681.94
734.294	31555.38
734.635	31539.79
734.976	31578.89
735.317	31307.26
735.658	31377.08
735.999	31339.57
736.339	31350.64
736.68	31392.68
737.021	31243.98
737.361	31011.67
737.702	31293.02
738.042	31086.02
738.383	31070.43
738.723	31000.6
739.063	30965.34
739.404	31177.54
739.744	30865.69
740.084	30776.87
740.424	30815.07
740.764	30781.39
741.104	30782.07
741.444	30735.07
741.784	30497.33
742.124	30622.98
742.464	30646.48
742.804	30612.58
743.143	30488.75
743.483	30443.78
743.823	30420.5
744.162	30339.82
744.502	30431.12
744.841	30265.93
745.181	30301.41
745.52	30180.73
745.86	30184.12
746.199	30189.55
746.538	30213.95
746.877	30242.88
747.216	30148.64
747.556	30050.34
747.895	30122.2
748.234	29842.21
748.573	29849.89
748.911	29854.64
749.25	29762.66
749.589	29713.63
749.928	29703.23
750.267	29774.19
750.605	29580.3
750.944	29588.66
751.283	29481.77
751.621	29528.55
751.96	29482.67
752.298	29370.13
752.636	29450.58
752.975	29244.49
753.313	29179.4
753.651	29364.48
753.989	28965.4
754.327	29099.4
754.666	28928.79
755.004	28962.01
755.342	28825.51
755.679	28849.47
756.017	28682.01
756.355	28729.7
756.693	28642.02
757.031	28662.13
757.368	28515.92
757.706	28555.46
758.044	28370.84
758.381	28432.98
758.719	28257.84
759.056	28286.54
759.394	28117.96
759.731	28105.08
760.068	27973.78
760.405	27812.21
760.743	27832.55
761.08	27883.84
761.417	27724.3
761.754	27744.86
762.091	27620.12
762.428	27589.16
762.765	27369.73
763.102	27434.59
763.438	27242.5
763.775	27241.37
764.112	27213.8
764.449	27267.14
764.785	27086.35
765.122	26955.51
765.458	26824.44
765.795	26790.54
766.131	26781.95
766.467	26622.41
766.804	26588.74
767.14	26499.7
767.476	26402.53
767.812	26341.74
768.148	26346.48
768.485	26161.18
768.821	25887.51
769.157	25970.45
769.492	25937.68
769.828	25894.06
770.164	25693.84
770.5	25613.17
770.836	25522.55
771.171	25455.66
771.507	25326.17
771.842	25221.31
772.178	25205.72
772.513	25147.64
772.849	24971.38
773.184	24885.05
773.519	24924.6
773.855	24822.91
774.19	24726.41
774.525	24638.73
774.86	24641.44
775.195	24535.23
775.53	24460.88
775.865	24243.49
776.2	24116.94
776.535	23964.17
776.87	24042.59
777.205	23875.81
777.539	23749.94
777.874	23801.01
778.209	23667.68
778.543	23545.2
778.878	23407.8
779.212	23458.65
779.547	23252.78
779.881	23450.29
780.215	23218.43
780.55	23209.16
780.884	22996.29
781.218	23099.34
781.552	23030.86
781.886	22770.76
782.22	22644.21
782.554	22614.6
782.888	22542.97
783.222	22349.98
783.556	22295.74
783.889	22240.83
784.223	22087.84
784.557	21987.5
784.89	22123.77
785.224	21986.15
785.557	21821.18
785.891	21829.99
786.224	21719.26
786.558	21598.81
786.891	21507.74
787.224	21456.67
787.557	21377.35
787.891	21313.17
788.224	21317.69
788.557	21343.9
788.89	21220.97
789.223	21223.45
789.556	21003.8
789.888	20944.59
790.221	20855.1
790.554	20704.6
790.887	20636.12
791.219	20679.06
791.552	20520.65
791.884	20434.77
792.217	20399.07
792.549	20192.97
792.882	20189.36
793.214	20170.83
793.546	20145.29
793.879	19905.07
794.211	19955.69
794.543	20037.5
794.875	19896.03
795.207	19947.33
795.539	19793.21
795.871	19775.81
796.203	19508.24
796.535	19445.19
796.867	19482.26
797.198	19347.12
797.53	19406.1
797.862	19285.88
798.193	19230.51
798.525	19240.91
798.856	19169.72
799.188	18997.75
799.519	18938.99
799.85	18808.15
800.182	18797.3
800.513	18856.06
800.844	18652.9
801.175	18696.06
801.506	18730.41
801.837	18584.65
802.168	18507.14
802.499	18497.88
802.83	18423.75
803.161	18259.01
803.491	18294.04
803.822	18320.93
804.153	18268.73
804.483	18054.95
804.814	17984.44
805.145	18102.41
805.475	18011.33
805.805	17939.25
806.136	17887.04
806.466	17921.39
806.796	17846.37
807.126	17766.82
807.457	17750.32
807.787	17621.97
808.117	17551.46
808.447	17498.35
808.777	17491.57
809.107	17491.57
809.436	17457.68
809.766	17377
810.096	17242.09
810.426	17161.64
810.755	17222.2
811.085	17198.93
811.414	17178.14
811.744	17033.73
812.073	17031.25
812.403	17043.68
812.732	16882.1
813.061	16886.39
813.39	16804.36
813.719	16727.75
814.049	16818.37
814.378	16709.22
814.707	16563.01
815.036	16545.38
815.365	16569.34
815.693	16435.56
816.022	16428.33
816.351	16340.64
816.68	16326.41
817.008	16356.91
817.337	16264.94
817.665	16183.13
817.994	16269.23
818.322	16229.01
818.651	16026.08
818.979	16082.8
819.307	16148.33
819.636	16033.31
819.964	15946.53
820.292	16067.2
820.62	15988.56
820.948	15930.26
821.276	15976.81
821.604	15872.86
821.932	15882.8
822.259	15935
822.587	15857.49
822.915	15790.38
823.243	15871.28
823.57	15801.67
823.898	15865.63
824.225	15736.59
824.553	15763.48
824.88	15754.22
825.207	15888
825.535	15791.05
825.862	15893.2
826.189	15714.22
826.516	15915.8
826.843	15864.05
827.17	15827.21
827.497	15892.29
827.824	15830.15
828.151	15869.47
828.478	15770.04
828.805	15878.51
829.131	15709.02
829.458	15848
829.785	15661.57
830.111	15724.61
830.438	15800.77
830.764	15741.34
831.09	15818.62
831.417	15660.66
831.743	15782.92
832.069	15787.89
832.395	15712.19
832.722	15638.06
833.048	15616.14
833.374	15672.64
833.7	15563.49
834.026	15610.27
834.351	15598.74
834.677	15521.46
835.003	15577.95
835.329	15634.22
835.654	15501.34
835.98	15522.81
836.306	15578.86
836.631	15464.73
836.956	15440.1
837.282	15502.7
837.607	15454.34
837.932	15478.29
838.258	15341.57
838.583	15305.87
838.908	15326.21
839.233	15328.92
839.558	15231.75
839.883	15272.2
840.208	15143.16
840.533	15100.45
840.858	15121.92
841.182	15156.72
841.507	15160.56
841.832	14965.54
842.156	15076.5
842.481	15080.11
842.805	15027.23
843.13	14914.01
843.454	14861.81
843.778	14861.13
844.103	14834.92
844.427	14776.39
844.751	14707.92
845.075	14715.83
845.399	14632.67
845.723	14563.06
846.047	14587.02
846.371	14485.1
846.695	14472.9
847.019	14372.79
847.343	14283.97
847.666	14223.64
847.99	14178.44
848.313	14203.07
848.637	14067.94
848.96	14056.18
849.284	14032.91
849.607	13916.98
849.931	13899.58
850.254	13781.62
850.577	13753.82
850.9	13624.33
851.223	13636.31
851.546	13503.43
851.869	13493.04
852.192	13556.99
852.515	13366.03
852.838	13376.2
853.161	13387.73
853.483	13253.27
853.806	13241.97
854.129	13148.19
854.451	13128.75
854.774	13065.7
855.096	13122.42
855.419	13132.82
855.741	13006.04
856.063	12950.9
856.385	12855.99
856.708	12894.63
857.03	12801.75
857.352	12836.78
857.674	12756.33
857.996	12707.97
858.318	12636.33
858.64	12667.75
858.961	12633.17
859.283	12539.61
859.605	12561.53
859.926	12523.34
860.248	12428.43
860.57	12362.44
860.891	12442.22
861.212	12335.55
861.534	12310.47
861.855	12343.23
862.176	12232.05
862.498	12238.83
862.819	12295.33
863.14	12239.96
863.461	12152.28
863.782	12228.21
864.103	12100.53
864.424	12096.69
864.745	12136.69
865.065	12034.32
865.386	12051.49
865.707	11928.33
866.027	11996.8
866.348	11877.71
866.668	11934.66
866.989	11965.39
867.309	11812.63
867.63	11922.68
867.95	11887.43
868.27	11833.19
868.59	11884.49
868.91	11834.32
869.23	11729.47
869.55	11662.8
869.87	11831.16
870.19	11781.22
870.51	11731.05
870.83	11690.37
871.15	11679.07
871.469	11650.82
871.789	11743.7
872.109	11566.98
872.428	11630.49
872.748	11552.3
873.067	11614.21
873.386	11563.37
873.706	11526.99
874.025	11514.1
874.344	11508
874.663	11423.71
874.982	11418.29
875.301	11368.12
875.62	11310.72
875.939	11386.65
876.258	11389.36
876.577	11359.53
876.896	11402.69
877.214	11236.6
877.533	11280.21
877.852	11324.28
878.17	11295.58
878.489	11236.15
878.807	11172.19
879.125	11187.56
879.444	11160.44
879.762	11124.06
880.08	11138.07
880.398	11051.29
880.716	11119.31
881.034	11048.58
881.352	11074.34
881.67	11026.43
881.988	11006.77
882.306	10935.14
882.624	11012.65
882.941	10919.54
883.259	10870.28
883.577	10839.55
883.894	10927
884.212	10762.26
884.529	10788.25
884.846	10765.65
885.164	10768.36
885.481	10715.03
885.798	10722.71
886.115	10666.89
886.432	10635.94
886.75	10671.19
887.067	10557.74
887.383	10557.29
887.7	10581.25
888.017	10601.81
888.334	10502.38
888.651	10502.15
888.967	10466.45
889.284	10408.82
889.6	10427.58
889.917	10371.76
890.233	10341.71
890.55	10296.28
890.866	10325.43
891.182	10243.4
891.498	10160.47
891.815	10192.33
892.131	10116.63
892.447	10125.44
892.763	10065.78
893.079	10047.48
893.395	10016.52
893.71	10014.71
894.026	9960.7
894.342	9987.14
894.657	9893.13
894.973	9887.48
895.289	9856.29
895.604	9827.59
895.92	9833.7
896.235	9774.71
896.55	9714.6
896.865	9650.2
897.181	9644.32
897.496	9670.54
897.811	9578.79
898.126	9613.14
898.441	9536.75
898.756	9546.7
899.071	9506.02
899.386	9461.28
899.7	9370.21
900.015	9405.91
900.33	9282.52
900.644	9285.69
900.959	9294.28
901.273	9239.14
901.588	9205.69
901.902	9136.09
902.216	9096.99
902.531	9111.68
902.845	9102.19
903.159	8964.11
903.473	9003.66
903.787	8952.14
904.101	8896.77
904.415	8934.28
904.729	8809.32
905.042	8808.41
905.356	8713.5
905.67	8777.23
905.984	8779.94
906.297	8729.32
906.611	8677.57
906.924	8564.58
907.237	8594.86
907.551	8577.46
907.864	8530.45
908.177	8530.91
908.491	8508.31
908.804	8429.67
909.117	8443.45
909.43	8357.8
909.743	8307.18
910.056	8294.08
910.368	8303.12
910.681	8238.03
910.994	8261.08
911.307	8160.07
911.619	8069.9
911.932	8170.46
912.244	8027.19
912.557	8017.92
912.869	8004.82
913.181	7966.4
913.494	7961.2
913.806	7901.09
914.118	7909.23
914.43	7859.96
914.742	7812.51
915.054	7765.05
915.366	7735.9
915.678	7691.61
915.99	7620.87
916.302	7576.81
916.613	7541.55
916.925	7604.15
917.236	7553.76
917.548	7511.72
917.859	7517.6
918.171	7474.44
918.482	7405.96
918.794	7384.95
919.105	7433.08
919.416	7331.39
919.727	7335.23
920.038	7266.08
920.349	7210.94
920.66	7210.49
920.971	7232.63
921.282	7104.05
921.593	7163.71
921.903	7060.66
922.214	7039.65
922.525	7051.85
922.835	6997.39
923.146	6968.01
923.456	6880.33
923.767	6908.35
924.077	6927.78
924.387	6800.78
924.697	6779.77
925.008	6831.29
925.318	6793.1
925.628	6729.15
925.938	6737.28
926.248	6643.05
926.558	6610.96
926.867	6596.72
927.177	6578.19
927.487	6550.39
927.796	6500.22
928.106	6509.94
928.416	6511.75
928.725	6425.42
929.034	6387.01
929.344	6364.86
929.653	6452.32
929.962	6335.03
930.271	6312.43
930.581	6233.56
930.89	6271.53
931.199	6222.27
931.508	6184.53
931.817	6170.52
932.125	6142.27
932.434	6187.92
932.743	6053.23
933.051	6036.96
933.36	6068.82
933.669	6039.22
933.977	6000.12
934.286	5988.6
934.594	5946.79
934.902	5910.86
935.21	5849.62
935.519	5824.76
935.827	5819.56
936.135	5856.17
936.443	5786.8
936.751	5767.59
937.059	5763.97
937.367	5697.53
937.674	5719
937.982	5695.5
938.29	5644.88
938.597	5608.72
938.905	5586.35
939.213	5584.77
939.52	5508.84
939.827	5541.61
940.135	5467.71
940.442	5464.77
940.749	5450.99
941.056	5409.41
941.363	5372.8
941.67	5417.99
941.977	5317.66
942.284	5288.05
942.591	5306.13
942.898	5261.16
943.205	5308.39
943.511	5194.95
943.818	5187.26
944.125	5206.47
944.431	5168.96
944.738	5130.54
945.044	5126.02
945.35	5091
945.657	5065.91
945.963	5038.57
946.269	5033.6
946.575	5053.93
946.881	5001.51
947.187	4933.03
947.493	4909.53
947.799	4973.03
948.105	4860.72
948.41	4860.49
948.716	4890.32
949.022	4878.8
949.327	4881.51
949.633	4789.54
949.938	4822.08
950.244	4740.27
950.549	4709.31
950.854	4704.79
951.16	4691.23
951.465	4703.44
951.77	4660.72
952.075	4606.72
952.38	4615.98
952.685	4563.33
952.99	4546.83
953.294	4548.41
953.599	4518.36
953.904	4547.06
954.209	4487.85
954.513	4500.73
954.818	4484.01
955.122	4448.08
955.426	4381.86
955.731	4423.89
956.035	4381.18
956.339	4355.65
956.643	4322.43
956.948	4299.83
957.252	4311.58
957.556	4313.39
957.86	4258.7
958.163	4224.13
958.467	4228.42
958.771	4185.71
959.075	4205.82
959.378	4180.51
959.682	4184.13
959.985	4142.55
960.289	4165.6
960.592	4132.15
960.896	4109.78
961.199	4076.79
961.502	4068.42
961.805	4045.6
962.108	3975.09
962.411	3993.17
962.714	3971.48
963.017	4011.25
963.32	3969.44
963.623	3953.85
963.926	3901.65
964.228	3862.55
964.531	3896.9
964.833	3864.14
965.136	3821.88
965.438	3787.75
965.741	3829.79
966.043	3769.9
966.345	3799.5
966.648	3769.45
966.95	3701.65
967.252	3665.5
967.554	3685.16
967.856	3706.85
968.158	3697.13
968.46	3661.43
968.761	3631.6
969.063	3616.91
969.365	3619.4
969.666	3583.24
969.968	3555.44
970.269	3570.13
970.571	3555.9
970.872	3510.25
971.174	3537.59
971.475	3524.94
971.776	3496.91
972.077	3470.93
972.378	3456.24
972.679	3435.9
972.98	3433.19
973.281	3467.31
973.582	3409.23
973.883	3402.23
974.183	3337.6
974.484	3322.23
974.785	3336.01
975.085	3319.97
975.386	3286.52
975.686	3340.76
975.986	3276.35
976.287	3293.98
976.587	3263.25
976.887	3203.14
977.187	3232.74
977.487	3207.2
977.787	3170.14
978.087	3194.32
978.387	3171.27
978.687	3168.11
978.987	3110.94
979.286	3119.97
979.586	3116.13
979.885	3117.04
980.185	3107.77
980.484	3100.31
980.784	3049.47
981.083	3055.12
981.382	3040.65
981.682	2994.78
981.981	2998.85
982.28	2987.32
982.579	2946.19
982.878	2999.98
983.177	2931.73
983.475	2934.22
983.774	2933.54
984.073	2920.66
984.372	2898.96
984.67	2899.42
984.969	2843.15
985.267	2861.68
985.566	2825.52
985.864	2844.5
986.162	2799.98
986.461	2781.68
986.759	2771.06
987.057	2779.64
987.355	2783.03
987.653	2744.62
987.951	2729.93
988.249	2788.23
988.547	2717.05
988.844	2688.8
989.142	2716.6
989.44	2683.15
989.737	2715.92
990.035	2663.26
990.332	2663.04
990.63	2601.34
990.927	2634.11
991.224	2582.36
991.521	2637.5
991.819	2601.34
992.116	2592.3
992.413	2566.32
992.71	2534.91
993.006	2550.5
993.303	2553.89
993.6	2539.65
993.897	2536.04
994.193	2507.79
994.49	2488.13
994.787	2474.79
995.083	2463.27
995.379	2441.57
995.676	2462.14
995.972	2451.52
996.268	2394.57
996.565	2394.12
996.861	2385.3
997.157	2401.58
997.453	2412.42
997.749	2352.31
998.044	2335.36
998.34	2330.16
998.636	2326.77
998.932	2326.1
999.227	2256.72
999.523	2297.62
999.818	2250.17
1000.114	2273.22
1000.409	2252.65
1000.704	2228.25
1001	2257.17
1001.295	2209.94
1001.59	2191.41
1001.885	2186.21
1002.18	2150.06
1002.475	2145.99
1002.77	2148.7
1003.065	2155.25
1003.359	2164.29
1003.654	2101.02
1003.949	2095.14
1004.243	2076.84
1004.538	2112.77
1004.832	2061.92
1005.127	2064.41
1005.421	2059.89
1005.715	2038.19
1006.009	2055.82
1006.304	2010.4
1006.598	2017.86
1006.892	2002.04
1007.186	1982.15
1007.48	1979.44
1007.773	1957.29
1008.067	1923.85
1008.361	1929.95
1008.655	1899.44
1008.948	1929.72
1009.242	1921.81
1009.535	1884.07
1009.829	1885.88
1010.122	1872.78
1010.415	1914.13
1010.708	1858.76
1011.001	1861.7
1011.295	1845.21
1011.588	1799.11
1011.881	1793.46
1012.173	1787.81
1012.466	1796.17
1012.759	1767.02
1013.052	1760.46
1013.344	1733.34
1013.637	1734.47
1013.93	1729.73
1014.222	1723.4
1014.514	1727.47
1014.807	1728.6
1015.099	1668.71
1015.391	1673.68
1015.683	1706.23
1015.976	1645.66
1016.268	1654.7
1016.56	1635.04
1016.851	1626.91
1017.143	1644.31
1017.435	1608.83
1017.727	1576.29
1018.018	1578.77
1018.31	1599.11
1018.602	1586.46
1018.893	1561.82
1019.185	1563.18
1019.476	1554.59
1019.767	1534.03
1020.058	1552.56
1020.35	1514.14
1020.641	1492.9
1020.932	1493.58
1021.223	1478.66
1021.514	1473.92
1021.804	1471.66
1022.095	1460.58
1022.386	1435.05
1022.677	1447.25
1022.967	1419
1023.258	1392.79
1023.548	1424.2
1023.839	1417.42
1024.129	1411.09
1024.419	1405.67
1024.709	1352.11
1025	1346.24
1025.29	1346.69
1025.58	1333.58
1025.87	1360.25
1026.16	1315.5
1026.449	1323.64
1026.739	1291.1
1027.029	1302.62
1027.319	1311.43
1027.608	1259.91
1027.898	1281.83
1028.187	1241.83
1028.477	1247.93
1028.766	1263.75
1029.055	1241.15
1029.344	1217.65
1029.634	1236.86
1029.923	1233.47
1030.212	1183.98
1030.501	1218.33
1030.79	1209.52
1031.078	1160.93
1031.367	1168.16
1031.656	1181.27
1031.945	1159.8
1032.233	1168.84
1032.522	1155.28
1032.81	1145.34
1033.099	1118.67
1033.387	1138.33
1033.675	1116.41
1033.963	1098.78
1034.251	1108.73
1034.54	1111.44
1034.828	1071.89
1035.116	1084.77
1035.403	1074.15
1035.691	1064.89
1035.979	1096.3
1036.267	1043.64
1036.554	1039.35
1036.842	1049.07
1037.129	1023.31
1037.417	1044.1
1037.704	1002.06
1037.992	994.15
1038.279	1015.4
1038.566	989.63
1038.853	989.63
1039.14	989.63
