Data from hue_50_FLMS001491_90.txt Node
Date: Mon Feb 06 15:11:10 GMT 2017
User: dcchb
Spectrometer: FLMS00149
Trigger mode: 0
Integration Time (sec): 2.000000E-2
Scans to average: 10
Electric dark correction enabled: true
Nonlinearity correction enabled: false
Boxcar width: 0
XAxis mode: Wavelengths
Number of Pixels in Spectrum: 2048
>>>>>Begin Spectral Data<<<<<
341.393	-15.01
341.776	-15.01
342.16	-15.01
342.543	-58.85
342.927	-73.77
343.31	-57.27
343.693	-63.15
344.077	-59.53
344.46	-66.54
344.843	-65.41
345.226	-36.26
345.61	-45.97
345.993	-13.88
346.376	-6.65
346.759	9.39
347.142	22.73
347.525	45.55
347.908	58.66
348.291	62.27
348.674	114.7
349.057	101.37
349.44	125.1
349.823	161.25
350.206	175.26
350.588	201.48
350.971	200.12
351.354	232.66
351.737	231.31
352.119	249.61
352.502	272.21
352.884	269.5
353.267	274.7
353.65	302.04
354.032	307.01
354.414	308.59
354.797	311.08
355.179	327.8
355.562	336.16
355.944	324.19
356.326	322.15
356.709	333.68
357.091	334.36
357.473	355.82
357.855	361.93
358.238	325.32
358.62	320.57
359.002	344.75
359.384	343.85
359.766	357.86
360.148	373.68
360.53	337.29
360.912	331.42
361.294	327.8
361.676	338.2
362.057	353.34
362.439	349.72
362.821	301.36
363.203	339.78
363.584	320.8
363.966	322.6
364.348	326.67
364.729	322.83
365.111	318.31
365.493	328.71
365.874	327.35
366.256	322.38
366.637	300.46
367.019	332.55
367.4	314.47
367.781	314.47
368.163	328.71
368.544	314.47
368.925	320.57
369.306	332.32
369.688	299.33
370.069	303.62
370.45	300.68
370.831	303.4
371.212	330.51
371.593	305.43
371.974	310.85
372.355	329.84
372.736	304.98
373.117	322.38
373.498	308.82
373.879	343.62
374.26	318.54
374.641	317.18
375.021	346.33
375.402	321.93
375.783	327.35
376.163	311.31
376.544	320.57
376.925	314.47
377.305	331.42
377.686	333
378.066	325.09
378.447	340.91
378.827	348.37
379.208	326.22
379.588	330.51
379.968	347.69
380.349	336.84
380.729	345.88
381.109	325.77
381.489	315.6
381.87	324.19
382.25	348.59
382.63	329.61
383.01	341.81
383.39	353.34
383.77	343.62
384.15	369.38
384.53	351.3
384.91	341.14
385.29	350.4
385.67	339.1
386.049	358.99
386.429	358.99
386.809	371.42
387.189	362.83
387.568	350.85
387.948	358.31
388.328	365.32
388.707	372.55
389.087	360.57
389.466	361.25
389.846	355.6
390.225	388.59
390.605	361.25
390.984	350.17
391.363	347.46
391.743	375.71
392.122	385.88
392.501	376.84
392.881	394.69
393.26	396.95
393.639	363.28
394.018	360.12
394.397	370.74
394.776	399.44
395.155	378.42
395.534	394.69
395.913	378.65
396.292	391.76
396.671	398.31
397.05	391.76
397.429	394.02
397.808	371.42
398.186	401.02
398.565	396.27
398.944	375.48
399.323	404.41
399.701	405.77
400.08	395.37
400.458	392.66
400.837	416.61
401.215	397.18
401.594	400.57
401.972	397.18
402.351	393.34
402.729	398.99
403.107	408.48
403.486	424.97
403.864	411.64
404.242	416.16
404.62	404.64
404.999	423.39
405.377	398.08
405.755	425.2
406.133	424.07
406.511	427.69
406.889	433.79
407.267	437.86
407.645	414.58
408.023	407.12
408.401	433.34
408.779	441.47
409.156	443.73
409.534	446.44
409.912	456.61
410.29	419.78
410.667	461.58
411.045	449.83
411.422	441.02
411.8	459.55
412.178	448.25
412.555	456.39
412.933	479.89
413.31	457.29
413.687	463.17
414.065	463.84
414.442	475.14
414.819	480.57
415.197	481.7
415.574	485.99
415.951	520.11
416.328	495.71
416.705	516.05
417.082	500
417.46	499.77
417.837	498.87
418.214	491.41
418.591	497.06
418.967	528.02
419.344	528.25
419.721	505.2
420.098	530.73
420.475	500
420.852	550.4
421.228	497.97
421.605	520.11
421.982	558.08
422.358	512.2
422.735	539.77
423.111	511.75
423.488	549.72
423.864	552.2
424.241	554.69
424.617	561.69
424.994	532.09
425.37	546.1
425.746	577.97
426.123	558.53
426.499	540
426.875	571.64
427.251	560.11
427.627	591.75
428.003	601.47
428.379	620
428.756	585.87
429.132	596.04
429.507	591.75
429.883	594.46
430.259	591.52
430.635	611.18
431.011	614.8
431.387	618.42
431.763	624.97
432.138	625.65
432.514	629.94
432.89	636.49
433.265	629.26
433.641	649.38
434.016	648.47
434.392	636.04
434.767	655.93
435.143	661.58
435.518	683.95
435.894	664.97
436.269	693.67
436.644	684.85
437.02	677.85
437.395	688.7
437.77	699.32
438.145	714.91
438.52	694.57
438.895	716.27
439.271	737.06
439.646	744.06
440.021	736.38
440.395	721.24
440.77	703.84
441.145	735.48
441.52	760.56
441.895	750.62
442.27	764.4
442.645	760.56
443.019	752.65
443.394	767.34
443.769	761.01
444.143	742.93
444.518	772.31
444.892	805.3
445.267	801.01
445.641	780.45
446.016	790.84
446.39	774.12
446.764	789.48
447.139	811.86
447.513	795.36
447.887	806.89
448.262	791.97
448.636	802.14
449.01	805.3
449.384	831.52
449.758	839.65
450.132	843.49
450.506	874.45
450.88	866.77
451.254	858.86
451.628	859.77
452.002	861.8
452.376	871.06
452.75	899.31
453.123	900.67
453.497	907.67
453.871	891.18
454.244	908.8
454.618	919.42
454.992	941.8
455.365	946.54
455.739	977.05
456.112	959.2
456.486	966.2
456.859	983.83
457.232	1004.39
457.606	988.12
457.979	997.84
458.352	1012.98
458.725	1015.47
459.099	1025.86
459.472	1057.05
459.845	1047.78
460.218	1075.58
460.591	1094.56
460.964	1071.74
461.337	1104.05
461.71	1129.81
462.083	1142.47
462.456	1139.31
462.829	1143.83
463.201	1168.68
463.574	1173.88
463.947	1169.36
464.32	1207.78
464.692	1220.43
465.065	1231.96
465.438	1242.35
465.81	1263.37
466.183	1302.01
466.555	1317.38
466.928	1304.05
467.3	1326.42
467.672	1334.78
468.045	1372.29
468.417	1419.52
468.789	1388.34
469.161	1418.62
469.534	1456.13
469.906	1502.69
470.278	1491.16
470.65	1530.26
471.022	1556.47
471.394	1582.68
471.766	1631.72
472.138	1647.54
472.51	1677.82
472.882	1705.62
473.253	1757.82
473.625	1784.04
473.997	1824.49
474.369	1824.94
474.74	1882.79
475.112	1919.4
475.484	1924.82
475.855	2012.73
476.227	2049.11
476.598	2078.94
476.97	2175.89
477.341	2193.06
477.713	2243.01
478.084	2336.11
478.455	2381.53
478.827	2455.43
479.198	2557.57
479.569	2568.2
479.94	2643.22
480.311	2721.41
480.682	2817.23
481.053	2885.47
481.424	2954.4
481.795	3020.39
482.166	3088.63
482.537	3179.7
482.908	3280.49
483.279	3343.99
483.65	3457.89
484.021	3598.22
484.391	3685.23
484.762	3766.58
485.133	3865.11
485.503	3986.01
485.874	4069.4
486.244	4178.1
486.615	4333.35
486.985	4450.41
487.356	4532.21
487.726	4665.99
488.097	4798.19
488.467	4882.26
488.837	5059.66
489.207	5162.25
489.578	5351.85
489.948	5430.94
490.318	5596.82
490.688	5689.92
491.058	5799.75
491.428	6017.82
491.798	6050.14
492.168	6281.32
492.538	6394.76
492.908	6532.61
493.278	6735.32
493.648	6794.98
494.017	6947.97
494.387	7091.01
494.757	7240.61
495.126	7391.35
495.496	7432.7
495.866	7564
496.235	7750.43
496.605	7917.66
496.974	8030.42
497.344	8163.98
497.713	8340.47
498.082	8462.28
498.452	8590.64
498.821	8725.55
499.19	8791.99
499.559	8954.02
499.928	9094.35
500.298	9207.57
500.667	9369.15
501.036	9411.41
501.405	9549.71
501.774	9614.34
502.143	9838.74
502.512	9919.19
502.88	10075.12
503.249	10148.33
503.618	10280.76
503.987	10378.61
504.356	10535.44
504.724	10646.85
505.093	10692.05
505.462	10840.29
505.83	10927.75
506.199	11079.16
506.567	11311.24
506.936	11306.72
507.304	11497.23
507.672	11515.98
508.041	11690.89
508.409	11766.6
508.777	12028.29
509.145	12065.35
509.514	12141.05
509.882	12301.72
510.25	12394.38
510.618	12443.64
510.986	12498.78
511.354	12680.7
511.722	12893.57
512.09	12878.88
512.458	12994.14
512.826	13144.87
513.193	13221.93
513.561	13296.05
513.929	13549.15
514.297	13574.01
514.664	13742.36
515.032	13790.05
515.4	13975.58
515.767	14010.83
516.135	14033.43
516.502	14061
516.869	14352.74
517.237	14420.99
517.604	14444.95
517.972	14592.06
518.339	14728.1
518.706	14738.27
519.073	14901.66
519.44	15013.07
519.808	15169.45
520.175	15172.84
520.542	15413.96
520.909	15519.49
521.276	15413.73
521.643	15674.07
522.009	15785.02
522.376	15911.35
522.743	15930.1
523.11	16130.55
523.477	16314.27
523.843	16391.79
524.21	16528.51
524.577	16586.58
524.943	16761.72
525.31	16867.03
525.676	17041.03
526.043	17231.31
526.409	17258.88
526.776	17456.62
527.142	17476.5
527.508	17551.3
527.874	17726.44
528.241	17905.42
528.607	17942.03
528.973	17974.34
529.339	18110.61
529.705	18280.78
530.071	18364.39
530.437	18460.43
530.803	18629.24
531.169	18652.29
531.535	18692.52
531.901	18828.56
532.267	19000.76
532.632	19116.46
532.998	19195.55
533.364	19295.21
533.73	19278.72
534.095	19423.57
534.461	19510.35
534.826	19607.3
535.192	19752.83
535.557	19786.5
535.923	19849.77
536.288	19985.82
536.653	19981.07
537.019	20054.29
537.384	20155.76
537.749	20296.99
538.114	20301.29
538.479	20373.6
538.845	20480.27
539.21	20412.02
539.575	20524.33
539.94	20627.16
540.305	20802.07
540.67	20679.13
541.034	20840.03
541.399	20931.1
541.764	20999.57
542.129	21168.38
542.494	21140.59
542.858	21232.34
543.223	21320.7
543.587	21506.68
543.952	21463.52
544.316	21557.07
544.681	21524.53
545.045	21741.48
545.41	21776.96
545.774	21846.56
546.138	21852.21
546.503	21992.09
546.867	22023.95
547.231	22235.7
547.595	22195.25
547.959	22251.07
548.324	22244.74
548.688	22456.94
549.052	22418.75
549.416	22634.56
549.779	22583.26
550.143	22663.94
550.507	22850.15
550.871	22878.4
551.235	22854.89
551.599	23084.04
551.962	22997.04
552.326	23164.04
552.689	23231.15
553.053	23152.29
553.417	23321.1
553.78	23553.86
554.143	23422.11
554.507	23630.92
554.87	23759.5
555.234	23859.84
555.597	23735.55
555.96	23879.73
556.323	24060.29
556.686	24048.99
557.05	24156.55
557.413	24253.5
557.776	24380.05
558.139	24505.7
558.502	24540.72
558.865	24595.86
559.228	24906.59
559.59	24902.98
559.953	24973.48
560.316	25164.89
560.679	25301.16
561.041	25218
561.404	25415.96
561.767	25603.75
562.129	25582.51
562.492	25769.85
562.854	25827.47
563.217	25978.2
563.579	25952.44
563.941	26011.42
564.304	26136.84
564.666	26347.46
565.028	26330.28
565.39	26372.77
565.753	26536.83
566.115	26699.09
566.477	26666.09
566.839	26900.66
567.201	27171.62
567.563	27022.24
567.925	27296.13
568.287	27281.67
568.648	27359.63
569.01	27571.15
569.372	27699.74
569.734	27488.67
570.095	27728.21
570.457	27972.5
570.819	27927.3
571.18	28035.1
571.542	28176.79
571.903	28220.63
572.265	28470.56
572.626	28482.32
572.987	28572.48
573.349	28572.71
573.71	28814.96
574.071	28994.39
574.432	29033.26
574.794	29247.95
575.155	29210.66
575.516	29120.49
575.877	29317.1
576.238	29381.05
576.599	29476.87
576.96	29684.32
577.32	29693.13
577.681	29898.55
578.042	30002.05
578.403	30087.47
578.763	30148.03
579.124	30371.08
579.485	30433.9
579.845	30567.68
580.206	30676.38
580.566	30688.36
580.927	30869.82
581.287	30959.09
581.648	31042.25
582.008	31135.13
582.368	31206.31
582.728	31389.36
583.089	31422.13
583.449	31559.75
583.809	31643.81
584.169	31855.79
584.529	31888.1
584.889	32252.39
585.249	32196.79
585.609	32155.89
585.969	32541.87
586.329	32439.95
586.688	32675.65
587.048	32766.72
587.408	32797.91
587.768	32836.33
588.127	32863.9
588.487	33019.15
588.846	33362.41
589.206	33348.4
589.565	33394.73
589.925	33718.34
590.284	33679.92
590.643	33832.23
591.003	34116.97
591.362	34270.64
591.721	34362.84
592.08	34386.57
592.44	34517.64
592.799	34614.36
593.158	34718.31
593.517	34869.27
593.876	34962.37
594.235	35056.15
594.593	35206.66
594.952	35348.8
595.311	35249.14
595.67	35460.89
596.029	35705.63
596.387	35917.37
596.746	35984.49
597.104	35943.81
597.463	35970.93
597.822	36188.55
598.18	36237.37
598.538	36290.47
598.897	36635.32
599.255	36341.09
599.613	36948.99
599.972	36787.86
600.33	36819.95
600.688	36828.09
601.046	36994.18
601.404	37337.68
601.762	37141.52
602.12	37497.9
602.478	37766.37
602.836	37672.58
603.194	37518.91
603.552	37709.87
603.91	37668.29
604.268	37964.78
604.625	37893.82
604.983	37979.47
605.341	38040.26
605.698	38251.32
606.056	38247.26
606.413	38392.56
606.771	38474.14
607.128	38574.03
607.485	38516.4
607.843	38572.67
608.2	38884.98
608.557	38870.07
608.914	38891.31
609.272	39224.41
609.629	39099.21
609.986	39485.19
610.343	39295.37
610.7	39612.87
611.057	39620.78
611.414	39665.75
611.771	39602.25
612.127	40025.74
612.484	39881.34
612.841	40009.92
613.198	39950.94
613.554	39991.62
613.911	40344.83
614.267	40408.1
614.624	40371.72
614.98	40379.86
615.337	40747.76
615.693	40555.22
616.05	40586.86
616.406	40769.22
616.762	40689
617.118	40748.66
617.475	40850.35
617.831	40928.09
618.187	40966.51
618.543	41157.46
618.899	41358.36
619.255	41161.53
619.611	41342.32
619.967	41448.3
620.323	41525.59
620.678	41401.3
621.034	41338.25
621.39	41473.16
621.746	41393.61
622.101	41854.39
622.457	41470
622.812	41702.99
623.168	41825.92
623.523	41808.07
623.879	42033.15
624.234	41653.72
624.589	41726.71
624.945	41825.24
625.3	42018.46
625.655	41940.49
626.01	41937.78
626.365	41986.37
626.72	41979.81
627.075	41959.25
627.43	42126.7
627.785	41874.51
628.14	42106.59
628.495	42099.36
628.85	42133.26
629.205	41978.46
629.559	42166.02
629.914	42062.52
630.269	42124.44
630.623	41905.92
630.978	42043.54
631.332	42143.88
631.687	42140.94
632.041	42042.64
632.396	42194.95
632.75	42002.41
633.104	41919.25
633.459	41997.89
633.813	41883.09
634.167	41964.9
634.521	41855.98
634.875	42058.23
635.229	41883.32
635.583	41721.74
635.937	41725.36
636.291	41663.66
636.645	41848.52
636.999	41651.91
637.352	41740.5
637.706	41567.85
638.06	41736.2
638.413	41579.15
638.767	41665.7
639.121	41729.88
639.474	41281.08
639.828	41417.57
640.181	41560.84
640.534	41579.6
640.888	41451.92
641.241	41230.46
641.594	41375.99
641.947	41517.91
642.301	41296.89
642.654	41242.88
643.007	41348.19
643.36	41193.85
643.713	41178.25
644.066	41323.56
644.419	41014.19
644.771	40979.39
645.124	40544.82
645.477	40437.26
645.83	40201.1
646.182	40005.18
646.535	40144.61
646.888	40100.09
647.24	39880.66
647.593	40139.86
647.945	40021
648.298	39801.57
648.65	39850.15
649.002	39673.89
649.355	39792.53
649.707	39706.88
650.059	39949.59
650.411	40210.14
650.763	40403.58
651.115	40657.36
651.467	40777.59
651.819	40771.03
652.171	40476.8
652.523	40443.58
652.875	40616.23
653.227	40407.65
653.578	40747.76
653.93	40534.88
654.282	40278.39
654.633	40146.87
654.985	40269.8
655.337	40338.95
655.688	40293.98
656.039	40415.11
656.391	40114.55
656.742	40213.08
657.094	40137.6
657.445	40353.64
657.796	40258.28
658.147	40176.92
658.498	40227.32
658.849	40256.47
659.2	40097.15
659.551	40018.74
659.902	40244.49
660.253	40079.75
660.604	40296.47
660.955	39870.49
661.306	40068.9
661.656	39942.81
662.007	40082.91
662.358	40042.92
662.708	39946.65
663.059	40016.02
663.409	39651.97
663.76	40118.85
664.11	40129.69
664.461	40096.02
664.811	40056.7
665.161	39970.38
665.511	39895.8
665.862	40007.89
666.212	39994.1
666.562	40050.83
666.912	40037.49
667.262	40039.3
667.612	40111.61
667.962	40076.81
668.312	39965.18
668.662	40107.55
669.011	39899.42
669.361	39802.92
669.711	39856.03
670.06	39835.01
670.41	39749.59
670.76	39703.26
671.109	39791.4
671.459	39672.53
671.808	39640.67
672.157	39746.43
672.507	39342.82
672.856	39472.99
673.205	39583.49
673.554	39670.72
673.904	39561.12
674.253	39625.07
674.602	39556.6
674.951	39033
675.3	38974.92
675.649	39498.52
675.998	39503.5
676.346	39446.1
676.695	39617.16
677.044	39162.26
677.393	39449.49
677.741	39515.02
678.09	39291.98
678.438	39157.74
678.787	39441.35
679.135	39289.04
679.484	38963.17
679.832	39170.62
680.181	39026.9
680.529	39157.29
680.877	38879.56
681.225	38862.38
681.573	39133.34
681.922	38825.09
682.27	38753.01
682.618	38638.21
682.966	38736.74
683.314	38721.82
683.661	38647.92
684.009	38466.46
684.357	38494.93
684.705	38293.58
685.053	38297.43
685.4	38234.38
685.748	38112.35
686.095	38115.28
686.443	37956.87
686.79	38066.92
687.138	37970.2
687.485	37928.85
687.832	37876.42
688.18	37821.96
688.527	37766.59
688.874	37663.09
689.221	37574.51
689.568	37570.21
689.915	37471.46
690.262	37449.99
690.609	37230.33
690.956	37326.38
691.303	37211.8
691.65	37134.74
691.997	36888.42
692.344	36809.78
692.69	36789.89
693.037	36753.06
693.383	36369.11
693.73	36601.42
694.077	36423.35
694.423	36428.55
694.769	36170.25
695.116	36214.54
695.462	36107.2
695.808	36097.03
696.155	36190.14
696.501	35887.32
696.847	35880.31
697.193	35533.2
697.539	35663.14
697.885	35509.7
698.231	35339.08
698.577	35257.73
698.923	35414.11
699.269	35083.5
699.614	34961.24
699.96	34881.92
700.306	34968.02
700.651	34746.33
700.997	34704.98
701.342	34676.96
701.688	34576.39
702.033	34422.72
702.379	34432.44
702.724	34381.37
703.069	34426.11
703.415	34000.82
703.76	34073.13
704.105	34017.31
704.45	33878.11
704.795	33773.7
705.14	33699.35
705.485	33760.82
705.83	33526.93
706.175	33512.69
706.52	33376.42
706.865	33390.44
707.209	33267.73
707.554	33194.28
707.899	33294.17
708.243	32969.2
708.588	33035.19
708.932	32752.94
709.277	32864.57
709.621	32825.03
709.966	32641.3
710.31	32668.65
710.654	32385.26
710.998	32455.54
711.342	32478.6
711.687	32317.02
712.031	32243.8
712.375	32134.88
712.719	32131.71
713.063	32067.08
713.407	32149.11
713.75	32009
714.094	31997.93
714.438	31746.41
714.782	31776.24
715.125	31644.72
715.469	31816.92
715.812	31601.1
716.156	31454.89
716.499	31349.36
716.843	31579.41
717.186	31243.37
717.53	31459.41
717.873	31362.47
718.216	31242.47
718.559	31204.05
718.902	31005.41
719.246	31025.07
719.589	30831.41
719.932	30924.96
720.275	30817.17
720.617	30731.3
720.96	30849.03
721.303	30679.55
721.646	30638.19
721.989	30485.88
722.331	30611.98
722.674	30615.37
723.016	30576.27
723.359	30362.72
723.701	30477.74
724.044	30244.76
724.386	30047.92
724.729	30297.41
725.071	30103.29
725.413	30037.08
725.755	30175.83
726.097	29931.32
726.439	29822.39
726.782	29884.77
727.124	29919.34
727.465	29787.59
727.807	29788.5
728.149	29700.59
728.491	29579.24
728.833	29575.85
729.175	29549.86
729.516	29483.19
729.858	29442.97
730.199	29509.41
730.541	29351.9
730.882	29337.66
731.224	29384.67
731.565	29202.07
731.906	29179.47
732.248	29147.61
732.589	29080.72
732.93	28813.61
733.271	29003.88
733.612	28964.34
733.953	29048.18
734.294	28815.87
734.635	28878.01
734.976	28932.47
735.317	28713.27
735.658	28668.07
735.999	28612.03
736.339	28657
736.68	28698.58
737.021	28544.46
737.361	28475.54
737.702	28646.61
738.042	28580.62
738.383	28403.67
738.723	28447.51
739.063	28352.83
739.404	28319.61
739.744	28322.55
740.084	28200.52
740.424	28261.08
740.764	28137.92
741.104	28210.46
741.444	28043.46
741.784	28063.8
742.124	28126.17
742.464	28055.66
742.804	27942.22
743.143	27920.75
743.483	27796.68
743.823	27788.32
744.162	27697.48
744.502	27876.91
744.841	27630.59
745.181	27751.04
745.52	27482.12
745.86	27696.35
746.199	27561.89
746.538	27424.26
746.877	27474.88
747.216	27480.08
747.556	27390.37
747.895	27424.94
748.234	27347.2
748.573	27328.9
748.911	27233.31
749.25	27144.95
749.589	27109.47
749.928	27070.83
750.267	27027.44
750.605	27146.98
750.944	26876.03
751.283	26818.86
751.621	26715.13
751.96	26751.97
752.298	26692.98
752.636	26676.49
752.975	26510.16
753.313	26455.93
753.651	26651.18
753.989	26309.72
754.327	26405.53
754.666	26308.81
755.004	26327.8
755.342	26308.14
755.679	26214.35
756.017	26047.58
756.355	26086.9
756.693	25887.36
757.031	26073.57
757.368	25944.76
757.706	25957.18
758.044	25785.89
758.381	25762.39
758.719	25746.79
759.056	25673.12
759.394	25625.67
759.731	25357.65
760.068	25377.99
760.405	25364.66
760.743	25242.85
761.08	25124.21
761.417	25106.36
761.754	25016.87
762.091	25036.76
762.428	24956.08
762.765	24782.3
763.102	24834.95
763.438	24571.01
763.775	24589.31
764.112	24569.88
764.449	24535.98
764.785	24507.51
765.122	24147.29
765.458	24252.6
765.795	24271.58
766.131	24178.47
766.467	24075.88
766.804	23977.35
767.14	23849.22
767.476	23864.13
767.812	23702.1
768.148	23746.17
768.485	23654.19
768.821	23556.12
769.157	23465.5
769.492	23400.19
769.828	23325.62
770.164	23194.32
770.5	23181.89
770.836	23072.74
771.171	22938.51
771.507	22873.2
771.842	22731.28
772.178	22758.62
772.513	22721.11
772.849	22476.6
773.184	22394.79
773.519	22442.7
773.855	22351.86
774.19	22228.02
774.525	22203.39
774.86	22192.99
775.195	22148.92
775.53	22167
775.865	21832.32
776.2	21809.05
776.535	21640.01
776.87	21572.67
777.205	21493.57
777.539	21380.13
777.874	21473.23
778.209	21335.61
778.543	21193.92
778.878	21091.78
779.212	21162.96
779.547	21003.64
779.881	21092.91
780.215	20852.01
780.55	20929.97
780.884	20790.77
781.218	20768.17
781.552	20667.38
781.886	20550.1
782.22	20531.11
782.554	20442.3
782.888	20257.67
783.222	20177
783.556	20028.3
783.889	20049.54
784.223	19924.12
784.557	19782.43
784.89	19935.65
785.224	19701.08
785.557	19622.66
785.891	19625.15
786.224	19493.63
786.558	19579.5
786.891	19377.47
787.224	19284.14
787.557	19252.28
787.891	19251.37
788.224	19117.82
788.557	19163.92
788.89	19025.39
789.223	19060.42
789.556	18824.49
789.888	18786.3
790.221	18820.65
790.554	18640.54
790.887	18628.11
791.219	18657.72
791.552	18517.61
791.884	18537.27
792.217	18461.34
792.549	18301.57
792.882	18161.91
793.214	18082.59
793.546	18061.8
793.879	17994.23
794.211	17955.14
794.543	17969.82
794.875	17865.19
795.207	17933.44
795.539	17820
795.871	17764.63
796.203	17650.96
796.535	17622.94
796.867	17507.24
797.198	17473.34
797.53	17459.1
797.862	17248.26
798.193	17426.79
798.525	17278.32
798.856	17390.18
799.188	17131.2
799.519	17102.05
799.85	16985.22
800.182	16955.61
800.513	16912
800.844	16773.02
801.175	16882.17
801.506	16804.43
801.837	16636.98
802.168	16640.14
802.499	16527.83
802.83	16563.76
803.161	16477.89
803.491	16509.3
803.822	16508.85
804.153	16406.02
804.483	16261.62
804.814	16257.78
805.145	16180.27
805.475	16210.55
805.805	16112.47
806.136	16102.08
806.466	16171.23
806.796	16035.64
807.126	15894.62
807.457	15919.26
807.787	15766.49
808.117	15851.91
808.447	15728.98
808.777	15718.81
809.107	15685.36
809.436	15668.42
809.766	15636.55
810.096	15515.43
810.426	15492.38
810.755	15503.22
811.085	15412.6
811.414	15401.98
811.744	15300.29
812.073	15252.16
812.403	15337.12
812.732	15137.58
813.061	15231.82
813.39	15100.97
813.719	15091.03
814.049	15158.37
814.378	15046.29
814.707	14938.04
815.036	14853.52
815.365	14845.84
815.693	14840.19
816.022	14829.12
816.351	14678.16
816.68	14589.8
817.008	14644.94
817.337	14522.01
817.665	14562.91
817.994	14589.8
818.322	14496.02
818.651	14433.42
818.979	14354.33
819.307	14451.95
819.636	14267.32
819.964	14288.79
820.292	14392.74
820.62	14330.15
820.948	14281.11
821.276	14336.02
821.604	14258.06
821.932	14229.81
822.259	14252.41
822.587	14217.61
822.915	14190.04
823.243	14276.59
823.57	14152.3
823.898	14225.52
824.225	14228.91
824.553	14189.13
824.88	14197.72
825.207	14254.89
825.535	14209.47
825.862	14174.67
826.189	14101.68
826.516	14202.69
826.843	14242.01
827.17	14268
827.497	14212.41
827.824	14147.78
828.151	14215.12
828.478	14221.22
828.805	14207.21
829.131	14204.5
829.458	14127.89
829.785	14194.1
830.111	14126.99
830.438	14211.73
830.764	14135.8
831.09	14095.58
831.417	14096.93
831.743	14168.79
832.069	14097.84
832.395	14099.19
832.722	14033.43
833.048	13984.62
833.374	14070.04
833.7	13965.64
834.026	14066.42
834.351	13999.53
834.677	14006.09
835.003	14026.42
835.329	13960.21
835.654	13905.3
835.98	13935.13
836.306	13942.81
836.631	13856.03
836.956	13939.42
837.282	13844.28
837.607	13865.98
837.932	13852.64
838.258	13879.08
838.583	13750.95
838.908	13699.88
839.233	13762.25
839.558	13689.94
839.883	13629.6
840.208	13592.54
840.533	13592.99
840.858	13561.13
841.182	13570.62
841.507	13562.48
841.832	13511.64
842.156	13478.19
842.481	13481.13
842.805	13417.85
843.13	13312.55
843.454	13405.88
843.778	13270.06
844.103	13252.21
844.427	13307.12
844.751	13200.91
845.075	13244.75
845.399	13200.01
845.723	13143.74
846.047	13153
846.371	12980.12
846.695	13097.41
847.019	12905.55
847.343	12850.41
847.666	12797.08
847.99	12707.14
848.313	12704.88
848.637	12701.71
848.96	12662.85
849.284	12582.85
849.607	12504.43
849.931	12421.04
850.254	12318.9
850.577	12260.6
850.9	12167.72
851.223	12250.2
851.546	12159.36
851.869	12069.64
852.192	12130.43
852.515	11996.87
852.838	12012.01
853.161	12009.98
853.483	11887.72
853.806	11856.99
854.129	11849.76
854.451	11808.86
854.774	11700.61
855.096	11673.27
855.419	11700.38
855.741	11571.57
856.063	11610.44
856.385	11581.52
856.708	11554.17
857.03	11474.85
857.352	11434.18
857.674	11379.71
857.996	11435.76
858.318	11335.2
858.64	11326.16
858.961	11341.07
859.283	11285.93
859.605	11215.2
859.926	11256.33
860.248	11216.56
860.57	11080.51
860.891	11144.92
861.212	11064.69
861.534	11013.17
861.855	10985.83
862.176	11069.67
862.498	11073.96
862.819	11042.55
863.14	10942.44
863.461	10847.98
863.782	10909.67
864.103	10965.94
864.424	10868.32
864.745	10852.5
865.065	10838.26
865.386	10746.74
865.707	10751.48
866.027	10759.62
866.348	10731.82
866.668	10765.49
866.989	10689.11
867.309	10566.18
867.63	10620.64
867.95	10652.5
868.27	10592.62
868.59	10591.71
868.91	10593.52
869.23	10563.69
869.55	10534.54
869.87	10546.74
870.19	10523.69
870.51	10569.11
870.83	10488.21
871.15	10402.79
871.469	10378.84
871.789	10412.96
872.109	10417.48
872.428	10421.77
872.748	10363.7
873.067	10322.79
873.386	10354.43
873.706	10327.77
874.025	10305.62
874.344	10252.51
874.663	10281.44
874.982	10236.47
875.301	10204.6
875.62	10227.88
875.939	10226.75
876.258	10201.67
876.577	10175.68
876.896	10102.01
877.214	10112.4
877.533	10146.75
877.852	10121.44
878.17	10159.86
878.489	10078.28
878.807	10046.42
879.125	10001.67
879.444	10020.88
879.762	9976.14
880.08	9988.11
880.398	9960.77
880.716	9947.44
881.034	9877.61
881.352	9903.14
881.67	9843.48
881.988	9848.68
882.306	9869.47
882.624	9860.21
882.941	9759.87
883.259	9737.72
883.577	9714.67
883.894	9691.85
884.212	9723.26
884.529	9673.77
884.846	9621.34
885.164	9599.65
885.481	9591.29
885.798	9576.6
886.115	9536.83
886.432	9559.42
886.75	9501.35
887.067	9442.82
887.383	9430.61
887.7	9440.78
888.017	9424.96
888.334	9472.42
888.651	9345.19
888.967	9401.24
889.284	9289.37
889.6	9307.68
889.917	9192.2
890.233	9289.83
890.55	9177.06
890.866	9187.23
891.182	9129.15
891.498	9155.14
891.815	9090.74
892.131	9107.68
892.447	9048.02
892.763	9041.92
893.079	8995.37
893.395	8999.66
893.71	9022.71
894.026	8985.43
894.342	8969.61
894.657	8836.28
894.973	8824.75
895.289	8863.17
895.604	8839.22
895.92	8744.3
896.235	8687.13
896.55	8711.99
896.865	8674.7
897.181	8660.92
897.496	8670.86
897.811	8553.8
898.126	8528.26
898.441	8522.84
898.756	8504.31
899.071	8450.53
899.386	8430.41
899.7	8415.05
900.015	8379.57
900.33	8284.43
900.644	8282.4
900.959	8367.59
901.273	8281.94
901.588	8216.41
901.902	8197.88
902.216	8174.83
902.531	8137.77
902.845	8053.93
903.159	8063.19
903.473	8040.59
903.787	8044.89
904.101	7900.26
904.415	7965.34
904.729	7927.6
905.042	7887.38
905.356	7896.42
905.67	7864.78
905.984	7892.57
906.297	7809.64
906.611	7695.74
906.924	7792.24
907.237	7738.91
907.551	7634.73
907.864	7662.75
908.177	7621.17
908.491	7611
908.804	7533.94
909.117	7529.65
909.43	7472.7
909.743	7453.94
910.056	7426.6
910.368	7339.82
910.681	7379.59
910.994	7332.36
911.307	7307.96
911.619	7249.65
911.932	7222.08
912.244	7166.04
912.557	7162.65
912.869	7165.14
913.181	7118.36
913.494	7099.38
913.806	7084.91
914.118	7052.15
914.43	7027.96
914.742	6973.5
915.054	6987.06
915.366	6906.16
915.678	6866.61
915.99	6880.4
916.302	6850.34
916.613	6809.67
916.925	6838.59
917.236	6764.92
917.548	6737.13
917.859	6746.16
918.171	6687.41
918.482	6651.7
918.794	6585.94
919.105	6615.77
919.416	6550.92
919.727	6562.44
920.038	6508.88
920.349	6514.98
920.66	6444.7
920.971	6448.77
921.282	6453.06
921.593	6368.32
921.903	6327.42
922.214	6358.83
922.525	6298.72
922.835	6278.61
923.146	6315.44
923.456	6187.76
923.767	6183.02
924.077	6218.49
924.387	6144.6
924.697	6131.04
925.008	6075.9
925.318	6081.1
925.628	6015.34
925.938	6026.18
926.248	5987.54
926.558	5994.32
926.867	5951.61
927.177	5930.37
927.487	5911.84
927.796	5852.4
928.106	5841.1
928.416	5815.79
928.725	5844.04
929.034	5759.07
929.344	5800.43
929.653	5733.99
929.962	5720.43
930.271	5649.7
930.581	5643.82
930.89	5578.29
931.199	5562.47
931.508	5564.95
931.817	5522.69
932.125	5518.63
932.434	5497.16
932.743	5455.58
933.051	5480.89
933.36	5411.96
933.669	5420.32
933.977	5389.82
934.286	5396.14
934.594	5329.7
934.902	5289.03
935.21	5244.28
935.519	5227.11
935.827	5242.93
936.135	5230.05
936.443	5187.79
936.751	5159.77
937.059	5119.09
937.367	5074.34
937.674	5158.41
937.982	5068.24
938.29	5071.63
938.597	5059.66
938.905	4985.08
939.213	5040.67
939.52	4979.43
939.827	4970.84
940.135	4988.47
940.442	4935.36
940.749	4928.36
941.056	4916.38
941.363	4826.67
941.67	4833.22
941.977	4766.33
942.284	4818.31
942.591	4770.4
942.898	4748.02
943.205	4776.72
943.511	4697.63
943.818	4674.81
944.125	4650.63
944.431	4633.9
944.738	4637.29
945.044	4625.77
945.35	4618.31
945.657	4555.71
945.963	4546.45
946.269	4525.66
946.575	4530.18
946.881	4494.02
947.187	4456.51
947.493	4440.46
947.799	4431.2
948.105	4444.76
948.41	4387.81
948.716	4378.09
949.022	4339.9
949.327	4336.96
949.633	4304.19
949.938	4346.91
950.244	4327.92
950.549	4196.85
950.854	4220.81
951.16	4214.03
951.465	4210.41
951.77	4231.65
952.075	4168.61
952.38	4154.59
952.685	4160.02
952.99	4085.67
953.294	4112.11
953.599	4070.75
953.904	4058.1
954.209	4030.3
954.513	4045.44
954.818	4022.39
955.122	4035.73
955.426	3974.71
955.731	4010.19
956.035	3927.26
956.339	3957.54
956.643	3912.34
956.948	3909.85
957.252	3885.22
957.556	3910.76
957.86	3849.29
958.163	3847.48
958.467	3804.55
958.771	3780.82
959.075	3796.19
959.378	3792.57
959.682	3768.62
959.985	3747.15
960.289	3736.07
960.592	3688.39
960.896	3668.05
961.199	3695.62
961.502	3657.21
961.805	3604.33
962.108	3560.26
962.411	3614.72
962.714	3598
963.017	3586.25
963.32	3585.57
963.623	3539.47
963.926	3559.13
964.228	3486.14
964.531	3510.77
964.833	3523.65
965.136	3469.64
965.438	3472.58
965.741	3427.83
966.043	3443.2
966.345	3422.18
966.648	3407.95
966.95	3373.37
967.252	3343.32
967.554	3346.71
967.856	3329.76
968.158	3296.99
968.46	3307.38
968.761	3302.19
969.063	3247.27
969.365	3249.53
969.666	3258.8
969.968	3195.98
970.269	3191.91
970.571	3169.99
970.872	3179.93
971.174	3214.96
971.475	3167.05
971.776	3171.12
972.077	3088.41
972.378	3129.76
972.679	3097.9
972.98	3102.42
973.281	3061.52
973.582	3095.19
973.883	2999.82
974.183	3033.27
974.484	3027.39
974.785	3004.79
975.085	3005.47
975.386	2973.38
975.686	2992.36
975.986	2972.48
976.287	2931.8
976.587	2887.28
976.887	2955.98
977.187	2916.21
977.487	2852.93
977.787	2889.32
978.087	2852.48
978.387	2871.46
978.687	2857.68
978.987	2841.18
979.286	2828.75
979.586	2815.65
979.885	2792.14
980.185	2776.78
980.484	2792.14
980.784	2748.08
981.083	2764.57
981.382	2732.03
981.682	2692.03
981.981	2723.67
982.28	2711.02
982.579	2699.49
982.878	2681.86
983.177	2676.21
983.475	2636.89
983.774	2647.74
984.073	2642.54
984.372	2607.52
984.67	2596.44
984.969	2596.44
985.267	2601.87
985.566	2569.78
985.864	2537.91
986.162	2544.02
986.461	2538.82
986.759	2533.62
987.057	2482.1
987.355	2516.22
987.653	2484.36
987.951	2464.47
988.249	2483
988.547	2461.98
988.844	2485.03
989.142	2457.92
989.44	2408.2
989.737	2434.19
990.035	2365.71
990.332	2375.66
990.63	2390.57
990.927	2371.82
991.224	2378.82
991.521	2359.61
991.819	2345.83
992.116	2337.01
992.413	2317.35
992.71	2293.63
993.006	2304.25
993.303	2298.37
993.6	2278.26
993.897	2231.71
994.193	2272.84
994.49	2247.98
994.787	2206.62
995.083	2196.68
995.379	2224.25
995.676	2203.01
995.972	2199.17
996.268	2176.79
996.565	2200.07
996.861	2171.6
997.157	2140.18
997.453	2151.03
997.749	2116.91
998.044	2132.95
998.34	2112.61
998.636	2107.64
998.932	2116.23
999.227	2070.13
999.523	2059.73
999.818	2067.64
1000.114	2033.29
1000.409	2042.11
1000.704	2002.79
1001	2039.17
1001.295	2028.55
1001.59	1992.84
1001.885	1985.16
1002.18	1995.33
1002.475	1961.21
1002.77	1963.69
1003.065	1913.75
1003.359	1944.26
1003.654	1917.14
1003.949	1914.65
1004.243	1864.71
1004.538	1869.68
1004.832	1855.67
1005.127	1853.64
1005.421	1871.49
1005.715	1844.37
1006.009	1837.59
1006.304	1835.11
1006.598	1825.62
1006.892	1821.77
1007.186	1812.51
1007.48	1799.63
1007.773	1766.63
1008.067	1778.39
1008.361	1765.05
1008.655	1756.01
1008.948	1749.91
1009.242	1723.92
1009.535	1727.09
1009.829	1715.34
1010.122	1720.99
1010.415	1691.16
1010.708	1691.61
1011.001	1648.67
1011.295	1662
1011.588	1647.09
1011.881	1668.56
1012.173	1637.82
1012.466	1638.05
1012.759	1616.36
1013.052	1608.22
1013.344	1593.08
1013.637	1596.24
1013.93	1549.01
1014.222	1558.28
1014.514	1544.95
1014.807	1563.48
1015.099	1536.36
1015.391	1556.02
1015.683	1526.64
1015.976	1518.51
1016.268	1506.08
1016.56	1503.36
1016.851	1492.07
1017.143	1509.24
1017.435	1439.41
1017.727	1446.42
1018.018	1478.51
1018.31	1443.48
1018.602	1436.02
1018.893	1440.32
1019.185	1412.07
1019.476	1388.57
1019.767	1415.68
1020.058	1408
1020.35	1400.54
1020.641	1364.84
1020.932	1353.76
1021.223	1332.75
1021.514	1347.89
1021.804	1338.4
1022.095	1341.11
1022.386	1346.53
1022.677	1307.66
1022.967	1321.67
1023.258	1328
1023.548	1279.87
1023.839	1290.49
1024.129	1283.48
1024.419	1262.69
1024.709	1272.18
1025	1265.4
1025.29	1205.07
1025.58	1223.15
1025.87	1227.89
1026.16	1225.86
1026.449	1230.15
1026.739	1205.97
1027.029	1198.74
1027.319	1196.25
1027.608	1194.45
1027.898	1186.99
1028.187	1161.45
1028.477	1165.29
1028.766	1140.66
1029.055	1128.91
1029.344	1151.96
1029.634	1121.23
1029.923	1119.65
1030.212	1097.73
1030.501	1100.66
1030.79	1083.71
1031.078	1092.08
1031.367	1081.91
1031.656	1086.2
1031.945	1049.14
1032.233	1061.57
1032.522	1046.65
1032.81	1051.85
1033.099	1026.99
1033.387	1041.23
1033.675	1080.55
1033.963	1014.79
1034.251	1029.03
1034.54	1000.55
1034.828	1003.49
1035.116	1017.5
1035.403	996.49
1035.691	997.16
1035.979	963.04
1036.267	956.49
1036.554	964.85
1036.842	984.51
1037.129	953.77
1037.417	975.02
1037.704	951.97
1037.992	931.18
1038.279	931.4
1038.566	916.49
1038.853	916.49
1039.14	916.49
