Data from hue_290_FLMS001491_00080.txt Node
Date: Tue Feb 07 15:53:14 GMT 2017
User: dcchb
Spectrometer: FLMS00149
Trigger mode: 0
Integration Time (sec): 2.000000E-2
Scans to average: 10
Electric dark correction enabled: true
Nonlinearity correction enabled: false
Boxcar width: 0
XAxis mode: Wavelengths
Number of Pixels in Spectrum: 2048
>>>>>Begin Spectral Data<<<<<
341.393	-4.59
341.776	-4.59
342.16	-4.59
342.543	-62.44
342.927	-69.9
343.31	-47.08
343.693	-66.28
344.077	-60.41
344.46	-72.39
344.843	-43.46
345.226	-54.53
345.61	-30.8
345.993	-21.09
346.376	-27.19
346.759	10.78
347.142	30.89
347.525	31.57
347.908	49.87
348.291	75.86
348.674	103.43
349.057	120.83
349.44	120.6
349.823	152.02
350.206	144.78
350.588	202.18
350.971	206.48
351.354	215.52
351.737	209.42
352.119	228.85
352.502	246.25
352.884	250.77
353.267	280.37
353.65	287.38
354.032	286.93
354.414	297.1
354.797	294.84
355.179	313.14
355.562	309.98
355.944	301.39
356.326	315.63
356.709	315.63
357.091	327.15
357.473	334.38
357.855	338.9
358.238	337.77
358.62	332.58
359.002	314.27
359.384	360.37
359.766	323.76
360.148	326.25
360.53	341.39
360.912	334.38
361.294	327.83
361.676	347.94
362.057	331.67
362.439	326.7
362.821	308.17
363.203	340.49
363.584	326.7
363.966	320.6
364.348	321.5
364.729	301.62
365.111	316.08
365.493	295.51
365.874	319.24
366.256	312.46
366.637	317.44
367.019	305.46
367.4	324.21
367.781	298.23
368.163	315.18
368.544	298.45
368.925	326.25
369.306	315.63
369.688	312.92
370.069	300.71
370.45	308.17
370.831	306.59
371.212	323.08
371.593	322.86
371.974	298.23
372.355	302.52
372.736	298.68
373.117	306.14
373.498	307.27
373.879	323.76
374.26	308.17
374.641	292.35
375.021	289.41
375.402	303.88
375.783	317.21
376.163	311.11
376.544	326.93
376.925	312.24
377.305	325.8
377.686	320.37
378.066	339.81
378.447	324.21
378.827	329.64
379.208	310.88
379.588	338.68
379.968	332.8
380.349	334.61
380.729	337.77
381.109	318.79
381.489	330.09
381.87	324.21
382.25	330.09
382.63	321.05
383.01	324.89
383.39	338
383.77	318.34
384.15	343.42
384.53	331.22
384.91	340.71
385.29	316.31
385.67	351.33
386.049	341.39
386.429	341.62
386.809	339.58
387.189	345.91
387.568	350.65
387.948	362.86
388.328	364.67
388.707	381.16
389.087	369.64
389.466	354.27
389.846	369.64
390.225	368.73
390.605	368.73
390.984	374.61
391.363	323.76
391.743	374.83
392.122	365.57
392.501	362.41
392.881	367.83
393.26	361.28
393.639	367.83
394.018	363.54
394.397	380.71
394.776	387.26
395.155	375.06
395.534	369.64
395.913	387.72
396.292	405.57
396.671	359.47
397.05	391.56
397.429	408.51
397.808	382.74
398.186	375.29
398.565	386.36
398.944	397.21
399.323	390.88
399.701	385.23
400.08	414.16
400.458	398.56
400.837	415.51
401.215	430.88
401.594	404.66
401.972	399.01
402.351	427.71
402.729	433.82
403.107	423.87
403.486	456.64
403.864	450.76
404.242	467.71
404.62	440.82
404.999	445.34
405.377	439.01
405.755	444.89
406.133	463.42
406.511	453.25
406.889	468.17
407.267	452.35
407.645	465.23
408.023	477.88
408.401	473.82
408.779	493.48
409.156	482.18
409.534	493.93
409.912	497.77
410.29	486.92
410.667	526.02
411.045	542.51
411.422	511.55
411.8	513.81
412.178	549.75
412.555	563.08
412.933	516.98
413.31	555.4
413.687	561.04
414.065	595.62
414.442	559.01
414.819	586.35
415.197	595.85
415.574	599.01
415.951	614.38
416.328	625.22
416.705	614.83
417.082	634.26
417.46	632.46
417.837	674.94
418.214	646.47
418.591	683.53
418.967	652.57
419.344	676.07
419.721	695.28
420.098	695.96
420.475	695.96
420.852	704.54
421.228	715.39
421.605	728.72
421.982	722.4
422.358	728.5
422.735	762.4
423.111	758.78
423.488	768.95
423.864	774.37
424.241	783.64
424.617	813.02
424.994	831.09
425.37	829.29
425.746	810.3
426.123	822.05
426.499	845.56
426.875	843.3
427.251	862.05
427.627	870.19
428.003	871.32
428.379	887.14
428.756	908.38
429.132	899.57
429.507	934.14
429.883	924.88
430.259	959.68
430.635	975.27
431.011	950.64
431.387	991.77
431.763	974.59
432.138	1007.13
432.514	1004.65
432.89	1005.78
433.265	1070.41
433.641	1059.79
434.016	1079.68
434.392	1070.64
434.767	1103.18
435.143	1128.94
435.518	1122.84
435.894	1132.78
436.269	1135.27
436.644	1184.76
437.02	1182.05
437.395	1158.54
437.77	1197.19
438.145	1190.63
438.52	1224.3
438.895	1224.76
439.271	1231.99
439.646	1254.59
440.021	1240.8
440.395	1284.87
440.77	1270.63
441.145	1266.79
441.52	1289.84
441.895	1299.33
442.27	1309.05
442.645	1323.96
443.019	1332.78
443.394	1337.75
443.769	1340.23
444.143	1337.52
444.518	1387.01
444.892	1342.27
445.267	1366.22
445.641	1371.42
446.016	1386.33
446.39	1383.85
446.764	1395.82
447.139	1391.53
447.513	1411.64
447.887	1397.41
448.262	1430.63
448.636	1425.43
449.01	1445.99
449.384	1475.37
449.758	1448.03
450.132	1496.61
450.506	1464.52
450.88	1467.69
451.254	1487.35
451.628	1495.26
452.002	1516.73
452.376	1490.74
452.75	1533.9
453.123	1488.48
453.497	1535.48
453.871	1565.76
454.244	1574.35
454.618	1578.64
454.992	1601.24
455.365	1613.22
455.739	1633.11
456.112	1649.83
456.486	1634.91
456.859	1676.95
457.232	1679.21
457.606	1685.31
457.979	1693.9
458.352	1765.31
458.725	1701.13
459.099	1741.13
459.472	1771.41
459.845	1800.11
460.218	1791.29
460.591	1814.8
460.964	1802.59
461.337	1825.19
461.71	1880.11
462.083	1896.15
462.456	1880.56
462.829	1890.28
463.201	1889.82
463.574	1949.71
463.947	1925.53
464.32	1974.79
464.692	1979.09
465.065	1974.11
465.438	1988.58
465.81	2047.56
466.183	2053.89
466.555	2069.71
466.928	2085.75
467.3	2094.56
467.672	2124.39
468.045	2143.6
468.417	2172.08
468.789	2125.98
469.161	2181.79
469.534	2227.22
469.906	2229.7
470.278	2250.27
470.65	2302.92
471.022	2346.31
471.394	2356.03
471.766	2340.66
472.138	2363.71
472.51	2408.45
472.882	2431.96
473.253	2447.1
473.625	2485.51
473.997	2490.03
474.369	2530.26
474.74	2545.17
475.112	2584.95
475.484	2595.57
475.855	2632.63
476.227	2661.1
476.598	2690.25
476.97	2714.21
477.341	2799.63
477.713	2815.67
478.084	2815.45
478.455	2859.74
478.827	2897.71
479.198	2939.06
479.569	2963.47
479.94	3010.25
480.311	3013.41
480.682	3053.86
481.053	3113.97
481.424	3154.87
481.795	3197.36
482.166	3197.36
482.537	3242.33
482.908	3275.78
483.279	3306.06
483.65	3363.68
484.021	3428.31
484.391	3442.78
484.762	3483.45
485.133	3468.09
485.503	3511.02
485.874	3564.81
486.244	3581.76
486.615	3662.21
486.985	3679.15
487.356	3732.49
487.726	3764.58
488.097	3777.91
488.467	3823.33
488.837	3877.79
489.207	3907.4
489.578	3944.23
489.948	3952.59
490.318	4052.03
490.688	4030.33
491.058	4090.9
491.428	4138.8
491.798	4159.14
492.168	4195.3
492.538	4190.78
492.908	4203.21
493.278	4313.94
493.648	4287.27
494.017	4318.01
494.387	4350.32
494.757	4395.07
495.126	4431
495.496	4419.93
495.866	4443.88
496.235	4485.91
496.605	4532.69
496.974	4531.11
497.344	4562.3
497.713	4612.46
498.082	4586.25
498.452	4655.63
498.821	4624.21
499.19	4680.03
499.559	4627.15
499.928	4696.3
500.298	4751.44
500.667	4818.79
501.036	4781.05
501.405	4768.39
501.774	4781.95
502.143	4811.55
502.512	4809.52
502.88	4852.91
503.249	4841.38
503.618	4935.39
503.987	4929.97
504.356	4943.75
504.724	4969.52
505.093	4961.15
505.462	4990.08
505.83	4992.11
506.199	5068.27
506.567	5006.58
506.936	5072.34
507.304	5106.91
507.672	5108.04
508.041	5139.91
508.409	5140.59
508.777	5142.39
509.145	5201.37
509.514	5211.32
509.882	5218.55
510.25	5233.46
510.618	5249.06
510.986	5296.97
511.354	5277.08
511.722	5357.75
512.09	5402.95
512.458	5374.48
512.826	5418.32
513.193	5419.9
513.561	5402.05
513.929	5425.78
514.297	5427.58
514.664	5473.46
515.032	5519.56
515.4	5509.16
515.767	5538.99
516.135	5526.34
516.502	5500.58
516.869	5565.88
517.237	5580.35
517.604	5538.54
517.972	5606.34
518.339	5618.31
518.706	5661.02
519.073	5642.49
519.44	5686.33
519.808	5681.36
520.175	5707.58
520.542	5783.51
520.909	5786.44
521.276	5758.65
521.643	5765.65
522.009	5784.41
522.376	5833.45
522.743	5870.06
523.11	5868.48
523.477	5949.38
523.843	5999.32
524.21	6026.89
524.577	6043.61
524.943	6017.62
525.31	6051.52
525.676	6066.21
526.043	6102.14
526.409	6124.97
526.776	6222.59
527.142	6199.99
527.508	6187.56
527.874	6317.05
528.241	6313.89
528.607	6332.42
528.973	6329.93
529.339	6309.37
529.705	6426.65
530.071	6411.29
530.437	6448.8
530.803	6476.6
531.169	6484.73
531.535	6462.81
531.901	6508.68
532.267	6530.15
532.632	6564.95
532.998	6575.35
533.364	6591.17
533.73	6639.75
534.095	6704.39
534.461	6701.45
534.826	6731.96
535.192	6750.71
535.557	6789.58
535.923	6760.43
536.288	6780.32
536.653	6826.19
537.019	6755.68
537.384	6820.09
537.749	6825.29
538.114	6890.6
538.479	6854.66
538.845	6877.26
539.21	6879.07
539.575	6901.44
539.94	6897.38
540.305	6977.6
540.67	6966.07
541.034	6973.98
541.399	7056.92
541.764	6999.75
542.129	6992.51
542.494	7122.45
542.858	7051.95
543.223	7105.96
543.587	7162.23
543.952	7109.35
544.316	7180.98
544.681	7188.89
545.045	7172.85
545.41	7216.46
545.774	7216.46
546.138	7273.64
546.503	7288.1
546.867	7293.3
547.231	7336.91
547.595	7314.77
547.959	7324.71
548.324	7407.64
548.688	7388.66
549.052	7432.73
549.416	7404.25
549.779	7401.99
550.143	7461.88
550.507	7506.17
550.871	7453.97
551.235	7496.23
551.599	7588.43
551.962	7531.48
552.326	7539.17
552.689	7587.07
553.053	7562.44
553.417	7577.81
553.78	7689.22
554.143	7646.73
554.507	7688.99
554.87	7655.77
555.234	7749.78
555.597	7656.68
555.96	7697.13
556.323	7726.05
556.686	7778.03
557.05	7794.53
557.413	7838.14
557.776	7821.87
558.139	7844.02
558.502	7823.23
558.865	7888.54
559.228	7903.9
559.59	7908.42
559.953	7954.75
560.316	8019.15
560.679	7928.76
561.041	8023.9
561.404	8107.51
561.767	8129.89
562.129	8065.93
562.492	8167.85
562.854	8098.7
563.217	8093.73
563.579	8187.51
563.941	8142.31
564.304	8254.4
564.666	8225.02
565.028	8272.03
565.39	8278.58
565.753	8328.3
566.115	8357.9
566.477	8409.65
566.839	8361.07
567.201	8427.05
567.563	8480.38
567.925	8517.45
568.287	8514.06
568.648	8519.48
569.01	8633.37
569.372	8630.44
569.734	8612.13
570.095	8594.96
570.457	8730.77
570.819	8745.01
571.18	8791.34
571.542	8823.88
571.903	8792.24
572.265	8870.88
572.626	8890.54
572.987	8909.98
573.349	8940.94
573.71	8941.39
574.071	8963.76
574.432	9024.78
574.794	9151.1
575.155	9199.69
575.516	9148.39
575.877	9211.44
576.238	9198.11
576.599	9316.97
576.96	9364.43
577.32	9405.56
577.681	9540.02
578.042	9531.88
578.403	9541.37
578.763	9624.08
579.124	9749.05
579.485	9773.68
579.845	9880.57
580.206	9936.84
580.566	9917.63
580.927	10001.25
581.287	10165.54
581.648	10140
582.008	10281.69
582.368	10280.56
582.728	10420.9
583.089	10551.06
583.449	10654.79
583.809	10699.54
584.169	10922.81
584.529	10893.2
584.889	11101.78
585.249	11099.75
585.609	11189.92
585.969	11312.4
586.329	11435.79
586.688	11592.39
587.048	11614.31
587.408	11766.4
587.768	11904.93
588.127	12031.03
588.487	12081.19
588.846	12320.51
589.206	12442.99
589.565	12448.42
589.925	12652.93
590.284	12773.6
590.643	12884.34
591.003	12964.56
591.362	13225.8
591.721	13332.69
592.08	13513.02
592.44	13618.33
592.799	13708.5
593.158	13839.34
593.517	13989.39
593.876	14201.14
594.235	14279.1
594.593	14452.66
594.952	14546.89
595.311	14612.65
595.67	14718.41
596.029	15007.9
596.387	15108.46
596.746	15187.55
597.104	15350.26
597.463	15479.97
597.822	15627.32
598.18	15654.88
598.538	15772.85
598.897	16055.33
599.255	15950.02
599.613	16365.6
599.972	16258.26
600.33	16489.21
600.688	16498.7
601.046	16706.38
601.404	16902.54
601.762	16870.9
602.12	16973.95
602.478	17126.26
602.836	17263.2
603.194	17317.89
603.552	17414.16
603.91	17468.4
604.268	17675.85
604.625	17709.75
604.983	17787.26
605.341	17808.73
605.698	18008.5
606.056	18095.27
606.413	18164.88
606.771	18322.61
607.128	18404.42
607.485	18301.6
607.843	18500.23
608.2	18653.45
608.557	18709.27
608.914	18716.95
609.272	18978.19
609.629	18899.55
609.986	19018.19
610.343	18964.85
610.7	19364.84
611.057	19298.41
611.414	19278.52
611.771	19478.74
612.127	19609.81
612.484	19490.04
612.841	19767.32
613.198	19772.52
613.554	19702.91
613.911	19853.19
614.267	19967.31
614.624	19978.61
614.98	19906.3
615.337	20115.33
615.693	20153.07
616.05	20194.2
616.406	20293.18
616.762	20269.45
617.118	20334.08
617.475	20288.66
617.831	20551.48
618.187	20651.82
618.543	20428.09
618.899	20676
619.255	20739.72
619.611	20723
619.967	20850.91
620.323	20850.45
620.678	20842.55
621.034	20891.13
621.39	20887.52
621.746	20904.24
622.101	21137.45
622.457	20995.99
622.812	20974.52
623.168	21158.47
623.523	21180.39
623.879	21201.63
624.234	21028.75
624.589	21186.04
624.945	21193.72
625.3	21266.71
625.655	21286.15
626.01	21390.55
626.365	21270.56
626.72	21374.06
627.075	21397.56
627.43	21333.83
627.785	21331.35
628.14	21380.16
628.495	21487.5
628.85	21413.15
629.205	21337.67
629.559	21471.23
629.914	21424
630.269	21368.41
630.623	21342.42
630.978	21344.23
631.332	21438.01
631.687	21427.84
632.041	21417.67
632.396	21435.07
632.75	21326.15
633.104	21295.41
633.459	21322.08
633.813	21330.22
634.167	21330.67
634.521	21172.03
634.875	21378.58
635.229	21350.33
635.583	21135.42
635.937	21303.55
636.291	21190.78
636.645	21253.16
636.999	21187.17
637.352	21347.16
637.706	21107.17
638.06	21277.11
638.413	21176.32
638.767	21126.38
639.121	21109.43
639.474	21014.07
639.828	21153.95
640.181	21141.29
640.534	21048.87
640.888	21045.03
641.241	21076.44
641.594	20982.88
641.947	21108.98
642.301	20984.69
642.654	21063.78
643.007	21024.69
643.36	21013.16
643.713	20992.82
644.066	21117.57
644.419	20946.05
644.771	20793.28
645.124	20648.43
645.477	20617.24
645.83	20496.57
646.182	20476.23
646.535	20380.18
646.888	20461.76
647.24	20340.64
647.593	20424.7
647.945	20249.57
648.298	20325.27
648.65	20185.16
649.002	20259.51
649.355	20402.56
649.707	20388.32
650.059	20402.56
650.411	20695.88
650.763	20751.7
651.115	20879.83
651.467	20817.46
651.819	20847.06
652.171	20825.82
652.523	20726.84
652.875	20809.33
653.227	20804.13
653.578	20897.68
653.93	20853.62
654.282	20846.61
654.633	20713.06
654.985	20755.54
655.337	20818.59
655.688	20888.65
656.039	20987.4
656.391	20824.24
656.742	20831.02
657.094	20812.49
657.445	20870.12
657.796	20814.98
658.147	20934.07
658.498	20828.76
658.849	20913.73
659.2	20857.23
659.551	20797.12
659.902	20970
660.253	20817.69
660.604	20880.51
660.955	20663.79
661.306	20894.75
661.656	20835.99
662.007	20773.62
662.358	20863.34
662.708	20967.97
663.059	20863.11
663.409	20782.89
663.76	21002.77
664.11	20975.42
664.461	20921.64
664.811	20890.68
665.161	20904.46
665.511	20812.26
665.862	20915.09
666.212	20928.87
666.562	20925.71
666.912	20872.15
667.262	20915.99
667.612	20880.51
667.962	20826.27
668.312	20970.45
668.662	20945.14
669.011	20908.08
669.361	20833.51
669.711	20884.8
670.06	20894.52
670.41	20801.64
670.76	20913.73
671.109	20887.06
671.459	20825.6
671.808	20812.72
672.157	20801.64
672.507	20756.9
672.856	20736.11
673.205	20762.32
673.554	20838.7
673.904	20760.51
674.253	20835.54
674.602	20714.41
674.951	20384.7
675.3	20290.47
675.649	20621.99
675.998	20690.68
676.346	20593.29
676.695	20732.94
677.044	20505.15
677.393	20541.54
677.741	20649.33
678.09	20668.54
678.438	20619.95
678.787	20691.59
679.135	20494.31
679.484	20448.88
679.832	20475.32
680.181	20403.91
680.529	20452.5
680.877	20399.84
681.225	20224.03
681.573	20349.68
681.922	20259.74
682.27	20209.12
682.618	20178.16
682.966	20164.82
683.314	20119.4
683.661	20102.9
684.009	20067.65
684.357	19887.09
684.705	19865.4
685.053	19949.46
685.4	19918.5
685.748	19744.27
686.095	19723.93
686.443	19717.6
686.79	19727.09
687.138	19756.02
687.485	19698.62
687.832	19619.3
688.18	19678.96
688.527	19548.34
688.874	19534.33
689.221	19483.03
689.568	19433.09
689.915	19428.12
690.262	19291.85
690.609	19258.18
690.956	19124.62
691.303	19114.23
691.65	19070.61
691.997	19109.48
692.344	19036.49
692.69	18917.62
693.037	18932.09
693.383	18784.52
693.73	18769.61
694.077	18668.59
694.423	18641.7
694.769	18555.83
695.116	18476.28
695.462	18491.42
695.808	18422.27
696.155	18442.16
696.501	18359.67
696.847	18326.45
697.193	18108.83
697.539	18199.68
697.885	18061.38
698.231	18032.45
698.577	18157.42
698.923	18024.77
699.269	17896.86
699.614	17850.53
699.96	17868.39
700.306	17787.71
700.651	17804.43
700.997	17666.13
701.342	17486.7
701.688	17535.74
702.033	17569.18
702.379	17441.73
702.724	17398.12
703.069	17421.17
703.415	17166.71
703.76	17170.33
704.105	17192.92
704.45	17031.8
704.795	17076.32
705.14	16959.48
705.485	16876.55
705.83	16845.59
706.175	16789.32
706.52	16814.85
706.865	16712.71
707.209	16679.26
707.554	16646.27
707.899	16655.08
708.243	16604.24
708.588	16586.84
708.932	16455.99
709.277	16365.83
709.621	16345.49
709.966	16346.84
710.31	16380.74
710.654	16169.67
710.998	16271.82
711.342	16150.01
711.687	16047.87
712.031	16027.3
712.375	15948.89
712.719	15997.02
713.063	15933.3
713.407	15999.73
713.75	15941.88
714.094	15961.77
714.438	15827.76
714.782	15872.73
715.125	15768.1
715.469	15808.1
715.812	15681.78
716.156	15691.95
716.499	15621.89
716.843	15682.45
717.186	15562.01
717.53	15643.13
717.873	15554.32
718.216	15505.06
718.559	15582.34
718.902	15465.06
719.246	15442.91
719.589	15393.87
719.932	15282.69
720.275	15423.93
720.617	15374.89
720.96	15338.96
721.303	15316.14
721.646	15232.52
721.989	15111.62
722.331	15284.05
722.674	15227.33
723.016	15256.7
723.359	15156.37
723.701	15195.24
724.044	15054
724.386	15051.06
724.729	15065.07
725.071	15012.42
725.413	15046.09
725.755	15127.22
726.097	15029.82
726.439	14981.91
726.782	14943.04
727.124	15130.83
727.465	14976.48
727.807	14952.3
728.149	14895.81
728.491	14899.2
728.833	14915.47
729.175	14901.68
729.516	14802.25
729.858	14800.9
730.199	14840.44
730.541	14801.8
730.882	14814.68
731.224	14805.87
731.565	14761.35
731.906	14795.47
732.248	14890.84
732.589	14708.24
732.93	14721.8
733.271	14763.16
733.612	14686.32
733.953	14773.78
734.294	14665.53
734.635	14696.27
734.976	14777.85
735.317	14715.25
735.658	14675.25
735.999	14819.43
736.339	14709.83
736.68	14762.93
737.021	14685.87
737.361	14675.48
737.702	14712.08
738.042	14796.38
738.383	14765.87
738.723	14821.46
739.063	14700.79
739.404	14793.89
739.744	14674.8
740.084	14751.86
740.424	14809.03
740.764	14730.16
741.104	14869.82
741.444	14741.69
741.784	14717.28
742.124	14794.57
742.464	14752.99
742.804	14817.62
743.143	14899.2
743.483	14797.73
743.823	14868.69
744.162	14905.3
744.502	14902.81
744.841	14920.67
745.181	14953.43
745.52	14964.73
745.86	15074.79
746.199	15129.48
746.538	15194.78
746.877	15194.11
747.216	15203.82
747.556	15231.62
747.895	15301.45
748.234	15250.38
748.573	15341.45
748.911	15340.54
749.25	15476.81
749.589	15429.35
749.928	15644.72
750.267	15646.98
750.605	15672.51
750.944	15666.41
751.283	15774.88
751.621	15864.6
751.96	15959.06
752.298	16056.46
752.636	16108.66
752.975	16092.61
753.313	16190.24
753.651	16363.11
753.989	16309.56
754.327	16458.25
754.666	16470.23
755.004	16688.08
755.342	16753.61
755.679	16823.44
756.017	16861.41
756.355	17111.12
756.693	17147.95
757.031	17290.1
757.368	17264.11
757.706	17479.02
758.044	17513.59
758.381	17725.57
758.719	17731.44
759.056	17886.46
759.394	17905.22
759.731	17974.6
760.068	18022.96
760.405	18157.42
760.743	18236.74
761.08	18443.29
761.417	18396.28
761.754	18532.78
762.091	18638.99
762.428	18649.61
762.765	18747.23
763.102	18849.83
763.438	18884.18
763.775	18974.35
764.112	19036.27
764.449	19195.58
764.785	19197.84
765.122	19243.04
765.458	19252.08
765.795	19313.32
766.131	19375.01
766.467	19474.22
766.804	19521.45
767.14	19570.49
767.476	19716.02
767.812	19622.46
768.148	19716.93
768.485	19617.94
768.821	19673.76
769.157	19735.91
769.492	19697.94
769.828	19873.08
770.164	19792.63
770.5	19798.05
770.836	19903.13
771.171	19765.96
771.507	19826.07
771.842	19745.85
772.178	19804.83
772.513	19885.73
772.849	19805.06
773.184	19818.39
773.519	19953.76
773.855	19908.78
774.19	19814.78
774.525	19696.81
774.86	19733.65
775.195	19803.93
775.53	19760.77
775.865	19704.72
776.2	19638.06
776.535	19655.46
776.87	19639.19
777.205	19516.25
777.539	19543.6
777.874	19588.34
778.209	19475.8
778.543	19379.76
778.878	19342.7
779.212	19492.3
779.547	19285.3
779.881	19465.18
780.215	19281.23
780.55	19300.66
780.884	19277.39
781.218	19231.74
781.552	19269.48
781.886	19107
782.22	19064.06
782.554	19042.14
782.888	18909.94
783.222	18753.33
783.556	18689.16
783.889	18840.11
784.223	18704.97
784.557	18628.82
784.89	18654.13
785.224	18571.87
785.557	18613.9
785.891	18419.11
786.224	18359.9
786.558	18499.56
786.891	18341.14
787.224	18253.46
787.557	18205.55
787.891	18164.88
788.224	18208.94
788.557	18198.55
788.89	18123.75
789.223	18102.96
789.556	17958.78
789.888	18000.81
790.221	17915.84
790.554	17814.38
790.887	17782.51
791.219	17749.75
791.552	17632.91
791.884	17603.76
792.217	17680.14
792.549	17500.71
792.882	17437.66
793.214	17371.68
793.546	17437.21
793.879	17340.94
794.211	17187.5
794.543	17285.12
794.875	17182.08
795.207	17248.74
795.539	17137.78
795.871	17114.28
796.203	16992.48
796.535	17002.65
796.867	16988.18
797.198	16869.09
797.53	16859.15
797.862	16759.49
798.193	16822.54
798.525	16640.62
798.856	16670
799.188	16525.82
799.519	16511.13
799.85	16361.76
800.182	16446.73
800.513	16370.8
800.844	16197.7
801.175	16333.96
801.506	16334.19
801.837	16165.61
802.168	16128.54
802.499	16038.6
802.83	15981.43
803.161	15961.54
803.491	15966.06
803.822	15882.45
804.153	15782.11
804.483	15703.47
804.814	15670.7
805.145	15642.91
805.475	15686.75
805.805	15635.45
806.136	15642
806.466	15521.1
806.796	15592.51
807.126	15441.33
807.457	15373.99
807.787	15289.24
808.117	15332.41
808.447	15288.34
808.777	15311.62
809.107	15287.21
809.436	15132.86
809.766	15133.09
810.096	15214.22
810.426	15059.65
810.755	15100.32
811.085	15070.27
811.414	14965.41
811.744	14898.97
812.073	14919.54
812.403	14889.93
812.732	14786.89
813.061	14859.2
813.39	14747.56
813.719	14654.23
814.049	14757.06
814.378	14691.97
814.707	14596.83
815.036	14655.82
815.365	14475.93
815.693	14440.91
816.022	14492.43
816.351	14400.45
816.68	14345.77
817.008	14355.71
817.337	14209.5
817.665	14169.95
817.994	14258.31
818.322	14264.64
818.651	14136.28
818.979	14128.15
819.307	14172.44
819.636	14074.59
819.964	14026.68
820.292	14094.7
820.62	13990.52
820.948	13962.27
821.276	14031.65
821.604	13969.28
821.932	14021.26
822.259	14002.73
822.587	13963.4
822.915	13900.58
823.243	14019.67
823.57	13926.34
823.898	13953.69
824.225	13969.96
824.553	14060.8
824.88	13916.4
825.207	13990.3
825.535	13979.67
825.862	14002.95
826.189	13944.87
826.516	13953.46
826.843	14121.37
827.17	13980.35
827.497	14000.01
827.824	13989.17
828.151	14021.48
828.478	13892.67
828.805	14004.53
829.131	13958.21
829.458	13948.94
829.785	13881.6
830.111	13906.46
830.438	13960.92
830.764	13949.85
831.09	13900.35
831.417	13833.24
831.743	13979.45
832.069	13893.12
832.395	13866.23
832.722	13920.24
833.048	13821.71
833.374	13821.71
833.7	13732.45
834.026	13821.03
834.351	13833.46
834.677	13757.76
835.003	13852.45
835.329	13845.89
835.654	13784.65
835.98	13679.12
836.306	13661.49
836.631	13677.54
836.956	13730.19
837.282	13711.43
837.607	13618.33
837.932	13646.12
838.258	13684.77
838.583	13592.57
838.908	13533.36
839.233	13525.45
839.558	13562.51
839.883	13484.77
840.208	13388.05
840.533	13468.28
840.858	13486.81
841.182	13436.64
841.507	13381.27
841.832	13410.2
842.156	13258.11
842.481	13226.93
842.805	13336.3
843.13	13205.23
843.454	13193.25
843.778	13131.79
844.103	13048.63
844.427	13051.56
844.751	12985.35
845.075	13006.14
845.399	12951
845.723	12982.19
846.047	12941.28
846.371	12819.71
846.695	12816.99
847.019	12723.89
847.343	12656.32
847.666	12548.07
847.99	12551.24
848.313	12574.74
848.637	12468.08
848.96	12457.68
849.284	12452.03
849.607	12251.58
849.931	12332.94
850.254	12250.91
850.577	12171.59
850.9	12024.25
851.223	12100.63
851.546	12041.42
851.869	11994.64
852.192	11998.26
852.515	11899.96
852.838	11882.55
853.161	11843.91
853.483	11769.79
853.806	11761.2
854.129	11744.71
854.451	11616.57
854.774	11624.03
855.096	11575.22
855.419	11589
855.741	11553.98
856.063	11479.4
856.385	11469.23
856.708	11455.45
857.03	11367.77
857.352	11334.77
857.674	11300.88
857.996	11301.78
858.318	11220.65
858.64	11224.04
858.961	11170.03
859.283	11147.88
859.605	11092.07
859.926	11122.35
860.248	11093.65
860.57	11075.8
860.891	11043.48
861.212	10948.12
861.534	10956.03
861.855	10891.17
862.176	10911.28
862.498	10889.59
862.819	10912.18
863.14	10809.14
863.461	10848.91
863.782	10822.24
864.103	10829.02
864.424	10797.16
864.745	10739.99
865.065	10688.91
865.386	10613.66
865.707	10613.44
866.027	10665.19
866.348	10617.96
866.668	10661.34
866.989	10552.19
867.309	10534.79
867.63	10560.1
867.95	10515.59
868.27	10467.9
868.59	10558.3
868.91	10511.29
869.23	10429.71
869.55	10407.79
869.87	10506.55
870.19	10412.31
870.51	10373.44
870.83	10328.7
871.15	10377.06
871.469	10339.77
871.789	10355.82
872.109	10349.04
872.428	10300.22
872.748	10329.15
873.067	10279.66
873.386	10357.4
873.706	10277.63
874.025	10159.21
874.344	10264.97
874.663	10162.83
874.982	10163.28
875.301	10182.71
875.62	10162.37
875.939	10123.73
876.258	10054.58
876.577	10046.67
876.896	10127.35
877.214	10029.27
877.533	10074.24
877.852	10086.22
878.17	10020
878.489	10006.67
878.807	9997.41
879.125	9918.31
879.444	9917.63
879.762	9917.86
880.08	9896.39
880.398	9884.64
880.716	9975.71
881.034	9904.98
881.352	9840.8
881.67	9763.29
881.988	9831.99
882.306	9795.38
882.624	9719
882.941	9758.99
883.259	9674.48
883.577	9738.43
883.894	9689.17
884.212	9619.56
884.529	9622.28
884.846	9605.1
885.164	9616.63
885.481	9495.5
885.798	9508.15
886.115	9441.94
886.432	9469.96
886.75	9404.88
887.067	9412.34
887.383	9419.34
887.7	9475.39
888.017	9422.05
888.334	9379.57
888.651	9333.47
888.967	9327.82
889.284	9242.4
889.6	9225.9
889.917	9178.67
890.233	9194.49
890.55	9146.81
890.866	9139.8
891.182	9090.54
891.498	9051.89
891.815	9024.78
892.131	9023.65
892.447	8909.75
892.763	9010.99
893.079	8949.98
893.395	8900.26
893.71	8879.02
894.026	8877.66
894.342	8769.42
894.657	8786.14
894.973	8817.1
895.289	8772.58
895.604	8742.75
895.92	8636.31
896.235	8656.2
896.55	8597.67
896.865	8596.31
897.181	8579.59
897.496	8538.46
897.811	8527.61
898.126	8514.06
898.441	8420.95
898.756	8421.18
899.071	8397.9
899.386	8360.16
899.7	8331.24
900.015	8304.34
900.33	8228.87
900.644	8229.32
900.959	8305.7
901.273	8232.26
901.588	8151.81
901.902	8083.78
902.216	8090.11
902.531	8069.32
902.845	8028.64
903.159	8031.13
903.473	7979.38
903.787	7942.09
904.101	7906.39
904.415	7906.61
904.729	7870
905.042	7808.54
905.356	7746.62
905.67	7782.1
905.984	7816.67
906.297	7764.02
906.611	7692.83
906.924	7720.86
907.237	7685.83
907.551	7615.77
907.864	7584.81
908.177	7566.96
908.491	7576
908.804	7466.4
909.117	7476.12
909.43	7359.51
909.743	7374.65
910.056	7379.4
910.368	7301.88
910.681	7267.76
910.994	7347.98
911.307	7277.03
911.619	7172.4
911.932	7219.4
912.244	7142.79
912.557	7140.31
912.869	7053.76
913.181	7049.46
913.494	7119.06
913.806	6988.67
914.118	7007.2
914.43	6931.05
914.742	6897.38
915.054	6921.78
915.366	6845.85
915.678	6838.62
915.99	6904.61
916.302	6741.45
916.613	6786.64
916.925	6743.71
917.236	6714.1
917.548	6683.82
917.859	6680.21
918.171	6585.07
918.482	6595.46
918.794	6570.83
919.105	6538.06
919.416	6458.52
919.727	6502.58
920.038	6476.37
920.349	6438.18
920.66	6390.72
920.971	6386.43
921.282	6368.58
921.593	6312.53
921.903	6267.79
922.214	6266.21
922.525	6235.7
922.835	6190.05
923.146	6188.24
923.456	6189.6
923.767	6143.04
924.077	6125.19
924.387	6084.52
924.697	6056.95
925.008	6035.25
925.318	5996.83
925.628	6017.85
925.938	5992.99
926.248	5917.97
926.558	5905.31
926.867	5854.92
927.177	5854.24
927.487	5844.97
927.796	5804.97
928.106	5753.9
928.416	5755.71
928.725	5798.42
929.034	5716.62
929.344	5697.86
929.653	5654.92
929.962	5644.75
930.271	5617.86
930.581	5569.05
930.89	5580.12
931.199	5537.64
931.508	5554.81
931.817	5530.63
932.125	5495.38
932.434	5461.25
932.743	5444.53
933.051	5386.68
933.36	5403.63
933.669	5341.94
933.977	5342.16
934.286	5348.72
934.594	5240.7
934.902	5238.21
935.21	5256.97
935.519	5245.67
935.827	5217.19
936.135	5164.09
936.443	5155.27
936.751	5137.87
937.059	5095.84
937.367	5083.64
937.674	5083.64
937.982	5009.74
938.29	5037.31
938.597	5063.98
938.905	4985.34
939.213	4947.14
939.52	4934.71
939.827	4992.57
940.135	4937.43
940.442	4874.83
940.749	4867.82
941.056	4857.43
941.363	4834.6
941.67	4770.88
941.977	4766.36
942.284	4743.76
942.591	4799.13
942.898	4758.45
943.205	4729.3
943.511	4690.65
943.818	4657.89
944.125	4654.95
944.431	4633.48
944.738	4605.23
945.044	4556.87
945.35	4569.07
945.657	4523.65
945.963	4536.08
946.269	4520.94
946.575	4487.04
946.881	4461.51
947.187	4510.77
947.493	4427.84
947.799	4392.58
948.105	4404.33
948.41	4364.79
948.716	4383.32
949.022	4304.9
949.327	4298.35
949.633	4264.45
949.938	4267.84
950.244	4266.03
950.549	4233.72
950.854	4230.55
951.16	4194.85
951.465	4187.16
951.77	4176.54
952.075	4131.12
952.38	4088.64
952.685	4111.46
952.99	4038.47
953.294	4060.39
953.599	4063.1
953.904	4033.04
954.209	4026.04
954.513	3992.82
954.818	4014.06
955.122	3959.37
955.426	3958.47
955.731	3905.36
956.035	3933.39
956.339	3893.16
956.643	3898.13
956.948	3882.99
957.252	3827.17
957.556	3838.7
957.86	3824.24
958.163	3814.07
958.467	3791.69
958.771	3769.77
959.075	3750.79
959.378	3736.78
959.682	3760.28
959.985	3741.98
960.289	3627.4
960.592	3659.49
960.896	3673.05
961.199	3666.5
961.502	3632.83
961.805	3603.22
962.108	3528.42
962.411	3578.82
962.714	3538.14
963.017	3530.91
963.32	3547.41
963.623	3545.37
963.926	3530.23
964.228	3448.65
964.531	3455.66
964.833	3474.19
965.136	3399.16
965.438	3439.16
965.741	3386.06
966.043	3371.82
966.345	3358.94
966.648	3369.11
966.95	3344.47
967.252	3330.46
967.554	3347.41
967.856	3322.1
968.158	3277.58
968.46	3277.81
968.761	3283.68
969.063	3244.36
969.365	3228.77
969.666	3210.01
969.968	3206.4
970.269	3180.86
970.571	3160.75
970.872	3140.41
971.174	3155.78
971.475	3135.67
971.776	3146.29
972.077	3108.77
972.378	3085.05
972.679	3027.42
972.98	3058.15
973.281	3084.82
973.582	3028.32
973.883	3035.33
974.183	3033.97
974.484	3005.73
974.785	3013.18
975.085	3032.17
975.386	2977.48
975.686	2952.85
975.986	2917.14
976.287	2930.02
976.587	2902.9
976.887	2883.92
977.187	2890.25
977.487	2836.46
977.787	2870.59
978.087	2837.14
978.387	2815.67
978.687	2833.3
978.987	2818.84
979.286	2756.47
979.586	2793.08
979.885	2775.22
980.185	2789.91
980.484	2730.03
980.784	2746.3
981.083	2719.86
981.382	2724.83
981.682	2710.82
981.981	2682.57
982.28	2694.77
982.579	2647.77
982.878	2652.06
983.177	2648.22
983.475	2629.69
983.774	2605.51
984.073	2583.82
984.372	2577.71
984.67	2598.96
984.969	2568.45
985.267	2553.76
985.566	2528
985.864	2551.27
986.162	2518.28
986.461	2488.68
986.759	2556.7
987.057	2499.98
987.355	2460.43
987.653	2461.79
987.951	2466.53
988.249	2471.5
988.547	2443.93
988.844	2423.59
989.142	2413.2
989.44	2379.3
989.737	2398.06
990.035	2391.73
990.332	2349.25
990.63	2349.92
990.927	2370.49
991.224	2325.52
991.521	2322.13
991.819	2325.74
992.116	2311.73
992.413	2287.33
992.71	2277.61
993.006	2248.91
993.303	2251.17
993.6	2245.52
993.897	2227.44
994.193	2243.94
994.49	2220.44
994.787	2210.27
995.083	2217.05
995.379	2178.86
995.676	2173.43
995.972	2182.92
996.268	2177.27
996.565	2155.58
996.861	2118.52
997.157	2131.62
997.453	2079.42
997.749	2114.9
998.044	2079.2
998.34	2071.74
998.636	2086.88
998.932	2059.54
999.227	2026.77
999.523	2014.79
999.818	2026.09
1000.114	2015.24
1000.409	2011.85
1000.704	1965.53
1001	2001.46
1001.295	1968.69
1001.59	1977.05
1001.885	1963.72
1002.18	1932.76
1002.475	1926.43
1002.77	1932.76
1003.065	1916.49
1003.359	1882.14
1003.654	1859.32
1003.949	1871.74
1004.243	1855.25
1004.538	1847.11
1004.832	1859.32
1005.127	1819.09
1005.421	1823.84
1005.715	1811.18
1006.009	1798.53
1006.304	1793.33
1006.598	1789.03
1006.892	1778.64
1007.186	1793.33
1007.48	1787.23
1007.773	1759.66
1008.067	1713.56
1008.361	1718.53
1008.655	1701.81
1008.948	1721.01
1009.242	1704.52
1009.535	1678.98
1009.829	1651.41
1010.122	1667
1010.415	1666.33
1010.708	1658.42
1011.001	1641.92
1011.295	1624.07
1011.588	1653.67
1011.881	1632.65
1012.173	1600.57
1012.466	1617.29
1012.759	1584.75
1013.052	1612.09
1013.344	1574.13
1013.637	1557.4
1013.93	1540.68
1014.222	1539.78
1014.514	1548.59
1014.807	1526.22
1015.099	1511.75
1015.391	1506.56
1015.683	1487.35
1015.976	1478.99
1016.268	1487.35
1016.56	1475.14
1016.851	1469.27
1017.143	1441.02
1017.435	1464.52
1017.727	1420.68
1018.018	1400.8
1018.31	1432.43
1018.602	1422.72
1018.893	1406.22
1019.185	1397.41
1019.476	1388.59
1019.767	1378.65
1020.058	1361.48
1020.35	1358.09
1020.641	1338.2
1020.932	1344.75
1021.223	1328.26
1021.514	1306.56
1021.804	1316.96
1022.095	1314.7
1022.386	1328.48
1022.677	1285.09
1022.967	1272.66
1023.258	1280.57
1023.548	1262.95
1023.839	1275.15
1024.129	1196.96
1024.419	1212.55
1024.709	1183.18
1025	1228.15
1025.29	1221.59
1025.58	1208.71
1025.87	1182.95
1026.16	1197.19
1026.449	1188.37
1026.739	1166.68
1027.029	1189.28
1027.319	1174.14
1027.608	1162.84
1027.898	1152.44
1028.187	1128.71
1028.477	1109.05
1028.766	1131.43
1029.055	1127.81
1029.344	1131.2
1029.634	1103.63
1029.923	1100.47
1030.212	1102.05
1030.501	1083.29
1030.79	1077.19
1031.078	1086.68
1031.367	1062.05
1031.656	1072.9
1031.945	1070.86
1032.233	1041.26
1032.522	1026.34
1032.81	1058.43
1033.099	1034.03
1033.387	1031.54
1033.675	1029.73
1033.963	1010.75
1034.251	990.41
1034.54	996.29
1034.828	974.82
1035.116	972.79
1035.403	963.97
1035.691	973.01
1035.979	966.46
1036.267	972.79
1036.554	952.45
1036.842	940.92
1037.129	936.18
1037.417	917.87
1037.704	913.35
1037.992	897.31
1038.279	919.23
1038.566	900.7
1038.853	900.7
1039.14	900.7
