Data from hue_110_FLMS001491_00071.txt Node
Date: Tue Feb 07 17:01:47 GMT 2017
User: dcchb
Spectrometer: FLMS00149
Trigger mode: 0
Integration Time (sec): 2.000000E-2
Scans to average: 10
Electric dark correction enabled: true
Nonlinearity correction enabled: false
Boxcar width: 0
XAxis mode: Wavelengths
Number of Pixels in Spectrum: 2048
>>>>>Begin Spectral Data<<<<<
341.393	-6.72
341.776	-6.72
342.16	-6.72
342.543	-75.65
342.927	-64.35
343.31	-78.36
343.693	-68.19
344.077	-41.07
344.46	-65.93
344.843	-48.98
345.226	-39.94
345.61	-43.11
345.993	-13.5
346.376	-5.82
346.759	23.11
347.142	20.62
347.525	39.15
347.908	73.05
348.291	72.82
348.674	91.81
349.057	84.35
349.44	130
349.823	148.75
350.206	158.92
350.588	190.33
350.971	192.82
351.354	235.53
351.737	241.86
352.119	242.99
352.502	239.37
352.884	269.65
353.267	270.56
353.65	291.35
354.032	286.38
354.414	330.67
354.797	324.34
355.179	341.97
355.562	333.38
355.944	333.38
356.326	344.23
356.709	341.97
357.091	327.51
357.473	325.92
357.855	348.3
358.238	331.35
358.62	324.57
359.002	346.94
359.384	348.75
359.766	364.11
360.148	340.39
360.53	333.61
360.912	353.72
361.294	344.23
361.676	334.51
362.057	355.75
362.439	340.84
362.821	322.76
363.203	314.62
363.584	329.54
363.966	333.16
364.348	326.38
364.729	326.83
365.111	306.49
365.493	320.95
365.874	322.08
366.256	321.86
366.637	309.43
367.019	320.05
367.4	329.09
367.781	309.43
368.163	318.47
368.544	311.23
368.925	316.21
369.306	342.65
369.688	348.75
370.069	320.5
370.45	315.3
370.831	329.77
371.212	313.72
371.593	327.28
371.974	319.6
372.355	322.31
372.736	329.09
373.117	318.69
373.498	291.57
373.879	315.98
374.26	330.67
374.641	328.18
375.021	320.73
375.402	341.06
375.783	328.18
376.163	308.75
376.544	316.66
376.925	321.18
377.305	332.7
377.686	336.54
378.066	322.76
378.447	337
378.827	336.09
379.208	319.6
379.588	330.44
379.968	349.65
380.349	354.62
380.729	351.23
381.109	335.41
381.489	345.36
381.87	354.85
382.25	344.91
382.63	355.98
383.01	353.95
383.39	358.24
383.77	340.84
384.15	339.03
384.53	337.9
384.91	352.59
385.29	389.88
385.67	372.93
386.049	355.75
386.429	345.58
386.809	388.52
387.189	381.97
387.568	369.76
387.948	368.18
388.328	380.61
388.707	388.07
389.087	383.78
389.466	398.92
389.846	379.03
390.225	381.52
390.605	367.96
390.984	383.1
391.363	371.12
391.743	395.75
392.122	394.4
392.501	404.57
392.881	408.18
393.26	364.79
393.639	372.7
394.018	382.65
394.397	381.06
394.776	399.59
395.155	379.03
395.534	419.48
395.913	397.56
396.292	399.59
396.671	408.63
397.05	429.2
397.429	402.98
397.808	403.44
398.186	428.97
398.565	434.4
398.944	406.6
399.323	434.85
399.701	425.81
400.08	431.91
400.458	408.18
400.837	426.26
401.215	426.94
401.594	424.68
401.972	433.72
402.351	447.73
402.729	427.16
403.107	436.88
403.486	455.64
403.864	433.94
404.242	451.34
404.62	453.15
404.999	463.32
405.377	443.89
405.755	445.02
406.133	457.22
406.511	466.26
406.889	459.93
407.267	445.24
407.645	471.91
408.023	485.02
408.401	475.98
408.779	494.51
409.156	499.03
409.534	479.14
409.912	476.2
410.29	501.96
410.667	494.51
411.045	500.61
411.422	503.55
411.8	517.78
412.178	513.49
412.555	527.05
412.933	518.23
413.31	520.27
413.687	499.25
414.065	521.62
414.442	541.74
414.819	536.31
415.197	540.61
415.574	553.94
415.951	553.49
416.328	537.67
416.705	544.67
417.082	556.88
417.46	578.12
417.837	552.81
418.214	562.53
418.591	572.92
418.967	586.26
419.344	571.34
419.721	588.29
420.098	565.24
420.475	584.67
420.852	593.49
421.228	606.14
421.605	613.37
421.982	586.93
422.358	591.45
422.735	610.44
423.111	611.57
423.488	617.89
423.864	622.41
424.241	635.97
424.617	618.12
424.994	619.93
425.37	638.91
425.746	638.91
426.123	654.05
426.499	652.02
426.875	682.3
427.251	653.15
427.627	666.48
428.003	646.82
428.379	686.82
428.756	696.31
429.132	696.31
429.507	708.96
429.883	716.65
430.259	717.1
430.635	739.25
431.011	738.34
431.387	741.96
431.763	729.3
432.138	765.46
432.514	734.95
432.89	734.73
433.265	780.37
433.641	783.54
434.016	763.88
434.392	784.44
434.767	826.7
435.143	806.81
435.518	810.88
435.894	809.98
436.269	798.45
436.644	827.83
437.02	833.03
437.395	822.86
437.77	854.72
438.145	848.85
438.52	837.55
438.895	856.98
439.271	893.59
439.646	880.49
440.021	900.82
440.395	898.56
440.77	885.68
441.145	911.67
441.52	916.19
441.895	919.13
442.27	899.69
442.645	913.03
443.019	949.86
443.394	941.05
443.769	948.51
444.143	970.88
444.518	975.62
444.892	958
445.267	981.27
445.641	961.39
446.016	972.01
446.39	976.3
446.764	976.08
447.139	990.76
447.513	1011.56
447.887	1023.31
448.262	1007.04
448.636	1026.02
449.01	1032.57
449.384	1026.02
449.758	1077.54
450.132	1064.89
450.506	1055.62
450.88	1064.44
451.254	1089.75
451.628	1083.19
452.002	1099.46
452.376	1090.42
452.75	1116.64
453.123	1109.18
453.497	1149.86
453.871	1147.82
454.244	1159.8
454.618	1171.1
454.992	1213.36
455.365	1199.8
455.739	1220.82
456.112	1239.57
456.486	1254.71
456.859	1256.97
457.232	1282.96
457.606	1295.39
457.979	1299.01
458.352	1357.08
458.725	1334.03
459.099	1328.38
459.472	1364.09
459.845	1408.38
460.218	1404.99
460.591	1411.32
460.964	1438.66
461.337	1455.16
461.71	1498.1
462.083	1505.55
462.456	1499.68
462.829	1531.32
463.201	1531.77
463.574	1560.92
463.947	1553.46
464.32	1644.31
464.692	1636.85
465.065	1651.99
465.438	1675.94
465.81	1685.44
466.183	1724.3
466.555	1763.17
466.928	1746.23
467.3	1757.3
467.672	1806.34
468.045	1877.75
468.417	1871.42
468.789	1925.2
469.161	1931.31
469.534	1945.32
469.906	2006.78
470.278	2012.21
470.65	2055.37
471.022	2110.96
471.394	2117.97
471.766	2177.4
472.138	2246.78
472.51	2264.4
472.882	2291.52
473.253	2369.26
473.625	2371.52
473.997	2459.88
474.369	2484.06
474.74	2553.66
475.112	2619.42
475.484	2658.07
475.855	2714.79
476.227	2762.47
476.598	2865.29
476.97	2870.49
477.341	3003.59
477.713	3067.77
478.084	3089.92
478.455	3250.14
478.827	3249.91
479.198	3414.43
479.569	3450.36
479.94	3512.73
480.311	3626.4
480.682	3785.72
481.053	3858.71
481.424	3967.86
481.795	4058.71
482.166	4123.56
482.537	4269.77
482.908	4365.14
483.279	4484.91
483.65	4659.37
484.021	4716.09
484.391	4835.41
484.762	4965.12
485.133	5021.62
485.503	5147.27
485.874	5304.32
486.244	5465.9
486.615	5585.22
486.985	5738.21
487.356	5866.12
487.726	5990.41
488.097	6191.31
488.467	6226.79
488.837	6404.41
489.207	6595.36
489.578	6744.51
489.948	6920.55
490.318	7036.71
490.688	7111.28
491.058	7306.98
491.428	7478.96
491.798	7697.93
492.168	7892.05
492.538	7966.17
492.908	8131.14
493.278	8330.23
493.648	8445.94
494.017	8657.68
494.387	8738.36
494.757	8854.96
495.126	9051.12
495.496	9143.54
495.866	9215.86
496.235	9421.5
496.605	9527.04
496.974	9674.83
497.344	9821.27
497.713	9999.57
498.082	10079.34
498.452	10220.13
498.821	10341.71
499.19	10453.11
499.559	10625.09
499.928	10736.5
500.298	10860.11
500.667	10948.02
501.036	11049.03
501.405	11179.2
501.774	11209.48
502.143	11427.1
502.512	11456.93
502.88	11702.8
503.249	11694.44
503.618	11788.9
503.987	11884.26
504.356	11931.72
504.724	12047.42
505.093	12112.51
505.462	12251.26
505.83	12339.85
506.199	12444.93
506.567	12621.87
506.936	12726.5
507.304	12833.62
507.672	12800.17
508.041	12977.57
508.409	13025.02
508.777	13120.84
509.145	13166.49
509.514	13244.91
509.882	13420.95
510.25	13413.26
510.618	13469.31
510.986	13575.52
511.354	13679.47
511.722	13749.53
512.09	13769.86
512.458	13844.66
512.826	13933.25
513.193	13973.02
513.561	14027.71
513.929	14108.16
514.297	14246.69
514.664	14320.13
515.032	14293.69
515.4	14390.64
515.767	14467.25
516.135	14544.53
516.502	14463.18
516.869	14718.09
517.237	14554.25
517.604	14582.05
517.972	14800.57
518.339	14779.78
518.706	14850.06
519.073	14894.58
519.44	14905.43
519.808	15050.51
520.175	15033.79
520.542	15199.43
520.909	15187.23
521.276	15168.25
521.643	15351.07
522.009	15284.17
522.376	15401.91
522.743	15424.74
523.11	15447.11
523.477	15655.01
523.843	15669.02
524.21	15780.43
524.577	15799.19
524.943	15743.37
525.31	15840.32
525.676	15896.59
526.043	16038.73
526.409	15989.24
526.776	16109.92
527.142	16103.14
527.508	16061.56
527.874	16192.4
528.241	16246.86
528.607	16244.38
528.973	16355.56
529.339	16262.91
529.705	16337.93
530.071	16435.1
530.437	16378.83
530.803	16455.67
531.169	16522.79
531.535	16278.05
531.901	16389.91
532.267	16396.24
532.632	16432.17
532.998	16401.21
533.364	16445.05
533.73	16507.87
534.095	16512.84
534.461	16525.95
534.826	16526.63
535.192	16518.27
535.557	16545.16
535.923	16511.94
536.288	16395.11
536.653	16525.95
537.019	16385.16
537.384	16388.55
537.749	16455.22
538.114	16476.46
538.479	16371.83
538.845	16349.23
539.21	16273.07
539.575	16278.95
539.94	16290.48
540.305	16367.08
540.67	16311.49
541.034	16222.45
541.399	16236.01
541.764	16234.88
542.129	16236.01
542.494	16156.92
542.858	16284.15
543.223	16138.84
543.587	16049.58
543.952	16034.66
544.316	16054.1
544.681	16009.81
545.045	16042.8
545.41	16013.87
545.774	15989.92
546.138	15953.08
546.503	15873.54
546.867	15845.74
547.231	15912.41
547.595	15879.19
547.959	15861.79
548.324	15834.67
548.688	15814.78
549.052	15815.91
549.416	15686.42
549.779	15748.57
550.143	15638.52
550.507	15778.17
550.871	15768.23
551.235	15616.37
551.599	15669.47
551.962	15680.55
552.326	15712.86
552.689	15713.99
553.053	15534.56
553.417	15573.43
553.78	15737.5
554.143	15577.73
554.507	15569.59
554.87	15553.09
555.234	15603.26
555.597	15447.11
555.96	15570.95
556.323	15467.22
556.686	15440.33
557.05	15533.43
557.413	15565.3
557.776	15467.9
558.139	15613.43
558.502	15549.03
558.865	15457.5
559.228	15558.97
559.59	15441.23
559.953	15566.65
560.316	15556.94
560.679	15585.41
561.041	15577.5
561.404	15687.55
561.767	15650.27
562.129	15579.08
562.492	15681.23
562.854	15638.06
563.217	15554.68
563.579	15596.03
563.941	15637.39
564.304	15769.13
564.666	15793.09
565.028	15803.93
565.39	15747.89
565.753	15868.11
566.115	15822.47
566.477	15809.81
566.839	15953.54
567.201	15781.56
567.563	15729.13
567.925	16033.31
568.287	15868.34
568.648	15929.58
569.01	15925.06
569.372	16028.56
569.734	15933.87
570.095	16031.95
570.457	15969.35
570.819	16021.78
571.18	15991.05
571.542	16123.25
571.903	16081.67
572.265	16023.82
572.626	16071.5
572.987	16205.05
573.349	16203.47
573.71	16181.33
574.071	16224.71
574.432	16216.13
574.794	16270.82
575.155	16212.29
575.516	16230.36
575.877	16271.04
576.238	16377.93
576.599	16363.69
576.96	16354.2
577.32	16253.87
577.681	16403.92
578.042	16231.72
578.403	16457.48
578.763	16358.27
579.124	16400.3
579.485	16421.55
579.845	16444.6
580.206	16252.96
580.566	16395.33
580.927	16320.08
581.287	16345.16
581.648	16391.04
582.008	16346.07
582.368	16331.38
582.728	16345.84
583.089	16417.03
583.449	16344.26
583.809	16262
584.169	16383.58
584.529	16206.18
584.889	16368.89
585.249	16236.69
585.609	16177.71
585.969	16300.19
586.329	16258.84
586.688	16275.33
587.048	16233.75
587.408	16164.83
587.768	16152.85
588.127	16278.05
588.487	16255
588.846	16223.13
589.206	16121.21
589.565	16148.56
589.925	16227.65
590.284	16154.43
590.643	16148.78
591.003	16113.08
591.362	16191.5
591.721	16104.72
592.08	16091.38
592.44	16195.56
592.799	16170.7
593.158	16045.28
593.517	16072.85
593.876	16086.87
594.235	16049.8
594.593	16065.17
594.952	16113.08
595.311	16050.26
595.67	16089.58
596.029	16132.97
596.387	16139.52
596.746	16150.82
597.104	16007.77
597.463	16039.18
597.822	16066.98
598.18	16059.97
598.538	16011.61
598.897	16124.6
599.255	15925.51
599.613	16173.87
599.972	16043.48
600.33	16126.64
600.688	16003.25
601.046	16043.93
601.404	16110.59
601.762	16096.58
602.12	16145.62
602.478	16114.89
602.836	16040.76
603.194	15999.18
603.552	16086.87
603.91	16019.52
604.268	16062.23
604.625	15989.47
604.983	16099.97
605.341	15955.34
605.698	16010.71
606.056	16075.34
606.413	16033.99
606.771	16098.39
607.128	16088.45
607.485	16018.62
607.843	16021.56
608.2	16123.93
608.557	16223.13
608.914	16062.91
609.272	16175.68
609.629	16120.54
609.986	16204.83
610.343	16136.81
610.7	16240.31
611.057	16248.22
611.414	16303.81
611.771	16211.61
612.127	16315.33
612.484	16196.92
612.841	16320.98
613.198	16200.53
613.554	16330.47
613.911	16263.81
614.267	16325.05
614.624	16247.31
614.98	16278.95
615.337	16389.68
615.693	16374.77
616.05	16335.67
616.406	16404.82
616.762	16362.79
617.118	16338.84
617.475	16361.21
617.831	16373.41
618.187	16400.98
618.543	16383.35
618.899	16595.78
619.255	16534.99
619.611	16509.23
619.967	16454.99
620.323	16645.27
620.678	16626.96
621.034	16453.41
621.39	16469
621.746	16500.19
622.101	16692.27
622.457	16542.45
622.812	16520.98
623.168	16455.22
623.523	16663.57
623.879	16633.97
624.234	16455.44
624.589	16537.25
624.945	16604.82
625.3	16603.69
625.655	16606.4
626.01	16533.63
626.365	16573.18
626.72	16403.69
627.075	16470.36
627.43	16462.22
627.785	16489.79
628.14	16498.61
628.495	16499.74
628.85	16503.35
629.205	16484.59
629.559	16526.85
629.914	16458.61
630.269	16408.89
630.623	16427.65
630.978	16453.18
631.332	16441.66
631.687	16420.87
632.041	16379.96
632.396	16396.24
632.75	16391.26
633.104	16336.8
633.459	16346.29
633.813	16286.86
634.167	16309.46
634.521	16266.07
634.875	16198.95
635.229	16212.29
635.583	16141.78
635.937	16163.47
636.291	16092.74
636.645	16096.81
636.999	16080.09
637.352	16107.66
637.706	16041.22
638.06	16121.44
638.413	16033.31
638.767	16038.96
639.121	16001.67
639.474	15841.45
639.828	15852.75
640.181	15887.32
640.534	15950.6
640.888	15885.51
641.241	15871.05
641.594	15886.19
641.947	15938.39
642.301	15836.7
642.654	15842.13
643.007	15926.87
643.36	15867.66
643.713	15778.4
644.066	15810.04
644.419	15778.4
644.771	15771.17
645.124	15519.2
645.477	15516.03
645.83	15401.46
646.182	15382.02
646.535	15305.87
646.888	15337.05
647.24	15186.78
647.593	15342.93
647.945	15271.07
648.298	15214.35
648.65	15159.21
649.002	15230.84
649.355	15233.78
649.707	15200.11
650.059	15374.12
650.411	15423.15
650.763	15546.99
651.115	15677.61
651.467	15597.39
651.819	15584.96
652.171	15619.76
652.523	15567.56
652.875	15638.74
653.227	15520.78
653.578	15663.83
653.93	15594.9
654.282	15528.69
654.633	15511.29
654.985	15536.82
655.337	15618.18
655.688	15542.25
656.039	15587.9
656.391	15519.42
656.742	15591.96
657.094	15519.2
657.445	15564.17
657.796	15576.6
658.147	15501.57
658.498	15524.39
658.849	15557.39
659.2	15567.78
659.551	15582.47
659.902	15614.11
660.253	15577.05
660.604	15616.82
660.955	15600.1
661.306	15629.93
661.656	15550.83
662.007	15674.45
662.358	15623.83
662.708	15647.78
663.059	15631.74
663.409	15544.73
663.76	15673.32
664.11	15528.01
664.461	15637.61
664.811	15686.88
665.161	15616.82
665.511	15591.51
665.862	15626.76
666.212	15653.88
666.562	15593.54
666.912	15654.56
667.262	15567.33
667.612	15634.22
667.962	15647.33
668.312	15651.62
668.662	15690.04
669.011	15649.81
669.361	15618.18
669.711	15690.72
670.06	15504.06
670.41	15551.06
670.76	15537.5
671.109	15628.57
671.459	15508.12
671.808	15507.22
672.157	15606.2
672.507	15431.52
672.856	15401.01
673.205	15511.06
673.554	15545.41
673.904	15501.12
674.253	15546.99
674.602	15466.54
674.951	15222.93
675.3	15199.66
675.649	15496.6
675.998	15402.82
676.346	15353.1
676.695	15509.93
677.044	15338.86
677.393	15316.49
677.741	15386.54
678.09	15359.88
678.438	15264.74
678.787	15320.56
679.135	15253.44
679.484	15186.1
679.832	15215.7
680.181	15151.97
680.529	15188.81
680.877	15088.7
681.225	15140.45
681.573	15151.52
681.922	15087.8
682.27	15061.13
682.618	15015.03
682.966	14957.63
683.314	14842.83
683.661	14933
684.009	14836.05
684.357	14784.53
684.705	14841.93
685.053	14853
685.4	14794.7
685.748	14720.8
686.095	14594.25
686.443	14583.63
686.79	14600.12
687.138	14622.95
687.485	14562.84
687.832	14459.56
688.18	14526.68
688.527	14382.05
688.874	14506.57
689.221	14395.38
689.568	14237.42
689.915	14311.77
690.262	14263.18
690.609	14208.95
690.956	14117.65
691.303	14091.21
691.65	14103.19
691.997	14071.1
692.344	13989.07
692.69	14010.31
693.037	13952.91
693.383	13878.56
693.73	13876.08
694.077	13817.09
694.423	13812.12
694.769	13730.09
695.116	13712.24
695.462	13695.06
695.808	13543.66
696.155	13575.74
696.501	13484.45
696.847	13533.03
697.193	13355.19
697.539	13446.03
697.885	13289.88
698.231	13298.69
698.577	13228.41
698.923	13231.12
699.269	13181.18
699.614	13075.42
699.96	13027.96
700.306	13061.18
700.651	12911.13
700.997	12946.83
701.342	12839.49
701.688	12903.9
702.033	12835.88
702.379	12759.5
702.724	12793.39
703.069	12727.86
703.415	12597.01
703.76	12635.66
704.105	12546.17
704.45	12498.48
704.795	12464.36
705.14	12399.28
705.485	12343.69
705.83	12396.11
706.175	12424.81
706.52	12366.74
706.865	12239.73
707.209	12214.2
707.554	12175.78
707.899	12160.87
708.243	12113.86
708.588	12101.21
708.932	11968.78
709.277	11930.14
709.621	11962
709.966	11852.85
710.31	11942.57
710.654	11846.52
710.998	11867.99
711.342	11778.73
711.687	11792.29
712.031	11693.31
712.375	11664.83
712.719	11675.23
713.063	11649.69
713.407	11647.21
713.75	11551.62
714.094	11564.95
714.438	11536.93
714.782	11544.16
715.125	11500.55
715.469	11484.27
715.812	11442.92
716.156	11392.75
716.499	11429.81
716.843	11424.16
717.186	11376.03
717.53	11370.38
717.873	11392.07
718.216	11266.88
718.559	11377.16
718.902	11289.93
719.246	11238.63
719.589	11193.66
719.932	11228.69
720.275	11118.86
720.617	11158.86
720.96	11173.1
721.303	11188.69
721.646	11148.01
721.989	11098.97
722.331	11190.95
722.674	11109.14
723.016	11113.21
723.359	11115.7
723.701	11129.48
724.044	10996.15
724.386	11010.61
724.729	10995.93
725.071	10979.88
725.413	11003.16
725.755	11016.94
726.097	10917.74
726.439	10881.58
726.782	10959.99
727.124	10979.65
727.465	10878.19
727.807	10937.17
728.149	10821.92
728.491	10850.39
728.833	10852.43
729.175	10858.08
729.516	10820.56
729.858	10837.74
730.199	10863.5
730.541	10803.61
730.882	10744.86
731.224	10842.26
731.565	10808.36
731.906	10806.33
732.248	10814.91
732.589	10715.25
732.93	10741.69
733.271	10790.06
733.612	10819.43
733.953	10804.29
734.294	10763.16
734.635	10794.8
734.976	10755.71
735.317	10796.83
735.658	10686.33
735.999	10781.02
736.339	10818.53
736.68	10781.24
737.021	10825.99
737.361	10699.66
737.702	10793.9
738.042	10856.49
738.383	10784.18
738.723	10754.12
739.063	10814.01
739.404	10832.31
739.744	10839.77
740.084	10838.19
740.424	10824.63
740.764	10811.52
741.104	10909.83
741.444	10852.43
741.784	10857.4
742.124	10867.79
742.464	10951.41
742.804	10945.53
743.143	10952.08
743.483	10981.91
743.823	10907.34
744.162	10973.78
744.502	11056.71
744.841	11072.31
745.181	11148.69
745.52	11145.75
745.86	11179.88
746.199	11196.15
746.538	11223.72
746.877	11278.63
747.216	11412.41
747.556	11357.72
747.895	11484.95
748.234	11523.6
748.573	11539.41
748.911	11551.17
749.25	11660.54
749.589	11693.76
749.928	11831.61
750.267	11935.11
750.605	11956.58
750.944	11938.5
751.283	12071.83
751.621	12230.7
751.96	12373.74
752.298	12414.65
752.636	12501.87
752.975	12583.68
753.313	12632.49
753.651	12786.61
753.989	12841.98
754.327	12911.58
754.666	13012.82
755.004	13201.29
755.342	13352.7
755.679	13477.67
756.017	13573.03
756.355	13734.16
756.693	13841.5
757.031	14085.79
757.368	14095.28
757.706	14224.99
758.044	14334.82
758.381	14572.55
758.719	14663.85
759.056	14923.28
759.394	15029.72
759.731	15142.48
760.068	15290.05
760.405	15410.05
760.743	15541.79
761.08	15760.55
761.417	15951.95
761.754	15938.85
762.091	16269.23
762.428	16335.45
762.765	16396.46
763.102	16567.98
763.438	16704.02
763.775	17003.45
764.112	17055.88
764.449	17314.63
764.785	17356.44
765.122	17475.53
765.458	17641.63
765.795	17754.17
766.131	17958
766.467	18004.55
766.804	18161.16
767.14	18234.61
767.476	18409.74
767.812	18477.54
768.148	18682.28
768.485	18687.47
768.821	18742.16
769.157	18965.21
769.492	19051.98
769.828	19158.65
770.164	19123.4
770.5	19170.17
770.836	19542.82
771.171	19419.66
771.507	19484.97
771.842	19553.44
772.178	19663.72
772.513	19643.16
772.849	19748.46
773.184	19843.15
773.519	19911.17
773.855	19954.79
774.19	20033.2
774.525	20066.87
774.86	20197.72
775.195	20168.57
775.53	20142.13
775.865	20218.51
776.2	20171.05
776.535	20117.04
776.87	20235.68
777.205	20212.63
777.539	20225.51
777.874	20306.19
778.209	20169.47
778.543	20341.44
778.878	20252.41
779.212	20308
779.547	20302.8
779.881	20458.28
780.215	20279.98
780.55	20391.84
780.884	20218.73
781.218	20271.84
781.552	20358.62
781.886	20298.51
782.22	20338.28
782.554	20266.87
782.888	20211.28
783.222	20175.35
783.556	19971.73
783.889	20086.08
784.223	19921.34
784.557	19927.22
784.89	19931.28
785.224	19925.41
785.557	19877.73
785.891	19875.01
786.224	19933.54
786.558	19831.17
786.891	19753.89
787.224	19732.64
787.557	19713.89
787.891	19732.42
788.224	19719.76
788.557	19667.79
788.89	19634.57
789.223	19709.59
789.556	19575.14
789.888	19485.19
790.221	19506.89
790.554	19400.9
790.887	19373.56
791.219	19388.02
791.552	19338.31
791.884	19318.19
792.217	19304.63
792.549	19252.43
792.882	19197.97
793.214	19085.43
793.546	19176.95
793.879	18954.59
794.211	18993
794.543	18979.67
794.875	18962.04
795.207	18969.73
795.539	18925.43
795.871	18935.15
796.203	18796.17
796.535	18734.25
796.867	18654.03
797.198	18670.07
797.53	18562.96
797.862	18540.36
798.193	18662.62
798.525	18306.02
798.856	18476.18
799.188	18368.61
799.519	18252.91
799.85	18173.14
800.182	18151.44
800.513	18204.32
800.844	18030.77
801.175	18161.16
801.506	18067.15
801.837	18050.88
802.168	17916.2
802.499	17809.53
802.83	17777.67
803.161	17732.25
803.491	17812.02
803.822	17749.65
804.153	17729.76
804.483	17655.64
804.814	17581.52
805.145	17507.17
805.475	17555.98
805.805	17450.67
806.136	17427.85
806.466	17479.14
806.796	17418.13
807.126	17300.17
807.457	17128.42
807.787	17259.94
808.117	17276.44
808.447	17181.3
808.777	17160.51
809.107	17087.74
809.436	16985.37
809.766	17032.38
810.096	16955.77
810.426	16836.68
810.755	16963.45
811.085	16896.79
811.414	16804.36
811.744	16741.76
812.073	16739.96
812.403	16682.33
812.732	16649.34
813.061	16565.27
813.39	16525.5
813.719	16480.53
814.049	16583.58
814.378	16517.36
814.707	16487.76
815.036	16419.96
815.365	16235.34
815.693	16268.56
816.022	16311.04
816.351	16279.63
816.68	16147.2
817.008	16232.62
817.337	16046.19
817.665	16106.75
817.994	16009.35
818.322	16005.74
818.651	15979.98
818.979	15901.33
819.307	15982.46
819.636	15904.72
819.964	15759.87
820.292	15867.89
820.62	15897.94
820.948	15853.42
821.276	15829.92
821.604	15892.97
821.932	15822.47
822.259	15897.04
822.587	15749.25
822.915	15715.35
823.243	15835.57
823.57	15706.76
823.898	15803.26
824.225	15831.73
824.553	15772.07
824.88	15718.29
825.207	15798.51
825.535	15806.87
825.862	15864.27
826.189	15760.55
826.516	15800.54
826.843	15737.72
827.17	15815.23
827.497	15770.26
827.824	15742.02
828.151	15754.67
828.478	15800.32
828.805	15899.75
829.131	15779.75
829.458	15768.91
829.785	15666.09
830.111	15742.47
830.438	15777.72
830.764	15831.96
831.09	15870.15
831.417	15704.28
831.743	15675.8
832.069	15786.31
832.395	15707.89
832.722	15661.57
833.048	15667.44
833.374	15675.58
833.7	15695.91
834.026	15640.32
834.351	15631.28
834.677	15660.21
835.003	15674.9
835.329	15674.22
835.654	15569.59
835.98	15542.25
836.306	15547.9
836.631	15488.69
836.956	15535.47
837.282	15582.7
837.607	15499.54
837.932	15452.76
838.258	15402.82
838.583	15461.57
838.908	15382.93
839.233	15344.96
839.558	15334.79
839.883	15259.09
840.208	15187.91
840.533	15163.73
840.858	15308.58
841.182	15262.93
841.507	15225.87
841.832	15157.17
842.156	15115.82
842.481	15045.54
842.805	14934.13
843.13	15020
843.454	14965.76
843.778	14937.52
844.103	14938.87
844.427	14880.12
844.751	14817.75
845.075	14728.26
845.399	14763.96
845.723	14679.44
846.047	14642.61
846.371	14597.64
846.695	14598.32
847.019	14395.16
847.343	14381.83
847.666	14322.62
847.99	14273.35
848.313	14233.81
848.637	14157.65
848.96	14120.82
849.284	14055.96
849.607	14026.81
849.931	13922.63
850.254	13889.86
850.577	13846.7
850.9	13769.86
851.223	13743.65
851.546	13665.91
851.869	13579.81
852.192	13599.7
852.515	13626.36
852.838	13447.84
853.161	13543.88
853.483	13424.79
853.806	13321.06
854.129	13329.2
854.451	13280.39
854.774	13228.64
855.096	13258.69
855.419	13138.02
855.741	13037.91
856.063	13028.64
856.385	12972.14
856.708	12910.68
857.03	12888.53
857.352	12950
857.674	12869.1
857.996	12753.17
858.318	12724.47
858.64	12791.58
858.961	12780.96
859.283	12640.4
859.605	12638.14
859.926	12676.33
860.248	12561.31
860.57	12547.52
860.891	12488.99
861.212	12528.99
861.534	12470.92
861.855	12418.49
862.176	12405.61
862.498	12428.2
862.819	12387.53
863.14	12321.54
863.461	12304.82
863.782	12257.14
864.103	12181.43
864.424	12178.72
864.745	12234.31
865.065	12209.23
865.386	12051.27
865.707	12099.4
866.027	12145.05
866.348	12047.65
866.668	12093.52
866.989	12047.42
867.309	11983.02
867.63	11908.22
867.95	11968.78
868.27	11933.08
868.59	11950.7
868.91	11891.72
869.23	11848.78
869.55	11878.39
869.87	11910.93
870.19	11838.39
870.51	11769.69
870.83	11875.68
871.15	11759.3
871.469	11779.18
871.789	11798.39
872.109	11783.02
872.428	11638.17
872.748	11736.02
873.067	11638.62
873.386	11664.38
873.706	11553.2
874.025	11540.54
874.344	11547.32
874.663	11550.49
874.982	11521.56
875.301	11602.24
875.62	11503.48
875.939	11481.56
876.258	11445.41
876.577	11417.16
876.896	11426.87
877.214	11383.26
877.533	11414.22
877.852	11337.61
878.17	11333.54
878.489	11381.45
878.807	11308.69
879.125	11287.22
879.444	11282.02
879.762	11308.69
880.08	11276.37
880.398	11187.11
880.716	11143.49
881.034	11230.5
881.352	11145.53
881.67	11171.29
881.988	11118.41
882.306	11070.27
882.624	11039.31
882.941	11004.29
883.259	10957.96
883.577	10985.98
883.894	10993.21
884.212	10970.39
884.529	10919.77
884.846	10919.77
885.164	10885.65
885.481	10817.17
885.798	10836.38
886.115	10784.18
886.432	10719.77
886.75	10718.42
887.067	10777.17
887.383	10707.12
887.7	10689.27
888.017	10635.03
888.334	10605.88
888.651	10546.9
888.967	10561.13
889.284	10546.45
889.6	10501.48
889.917	10442.49
890.233	10437.52
890.55	10427.8
890.866	10395.49
891.182	10334.02
891.498	10320.92
891.815	10239.56
892.131	10204.31
892.447	10151.65
892.763	10144.2
893.079	10135.16
893.395	10125.21
893.71	10014.71
894.026	10072.33
894.342	10059.45
894.657	9884.32
894.973	9953.92
895.289	9878.67
895.604	9914.37
895.92	9853.58
896.235	9802.06
896.55	9728.84
896.865	9750.53
897.181	9785.56
897.496	9696.52
897.811	9696.98
898.126	9641.38
898.441	9534.04
898.756	9579.92
899.071	9497.21
899.386	9515.96
899.7	9380.15
900.015	9405.01
900.33	9284.56
900.644	9267.84
900.959	9326.82
901.273	9289.98
901.588	9202.3
901.902	9190.32
902.216	9135.64
902.531	9095.18
902.845	9111.68
903.159	9059.48
903.473	9013.83
903.787	9011.8
904.101	8947.84
904.415	8929.77
904.729	8888.18
905.042	8912.82
905.356	8827.62
905.67	8810.22
905.984	8758.7
906.297	8771.8
906.611	8705.36
906.924	8737.91
907.237	8672.37
907.551	8623.78
907.864	8640.73
908.177	8600.96
908.491	8544.92
908.804	8489.32
909.117	8367.97
909.43	8383.11
909.743	8391.7
910.056	8317.8
910.368	8330.68
910.681	8261.53
910.994	8189.67
911.307	8225.83
911.619	8207.07
911.932	8137.02
912.244	8067.19
912.557	8052.05
912.869	8031.48
913.181	8030.81
913.494	7963.69
913.806	7889.11
914.118	7874.2
914.43	7868.55
914.742	7839.85
915.054	7791.04
915.366	7743.81
915.678	7739.06
915.99	7641.66
916.302	7625.17
916.613	7585.85
916.925	7595.34
917.236	7570.93
917.548	7550.14
917.859	7520.99
918.171	7479.63
918.482	7440.54
918.794	7408.45
919.105	7423.59
919.416	7322.8
919.727	7329.81
920.038	7323.93
920.349	7262.01
920.66	7258.17
920.971	7206.42
921.282	7196.03
921.593	7155.12
921.903	7143.37
922.214	7094.56
922.525	7061.57
922.835	6974.56
923.146	6997.16
923.456	7020.89
923.767	6942.02
924.077	6896.15
924.387	6882.59
924.697	6850.27
925.008	6842.81
925.318	6795.58
925.628	6800.78
925.938	6751.97
926.248	6648.24
926.558	6694.12
926.867	6683.5
927.177	6625.64
927.487	6585.42
927.796	6539.55
928.106	6537.29
928.416	6533.22
928.725	6510.85
929.034	6458.42
929.344	6431.53
929.653	6386.56
929.962	6370.28
930.271	6327.57
930.581	6314.47
930.89	6280.34
931.199	6285.09
931.508	6235.37
931.817	6203.74
932.125	6203.51
932.434	6186.33
932.743	6100.24
933.051	6116.96
933.36	6138.2
933.669	6058.88
933.977	6027.02
934.286	5975.72
934.594	5987.92
934.902	5936.85
935.21	5982.95
935.519	5949.5
935.827	5898.43
936.135	5842.61
936.443	5854.37
936.751	5872.9
937.059	5810.98
937.367	5774.59
937.674	5741.37
937.982	5712.45
938.29	5696.18
938.597	5688.27
938.905	5613.24
939.213	5651.21
939.52	5625.67
939.827	5606.91
940.135	5547.71
940.442	5538.67
940.749	5527.14
941.056	5515.17
941.363	5456.18
941.67	5485.34
941.977	5415.96
942.284	5331.89
942.591	5366.7
942.898	5338.9
943.205	5333.48
943.511	5323.08
943.818	5250.09
944.125	5284.21
944.431	5217.55
944.738	5221.16
945.044	5175.29
945.35	5136.42
945.657	5089.87
945.963	5070.43
946.269	5030.21
946.575	5097.78
946.881	5075.63
947.187	4995.41
947.493	5015.74
947.799	4952.69
948.105	4982.75
948.41	4914.05
948.716	4955.63
949.022	4918.35
949.327	4897.33
949.633	4835.86
949.938	4862.98
950.244	4879.7
950.549	4782.98
950.854	4744.79
951.16	4776.65
951.465	4729.88
951.77	4749.31
952.075	4722.87
952.38	4712.02
952.685	4607.39
952.99	4590.22
953.294	4625.25
953.599	4561.07
953.904	4545.47
954.209	4524.91
954.513	4484.01
954.818	4521.07
955.122	4492.14
955.426	4459.83
955.731	4452.14
956.035	4391.35
956.339	4400.84
956.643	4406.49
956.948	4389.09
957.252	4369.21
957.556	4392.94
957.86	4324.01
958.163	4284.01
958.467	4315.88
958.771	4288.76
959.075	4265.93
959.378	4225.93
959.682	4219.83
959.985	4225.03
960.289	4210.79
960.592	4187.07
960.896	4169.89
961.199	4195.43
961.502	4097.58
961.805	4104.13
962.108	4063.45
962.411	4023.68
962.714	4060.51
963.017	4026.84
963.32	4033.4
963.623	3988.2
963.926	3984.13
964.228	3909.11
964.531	3918.6
964.833	3958.14
965.136	3886.28
965.438	3912.72
965.741	3834.53
966.043	3884.25
966.345	3834.76
966.648	3820.3
966.95	3841.09
967.252	3773.74
967.554	3767.19
967.856	3753.18
968.158	3683.12
968.46	3677.47
968.761	3645.61
969.063	3687.87
969.365	3669.79
969.666	3717.02
969.968	3617.81
970.269	3595.44
970.571	3633.63
970.872	3576.01
971.174	3587.31
971.475	3552.28
971.776	3553.18
972.077	3509.57
972.378	3496.69
972.679	3512.96
972.98	3484.48
973.281	3457.37
973.582	3426.63
973.883	3387.09
974.183	3415.33
974.484	3377.37
974.785	3350.25
975.085	3370.59
975.386	3400.65
975.686	3371.49
975.986	3367.65
976.287	3332.85
976.587	3304.83
976.887	3255.34
977.187	3270.25
977.487	3248.56
977.787	3226.64
978.087	3232.06
978.387	3248.56
978.687	3203.14
978.987	3187.77
979.286	3155.23
979.586	3159.07
979.885	3156.58
980.185	3102.35
980.484	3111.61
980.784	3107.77
981.083	3114.55
981.382	3128.79
981.682	3068.45
981.981	3066.87
982.28	3001.56
982.579	3015.34
982.878	2997.49
983.177	3002.69
983.475	3010.82
983.774	2921.34
984.073	2929.02
984.372	2940.77
984.67	2939.41
984.969	2905.74
985.267	2922.92
985.566	2888.57
985.864	2844.5
986.162	2892.86
986.461	2852.41
986.759	2803.15
987.057	2820.77
987.355	2781.9
987.653	2816.71
987.951	2789.59
988.249	2766.99
988.547	2746.42
988.844	2720.66
989.142	2736.03
989.44	2696.26
989.737	2664.17
990.035	2697.84
990.332	2696.26
990.63	2648.12
990.927	2647.67
991.224	2613.77
991.521	2634.34
991.819	2632.08
992.116	2615.81
992.413	2564.28
992.71	2580.1
993.006	2567.67
993.303	2540.33
993.6	2542.59
993.897	2503.95
994.193	2494.91
994.49	2506.66
994.787	2507.56
995.083	2480.22
995.379	2488.35
995.676	2464.4
995.972	2441.57
996.268	2437.51
996.565	2448.13
996.861	2424.85
997.157	2400.67
997.453	2371.97
997.749	2405.64
998.044	2358.19
998.34	2390.28
998.636	2357.73
998.932	2353.89
999.227	2315.93
999.523	2321.13
999.818	2278.87
1000.114	2285.65
1000.409	2283.84
1000.704	2268.7
1001	2232.99
1001.295	2217.85
1001.59	2219.43
1001.885	2219.43
1002.18	2228.02
1002.475	2181.47
1002.77	2170.17
1003.065	2177.17
1003.359	2138.31
1003.654	2119.1
1003.949	2126.33
1004.243	2121.36
1004.538	2121.13
1004.832	2071.64
1005.127	2072.77
1005.421	2048.59
1005.715	2039.55
1006.009	2039.78
1006.304	2067.35
1006.598	2023.51
1006.892	2010.17
1007.186	1977.63
1007.48	1979.44
1007.773	1980.12
1008.067	1990.51
1008.361	1973.34
1008.655	1945.99
1008.948	1911.42
1009.242	1927.69
1009.535	1903.06
1009.829	1888.14
1010.122	1863.06
1010.415	1856.5
1010.708	1865.09
1011.001	1870.97
1011.295	1814.25
1011.588	1827.13
1011.881	1813.57
1012.173	1791.2
1012.466	1758.65
1012.759	1792.33
1013.052	1758.88
1013.344	1772.89
1013.637	1733.12
1013.93	1722.27
1014.222	1732.67
1014.514	1743.97
1014.807	1733.12
1015.099	1724.08
1015.391	1710.29
1015.683	1689.05
1015.976	1684.98
1016.268	1677.53
1016.56	1663.74
1016.851	1682.27
1017.143	1649.73
1017.435	1599.34
1017.727	1607.92
1018.018	1602.73
1018.31	1625.32
1018.602	1591.88
1018.893	1579
1019.185	1566.12
1019.476	1534.71
1019.767	1556.85
1020.058	1541.26
1020.35	1501.03
1020.641	1522.28
1020.932	1498.77
1021.223	1488.38
1021.514	1487.48
1021.804	1467.81
1022.095	1454.26
1022.386	1425.33
1022.677	1450.19
1022.967	1411.54
1023.258	1437.76
1023.548	1420.81
1023.839	1404.99
1024.129	1395.05
1024.419	1419.23
1024.709	1376.97
1025	1386.01
1025.29	1360.25
1025.58	1365.44
1025.87	1348.95
1026.16	1324.77
1026.449	1334.26
1026.739	1305.56
1027.029	1315.5
1027.319	1309.85
1027.608	1281.83
1027.898	1292.68
1028.187	1294.71
1028.477	1275.28
1028.766	1265.33
1029.055	1261.94
1029.344	1246.35
1029.634	1244.54
1029.923	1255.62
1030.212	1198.44
1030.501	1228.27
1030.79	1214.71
1031.078	1200.02
1031.367	1169.74
1031.656	1159.57
1031.945	1165.45
1032.233	1170.65
1032.522	1153.7
1032.81	1148.05
1033.099	1155.73
1033.387	1117.09
1033.675	1099.69
1033.963	1140.14
1034.251	1123.87
1034.54	1065.11
1034.828	1109.41
1035.116	1094.49
1035.403	1076.41
1035.691	1065.79
1035.979	1104.21
1036.267	1089.29
1036.554	1045.45
1036.842	1066.7
1037.129	1045.23
1037.417	1035.28
1037.704	1028.5
1037.992	1022.4
1038.279	1015.85
1038.566	991.67
1038.853	991.67
1039.14	991.67
