Data from hue_210_FLMS001491_00026.txt Node
Date: Tue Feb 07 16:40:57 GMT 2017
User: dcchb
Spectrometer: FLMS00149
Trigger mode: 0
Integration Time (sec): 2.000000E-2
Scans to average: 10
Electric dark correction enabled: true
Nonlinearity correction enabled: false
Boxcar width: 0
XAxis mode: Wavelengths
Number of Pixels in Spectrum: 2048
>>>>>Begin Spectral Data<<<<<
341.393	-13.9
341.776	-13.9
342.16	-13.9
342.543	-51.64
342.927	-47.57
343.31	-58.42
343.693	-52.32
344.077	-63.61
344.46	-67.46
344.843	-52.09
345.226	-37.17
345.61	-44.41
345.993	-22.49
346.376	-16.61
346.759	15.25
347.142	22.71
347.525	34.69
347.908	60.68
348.291	83.95
348.674	95.93
349.057	101.35
349.44	128.02
349.823	142.48
350.206	168.24
350.588	203.95
350.971	203.27
351.354	213.21
351.737	219.99
352.119	243.95
352.502	260.22
352.884	256.83
353.267	266.09
353.65	295.02
354.032	302.48
354.414	302.7
354.797	295.47
355.179	334.12
355.562	325.08
355.944	315.81
356.326	336.15
356.709	349.71
357.091	338.41
357.473	328.24
357.855	324.85
358.238	371.63
358.62	329.14
359.002	338.18
359.384	327.56
359.766	329.82
360.148	333.89
360.53	352.19
360.912	346.32
361.294	317.17
361.676	327.34
362.057	330.95
362.439	346.32
362.821	307
363.203	333.21
363.584	318.3
363.966	307.68
364.348	324.62
364.729	319.43
365.111	314.91
365.493	325.98
365.874	320.78
366.256	306.55
366.637	303.16
367.019	303.83
367.4	303.16
367.781	309.03
368.163	293.66
368.544	303.61
368.925	324.85
369.306	335.7
369.688	303.83
370.069	312.87
370.45	311.52
370.831	309.48
371.212	327.79
371.593	308.35
371.974	307.9
372.355	311.74
372.736	323.27
373.117	309.03
373.498	332.31
373.879	309.26
374.26	273.55
374.641	302.25
375.021	322.14
375.402	321.23
375.783	318.52
376.163	325.08
376.544	321.69
376.925	328.69
377.305	325.98
377.686	304.29
378.066	338.41
378.447	318.97
378.827	337.96
379.208	318.52
379.588	344.96
379.968	336.83
380.349	357.39
380.729	332.99
381.109	339.54
381.489	309.94
381.87	335.25
382.25	359.88
382.63	334.34
383.01	347.45
383.39	334.79
383.77	344.74
384.15	326.43
384.53	335.25
384.91	345.87
385.29	363.27
385.67	339.54
386.049	356.94
386.429	324.85
386.809	339.77
387.189	356.49
387.568	353.55
387.948	331.63
388.328	373.21
388.707	372.98
389.087	353.32
389.466	353.55
389.846	354.45
390.225	368.92
390.605	333.66
390.984	371.63
391.363	363.95
391.743	377.73
392.122	360.33
392.501	376.37
392.881	364.85
393.26	373.66
393.639	371.4
394.018	399.42
394.397	370.5
394.776	379.31
395.155	382.25
395.534	387
395.913	397.62
396.292	377.5
396.671	397.84
397.05	406.43
397.429	395.58
397.808	382.7
398.186	393.77
398.565	385.87
398.944	412.76
399.323	395.58
399.701	405.53
400.08	392.19
400.458	404.17
400.837	427.9
401.215	417.5
401.594	402.59
401.972	424.96
402.351	399.42
402.729	408.24
403.107	436.03
403.486	429.48
403.864	428.35
404.242	440.55
404.62	451.85
404.999	437.62
405.377	436.49
405.755	442.59
406.133	426.09
406.511	447.11
406.889	456.37
407.267	464.51
407.645	499.08
408.023	491.63
408.401	480.33
408.779	482.81
409.156	511.96
409.534	498.18
409.912	497.95
410.29	506.99
410.667	512.64
411.045	543.6
411.422	553.09
411.8	565.3
412.178	561.68
412.555	557.39
412.933	562.58
413.31	566.2
413.687	573.66
414.065	599.19
414.442	600.1
414.819	601.45
415.197	638.06
415.574	625.18
415.951	680.77
416.328	632.41
416.705	644.16
417.082	669.02
417.46	675.35
417.837	668.8
418.214	693.2
418.591	692.07
418.967	712.86
419.344	723.71
419.721	718.29
420.098	742.92
420.475	748.12
420.852	759.19
421.228	767.55
421.605	764.39
421.982	796.02
422.358	790.15
422.735	824.05
423.111	831.96
423.488	808.23
423.864	851.84
424.241	874.89
424.617	849.58
424.994	885.97
425.37	919.86
425.746	909.02
426.123	925.06
426.499	961.22
426.875	977.26
427.251	968.9
427.627	996.47
428.003	1020.65
428.379	1033.53
428.756	1027.88
429.132	1040.31
429.507	1060.2
429.883	1048.22
430.259	1072.85
430.635	1080.76
431.011	1107.88
431.387	1130.25
431.763	1124.15
432.138	1141.55
432.514	1175.68
432.89	1191.27
433.265	1203.92
433.641	1221.55
434.016	1255.9
434.392	1294.77
434.767	1317.82
435.143	1280.08
435.518	1299.06
435.894	1346.97
436.269	1361.43
436.644	1389
437.02	1412.73
437.395	1462.9
437.77	1476.68
438.145	1489.79
438.52	1501.09
438.895	1542.45
439.271	1551.26
439.646	1592.39
440.021	1606.85
440.395	1643.69
440.77	1616.57
441.145	1645.49
441.52	1708.54
441.895	1714.64
442.27	1719.84
442.645	1741.08
443.019	1770.01
443.394	1800.07
443.769	1804.59
444.143	1775.21
444.518	1844.13
444.892	1862.66
445.267	1865.15
445.641	1881.87
446.016	1862.66
446.39	1913.51
446.764	1924.81
447.139	1891.36
447.513	1943.11
447.887	1958.48
448.262	1962.32
448.636	1965.03
449.01	1990.34
449.384	2037.8
449.758	2000.74
450.132	2069.21
450.506	2079.83
450.88	2089.1
451.254	2097.01
451.628	2144.01
452.002	2150.79
452.376	2165.25
452.75	2202.31
453.123	2162.99
453.497	2238.7
453.871	2267.85
454.244	2280.73
454.618	2344.46
454.992	2340.39
455.365	2330.22
455.739	2378.13
456.112	2442.76
456.486	2414.06
456.859	2435.53
457.232	2488.41
457.606	2465.58
457.979	2518.46
458.352	2559.82
458.725	2606.6
459.099	2616.32
459.472	2687.27
459.845	2693.38
460.218	2698.12
460.591	2731.79
460.964	2727.27
461.337	2786.93
461.71	2801.62
462.083	2899.02
462.456	2864.9
462.829	2862.41
463.201	2964.33
463.574	2954.84
463.947	2978.79
464.32	3045.68
464.692	3084.1
465.065	3093.36
465.438	3132.69
465.81	3168.39
466.183	3193.48
466.555	3254.26
466.928	3267.37
467.3	3300.14
467.672	3326.58
468.045	3404.32
468.417	3436.41
468.789	3441.6
469.161	3441.83
469.534	3517.08
469.906	3615.16
470.278	3621.26
470.65	3651.32
471.022	3714.59
471.394	3786.45
471.766	3791.65
472.138	3849.28
472.51	3932.21
472.882	3953
473.253	4003.4
473.625	4059.89
473.997	4157.52
474.369	4156.16
474.74	4201.13
475.112	4264.86
475.484	4339.43
475.855	4394.57
476.227	4441.13
476.598	4565.19
476.97	4597.73
477.341	4650.84
477.713	4731.51
478.084	4743.49
478.455	4843.38
478.827	4885.41
479.198	4993.43
479.569	5040.21
479.94	5132.86
480.311	5160.66
480.682	5241.33
481.053	5381.21
481.424	5485.62
481.795	5463.7
482.166	5577.14
482.537	5648.78
482.908	5696.46
483.279	5754.76
483.65	5841.09
484.021	5990.92
484.391	6039.28
484.762	6077.47
485.133	6103.68
485.503	6172.61
485.874	6319.95
486.244	6293.05
486.615	6456.44
486.985	6529.43
487.356	6589.77
487.726	6634.74
488.097	6762.65
488.467	6841.97
488.837	6889.42
489.207	6921.74
489.578	7042.19
489.948	7065.69
490.318	7187.49
490.688	7138.91
491.058	7302.97
491.428	7360.37
491.798	7421.16
492.168	7553.59
492.538	7538.67
492.908	7703.41
493.278	7723.98
493.648	7678.56
494.017	7764.65
494.387	7845.33
494.757	7908.15
495.126	8053.91
495.496	7993.35
495.866	8075.15
496.235	8111.54
496.605	8163.06
496.974	8217.07
497.344	8245.77
497.713	8315.37
498.082	8325.32
498.452	8383.17
498.821	8447.35
499.19	8369.16
499.559	8470.17
499.928	8516.27
500.298	8579.55
500.667	8629.72
501.036	8531.19
501.405	8608.7
501.774	8664.52
502.143	8669.49
502.512	8716.95
502.88	8778.64
503.249	8733.89
503.618	8791.97
503.987	8843.04
504.356	8827.23
504.724	8876.94
505.093	8900.22
505.462	8953.55
505.83	8973.89
506.199	8994.9
506.567	9121.23
506.936	9055.69
507.304	9150.61
507.672	9159.87
508.041	9186.09
508.409	9203.26
508.777	9266.31
509.145	9271.28
509.514	9227.22
509.882	9284.39
510.25	9297.5
510.618	9332.52
510.986	9345.63
511.354	9360.54
511.722	9404.16
512.09	9450.03
512.458	9391.28
512.826	9474.21
513.193	9473.54
513.561	9497.94
513.929	9500.65
514.297	9580.2
514.664	9587.21
515.032	9561.9
515.4	9599.63
515.767	9607.32
516.135	9631.27
516.502	9547.66
516.869	9674.66
517.237	9690.03
517.604	9568.22
517.972	9751.27
518.339	9749.46
518.706	9698.39
519.073	9704.04
519.44	9709.91
519.808	9775.45
520.175	9731.38
520.542	9778.84
520.909	9705.62
521.276	9734.09
521.643	9800.99
522.009	9884.82
522.376	9766.64
522.743	9858.61
523.11	9872.17
523.477	9884.15
523.843	9834.66
524.21	9941.32
524.577	10011.6
524.943	9956.91
525.31	9993.52
525.676	10017.7
526.043	9975.67
526.409	9964.37
526.776	10069.9
527.142	10055.67
527.508	10033.97
527.874	10054.31
528.241	10075.55
528.607	9971.15
528.973	10086.85
529.339	10081.2
529.705	10097.02
530.071	10138.38
530.437	10077.59
530.803	10127.53
531.169	10113.29
531.535	10050.92
531.901	9984.03
532.267	10011.15
532.632	10032.84
532.998	9963.47
533.364	10014.09
533.73	9958.5
534.095	10015.89
534.461	9948.55
534.826	9892.96
535.192	9980.87
535.557	9934.77
535.923	9865.84
536.288	9852.51
536.653	9924.82
537.019	9778.39
537.384	9826.97
537.749	9818.39
538.114	9802.34
538.479	9714.21
538.845	9749.24
539.21	9723.93
539.575	9667.2
539.94	9735.22
540.305	9635.11
540.67	9582.23
541.034	9637.15
541.399	9586.53
541.764	9586.53
542.129	9598.96
542.494	9524.83
542.858	9485.51
543.223	9456.36
543.587	9514.67
543.952	9427.66
544.316	9372.97
544.681	9356.7
545.045	9324.39
545.41	9372.75
545.774	9318.06
546.138	9245.07
546.503	9230.38
546.867	9185.86
547.231	9217.72
547.595	9188.57
547.959	9189.02
548.324	9119.2
548.688	9087.33
549.052	9030.84
549.416	9041.01
549.779	9034.68
550.143	9031.06
550.507	9044.62
550.871	9019.31
551.235	8968.69
551.599	8937.96
551.962	8850.05
552.326	8872.87
552.689	8803.27
553.053	8779.77
553.417	8787.45
553.78	8807.79
554.143	8783.38
554.507	8784.51
554.87	8730.96
555.234	8783.38
555.597	8706.1
555.96	8724.86
556.323	8712.2
556.686	8688.7
557.05	8660.68
557.413	8596.95
557.776	8650.51
558.139	8628.81
558.502	8635.82
558.865	8593.79
559.228	8623.16
559.59	8548.59
559.953	8569.15
560.316	8692.31
560.679	8625.87
561.041	8595.37
561.404	8625.87
561.767	8578.87
562.129	8563.05
562.492	8594.92
562.854	8607.34
563.217	8638.53
563.579	8688.02
563.941	8535.26
564.304	8588.14
564.666	8624.29
565.028	8579.32
565.39	8608.25
565.753	8660.45
566.115	8683.5
566.477	8699.09
566.839	8624.29
567.201	8697.51
567.563	8655.25
567.925	8677.62
568.287	8653.9
568.648	8638.53
569.01	8682.82
569.372	8709.49
569.734	8696.83
570.095	8754.91
570.457	8754.91
570.819	8695.93
571.18	8757.85
571.542	8772.76
571.903	8810.05
572.265	8851.63
572.626	8803.05
572.987	8851.18
573.349	8780.22
573.71	8770.5
574.071	8873.33
574.432	8869.94
574.794	8881.69
575.155	8892.53
575.516	8820.22
575.877	8862.25
576.238	8913.55
576.599	8883.95
576.96	8855.7
577.32	8928.24
577.681	8991.06
578.042	8989.93
578.403	8938.86
578.763	8878.07
579.124	8984.51
579.485	8984.06
579.845	8952.42
580.206	9009.82
580.566	9042.14
580.927	9026.32
581.287	9014.57
581.648	9069.25
582.008	9062.47
582.368	9029.71
582.728	9092.3
583.089	9077.16
583.449	9083.72
583.809	9111.29
584.169	9096.6
584.529	9040.78
584.889	9147.67
585.249	9056.82
585.609	9104.05
585.969	9144.73
586.329	9095.24
586.688	9112.19
587.048	9128.91
587.408	9072.87
587.768	9098.86
588.127	9101.34
588.487	9054.11
588.846	9145.41
589.206	9084.39
589.565	9167.33
589.925	9153.77
590.284	9138.18
590.643	9182.24
591.003	9164.84
591.362	9244.39
591.721	9106.77
592.08	9199.87
592.44	9278.06
592.799	9169.82
593.158	9209.36
593.517	9219.31
593.876	9258.85
594.235	9246.88
594.593	9237.84
594.952	9303.82
595.311	9233.54
595.67	9213.2
596.029	9248.68
596.387	9277.84
596.746	9260.89
597.104	9234.45
597.463	9249.36
597.822	9293.2
598.18	9208.46
598.538	9203.94
598.897	9271.51
599.255	9241
599.613	9375.23
599.972	9215.01
600.33	9276.03
600.688	9292.3
601.046	9261.34
601.404	9350.38
601.762	9280.77
602.12	9335.46
602.478	9315.12
602.836	9379.53
603.194	9232.19
603.552	9252.07
603.91	9254.56
604.268	9279.42
604.625	9231.28
604.983	9362.35
605.341	9245.07
605.698	9296.82
606.056	9333.43
606.413	9336.59
606.771	9339.98
607.128	9370.26
607.485	9399.64
607.843	9335.01
608.2	9394.44
608.557	9358.29
608.914	9366.87
609.272	9423.37
609.629	9377.27
609.986	9433.99
610.343	9350.38
610.7	9478.06
611.057	9446.87
611.414	9398.06
611.771	9465.4
612.127	9482.12
612.484	9425.4
612.841	9480.32
613.198	9399.19
613.554	9459.3
613.911	9525.74
614.267	9527.32
614.624	9475.34
614.98	9566.64
615.337	9565.29
615.693	9595.79
616.05	9565.29
616.406	9606.41
616.762	9549.01
617.118	9574.55
617.475	9547.43
617.831	9577.04
618.187	9522.35
618.543	9529.35
618.899	9680.54
619.255	9547.66
619.611	9533.87
619.967	9622.46
620.323	9663.36
620.678	9575
621.034	9518.73
621.39	9568.67
621.746	9517.83
622.101	9609.13
622.457	9546.75
622.812	9593.76
623.168	9636.47
623.523	9629.46
623.879	9637.37
624.234	9627.88
624.589	9666.07
624.945	9591.5
625.3	9615
625.655	9603.02
626.01	9611.39
626.365	9570.03
626.72	9586.75
627.075	9628.33
627.43	9639.63
627.785	9631.27
628.14	9581.78
628.495	9603.93
628.85	9582.01
629.205	9558.51
629.559	9624.94
629.914	9519.41
630.269	9608.67
630.623	9509.92
630.978	9499.75
631.332	9509.02
631.687	9537.26
632.041	9527.09
632.396	9504.5
632.75	9461.33
633.104	9455.91
633.459	9472.18
633.813	9480.09
634.167	9385.4
634.521	9358.51
634.875	9486.19
635.229	9403.71
635.583	9390.37
635.937	9383.82
636.291	9354.9
636.645	9384.72
636.999	9365.52
637.352	9358.29
637.706	9256.59
638.06	9297.04
638.413	9248.46
638.767	9250.27
639.121	9277.38
639.474	9230.38
639.828	9210.04
640.181	9214.79
640.534	9213.43
640.888	9242.13
641.241	9200.55
641.594	9191.96
641.947	9230.15
642.301	9208.68
642.654	9278.29
643.007	9164.39
643.36	9172.98
643.713	9109.25
644.066	9186.31
644.419	9164.39
644.771	9081.23
645.124	9001.23
645.477	8957.84
645.83	8964.62
646.182	8887.11
646.535	8816.15
646.888	8884.17
647.24	8817.51
647.593	8874.46
647.945	8793.78
648.298	8800.56
648.65	8755.59
649.002	8786.1
649.355	8862.48
649.707	8838.98
650.059	8913.32
650.411	8967.11
650.763	9016.6
651.115	8983.38
651.467	9062.47
651.819	9034.23
652.171	9055.69
652.523	8976.15
652.875	9035.58
653.227	8996.94
653.578	9066.54
653.93	9052.76
654.282	8968.69
654.633	9014.11
654.985	9078.29
655.337	9027.67
655.688	9065.64
656.039	9030.61
656.391	9003.27
656.742	9046.65
657.094	9004.62
657.445	9092.08
657.796	9053.66
658.147	9028.8
658.498	9013.21
658.849	9073.32
659.2	9006.43
659.551	9071.06
659.902	9056.6
660.253	9077.39
660.604	9160.1
660.955	9078.29
661.306	9059.76
661.656	9062.47
662.007	9111.06
662.358	9088.69
662.708	9070.38
663.059	9043.72
663.409	9079.2
663.76	9099.76
664.11	9136.14
664.461	9105.41
664.811	9123.26
665.161	9148.12
665.511	9108.35
665.862	9154.9
666.212	9126.43
666.562	9193.77
666.912	9164.84
667.262	9054.79
667.612	9070.16
667.962	9100.44
668.312	9124.39
668.662	9189.93
669.011	9156.48
669.361	9180.89
669.711	9104.28
670.06	9113.09
670.41	9087.56
670.76	9075.13
671.109	9126.2
671.459	9049.82
671.808	9083.49
672.157	9103.15
672.507	9062.93
672.856	9009.82
673.205	9076.26
673.554	9053.43
673.904	8947.22
674.253	9075.13
674.602	9038.07
674.951	8925.3
675.3	8878.3
675.649	8972.76
675.998	8943.61
676.346	8980.67
676.695	8946.77
677.044	8892.08
677.393	9002.59
677.741	8882.59
678.09	8957.39
678.438	8922.59
678.787	8883.95
679.135	8925.75
679.484	8843.04
679.832	8906.55
680.181	8836.94
680.529	8856.38
680.877	8795.59
681.225	8807.11
681.573	8758.98
681.922	8744.06
682.27	8743.84
682.618	8775.7
682.966	8754.91
683.314	8721.47
683.661	8697.06
684.009	8633.78
684.357	8666.33
684.705	8652.99
685.053	8706.55
685.4	8603.28
685.748	8509.04
686.095	8540.45
686.443	8551.3
686.79	8555.82
687.138	8521.47
687.485	8478.08
687.832	8502.26
688.18	8509.95
688.527	8397.86
688.874	8373.68
689.221	8410.97
689.568	8397.18
689.915	8318.54
690.262	8334.36
690.609	8353.34
690.956	8251.87
691.303	8262.04
691.65	8229.95
691.997	8173.01
692.344	8142.05
692.69	8147.7
693.037	8095.49
693.383	8023.63
693.73	8023.63
694.077	7963.29
694.423	8010.52
694.769	8053.23
695.116	7952.45
695.462	7974.37
695.808	7867.25
696.155	7876.74
696.501	7840.13
696.847	7777.99
697.193	7746.12
697.539	7754.03
697.885	7718.1
698.231	7603.08
698.577	7698.22
698.923	7611.66
699.269	7570.99
699.614	7581.61
699.96	7574.38
700.306	7521.27
700.651	7479.92
700.997	7499.12
701.342	7430.2
701.688	7441.05
702.033	7382.07
702.379	7390.43
702.724	7351.33
703.069	7310.2
703.415	7295.51
703.76	7306.36
704.105	7246.02
704.45	7236.76
704.795	7181.85
705.14	7156.76
705.485	7178.91
705.83	7109.76
706.175	7130.55
706.52	7073.15
706.865	7044.9
707.209	7021.4
707.554	7043.77
707.899	6996.54
708.243	6989.31
708.588	6981.4
708.932	6912.7
709.277	6948.18
709.621	6960.38
709.966	6869.54
710.31	6890.1
710.654	6809.43
710.998	6806.26
711.342	6758.58
711.687	6804.91
712.031	6777.34
712.375	6726.04
712.719	6733.72
713.063	6761.07
713.407	6762.2
713.75	6643.55
714.094	6691.91
714.438	6674.06
714.782	6627.06
715.125	6613.27
715.469	6682.88
715.812	6608.75
716.156	6643.55
716.499	6581.86
716.843	6584.35
717.186	6528.08
717.53	6588.19
717.873	6568.3
718.216	6508.87
718.559	6561.3
718.902	6506.61
719.246	6548.64
719.589	6505.7
719.932	6451.92
720.275	6468.87
720.617	6475.87
720.96	6517
721.303	6525.37
721.646	6481.3
721.989	6461.86
722.331	6462.09
722.674	6515.65
723.016	6470.68
723.359	6467.51
723.701	6409.44
724.044	6444.92
724.386	6446.05
724.729	6415.54
725.071	6437.91
725.413	6446.72
725.755	6428.19
726.097	6336.44
726.439	6387.97
726.782	6338.93
727.124	6387.29
727.465	6350.23
727.807	6352.26
728.149	6353.84
728.491	6290.57
728.833	6373.73
729.175	6341.64
729.516	6327.18
729.858	6325.37
730.199	6280.63
730.541	6298.48
730.882	6311.36
731.224	6379.15
731.565	6329.44
731.906	6307.07
732.248	6349.1
732.589	6286.28
732.93	6304.81
733.271	6261.19
733.612	6346.39
733.953	6367.4
734.294	6336.44
734.635	6354.52
734.976	6309.33
735.317	6300.74
735.658	6235.88
735.999	6283.34
736.339	6351.36
736.68	6390.45
737.021	6348.42
737.361	6338.48
737.702	6354.3
738.042	6383.9
738.383	6349.78
738.723	6382.32
739.063	6381.64
739.404	6350.45
739.744	6468.87
740.084	6410.57
740.424	6422.99
740.764	6450.34
741.104	6461.86
741.444	6421.87
741.784	6485.59
742.124	6533.73
742.464	6472.94
742.804	6513.84
743.143	6564.69
743.483	6558.81
743.823	6607.85
744.162	6601.52
744.502	6618.7
744.841	6639.71
745.181	6658.47
745.52	6675.87
745.86	6767.84
746.199	6785.02
746.538	6783.21
746.877	6836.77
747.216	6903.66
747.556	6918.8
747.895	7046.93
748.234	7019.14
748.573	7046.93
748.911	7049.19
749.25	7167.38
749.589	7184.56
749.928	7245.57
750.267	7349.3
750.605	7366.02
750.944	7503.64
751.283	7496.41
751.621	7545.45
751.96	7651.66
752.298	7686.92
752.636	7872
752.975	7931.43
753.313	7980.69
753.651	8083.06
753.989	8182.72
754.327	8299.33
754.666	8320.12
755.004	8476.27
755.342	8659.32
755.679	8743.61
756.017	8794.68
756.355	8937.73
756.693	9081.91
757.031	9220.89
757.368	9302.24
757.706	9498.39
758.044	9658.39
758.381	9747.2
758.719	9911.94
759.056	10116.46
759.394	10219.28
759.731	10323.68
760.068	10537.92
760.405	10610
760.743	10783.56
761.08	10983.78
761.417	11085.02
761.754	11303.77
762.091	11478.91
762.428	11565.68
762.765	11792.12
763.102	12027.82
763.438	12100.81
763.775	12350.07
764.112	12450.18
764.449	12615.37
764.785	12760.23
765.122	12908.02
765.458	13061.01
765.795	13253.32
766.131	13354.79
766.467	13441.34
766.804	13555.24
767.14	13722.24
767.476	13899.63
767.812	14018.05
768.148	14299.17
768.485	14283.81
768.821	14501.88
769.157	14565.61
769.492	14751.59
769.828	14884.92
770.164	14924.69
770.5	15060.73
770.836	15253.05
771.171	15273.61
771.507	15375.75
771.842	15420.05
772.178	15585.92
772.513	15737.55
772.849	15736.65
773.184	15878.11
773.519	15948.39
773.855	16043.76
774.19	16078.79
774.525	16138.9
774.86	16200.36
775.195	16295.28
775.53	16382.73
775.865	16380.7
776.2	16331.21
776.535	16337.08
776.87	16517.64
777.205	16486.23
777.539	16559.45
777.874	16636.96
778.209	16662.05
778.543	16671.31
778.878	16773.46
779.212	16803.96
779.547	16698.43
779.881	16993.34
780.215	16877.18
780.55	16981.59
780.884	16989.72
781.218	16927.8
781.552	17076.73
781.886	16986.11
782.22	17012.77
782.554	16985.88
782.888	16893.91
783.222	16967.8
783.556	16912.89
783.889	16886.45
784.223	16859.33
784.557	16878.31
784.89	16932.1
785.224	16762.16
785.557	16879.67
785.891	16912.89
786.224	16908.14
786.558	16940.68
786.891	16824.98
787.224	16804.87
787.557	16803.74
787.891	16759.22
788.224	16734.14
788.557	16898.2
788.89	16853.68
789.223	16806.45
789.556	16717.87
789.888	16777.07
790.221	16712.89
790.554	16717.19
790.887	16689.17
791.219	16672.44
791.552	16626.12
791.884	16599.22
792.217	16518.55
792.549	16529.85
792.882	16415.95
793.214	16427.93
793.546	16450.75
793.879	16405.11
794.211	16302.74
794.543	16439.68
794.875	16430.42
795.207	16436.97
795.539	16323.98
795.871	16319.23
796.203	16141.16
796.535	16153.81
796.867	16163.3
797.198	16073.14
797.53	16120.82
797.862	16063.19
798.193	16065.91
798.525	15937.55
798.856	16064.1
799.188	15894.84
799.519	15843.09
799.85	15722.64
800.182	15824.1
800.513	15755.4
800.844	15615.52
801.175	15797.66
801.506	15776.87
801.837	15639.7
802.168	15605.58
802.499	15637.67
802.83	15600.61
803.161	15470.89
803.491	15515.41
803.822	15465.7
804.153	15442.42
804.483	15351.8
804.814	15347.96
805.145	15326.04
805.475	15288.75
805.805	15289.43
806.136	15253.95
806.466	15245.14
806.796	15217.34
807.126	15091.47
807.457	15078.81
807.787	15067.29
808.117	15056.44
808.447	14954.52
808.777	14963.11
809.107	14844.69
809.436	14876.56
809.766	14920.85
810.096	14915.65
810.426	14844.47
810.755	14785.94
811.085	14766.5
811.414	14712.04
811.744	14679.05
812.073	14697.81
812.403	14669.78
812.732	14575.77
813.061	14597.92
813.39	14490.81
813.719	14462.33
814.049	14564.93
814.378	14436.12
814.707	14413.29
815.036	14406.51
815.365	14399.96
815.693	14281.77
816.022	14276.57
816.351	14227.31
816.68	14138.72
817.008	14213.75
817.337	14100.08
817.665	14078.84
817.994	14120.65
818.322	14034.09
818.651	14024.15
818.979	14018.95
819.307	14131.27
819.636	13987.77
819.964	13970.59
820.292	13982.57
820.62	14053.98
820.948	13914.32
821.276	14028.22
821.604	13898.96
821.932	14020.76
822.259	13999.97
822.587	13929.24
822.915	13922.91
823.243	13909.13
823.57	13920.2
823.898	14012.63
824.225	13805.85
824.553	13962.01
824.88	13942.12
825.207	13972.17
825.535	13885.85
825.862	13917.04
826.189	13987.99
826.516	13932.85
826.843	13967.43
827.17	13985.28
827.497	13997.94
827.824	13889.24
828.151	14114.77
828.478	14054.88
828.805	14037.26
829.131	13999.97
829.458	13965.17
829.785	13791.84
830.111	13967.88
830.438	14063.92
830.764	13989.35
831.09	14012.63
831.417	13945.28
831.743	14004.49
832.069	13962.23
832.395	13922.01
832.722	13974.66
833.048	13896.92
833.374	13832.52
833.7	13898.05
834.026	13880.2
834.351	13900.76
834.677	13860.09
835.003	13875.45
835.329	13867.09
835.654	13823.48
835.98	13819.18
836.306	13774.67
836.631	13759.53
836.956	13772.86
837.282	13811.28
837.607	13681.79
837.932	13673.43
838.258	13707.78
838.583	13689.47
838.908	13642.47
839.233	13658.74
839.558	13591.39
839.883	13516.59
840.208	13508.23
840.533	13508.91
840.858	13538.06
841.182	13479.53
841.507	13493.54
841.832	13355.24
842.156	13413.77
842.481	13374.9
842.805	13425.75
843.13	13321.57
843.454	13318.41
843.778	13305.75
844.103	13200.44
844.427	13234.12
844.751	13206.09
845.075	13122.48
845.399	13171.29
845.723	13056.04
846.047	13039.54
846.371	12973.56
846.695	12934.46
847.019	12838.42
847.343	12824.63
847.666	12729.04
847.99	12659.44
848.313	12654.47
848.637	12605.43
848.96	12579.9
849.284	12589.39
849.607	12497.64
849.931	12473.91
850.254	12335.61
850.577	12266.91
850.9	12234.59
851.223	12155.73
851.546	12128.38
851.869	12070.08
852.192	12119.34
852.515	12046.35
852.838	11887.71
853.161	12007.25
853.483	11871.21
853.806	11890.87
854.129	11862.4
854.451	11711.22
854.774	11745.11
855.096	11697.43
855.419	11717.09
855.741	11587.83
856.063	11571.79
856.385	11580.83
856.708	11486.14
857.03	11443.2
857.352	11496.99
857.674	11387.16
857.996	11371.34
858.318	11332.7
858.64	11328.85
858.961	11303.32
859.283	11212.7
859.605	11233.94
859.926	11225.35
860.248	11191.23
860.57	11153.04
860.891	11117.11
861.212	11044.57
861.534	11045.7
861.855	10999.82
862.176	11097.22
862.498	11103.1
862.819	11011.8
863.14	10982.42
863.461	10977.68
863.782	10876.21
864.103	10923.44
864.424	10842.09
864.745	10856.78
865.065	10858.58
865.386	10765.25
865.707	10784.46
866.027	10828.98
866.348	10811.35
866.668	10725.71
866.989	10751.69
867.309	10700.17
867.63	10761.86
867.95	10636.44
868.27	10647.29
868.59	10695.2
868.91	10611.13
869.23	10589.44
869.55	10534.53
869.87	10582.66
870.19	10560.74
870.51	10547.86
870.83	10497.92
871.15	10483.68
871.469	10461.76
871.789	10520.97
872.109	10453.85
872.428	10398.03
872.748	10428.31
873.067	10393.29
873.386	10428.77
873.706	10365.94
874.025	10254.76
874.344	10306.73
874.663	10286.4
874.982	10315.32
875.301	10238.94
875.62	10271.26
875.939	10274.65
876.258	10264.25
876.577	10243.69
876.896	10149.45
877.214	10114.42
877.533	10194.87
877.852	10131.15
878.17	10161.88
878.489	10137.47
878.807	10171.6
879.125	10105.16
879.444	9997.14
879.762	10060.87
880.08	10061.32
880.398	9988.55
880.716	10054.99
881.034	9968.44
881.352	9965.5
881.67	9908.1
881.988	9901.77
882.306	9852.06
882.624	9924.15
882.941	9907.65
883.259	9828.1
883.577	9806.86
883.894	9721.44
884.212	9800.31
884.529	9660.42
884.846	9676.92
885.164	9674.43
885.481	9619.75
885.798	9690.48
886.115	9602.8
886.432	9602.35
886.75	9577.71
887.067	9579.97
887.383	9504.5
887.7	9594.89
888.017	9495.68
888.334	9494.55
888.651	9416.81
888.967	9452.75
889.284	9324.61
889.6	9389.47
889.917	9280.77
890.233	9300.21
890.55	9299.08
890.866	9241.45
891.182	9241.23
891.498	9196.71
891.815	9164.84
892.131	9110.16
892.447	9110.38
892.763	9039.42
893.079	9042.36
893.395	9004.85
893.71	9015.24
894.026	9026.99
894.342	8971.85
894.657	8900.67
894.973	8889.6
895.289	8856.83
895.604	8768.24
895.92	8794.46
896.235	8753.33
896.55	8752.2
896.865	8721.47
897.181	8706.78
897.496	8668.36
897.811	8662.94
898.126	8650.96
898.441	8508.59
898.756	8568.7
899.071	8468.14
899.386	8514.69
899.7	8442.6
900.015	8451.87
900.33	8337.75
900.644	8350.4
900.959	8323.51
901.273	8308.14
901.588	8242.38
901.902	8220.91
902.216	8235.15
902.531	8174.36
902.845	8127.13
903.159	8055.04
903.473	8042.16
903.787	8001.48
904.101	7996.74
904.415	8015.5
904.729	7886.69
905.042	7887.14
905.356	7908.38
905.67	7855.05
905.984	7877.19
906.297	7837.87
906.611	7772.11
906.924	7782.51
907.237	7730.31
907.551	7718.78
907.864	7575.96
908.177	7658.44
908.491	7610.31
908.804	7502.74
909.117	7512.91
909.43	7451.89
909.743	7473.59
910.056	7396.3
910.368	7371.9
910.681	7354.04
910.994	7345.91
911.307	7323.76
911.619	7267.27
911.932	7294.61
912.244	7147.5
912.557	7209.87
912.869	7151.11
913.181	7118.57
913.494	7139.59
913.806	6996.31
914.118	7044.45
914.43	6972.13
914.742	7009.65
915.054	6978.91
915.366	6955.86
915.678	6933.26
915.99	6940.95
916.302	6757.22
916.613	6814.62
916.925	6816.2
917.236	6770.1
917.548	6734.17
917.859	6773.04
918.171	6694.4
918.482	6659.37
918.794	6645.14
919.105	6636.32
919.416	6547.29
919.727	6506.38
920.038	6633.61
920.349	6420.51
920.66	6485.14
920.971	6432.94
921.282	6448.98
921.593	6359.49
921.903	6366.5
922.214	6340.74
922.525	6346.61
922.835	6281.98
923.146	6201.76
923.456	6249.21
923.767	6205.6
924.077	6213.96
924.387	6171.25
924.697	6136.67
925.008	6105.94
925.318	6064.36
925.628	6080.86
925.938	6076.11
926.248	5993.18
926.558	5999.96
926.867	5982.78
927.177	6012.38
927.487	5912.27
927.796	5830.92
928.106	5834.08
928.416	5818.72
928.725	5805.16
929.034	5766.97
929.344	5746.18
929.653	5781.66
929.962	5706.4
930.271	5714.54
930.581	5693.97
930.89	5675.44
931.199	5629.57
931.508	5646.74
931.817	5590.93
932.125	5559.51
932.434	5581.66
932.743	5538.95
933.051	5494.88
933.36	5465.28
933.669	5452.4
933.977	5382.8
934.286	5388.9
934.594	5358.62
934.902	5352.97
935.21	5320.65
935.519	5359.97
935.827	5253.99
936.135	5259.86
936.443	5234.78
936.751	5265.51
937.059	5219.86
937.367	5131.73
937.674	5207.89
937.982	5186.42
938.29	5134.22
938.597	5146.19
938.905	5046.31
939.213	5077.95
939.52	5026.42
939.827	5014.67
940.135	5038.4
940.442	4946.2
940.749	4959.53
941.056	4931.51
941.363	4924.5
941.67	4897.61
941.977	4869.59
942.284	4858.29
942.591	4823.94
942.898	4823.26
943.205	4781.91
943.511	4793.89
943.818	4764.51
944.125	4718.63
944.431	4728.8
944.738	4707.33
945.044	4677.73
945.35	4672.31
945.657	4622.82
945.963	4614
946.269	4580.78
946.575	4597.05
946.881	4577.39
947.187	4544.85
947.493	4508.92
947.799	4480.67
948.105	4452.88
948.41	4437.96
948.716	4424.4
949.022	4390.73
949.327	4370.62
949.633	4328.36
949.938	4347.57
950.244	4331.98
950.549	4288.36
950.854	4259.44
951.16	4287.46
951.465	4258.76
951.77	4275.48
952.075	4243.17
952.38	4233.67
952.685	4201.13
952.99	4188.7
953.294	4181.25
953.599	4167.24
953.904	4151.19
954.209	4068.25
954.513	4084.98
954.818	4098.31
955.122	4048.82
955.426	4016.05
955.731	4026.45
956.035	3992.78
956.339	3969.05
956.643	3983.06
956.948	3920.69
957.252	3889.05
957.556	3927.24
957.86	3861.48
958.163	3890.41
958.467	3847.92
958.771	3842.72
959.075	3823.52
959.378	3789.62
959.682	3834.81
959.985	3789.39
960.289	3793.46
960.592	3771.31
960.896	3746.46
961.199	3742.39
961.502	3742.84
961.805	3700.35
962.108	3724.99
962.411	3670.07
962.714	3638.89
963.017	3639.79
963.32	3645.21
963.623	3597.53
963.926	3560.7
964.228	3574.03
964.531	3538.55
964.833	3537.2
965.136	3549.17
965.438	3522.96
965.741	3490.19
966.043	3458.55
966.345	3477.76
966.648	3445.22
966.95	3433.92
967.252	3411.77
967.554	3392.57
967.856	3362.74
968.158	3334.71
968.46	3357.76
968.761	3342.62
969.063	3317.99
969.365	3342.85
969.666	3282.96
969.968	3308.95
970.269	3265.79
970.571	3249.75
970.872	3226.92
971.174	3228.73
971.475	3176.53
971.776	3208.62
972.077	3229.63
972.378	3171.56
972.679	3149.18
972.98	3143.08
973.281	3118.9
973.582	3140.14
973.883	3101.95
974.183	3082.29
974.484	3046.59
974.785	3076.87
975.085	3066.25
975.386	3053.82
975.686	3061.28
975.986	2984.44
976.287	3016.08
976.587	2976.31
976.887	2951.67
977.187	2954.39
977.487	2939.92
977.787	2927.95
978.087	2915.29
978.387	2893.82
978.687	2910.32
978.987	2858.34
979.286	2865.35
979.586	2834.61
979.885	2816.99
980.185	2817.67
980.484	2790.1
980.784	2809.08
981.083	2779.7
981.382	2749.65
981.682	2768.63
981.981	2758.01
982.28	2750.1
982.579	2710.1
982.878	2746.03
983.177	2725.92
983.475	2705.8
983.774	2691.79
984.073	2698.57
984.372	2666.03
984.67	2668.74
984.969	2637.33
985.267	2636.88
985.566	2646.37
985.864	2586.71
986.162	2578.35
986.461	2573.83
986.759	2560.27
987.057	2563.89
987.355	2527.28
987.653	2519.37
987.951	2514.62
988.249	2460.39
988.547	2521.18
988.844	2485.92
989.142	2492.93
989.44	2470.33
989.737	2420.16
990.035	2455.42
990.332	2461.07
990.63	2415.64
990.927	2388.75
991.224	2385.14
991.521	2388.98
991.819	2369.99
992.116	2369.99
992.413	2345.81
992.71	2321.63
993.006	2351.92
993.303	2308.07
993.6	2324.12
993.897	2302.43
994.193	2320.73
994.49	2280.73
994.787	2253.61
995.083	2254.97
995.379	2245.7
995.676	2233.73
995.972	2239.38
996.268	2214.97
996.565	2188.53
996.861	2163.9
997.157	2185.82
997.453	2182.43
997.749	2180.39
998.044	2138.36
998.34	2140.85
998.636	2105.59
998.932	2131.36
999.227	2099.94
999.523	2123.45
999.818	2082.54
1000.114	2080.74
1000.409	2042.32
1000.704	2037.57
1001	2035.31
1001.295	2022.21
1001.59	1998.48
1001.885	2009.78
1002.18	2015.43
1002.475	1978.59
1002.77	1952.6
1003.065	1962.55
1003.359	1930.46
1003.654	1935.66
1003.949	1928.42
1004.243	1951.47
1004.538	1912.38
1004.832	1889.33
1005.127	1891.36
1005.421	1879.61
1005.715	1873.28
1006.009	1880.52
1006.304	1847.75
1006.598	1842.55
1006.892	1800.52
1007.186	1831.25
1007.48	1814.08
1007.773	1798.71
1008.067	1791.48
1008.361	1783.79
1008.655	1769.11
1008.948	1758.71
1009.242	1737.69
1009.535	1719.84
1009.829	1732.27
1010.122	1692.05
1010.415	1669
1010.708	1675.32
1011.001	1697.47
1011.295	1669.9
1011.588	1650.69
1011.881	1635.1
1012.173	1615.21
1012.466	1631.71
1012.759	1624.25
1013.052	1618.6
1013.344	1576.12
1013.637	1618.38
1013.93	1596.46
1014.222	1623.12
1014.514	1539.06
1014.807	1577.47
1015.099	1553.74
1015.391	1567.76
1015.683	1546.74
1015.976	1534.99
1016.268	1495.89
1016.56	1495.21
1016.851	1496.34
1017.143	1473.97
1017.435	1469.9
1017.727	1474.42
1018.018	1479.17
1018.31	1479.4
1018.602	1458.15
1018.893	1447.76
1019.185	1409.34
1019.476	1420.87
1019.767	1414.31
1020.058	1405.73
1020.35	1418.38
1020.641	1374.99
1020.932	1353.98
1021.223	1351.94
1021.514	1354.43
1021.804	1326.41
1022.095	1354.2
1022.386	1344.48
1022.677	1308.1
1022.967	1314.43
1023.258	1308.33
1023.548	1274.43
1023.839	1286.86
1024.129	1296.58
1024.419	1290.25
1024.709	1278.27
1025	1254.32
1025.29	1267.2
1025.58	1238.95
1025.87	1251.38
1026.16	1222.23
1026.449	1218.61
1026.739	1211.15
1027.029	1203.7
1027.319	1180.42
1027.608	1191.95
1027.898	1175
1028.187	1148.11
1028.477	1162.57
1028.766	1182
1029.055	1138.84
1029.344	1132.29
1029.634	1164.83
1029.923	1140.2
1030.212	1103.81
1030.501	1108.33
1030.79	1095.68
1031.078	1110.14
1031.367	1071.5
1031.656	1078.95
1031.945	1075.34
1032.233	1090.03
1032.522	1061.55
1032.81	1049.12
1033.099	1064.04
1033.387	1067.2
1033.675	1057.94
1033.963	1024.94
1034.251	1038.05
1034.54	1010.93
1034.828	1032.85
1035.116	1001.89
1035.403	996.02
1035.691	965.51
1035.979	993.08
1036.267	979.97
1036.554	961.9
1036.842	983.59
1037.129	991.5
1037.417	952.86
1037.704	960.77
1037.992	943.82
1038.279	931.61
1038.566	945.62
1038.853	945.62
1039.14	945.62
