Data from hue_24_FLMS001491_00058.txt Node
Date: Tue Feb 07 17:12:28 GMT 2017
User: dcchb
Spectrometer: FLMS00149
Trigger mode: 0
Integration Time (sec): 2.000000E-2
Scans to average: 10
Electric dark correction enabled: true
Nonlinearity correction enabled: false
Boxcar width: 0
XAxis mode: Wavelengths
Number of Pixels in Spectrum: 2048
>>>>>Begin Spectral Data<<<<<
341.393	2.87
341.776	2.87
342.16	2.87
342.543	-44.14
342.927	-68.09
343.31	-63.57
343.693	-66.28
344.077	-58.37
344.46	-74.64
344.843	-41.2
345.226	-18.83
345.61	-45.04
345.993	-22.89
346.376	-1.43
346.759	27.05
347.142	23.21
347.525	41.51
347.908	58.23
348.291	42.19
348.674	86.93
349.057	113.15
349.44	142.07
349.823	154.95
350.206	163.77
350.588	202.64
350.971	216.42
351.354	226.36
351.737	238.34
352.119	283.31
352.502	264.56
352.884	260.94
353.267	286.7
353.65	304.78
354.032	296.19
354.414	319.69
354.797	314.72
355.179	340.03
355.562	325.34
355.944	311.33
356.326	315.85
356.709	356.98
357.091	326.02
357.473	340.94
357.855	329.41
358.238	339.58
358.62	361.05
359.002	332.12
359.384	351.56
359.766	338.68
360.148	338.45
360.53	345.68
360.912	350.88
361.294	349.75
361.676	349.07
362.057	321.73
362.439	343.88
362.821	327.6
363.203	329.41
363.584	337.55
363.966	336.42
364.348	306.59
364.729	318.79
365.111	320.37
365.493	298.45
365.874	325.57
366.256	305.46
366.637	322.18
367.019	328.73
367.4	319.02
367.781	315.18
368.163	301.16
368.544	323.08
368.925	314.05
369.306	327.6
369.688	313.14
370.069	314.27
370.45	323.76
370.831	323.54
371.212	308.85
371.593	311.33
371.974	310.88
372.355	352.69
372.736	308.85
373.117	312.92
373.498	310.66
373.879	317.66
374.26	311.33
374.641	298.23
375.021	303.88
375.402	331.67
375.783	323.08
376.163	338.23
376.544	314.05
376.925	330.32
377.305	314.27
377.686	340.94
378.066	316.31
378.447	344.1
378.827	330.54
379.208	334.38
379.588	361.05
379.968	342.29
380.349	343.88
380.729	320.37
381.109	337.77
381.489	342.75
381.87	332.12
382.25	357.21
382.63	323.31
383.01	314.72
383.39	339.58
383.77	363.31
384.15	333.93
384.53	347.49
384.91	348.39
385.29	334.84
385.67	352.46
386.049	364.89
386.429	365.57
386.809	344.33
387.189	346.13
387.568	353.37
387.948	355.85
388.328	349.3
388.707	352.01
389.087	371.45
389.466	357.89
389.846	376.64
390.225	368.28
390.605	359.24
390.984	374.61
391.363	358.56
391.743	370.99
392.122	377.09
392.501	397.89
392.881	373.93
393.26	379.13
393.639	385
394.018	383.65
394.397	378.9
394.776	392.69
395.155	399.47
395.534	380.71
395.913	348.85
396.292	383.42
396.671	378.22
397.05	391.78
397.429	398.34
397.808	381.39
398.186	397.43
398.565	400.37
398.944	400.82
399.323	402.86
399.701	400.14
400.08	403.99
400.458	408.73
400.837	395.4
401.215	420.48
401.594	399.69
401.972	391.56
402.351	390.2
402.729	408.28
403.107	411.22
403.486	425.23
403.864	403.53
404.242	403.53
404.62	420.48
404.999	415.51
405.377	405.79
405.755	432.01
406.133	436.53
406.511	425.45
406.889	431.78
407.267	426.58
407.645	425.68
408.023	429.52
408.401	446.02
408.779	434.72
409.156	445.79
409.534	449.41
409.912	431.1
410.29	462.06
410.667	443.76
411.045	466.36
411.422	450.76
411.8	447.15
412.178	458.45
412.555	451.89
412.933	441.73
413.31	470.2
413.687	481.27
414.065	468.39
414.442	457.54
414.819	476.98
415.197	483.76
415.574	479.01
415.951	490.09
416.328	484.44
416.705	475.4
417.082	493.93
417.46	487.6
417.837	493.25
418.214	474.49
418.591	497.09
418.967	499.13
419.344	525.11
419.721	525.57
420.098	502.29
420.475	518.56
420.852	503.64
421.228	522.4
421.605	512.91
421.982	510.2
422.358	527.83
422.735	537.32
423.111	514.49
423.488	526.92
423.864	515.85
424.241	541.84
424.617	529.41
424.994	552.68
425.37	561.04
425.746	553.14
426.123	537.09
426.499	551.78
426.875	557.65
427.251	572.12
427.627	574.38
428.003	574.38
428.379	563.08
428.756	568.28
429.132	580.93
429.507	593.59
429.883	589.07
430.259	603.08
430.635	582.51
431.011	593.36
431.387	624.77
431.763	601.95
432.138	610.31
432.514	628.39
432.89	632
433.265	634.26
433.641	623.87
434.016	632.46
434.392	656.86
434.767	661.38
435.143	640.36
435.518	656.86
435.894	639.01
436.269	663.41
436.644	664.32
437.02	689.85
437.395	685.34
437.77	711.1
438.145	687.37
438.52	670.65
438.895	681.27
439.271	702.51
439.646	703.19
440.021	720.81
440.395	700.25
440.77	705
441.145	716.52
441.52	722.17
441.895	729.85
442.27	736.18
442.645	740.25
443.019	731.66
443.394	731.89
443.769	745.67
444.143	739.57
444.518	777.76
444.892	752.23
445.267	792.9
445.641	763.53
446.016	772.11
446.39	752.68
446.764	787.48
447.139	771.89
447.513	759.01
447.887	785.9
448.262	788.38
448.636	789.97
449.01	806.69
449.384	818.21
449.758	818.66
450.132	790.42
450.506	818.66
450.88	818.44
451.254	831.09
451.628	831.32
452.002	841.04
452.376	827.25
452.75	825.44
453.123	860.25
453.497	866.8
453.871	862.96
454.244	870.87
454.618	870.87
454.992	884.43
455.365	895.5
455.739	912.9
456.112	911.32
456.486	897.31
456.859	942.5
457.232	929.62
457.606	938.66
457.979	968.72
458.352	974.82
458.725	998.77
459.099	969.62
459.472	997.42
459.845	1000.13
460.218	1005.1
460.591	1014.82
460.964	1001.03
461.337	1017.08
461.71	1054.59
462.083	1075.61
462.456	1074.03
462.829	1056.62
463.201	1096.62
463.574	1092.56
463.947	1100.92
464.32	1149.96
464.692	1128.04
465.065	1129.62
465.438	1146.79
465.81	1153.12
466.183	1147.02
466.555	1182.27
466.928	1192.67
467.3	1226.11
467.672	1252.78
468.045	1256.39
468.417	1247.58
468.789	1270.18
469.161	1274.92
469.534	1294.58
469.906	1335.94
470.278	1351.76
470.65	1332.32
471.022	1384.98
471.394	1368.71
471.766	1398.31
472.138	1420.01
472.51	1435.82
472.882	1448.25
473.253	1495.26
473.625	1473.79
473.997	1541.81
474.369	1532.77
474.74	1562.15
475.112	1568.02
475.484	1596.27
475.855	1622.49
476.227	1659.09
476.598	1714.01
476.97	1735.25
477.341	1758.53
477.713	1782.03
478.084	1798.07
478.455	1859.77
478.827	1874
479.198	1947.22
479.569	1930.05
479.94	1959.2
480.311	2009.59
480.682	2061.12
481.053	2095.92
481.424	2142.02
481.795	2161.68
482.166	2206.88
482.537	2243.94
482.908	2264.5
483.279	2285.07
483.65	2343.6
484.021	2429.02
484.391	2445.29
484.762	2457.94
485.133	2488.68
485.503	2537.26
485.874	2608
486.244	2666.53
486.615	2657.94
486.985	2712.4
487.356	2829.69
487.726	2788.78
488.097	2873.3
488.467	2910.59
488.837	2944.94
489.207	3037.36
489.578	3035.78
489.948	3118.27
490.318	3166.63
490.688	3130.47
491.058	3207.75
491.428	3295.66
491.798	3318.49
492.168	3373.4
492.538	3370.01
492.908	3488.65
493.278	3525.26
493.648	3529.1
494.017	3568.65
494.387	3672.83
494.757	3676.67
495.126	3683
495.496	3716.44
495.866	3740.17
496.235	3789.66
496.605	3828.98
496.974	3875.31
497.344	3880.05
497.713	3937.9
498.082	3942.65
498.452	4034.17
498.821	4025.81
499.19	4071.23
499.559	4097.22
499.928	4172.93
500.298	4180.38
500.667	4222.42
501.036	4194.4
501.405	4257.44
501.774	4219.93
502.143	4289.53
502.512	4313.71
502.88	4311.45
503.249	4380.83
503.618	4426.71
503.987	4440.72
504.356	4423.32
504.724	4528.17
505.093	4469.87
505.462	4466.25
505.83	4560.26
506.199	4569.75
506.567	4655.17
506.936	4611.56
507.304	4685.68
507.672	4726.36
508.041	4666.25
508.409	4696.08
508.777	4758.67
509.145	4817.66
509.514	4771.56
509.882	4833.02
510.25	4873.7
510.618	4867.82
510.986	4841.16
511.354	4967.93
511.722	4935.84
512.09	4973.36
512.458	4935.84
512.826	4980.36
513.193	5025.11
513.561	5069.63
513.929	5114.82
514.297	5108.04
514.664	5150.53
515.032	5162.51
515.4	5172.45
515.767	5216.29
516.135	5222.84
516.502	5231.88
516.869	5316.63
517.237	5281.6
517.604	5246.35
517.972	5335.16
518.339	5319.11
518.706	5421.71
519.073	5390.52
519.44	5396.62
519.808	5419.22
520.175	5399.34
520.542	5555.94
520.909	5524.98
521.276	5455.38
521.643	5542.83
522.009	5596.84
522.376	5621.7
522.743	5666.67
523.11	5629.39
523.477	5705.77
523.843	5761.36
524.21	5834.58
524.577	5829.61
524.943	5800
525.31	5855.59
525.676	5892.66
526.043	5876.39
526.409	5959.55
526.776	6024.18
527.142	6063.72
527.508	6070.96
527.874	6090.39
528.241	6108.02
528.607	6221.01
528.973	6176.04
529.339	6240.67
529.705	6278.18
530.071	6304.4
530.437	6369.03
530.803	6350.95
531.169	6394.79
531.535	6397.5
531.901	6371.97
532.267	6454
532.632	6542.13
532.998	6500.32
533.364	6503.49
533.73	6511.62
534.095	6599.08
534.461	6623.03
534.826	6627.55
535.192	6658.51
535.557	6718.17
535.923	6706.87
536.288	6710.71
536.653	6817.38
537.019	6780.09
537.384	6766.08
537.749	6826.64
538.114	6869.81
538.479	6849.92
538.845	6944.38
539.21	6897.38
539.575	6914.1
539.94	6990.71
540.305	7050.59
540.67	7008.11
541.034	7085.39
541.399	7058.5
541.764	7162.9
542.129	7162.9
542.494	7149.8
542.858	7250.13
543.223	7227.54
543.587	7255.56
543.952	7334.65
544.316	7286.29
544.681	7286.29
545.045	7353.86
545.41	7435.89
545.774	7405.61
546.138	7490.13
546.503	7541.2
546.867	7517.25
547.231	7564.02
547.595	7591.14
547.959	7582.78
548.324	7617.81
548.688	7637.24
549.052	7735.55
549.416	7705.26
549.779	7721.53
550.143	7732.38
550.507	7796.79
550.871	7805.83
551.235	7818.93
551.599	7858.71
551.962	7833.85
552.326	7899.38
552.689	7984.8
553.053	7899.16
553.417	7898.48
553.78	8000.17
554.143	8011.24
554.507	8067.51
554.87	8102.32
555.234	8115.2
555.597	8141.41
555.96	8163.33
556.323	8158.36
556.686	8172.82
557.05	8230.67
557.413	8277.45
557.776	8362.87
558.139	8303.44
558.502	8338.47
558.865	8375.08
559.228	8376.43
559.59	8442.19
559.953	8415.53
560.316	8554.73
560.679	8566.48
561.041	8506.15
561.404	8618.91
561.767	8629.76
562.129	8632.47
562.492	8714.73
562.854	8734.16
563.217	8703.43
563.579	8736.2
563.941	8813.71
564.304	8831.56
564.666	8905.23
565.028	8864.33
565.39	8937.77
565.753	9021.84
566.115	9013.93
566.477	9069.52
566.839	9079.01
567.201	9123.98
567.563	9155.62
567.925	9167.37
568.287	9188.61
568.648	9243.53
569.01	9330.08
569.372	9310.87
569.734	9303.64
570.095	9446.69
570.457	9419.79
570.819	9396.29
571.18	9535.05
571.542	9510.87
571.903	9586.12
572.265	9641.48
572.626	9668.38
572.987	9741.14
573.349	9731.65
573.71	9778.2
574.071	9855.94
574.432	9977.75
574.794	10007.58
575.155	10061.36
575.516	10022.94
575.877	10157.63
576.238	10219.32
576.599	10288.25
576.96	10357.62
577.32	10374.57
577.681	10402.82
578.042	10556.04
578.403	10694.79
578.763	10801
579.124	10883.03
579.485	10984.73
579.845	11070.37
580.206	11080.99
580.566	11264.04
580.927	11341.55
581.287	11506.29
581.648	11557.59
582.008	11725.72
582.368	11758.04
582.728	11936.56
583.089	12131.36
583.449	12137.01
583.809	12423.56
584.169	12641.18
584.529	12720.5
584.889	12958.01
585.249	13048.85
585.609	13224.21
585.969	13600.93
586.329	13654.03
586.688	13953.91
587.048	14172.89
587.408	14289.95
587.768	14554.12
588.127	14821.23
588.487	15044.05
588.846	15302.58
589.206	15394.33
589.565	15733.08
589.925	15994.54
590.284	16143.69
590.643	16583.22
591.003	16803.33
591.362	17113.83
591.721	17432.92
592.08	17656.41
592.44	17990.87
592.799	18364.87
593.158	18535.49
593.517	18814.58
593.876	19158.97
594.235	19278.52
594.593	19636.25
594.952	20018.61
595.311	20264.26
595.67	20602.78
596.029	21015.2
596.387	21310.33
596.746	21667.61
597.104	21855.63
597.463	22179.01
597.822	22573.35
598.18	22788.03
598.538	23085.42
598.897	23483.83
599.255	23676.82
599.613	24246.07
599.972	24375.56
600.33	24834.3
600.688	24897.35
601.046	25313.16
601.404	25662.31
601.762	25922.41
602.12	26366.69
602.478	26597.2
602.836	26912.67
603.194	27016.62
603.552	27330.06
603.91	27538.64
604.268	27948.8
604.625	28171.84
604.983	28570.7
605.341	28666.75
605.698	29110.12
606.056	29407.97
606.413	29546.95
606.771	29916.2
607.128	30188.74
607.485	30393.71
607.843	30482.29
608.2	30908.04
608.557	31365.43
608.914	31459.67
609.272	31593.22
609.629	32070.05
609.986	32179.87
610.343	32285.41
610.7	32761.55
611.057	32906.63
611.414	33196.57
611.771	33350.01
612.127	33577.13
612.484	33761.08
612.841	33997.91
613.198	34164.68
613.554	34200.16
613.911	34635.63
614.267	34768.05
614.624	35004.88
614.98	35123.75
615.337	35413.01
615.693	35510.63
616.05	35624.08
616.406	36032.43
616.762	36097.29
617.118	36242.59
617.475	36346.54
617.831	36539.31
618.187	36703.37
618.543	36835.12
618.899	37278.95
619.255	37255
619.611	37340.42
619.967	37549.9
620.323	37780.63
620.678	37694.53
621.034	37724.14
621.39	37928.65
621.746	37993.51
622.101	38448.64
622.457	38301.52
622.812	38370.45
623.168	38673.26
623.523	38733.83
623.879	38862.64
624.234	38729.98
624.589	38976.53
624.945	39083.87
625.3	39158.22
625.655	39176.75
626.01	39309.86
626.365	39412.23
626.72	39490.64
627.075	39382.17
627.43	39574.03
627.785	39480.7
628.14	39823.06
628.495	39621.26
628.85	39803.4
629.205	39700.35
629.559	39944.87
629.914	39790.52
630.269	40063.06
630.623	39864.64
630.978	39978.09
631.332	40080.01
631.687	40275.93
632.041	39990.52
632.396	40277.74
632.75	40077.29
633.104	40221.92
633.459	40081.14
633.813	40153.9
634.167	40237.52
634.521	40223.28
634.875	40419.21
635.229	40193.67
635.583	40204.07
635.937	40139.21
636.291	40152.77
636.645	40228.93
636.999	40110.74
637.352	40342.82
637.706	40007.24
638.06	40285.65
638.413	40397.29
638.767	40264.18
639.121	40293.79
639.474	39979.9
639.828	40152.32
640.181	40143.73
640.534	40206.56
640.888	40122.26
641.241	39893.12
641.594	40166.33
641.947	40257.63
642.301	40190.74
642.654	40115.94
643.007	40190.06
643.36	40193.45
643.713	40173.56
644.066	40182.15
644.419	40001.14
644.771	39771.54
645.124	39489.29
645.477	39334.71
645.83	39088.62
646.182	39116.87
646.535	38936.98
646.888	39064.66
647.24	38875.52
647.593	39059.47
647.945	39004.1
648.298	38784.22
648.65	38809.98
649.002	38755.29
649.355	38882.97
649.707	38921.17
650.059	39186.02
650.411	39410.64
650.763	39604.09
651.115	39958.2
651.467	39756.4
651.819	39763.63
652.171	39692.22
652.523	39476.18
652.875	39677.53
653.227	39543.07
653.578	39677.53
653.93	39708.26
654.282	39503.52
654.633	39369.74
654.985	39583.97
655.337	39591.66
655.688	39469.63
656.039	39661.71
656.391	39332.68
656.742	39607.7
657.094	39403.87
657.445	39655.38
657.796	39468.27
658.147	39407.03
658.498	39430.76
658.849	39515.05
659.2	39391.44
659.551	39357.09
659.902	39435.05
660.253	39332.68
660.604	39520.47
660.955	39275.73
661.306	39451.77
661.656	39356.18
662.007	39285
662.358	39403.19
662.708	39346.69
663.059	39363.87
663.409	39105.79
663.76	39352.12
664.11	39310.99
664.461	39383.07
664.811	39305.79
665.161	39429.4
665.511	39226.24
665.862	39308.27
666.212	39296.52
666.562	39223.98
666.912	39236.19
667.262	39219.24
667.612	39182.63
667.962	39316.41
668.312	39222.17
668.662	39380.81
669.011	39153.02
669.361	39164.78
669.711	39124.55
670.06	39198.22
670.41	39018.11
670.76	39013.37
671.109	39209.75
671.459	39138.34
671.808	39017.21
672.157	39140.82
672.507	38950.54
672.856	38890.66
673.205	38822.86
673.554	39202.29
673.904	38923.2
674.253	39257.2
674.602	39011.11
674.951	38412.03
675.3	38249.09
675.649	38933.82
675.998	38834.84
676.346	38926.59
676.695	38990.77
677.044	38604.56
677.393	38838.68
677.741	38827.84
678.09	38861.05
678.438	38647.05
678.787	38846.14
679.135	38714.84
679.484	38431.69
679.832	38649.99
680.181	38299.71
680.529	38517.33
680.877	38451.57
681.225	38336.55
681.573	38482.53
681.922	38309.43
682.27	38161.19
682.618	38294.52
682.966	38060.17
683.314	38277.34
683.661	37990.57
684.009	37920.74
684.357	37894.53
684.705	37793.06
685.053	37846.39
685.4	37820.18
685.748	37591.94
686.095	37720.07
686.443	37514.2
686.79	37451.37
687.138	37537.7
687.485	37514.42
687.832	37492.05
688.18	37409.34
688.527	37280.76
688.874	37183.81
689.221	37095.9
689.568	36978.17
689.915	37060.2
690.262	37104.04
690.609	36764.84
690.956	36642.58
691.303	36648.23
691.65	36419.99
691.997	36488.91
692.344	36464.96
692.69	36211.63
693.037	36326.88
693.383	36125.53
693.73	36213.44
694.077	36064.52
694.423	35974.58
694.769	35850.96
695.116	35749.72
695.462	35625.66
695.808	35566
696.155	35603.51
696.501	35394.7
696.847	35391.77
697.193	35126.92
697.539	35298.66
697.885	35037.65
698.231	34836.53
698.577	34916.53
698.923	34806.02
699.269	34755.63
699.614	34591.56
699.96	34465.24
700.306	34502.53
700.651	34373.04
700.997	34288.75
701.342	34173.04
701.688	34088.75
702.033	34053.72
702.379	34010.33
702.724	33937.79
703.069	34103.89
703.415	33616.9
703.76	33640.4
704.105	33701.19
704.45	33554.08
704.795	33366.51
705.14	33275.21
705.485	33312.27
705.83	33132.39
706.175	33218.72
706.52	33090.36
706.865	33006.52
707.209	32721.78
707.554	32830.7
707.899	32875
708.243	32618.05
708.588	32516.36
708.932	32418.06
709.277	32409.92
709.621	32409.47
709.966	32237.73
710.31	32327.21
710.654	31981.01
710.998	32007.45
711.342	32144.62
711.687	32006.77
712.031	31863.05
712.375	31759.09
712.719	31766.55
713.063	31712.99
713.407	31959.32
713.75	31538.08
714.094	31584.18
714.438	31579.44
714.782	31482.72
715.125	31271.65
715.469	31440.01
715.812	31231.88
716.156	31027.14
716.499	31113.69
716.843	31152.33
717.186	30958.89
717.53	31109.62
717.873	31031.43
718.216	30917.99
718.559	30780.81
718.902	30531.56
719.246	30709.63
719.589	30514.16
719.932	30400.03
720.275	30509.64
720.617	30384.22
720.96	30278.46
721.303	30465.34
721.646	30362.52
721.989	30248.85
722.331	30362.29
722.674	30222.19
723.016	30176.54
723.359	30120.27
723.701	30093.15
724.044	29879.82
724.386	29809.32
724.729	29945.36
725.071	29830.11
725.413	29879.6
725.755	29895.87
726.097	29731.8
726.439	29539.94
726.782	29567.51
727.124	29628.08
727.465	29544.46
727.807	29583.11
728.149	29468.76
728.491	29376.78
728.833	29426.05
729.175	29239.84
729.516	29238.26
729.858	29239.39
730.199	29263.57
730.541	29169.78
730.882	29104.02
731.224	29157.35
731.565	28925.04
731.906	29092.5
732.248	28978.6
732.589	28820.41
732.93	28822.9
733.271	28798.95
733.612	28799.85
733.953	28781.32
734.294	28740.64
734.635	28572.51
734.976	28614.77
735.317	28459.07
735.658	28520.54
735.999	28549.69
736.339	28498.84
736.68	28468.11
737.021	28450.03
737.361	28357.15
737.702	28408
738.042	28317.15
738.383	28252.97
738.723	28242.35
739.063	28157.61
739.404	28196.48
739.744	28109.7
740.084	27976.82
740.424	28041
740.764	27987.67
741.104	28024.28
741.444	27917.84
741.784	27934.11
742.124	27923.26
742.464	27906.31
742.804	27714.45
743.143	27796.71
743.483	27683.27
743.823	27635.81
744.162	27643.5
744.502	27755.36
744.841	27397.85
745.181	27722.59
745.52	27449.6
745.86	27525.31
746.199	27537.96
746.538	27383.16
746.877	27498.87
747.216	27563.72
747.556	27254.81
747.895	27399.43
748.234	27292.32
748.573	27229.5
748.911	27128.48
749.25	27170.51
749.589	27110.4
749.928	27142.49
750.267	27057.75
750.605	27078.99
750.944	27027.69
751.283	26901.82
751.621	27007.13
751.96	26892.56
752.298	26774.14
752.636	26791.09
752.975	26765.55
753.313	26577.76
753.651	26634.03
753.989	26562.85
754.327	26628.61
754.666	26377.99
755.004	26407.37
755.342	26301.61
755.679	26342.97
756.017	26262.29
756.355	26285.57
756.693	26171.22
757.031	26175.29
757.368	25958.12
757.706	25966.93
758.044	25930.77
758.381	26005.57
758.719	25870.89
759.056	25804.9
759.394	25780.04
759.731	25623.44
760.068	25674.28
760.405	25485.81
760.743	25472.48
761.08	25459.37
761.417	25312.03
761.754	25277.23
762.091	25228.42
762.428	25170.34
762.765	25040.4
763.102	25067.07
763.438	25029.33
763.775	24841.99
764.112	24898.26
764.449	24995.66
764.785	24722.22
765.122	24640.19
765.458	24479.29
765.795	24521.32
766.131	24409.01
766.467	24309.57
766.804	24314.32
767.14	24223.25
767.476	24176.92
767.812	24091.5
768.148	24002.46
768.485	23862.58
768.821	23823.26
769.157	23767.89
769.492	23666.65
769.828	23710.27
770.164	23469.14
770.5	23357.51
770.836	23388.69
771.171	23230.96
771.507	23232.54
771.842	23040.45
772.178	23103.05
772.513	23014.47
772.849	22926.56
773.184	22857.86
773.519	22783.29
773.855	22621.03
774.19	22552.56
774.525	22444.54
774.86	22426.68
775.195	22416.06
775.53	22368.38
775.865	22340.81
776.2	22135.17
776.535	21854.72
776.87	21979.24
777.205	21898.56
777.539	21803.65
777.874	21875.96
778.209	21631.68
778.543	21650.89
778.878	21435.98
779.212	21556.65
779.547	21315.98
779.881	21426.03
780.215	21227.85
780.55	21238.47
780.884	21046.38
781.218	21117.57
781.552	21044.57
781.886	20916.22
782.22	20779.04
782.554	20692.72
782.888	20550.12
783.222	20581.54
783.556	20379.28
783.889	20436.23
784.223	20264.26
784.557	20207.53
784.89	20268.32
785.224	20008.67
785.557	19974.32
785.891	19956.01
786.224	19820.65
786.558	19805.06
786.891	19757.6
787.224	19659.53
787.557	19585.63
787.891	19554.44
788.224	19411.4
788.557	19500.89
788.89	19383.83
789.223	19452.07
789.556	19153.78
789.888	19202.36
790.221	19145.19
790.554	19024.06
790.887	18938.41
791.219	18908.36
791.552	18820.68
791.884	18753.33
792.217	18631.08
792.549	18614.36
792.882	18463.17
793.214	18560.35
793.546	18559.89
793.879	18324.19
794.211	18201.03
794.543	18339.56
794.875	18189.06
795.207	18200.35
795.539	18092.11
795.871	18143.41
796.203	17892.11
796.535	17835.84
796.867	17850.31
797.198	17801.27
797.53	17829.07
797.862	17619.35
798.193	17745.45
798.525	17509.53
798.856	17508.62
799.188	17381.39
799.519	17358.79
799.85	17279.25
800.182	17246.48
800.513	17262.98
800.844	17115.19
801.175	17170.78
801.506	17191.79
801.837	16952.03
802.168	16945.92
802.499	17007.17
802.83	16778.02
803.161	16797.23
803.491	16752.48
803.822	16751.13
804.153	16594.97
804.483	16495.77
804.814	16474.98
805.145	16446.05
805.475	16377.58
805.805	16415.32
806.136	16410.8
806.466	16371.7
806.796	16317.92
807.126	16247.86
807.457	16154.31
807.787	16151.37
808.117	16078.15
808.447	16064.82
808.777	16041.77
809.107	15966.52
809.436	15907.99
809.766	15906.63
810.096	15903.24
810.426	15787.54
810.755	15833.41
811.085	15809.91
811.414	15673.42
811.744	15642.91
812.073	15591.38
812.403	15542.35
812.732	15442.91
813.061	15498.73
813.39	15322.92
813.719	15308
814.049	15423.03
814.378	15276.14
814.707	15259.64
815.036	15204.73
815.365	15159.08
815.693	14969.48
816.022	15063.26
816.351	14989.82
816.68	14944.62
817.008	15043.15
817.337	14826.66
817.665	14827.79
817.994	14818.07
818.322	14807.45
818.651	14712.54
818.979	14716.6
819.307	14789.37
819.636	14732.2
819.964	14583.27
820.292	14724.06
820.62	14590.96
820.948	14514.12
821.276	14656.49
821.604	14539.43
821.932	14558.19
822.259	14566.33
822.587	14590.73
822.915	14592.09
823.243	14505.31
823.57	14475.25
823.898	14508.47
824.225	14440.91
824.553	14465.99
824.88	14520.9
825.207	14440.23
825.535	14459.89
825.862	14546.44
826.189	14351.87
826.516	14415.82
826.843	14496.5
827.17	14549.6
827.497	14565.65
827.824	14537.17
828.151	14437.97
828.478	14539.43
828.805	14537.85
829.131	14407.46
829.458	14459.44
829.785	14356.84
830.111	14517.97
830.438	14454.24
830.764	14487.46
831.09	14445.2
831.417	14421.47
831.743	14452.66
832.069	14382.6
832.395	14364.52
832.722	14431.87
833.048	14302.15
833.374	14296.28
833.7	14265.54
834.026	14286.33
834.351	14360.46
834.677	14239.78
835.003	14271.19
835.329	14231.87
835.654	14179.9
835.98	14202.27
836.306	14229.84
836.631	14174.92
836.956	14108.71
837.282	14232.55
837.607	14186.45
837.932	14035.72
838.258	14043.85
838.583	13968.6
838.908	13938.55
839.233	14040.46
839.558	13953.91
839.883	13834.14
840.208	13871.66
840.533	13929.51
840.858	13843.18
841.182	13894.25
841.507	13852.22
841.832	13705.78
842.156	13706.46
842.481	13709.63
842.805	13700.59
843.13	13640.47
843.454	13656.75
843.778	13591.44
844.103	13609.97
844.427	13503.76
844.751	13512.12
845.075	13516.64
845.399	13404.55
845.723	13324.78
846.047	13406.13
846.371	13254.04
846.695	13270.77
847.019	13242.97
847.343	13068.29
847.666	12933.83
847.99	13025.12
848.313	13046.37
848.637	12968.63
848.96	12894.05
849.284	12876.65
849.607	12812.93
849.931	12699.03
850.254	12711.91
850.577	12635.98
850.9	12486.61
851.223	12506.95
851.546	12538.58
851.869	12372.71
852.192	12433.27
852.515	12280.51
852.838	12280.51
853.161	12234.86
853.483	12158.71
853.806	12111.93
854.129	12179.95
854.451	12103.57
854.774	12058.6
855.096	11983.34
855.419	11949.67
855.741	11912.38
856.063	11883.01
856.385	11832.16
856.708	11814.53
857.03	11715.55
857.352	11704.25
857.674	11713.75
857.996	11656.57
858.318	11534.77
858.64	11567.76
858.961	11544.94
859.283	11481.21
859.605	11405.73
859.926	11435.56
860.248	11445.96
860.57	11408.22
860.891	11392.17
861.212	11292.97
861.534	11209.58
861.855	11222.69
862.176	11290.93
862.498	11176.36
862.819	11198.96
863.14	11166.19
863.461	11148.11
863.782	11098.62
864.103	11084.16
864.424	11077.15
864.745	11129.13
865.065	11015.01
865.386	10988.12
865.707	10962.8
866.027	10981.79
866.348	10919.19
866.668	10994.67
866.989	10880.55
867.309	10881.9
867.63	10877.16
867.95	10899.53
868.27	10852.75
868.59	10801.23
868.91	10804.62
869.23	10848.23
869.55	10764.62
869.87	10761.91
870.19	10725.07
870.51	10789.02
870.83	10711.51
871.15	10701.79
871.469	10636.49
871.789	10685.98
872.109	10753.09
872.428	10584.96
872.748	10625.64
873.067	10533.21
873.386	10591.97
873.706	10579.76
874.025	10472.42
874.344	10438.3
874.663	10474.23
874.982	10452.99
875.301	10444.17
875.62	10436.72
875.939	10451.18
876.258	10387.9
876.577	10361.24
876.896	10366.89
877.214	10359.21
877.533	10349.49
877.852	10290.05
878.17	10297.29
878.489	10333.89
878.807	10324.86
879.125	10259.32
879.444	10245.99
879.762	10214.12
880.08	10219.1
880.398	10076.73
880.716	10216.38
881.034	10105.2
881.352	10137.97
881.67	10083.05
881.988	10097.29
882.306	10071.53
882.624	10015.94
882.941	10027.69
883.259	9872.89
883.577	9933.68
883.894	9904.08
884.212	9962.38
884.529	9827.92
884.846	9866.79
885.164	9800.35
885.481	9841.7
885.798	9798.54
886.115	9669.73
886.432	9790.18
886.75	9680.13
887.067	9772.33
887.383	9676.74
887.7	9709.5
888.017	9666.57
888.334	9602.16
888.651	9581.15
888.967	9594.48
889.284	9515.61
889.6	9482.84
889.917	9472.22
890.233	9465.67
890.55	9421.15
890.866	9485.56
891.182	9402.62
891.498	9345.22
891.815	9344.09
892.131	9340.93
892.447	9236.52
892.763	9228.16
893.079	9275.62
893.395	9160.82
893.71	9208.73
894.026	9177.09
894.342	9105.23
894.657	9063.65
894.973	9055.96
895.289	9046.47
895.604	8978.68
895.92	8980.71
896.235	8903.88
896.55	8935.06
896.865	8970.31
897.181	8883.99
897.496	8827.04
897.811	8806.25
898.126	8752.47
898.441	8744.11
898.756	8713.82
899.071	8672.02
899.386	8658.01
899.7	8589.31
900.015	8618.23
900.33	8451.46
900.644	8469.76
900.959	8495.07
901.273	8520.84
901.588	8377.56
901.902	8345.47
902.216	8373.04
902.531	8330.56
902.845	8311.8
903.159	8306.83
903.473	8182.54
903.787	8212.14
904.101	8194.06
904.415	8112.71
904.729	8147.06
905.042	8060.73
905.356	8074.97
905.67	8051.92
905.984	7992.49
906.297	7993.17
906.611	7886.05
906.924	7965.37
907.237	7912.94
907.551	7910.91
907.864	7814.19
908.177	7827.29
908.491	7792.72
908.804	7751.59
909.117	7728.99
909.43	7689.67
909.743	7688.09
910.056	7621.65
910.368	7553.86
910.681	7580.52
910.994	7573.29
911.307	7521.31
911.619	7399.51
911.932	7412.62
912.244	7408.32
912.557	7379.4
912.869	7390.47
913.181	7261.66
913.494	7276.57
913.806	7254.88
914.118	7228.44
914.43	7200.19
914.742	7141.66
915.054	7092.85
915.366	7112.74
915.678	7087.88
915.99	6995.68
916.302	6969.69
916.613	6945.51
916.925	6960.42
917.236	6899.86
917.548	6886.08
917.859	6885.62
918.171	6830.94
918.482	6801.33
918.794	6818.51
919.105	6796.13
919.416	6741.67
919.727	6736.48
920.038	6678.4
920.349	6642.24
920.66	6609.93
920.971	6594.78
921.282	6573.32
921.593	6560.89
921.903	6513.2
922.214	6500.78
922.525	6493.32
922.835	6429.14
923.146	6364.28
923.456	6307.56
923.767	6327.45
924.077	6338.07
924.387	6254.45
924.697	6247.22
925.008	6220.1
925.318	6176.26
925.628	6186.21
925.938	6186.89
926.248	6097.85
926.558	6051.07
926.867	6110.28
927.177	6017.85
927.487	5982.6
927.796	5996.16
928.106	5929.04
928.416	5882.49
928.725	5970.62
929.034	5907.8
929.344	5906.89
929.653	5847.91
929.962	5811.3
930.271	5792.77
930.581	5757.52
930.89	5734.02
931.199	5723.85
931.508	5690.85
931.817	5670.29
932.125	5677.52
932.434	5678.88
932.743	5596.84
933.051	5550.74
933.36	5531.99
933.669	5498.32
933.977	5513.46
934.286	5495.6
934.594	5471.2
934.902	5426.45
935.21	5417.87
935.519	5376.74
935.827	5348.04
936.135	5384.65
936.443	5321.15
936.751	5284.99
937.059	5289.96
937.367	5249.51
937.674	5232.79
937.982	5173.35
938.29	5138.55
938.597	5231.88
938.905	5148.04
939.213	5074.82
939.52	5116.41
939.827	5091.55
940.135	5071.89
940.442	5009.97
940.749	5021.94
941.056	5026.92
941.363	4927.26
941.67	4963.19
941.977	4877.99
942.284	4889.29
942.591	4885.45
942.898	4844.77
943.205	4849.97
943.511	4804.1
943.818	4873.7
944.125	4793.7
944.431	4795.06
944.738	4706.7
945.044	4692.01
945.35	4673.7
945.657	4635.29
945.963	4655.63
946.269	4668.51
946.575	4656.08
946.881	4593.48
947.187	4558.23
947.493	4564.78
947.799	4530.21
948.105	4476.65
948.41	4504.67
948.716	4504.44
949.022	4485.69
949.327	4454.05
949.633	4392.36
949.938	4391.68
950.244	4357.33
950.549	4331.11
950.854	4359.81
951.16	4311.68
951.465	4265.81
951.77	4275.07
952.075	4268.52
952.38	4236.65
952.685	4222.42
952.99	4216.54
953.294	4205.92
953.599	4160.05
953.904	4155.3
954.209	4146.71
954.513	4173.83
954.818	4109.43
955.122	4099.71
955.426	4092.48
955.731	4022.87
956.035	4027.85
956.339	4014.29
956.643	3990.33
956.948	3984.46
957.252	3972.93
957.556	3956.66
957.86	3907.62
958.163	3900.17
958.467	3852.26
958.771	3897.91
959.075	3879.83
959.378	3863.1
959.682	3834.86
959.985	3829.43
960.289	3824.46
960.592	3801.19
960.896	3735.42
961.199	3751.02
961.502	3751.92
961.805	3719.15
962.108	3685.71
962.411	3694.97
962.714	3663.11
963.017	3644.58
963.32	3678.02
963.623	3623.79
963.926	3602.77
964.228	3573.85
964.531	3519.38
964.833	3517.58
965.136	3518.93
965.438	3488.88
965.741	3484.13
966.043	3496.79
966.345	3499.72
966.648	3481.65
966.95	3407.07
967.252	3445.04
967.554	3399.61
967.856	3413.4
968.158	3381.54
968.46	3382.89
968.761	3341.54
969.063	3331.37
969.365	3325.04
969.666	3353.51
969.968	3279.62
970.269	3244.59
970.571	3277.81
970.872	3245.72
971.174	3204.82
971.475	3228.09
971.776	3195.55
972.077	3156.68
972.378	3221.54
972.679	3186.74
972.98	3151.48
973.281	3154.42
973.582	3146.29
973.883	3118.49
974.183	3105.61
974.484	3097.7
974.785	3075.33
975.085	3048.89
975.386	3064.26
975.686	3033.52
975.986	3037.59
976.287	3051.83
976.587	3009.34
976.887	3003.69
977.187	2998.95
977.487	2981.55
977.787	2930.47
978.087	2933.19
978.387	2951.72
978.687	2924.37
978.987	2936.58
979.286	2866.97
979.586	2900.42
979.885	2840.31
980.185	2818.61
980.484	2821.1
980.784	2810.7
981.083	2823.58
981.382	2840.31
981.682	2791.95
981.981	2784.04
982.28	2743.59
982.579	2770.93
982.878	2763.92
983.177	2757.15
983.475	2729.8
983.774	2718.95
984.073	2664.49
984.372	2662.01
984.67	2660.42
984.969	2650.26
985.267	2648.67
985.566	2658.16
985.864	2575
986.162	2601.89
986.461	2620.88
986.759	2575.23
987.057	2557.38
987.355	2575.45
987.653	2541.33
987.951	2541.11
988.249	2542.91
988.547	2528.45
988.844	2482.12
989.142	2510.37
989.44	2464.72
989.737	2474.89
990.035	2468.11
990.332	2417.27
990.63	2459.53
990.927	2453.65
991.224	2438.51
991.521	2409.58
991.819	2392.41
992.116	2387.21
992.413	2370.71
992.71	2358.51
993.006	2332.3
993.303	2330.49
993.6	2332.3
993.897	2302.47
994.193	2318.06
994.49	2265.63
994.787	2282.36
995.083	2249.14
995.379	2264.5
995.676	2269.25
995.972	2210.49
996.268	2242.13
996.565	2203.04
996.861	2224.05
997.157	2228.57
997.453	2144.51
997.749	2179.76
998.044	2159.19
998.34	2140.66
998.636	2142.02
998.932	2149.03
999.227	2118.29
999.523	2118.07
999.818	2106.54
1000.114	2086.65
1000.409	2057.73
1000.704	2081.91
1001	2029.48
1001.295	2048.92
1001.59	2020.89
1001.885	2007.33
1002.18	1997.62
1002.475	2023.6
1002.77	1991.52
1003.065	1967.56
1003.359	2001.68
1003.654	1965.53
1003.949	1935.47
1004.243	1954.68
1004.538	1918.3
1004.832	1934.57
1005.127	1911.07
1005.421	1917.85
1005.715	1900.22
1006.009	1891.41
1006.304	1855.7
1006.598	1876.94
1006.892	1867.68
1007.186	1830.16
1007.48	1854.12
1007.773	1836.49
1008.067	1791.07
1008.361	1771.63
1008.655	1787.23
1008.948	1786.1
1009.242	1762.59
1009.535	1766.44
1009.829	1741.58
1010.122	1744.74
1010.415	1732.77
1010.708	1715.14
1011.001	1714.91
1011.295	1667.23
1011.588	1673.78
1011.881	1655.93
1012.173	1667.23
1012.466	1665.65
1012.759	1656.61
1013.052	1653.9
1013.344	1636.72
1013.637	1621.36
1013.93	1606.44
1014.222	1615.71
1014.514	1611.41
1014.807	1583.84
1015.099	1571.87
1015.391	1560.11
1015.683	1564.63
1015.976	1550.62
1016.268	1526.89
1016.56	1536.39
1016.851	1541.36
1017.143	1522.83
1017.435	1517.63
1017.727	1479.21
1018.018	1468.14
1018.31	1460
1018.602	1436.28
1018.893	1473.34
1019.185	1435.6
1019.476	1435.15
1019.767	1428.14
1020.058	1410.51
1020.35	1424.52
1020.641	1386.33
1020.932	1371.19
1021.223	1380.23
1021.514	1369.38
1021.804	1339.78
1022.095	1360.12
1022.386	1360.8
1022.677	1334.81
1022.967	1346.11
1023.258	1276.51
1023.548	1295.71
1023.839	1291.42
1024.129	1306.79
1024.419	1281.25
1024.709	1273.34
1025	1299.33
1025.29	1254.81
1025.58	1244.64
1025.87	1245.77
1026.16	1252.78
1026.449	1205.55
1026.739	1220.01
1027.029	1197.41
1027.319	1232.89
1027.608	1205.77
1027.898	1211.87
1028.187	1190.18
1028.477	1173.01
1028.766	1184.08
1029.055	1159.22
1029.344	1151.99
1029.634	1139.56
1029.923	1143.63
1030.212	1148.37
1030.501	1143.4
1030.79	1132.55
1031.078	1089.62
1031.367	1107.02
1031.656	1113.8
1031.945	1073.57
1032.233	1072.22
1032.522	1078.09
1032.81	1080.35
1033.099	1076.96
1033.387	1057.75
1033.675	1042.39
1033.963	1064.08
1034.251	1024.99
1034.54	1047.36
1034.828	1013.01
1035.116	1033.35
1035.403	984.99
1035.691	1009.85
1035.979	1010.3
1036.267	999.45
1036.554	978.89
1036.842	947.02
1037.129	995.84
1037.417	978.89
1037.704	979.56
1037.992	965.1
1038.279	940.7
1038.566	923.75
1038.853	923.75
1039.14	923.75
