Data from hue_230_FLMS001491_00009.txt Node
Date: Tue Feb 07 16:36:44 GMT 2017
User: dcchb
Spectrometer: FLMS00149
Trigger mode: 0
Integration Time (sec): 2.000000E-2
Scans to average: 10
Electric dark correction enabled: true
Nonlinearity correction enabled: false
Boxcar width: 0
XAxis mode: Wavelengths
Number of Pixels in Spectrum: 2048
>>>>>Begin Spectral Data<<<<<
341.393	-17.54
341.776	-17.54
342.16	-17.54
342.543	-79.24
342.927	-60.7
343.31	-54.15
343.693	-65.45
344.077	-50.76
344.46	-57.77
344.843	-50.54
345.226	-56.86
345.61	-31.1
345.993	-33.36
346.376	-4.21
346.759	-3.76
347.142	27.88
347.525	43.93
347.908	66.3
348.291	67.2
348.674	94.77
349.057	107.88
349.44	117.6
349.823	134.32
350.206	167.99
350.588	177.93
350.971	216.8
351.354	226.52
351.737	235.78
352.119	246.63
352.502	249.57
352.884	259.06
353.267	292.96
353.65	285.95
354.032	294.31
354.414	304.71
354.797	305.84
355.179	311.71
355.562	312.17
355.944	322.56
356.326	320.98
356.709	324.14
357.091	329.79
357.473	326.86
357.855	347.42
358.238	335.67
358.62	330.47
359.002	331.6
359.384	333.86
359.766	333.86
360.148	339.06
360.53	330.02
360.912	321.43
361.294	326.18
361.676	324.37
362.057	324.82
362.439	323.24
362.821	311.04
363.203	330.02
363.584	301.32
363.966	331.6
364.348	306.52
364.729	299.06
365.111	322.11
365.493	306.52
365.874	342.22
366.256	294.99
366.637	319.17
367.019	311.94
367.4	314.65
367.781	305.16
368.163	318.95
368.544	315.33
368.925	303.13
369.306	314.43
369.688	288.66
370.069	330.7
370.45	300.87
370.831	291.83
371.212	318.04
371.593	305.39
371.974	312.17
372.355	321.66
372.736	325.05
373.117	302.45
373.498	300.19
373.879	330.47
374.26	303.58
374.641	319.62
375.021	318.72
375.402	341.77
375.783	313.97
376.163	322.79
376.544	309.91
376.925	315.33
377.305	323.47
377.686	310.13
378.066	324.14
378.447	329.12
378.827	342.22
379.208	339.96
379.588	336.35
379.968	341.32
380.349	342.22
380.729	315.56
381.109	342.9
381.489	337.48
381.87	340.19
382.25	329.57
382.63	334.77
383.01	330.02
383.39	336.8
383.77	334.77
384.15	340.19
384.53	356.23
384.91	363.69
385.29	335.44
385.67	365.5
386.049	355.56
386.429	368.66
386.809	366.4
387.189	348.55
387.568	342.67
387.948	347.65
388.328	358.95
388.707	353.97
389.087	372.05
389.466	361.43
389.846	382.67
390.225	365.5
390.605	369.57
390.984	384.26
391.363	347.87
391.743	376.57
392.122	371.15
392.501	379.96
392.881	384.71
393.26	367.98
393.639	380.41
394.018	382.67
394.397	372.96
394.776	364.14
395.155	392.84
395.534	384.03
395.913	386.29
396.292	381.77
396.671	392.39
397.05	385.61
397.429	396.91
397.808	401.66
398.186	394.42
398.565	417.93
398.944	395.55
399.323	422.9
399.701	427.19
400.08	403.92
400.458	416.8
400.837	423.58
401.215	442.11
401.594	416.8
401.972	423.12
402.351	405.72
402.729	445.27
403.107	422.22
403.486	434.65
403.864	435.1
404.242	449.79
404.62	424.25
404.999	452.73
405.377	443.24
405.755	452.73
406.133	476.68
406.511	442.78
406.889	465.84
407.267	465.38
407.645	487.3
408.023	497.47
408.401	491.6
408.779	478.49
409.156	482.78
409.534	506.96
409.912	502.67
410.29	504.48
410.667	531.37
411.045	541.99
411.422	532.95
411.8	528.88
412.178	555.32
412.555	560.97
412.933	532.95
413.31	565.95
413.687	550.8
414.065	576.34
414.442	584.93
414.819	591.71
415.197	591.71
415.574	595.32
415.951	630.8
416.328	612.05
416.705	623.35
417.082	621.76
417.46	632.61
417.837	659.5
418.214	644.36
418.591	659.5
418.967	667.19
419.344	685.72
419.721	673.97
420.098	663.34
420.475	664.7
420.852	697.47
421.228	704.7
421.605	704.47
421.982	709.9
422.358	737.69
422.735	759.39
423.111	751.03
423.488	786.96
423.864	772.95
424.241	809.78
424.617	801.87
424.994	782.44
425.37	813.17
425.746	827.41
426.123	841.19
426.499	872.38
426.875	857.24
427.251	874.64
427.627	896.56
428.003	906.28
428.379	905.15
428.756	929.1
429.132	916.22
429.507	923.68
429.883	932.49
430.259	966.16
430.635	948.31
431.011	963
431.387	999.83
431.763	1011.58
432.138	1031.02
432.514	1031.02
432.89	1026.05
433.265	1076.67
433.641	1054.29
434.016	1080.06
434.392	1125.03
434.767	1134.07
435.143	1136.78
435.518	1139.04
435.894	1180.84
436.269	1169.09
436.644	1219.71
437.02	1234.4
437.395	1261.97
437.77	1266.04
438.145	1308.3
438.52	1304.68
438.895	1313.27
439.271	1313.27
439.646	1371.57
440.021	1368.64
440.395	1383.78
440.77	1390.78
441.145	1378.13
441.52	1419.26
441.895	1420.39
442.27	1447.05
442.645	1472.59
443.019	1497.22
443.394	1502.19
443.769	1481.18
444.143	1488.63
444.518	1532.93
444.892	1510.78
445.267	1530.67
445.641	1553.26
446.016	1555.52
446.39	1616.09
446.764	1597.56
447.139	1613.38
447.513	1645.24
447.887	1624.45
448.262	1666.26
448.636	1637.1
449.01	1679.36
449.384	1673.26
449.758	1691.57
450.132	1715.97
450.506	1733.6
450.88	1731.56
451.254	1722.53
451.628	1761.39
452.002	1779.92
452.376	1769.98
452.75	1788.51
453.123	1808.62
453.497	1859.92
453.871	1868.51
454.244	1923.65
454.618	1905.57
454.992	1906.48
455.365	1909.64
455.739	1962.75
456.112	1971.33
456.486	2017.21
456.859	2028.05
457.232	2061.27
457.606	2052.23
457.979	2058.56
458.352	2114.83
458.725	2137.2
459.099	2130.88
459.472	2195.06
459.845	2214.49
460.218	2213.81
460.591	2219.69
460.964	2275.28
461.337	2267.37
461.71	2315.05
462.083	2380.59
462.456	2364.99
462.829	2345.33
463.201	2405.45
463.574	2406.35
463.947	2456.29
464.32	2482.05
464.692	2500.36
465.065	2513.24
465.438	2529.74
465.81	2600.47
466.183	2604.08
466.555	2647.02
466.928	2694.7
467.3	2649.51
467.672	2699.9
468.045	2813.12
468.417	2778.09
468.789	2814.7
469.161	2834.13
469.534	2890.63
469.906	2944.19
470.278	2916.62
470.65	2950.06
471.022	3054.47
471.394	3048.59
471.766	3081.81
472.138	3111.64
472.51	3179.44
472.882	3240.68
473.253	3224.86
473.625	3313.22
473.997	3365.19
474.369	3347.34
474.74	3397.28
475.112	3443.38
475.484	3507.56
475.855	3548.47
476.227	3620.33
476.598	3630.5
476.97	3658.75
477.341	3787.33
477.713	3781.68
478.084	3786.43
478.455	3899.42
478.827	3942.35
479.198	4054.22
479.569	4071.84
479.94	4140.31
480.311	4175.12
480.682	4227.54
481.053	4360.87
481.424	4386.64
481.795	4434.32
482.166	4472.06
482.537	4497.59
482.908	4568.55
483.279	4666.18
483.65	4756.8
484.021	4721.54
484.391	4834.99
484.762	4861.43
485.133	4881.76
485.503	4977.81
485.874	5090.8
486.244	5139.16
486.615	5203.11
486.985	5248.08
487.356	5302.77
487.726	5376.89
488.097	5464.8
488.467	5450.11
488.837	5561.75
489.207	5628.86
489.578	5687.17
489.948	5701.4
490.318	5789.31
490.688	5794.96
491.058	5881.06
491.428	5965.35
491.798	5983.43
492.168	6034.05
492.538	6084.22
492.908	6154.27
493.278	6175.97
493.648	6227.72
494.017	6246.93
494.387	6348.17
494.757	6348.17
495.126	6449.63
495.496	6474.94
495.866	6513.13
496.235	6506.81
496.605	6578.44
496.974	6631.32
497.344	6633.58
497.713	6763.07
498.082	6762.39
498.452	6774.14
498.821	6816.85
499.19	6814.14
499.559	6887.81
499.928	6868.6
500.298	6956.06
500.667	6976.17
501.036	6946.79
501.405	7042.61
501.774	7030.63
502.143	7072.89
502.512	7022.72
502.88	7135.04
503.249	7129.16
503.618	7199.67
503.987	7148.37
504.356	7195.6
504.724	7247.35
505.093	7262.49
505.462	7326.67
505.83	7295.94
506.199	7370.74
506.567	7388.82
506.936	7401.92
507.304	7534.12
507.672	7510.62
508.041	7504.29
508.409	7509.49
508.777	7584.74
509.145	7665.42
509.514	7620
509.882	7616.83
510.25	7645.99
510.618	7615.25
510.986	7643.27
511.354	7744.74
511.722	7770.5
512.09	7768.24
512.458	7758.98
512.826	7862.7
513.193	7961.23
513.561	7867.9
513.929	7907.45
514.297	7931.85
514.664	7930.5
515.032	7994.22
515.4	7959.88
515.767	7988.35
516.135	8023.15
516.502	7983.38
516.869	8091.62
517.237	8053.88
517.604	8054.34
517.972	8122.36
518.339	8106.54
518.706	8083.71
519.073	8086.43
519.44	8160.55
519.808	8139.31
520.175	8126.2
520.542	8248.68
520.909	8191.96
521.276	8207.33
521.643	8222.69
522.009	8220.89
522.376	8334.33
522.743	8298.85
523.11	8377.27
523.477	8436.93
523.843	8478.96
524.21	8525.06
524.577	8505.17
524.943	8473.31
525.31	8504.27
525.676	8555.34
526.043	8534.1
526.409	8588.11
526.776	8598.28
527.142	8548.33
527.508	8659.97
527.874	8711.72
528.241	8626.75
528.607	8729.35
528.973	8711.95
529.339	8657.26
529.705	8698.39
530.071	8742
530.437	8791.27
530.803	8747.2
531.169	8813.41
531.535	8778.61
531.901	8727.31
532.267	8781.32
532.632	8732.96
532.998	8796.92
533.364	8811.15
533.73	8803.92
534.095	8818.16
534.461	8793.3
534.826	8854.99
535.192	8798.72
535.557	8865.84
535.923	8822
536.288	8766.63
536.653	8780.64
537.019	8752.17
537.384	8847.54
537.749	8767.99
538.114	8765.28
538.479	8772.51
538.845	8743.81
539.21	8780.87
539.575	8757.82
539.94	8742.45
540.305	8750.59
540.67	8737.93
541.034	8746.97
541.399	8777.26
541.764	8710.36
542.129	8742
542.494	8726.41
542.858	8727.09
543.223	8707.2
543.587	8709.23
543.952	8710.36
544.316	8645.73
544.681	8644.15
545.045	8751.72
545.41	8677.37
545.774	8644.38
546.138	8686.41
546.503	8620.88
546.867	8622
547.231	8626.07
547.595	8630.59
547.959	8621.33
548.324	8644.83
548.688	8547.66
549.052	8621.78
549.416	8582.91
549.779	8535.91
550.143	8585.17
550.507	8616.13
550.871	8628.56
551.235	8572.06
551.599	8627.65
551.962	8613.19
552.326	8619.97
552.689	8622.23
553.053	8573.19
553.417	8517.83
553.78	8655.9
554.143	8544.27
554.507	8585.17
554.87	8555.57
555.234	8679.4
555.597	8597.15
555.96	8551.05
556.323	8590.37
556.686	8582.68
557.05	8622.23
557.413	8578.39
557.776	8604.15
558.139	8554.89
558.502	8604.83
558.865	8576.58
559.228	8612.29
559.59	8683.47
559.953	8666.98
560.316	8685.51
560.679	8736.13
561.041	8690.25
561.404	8748.33
561.767	8751.72
562.129	8647.99
562.492	8774.09
562.854	8759.18
563.217	8705.39
563.579	8777.48
563.941	8859.51
564.304	8821.55
564.666	8840.98
565.028	8867.87
565.39	8854.77
565.753	8819.97
566.115	8810.25
566.477	8887.31
566.839	8959.85
567.201	8986.06
567.563	8927.76
567.925	9018.6
568.287	9024.48
568.648	8976.8
569.01	9116
569.372	9165.49
569.734	9095.66
570.095	9120.52
570.457	9154.19
570.819	9140.86
571.18	9126.17
571.542	9194.19
571.903	9170.47
572.265	9236.45
572.626	9241.2
572.987	9299.05
573.349	9299.05
573.71	9297.24
574.071	9369.1
574.432	9356.67
574.794	9407.97
575.155	9380.18
575.516	9402.55
575.877	9354.42
576.238	9431.7
576.599	9507.41
576.96	9453.17
577.32	9475.09
577.681	9534.3
578.042	9497.24
578.403	9570.91
578.763	9560.96
579.124	9595.09
579.485	9634.41
579.845	9674.18
580.206	9678.47
580.566	9687.06
580.927	9614.52
581.287	9726.61
581.648	9618.81
582.008	9693.84
582.368	9752.82
582.728	9764.8
583.089	9741.98
583.449	9792.14
583.809	9751.01
584.169	9857.45
584.529	9802.31
584.889	9892.48
585.249	9819.94
585.609	9807.06
585.969	9791.24
586.329	9838.02
586.688	9899.94
587.048	9864.46
587.408	9903.33
587.768	9936.32
588.127	9961.63
588.487	9873.95
588.846	10007.96
589.206	9955.76
589.565	9941.07
589.925	10001.86
590.284	9957.34
590.643	9927.96
591.003	10030.78
591.362	10049.09
591.721	10042.53
592.08	10040.72
592.44	10071.46
592.799	10011.57
593.158	10044.11
593.517	10010.44
593.876	10030.56
594.235	10004.34
594.593	10089.99
594.952	10026.04
595.311	10004.12
595.67	10066.49
596.029	10159.37
596.387	10095.64
596.746	10148.29
597.104	10046.37
597.463	10115.75
597.822	10125.69
598.18	10137.45
598.538	10087.05
598.897	10163.89
599.255	10167.5
599.613	10270.32
599.972	10188.29
600.33	10176.77
600.688	10190.78
601.046	10156.43
601.404	10254.28
601.762	10225.8
602.12	10282.3
602.478	10181.06
602.836	10256.99
603.194	10226.93
603.552	10249.76
603.91	10167.5
604.268	10220.16
604.625	10134.06
604.983	10247.05
605.341	10227.84
605.698	10289.98
606.056	10289.76
606.413	10269.87
606.771	10323.2
607.128	10349.42
607.485	10248.18
607.843	10308.06
608.2	10346.71
608.557	10384.9
608.914	10295.63
609.272	10363.88
609.629	10346.71
609.986	10408.17
610.343	10360.49
610.7	10431.45
611.057	10373.82
611.414	10351.9
611.771	10401.62
612.127	10466.25
612.484	10501.05
612.841	10467.61
613.198	10447.27
613.554	10487.04
613.911	10553.25
614.267	10539.02
614.624	10561.84
614.98	10515.51
615.337	10588.73
615.693	10513.03
616.05	10550.32
616.406	10640.93
616.762	10504.44
617.118	10566.13
617.475	10528.85
617.831	10593.7
618.187	10617.88
618.543	10559.13
618.899	10611.78
619.255	10582.41
619.611	10619.92
619.967	10640.03
620.323	10688.62
620.678	10616.3
621.034	10533.59
621.39	10625.34
621.746	10607.94
622.101	10670.09
622.457	10635.06
622.812	10624.21
623.168	10675.51
623.523	10652.01
623.879	10706.24
624.234	10563.65
624.589	10626.25
624.945	10640.26
625.3	10657.43
625.655	10681.16
626.01	10564.55
626.365	10676.87
626.72	10573.37
627.075	10636.42
627.43	10670.31
627.785	10628.28
628.14	10621.73
628.495	10675.51
628.85	10596.19
629.205	10610.43
629.559	10639.13
629.914	10558
630.269	10598.45
630.623	10580.15
630.978	10583.31
631.332	10524.33
631.687	10568.62
632.041	10495.85
632.396	10562.07
632.75	10512.35
633.104	10493.59
633.459	10416.31
633.813	10470.54
634.167	10450.43
634.521	10460.6
634.875	10401.17
635.229	10393.71
635.583	10414.95
635.937	10360.72
636.291	10332.24
636.645	10298.12
636.999	10328.85
637.352	10411.79
637.706	10276.2
638.06	10341.73
638.413	10276.65
638.767	10262.41
639.121	10259.7
639.474	10298.8
639.828	10207.5
640.181	10261.28
640.534	10230.1
640.888	10210.44
641.241	10155.98
641.594	10099.03
641.947	10211.57
642.301	10158.01
642.654	10109.42
643.007	10226.48
643.36	10147.16
643.713	10090.89
644.066	10234.84
644.419	10049.31
644.771	10048.41
645.124	9997.56
645.477	9965.25
645.83	9872.59
646.182	9860.16
646.535	9825.14
646.888	9842.76
647.24	9767.96
647.593	9795.76
647.945	9785.36
648.298	9703.33
648.65	9713.05
649.002	9680.28
649.355	9754.86
649.707	9810.22
650.059	9818.81
650.411	9918.47
650.763	9895.42
651.115	10035.53
651.467	9926.15
651.819	9963.44
652.171	9993.72
652.523	9970.9
652.875	9969.09
653.227	9948.75
653.578	9997.11
653.93	9967.28
654.282	9970.44
654.633	9857.9
654.985	9933.38
655.337	9940.61
655.688	9935.64
656.039	10042.76
656.391	9876.89
656.742	9913.27
657.094	9931.12
657.445	9985.81
657.796	9978.81
658.147	9927.51
658.498	9873.05
658.849	9980.61
659.2	9896.77
659.551	9890.22
659.902	9952.59
660.253	9880.05
660.604	10042.08
660.955	9909.2
661.306	9943.78
661.656	9897.23
662.007	9890.45
662.358	9942.42
662.708	9978.58
663.059	10026.04
663.409	9826.27
663.76	9951.46
664.11	9988.52
664.461	9983.33
664.811	9997.11
665.161	9929.77
665.511	9913.5
665.862	9945.59
666.212	9978.35
666.562	10014.28
666.912	9972.7
667.262	9929.77
667.612	9870.11
667.962	9956.89
668.312	9905.81
668.662	10025.13
669.011	9975.42
669.361	9865.81
669.711	9925.02
670.06	9908.98
670.41	9922.99
670.76	9846.61
671.109	9921.63
671.459	9868.75
671.808	9862.88
672.157	9818.36
672.507	9738.59
672.856	9836.21
673.205	9864.91
673.554	9922.54
673.904	9843.67
674.253	9849.32
674.602	9875.53
674.951	9713.95
675.3	9632.83
675.649	9786.49
675.998	9798.7
676.346	9849.32
676.695	9858.36
677.044	9699.49
677.393	9787.62
677.741	9824.46
678.09	9754.63
678.438	9679.6
678.787	9695.65
679.135	9758.92
679.484	9685.71
679.832	9624.01
680.181	9565.93
680.529	9700.62
680.877	9514.41
681.225	9555.99
681.573	9620.85
681.922	9588.76
682.27	9499.95
682.618	9525.26
682.966	9467.41
683.314	9515.31
683.661	9500.63
684.009	9428.09
684.357	9438.03
684.705	9426.96
685.053	9359.61
685.4	9414.98
685.748	9353.06
686.095	9374.3
686.443	9283.91
686.79	9287.75
687.138	9268.32
687.485	9302.67
687.832	9283
688.18	9304.25
688.527	9152.16
688.874	9132.5
689.221	9152.16
689.568	9110.13
689.915	9082.33
690.262	9089.34
690.609	9014.76
690.956	9060.64
691.303	9073.97
691.65	8978.38
691.997	8957.14
692.344	8997.81
692.69	8944.71
693.037	8922.79
693.383	8809.12
693.73	8887.31
694.077	8826.52
694.423	8787.42
694.769	8745.84
695.116	8681.21
695.462	8716.47
695.808	8669.91
696.155	8746.52
696.501	8605.96
696.847	8581.78
697.193	8584.27
697.539	8617.26
697.885	8501.1
698.231	8482.12
698.577	8464.49
698.923	8437.83
699.269	8368
699.614	8337.94
699.96	8353.09
700.306	8332.75
700.651	8256.59
700.997	8244.16
701.342	8219.53
701.688	8186.08
702.033	8171.17
702.379	8143.6
702.724	8127.55
703.069	8093.43
703.415	8021.12
703.76	8047.56
704.105	8048.01
704.45	8056.82
704.795	7981.34
705.14	7898.63
705.485	7948.12
705.83	7898.63
706.175	7913.55
706.52	7850.27
706.865	7888.46
707.209	7844.85
707.554	7722.14
707.899	7799.65
708.243	7747.68
708.588	7700.67
708.932	7738.86
709.277	7612.99
709.621	7679.66
709.966	7573.22
710.31	7610.05
710.654	7515.37
710.998	7572.32
711.342	7560.56
711.687	7529.15
712.031	7511.3
712.375	7554.91
712.719	7500.68
713.063	7483.05
713.407	7429.04
713.75	7463.84
714.094	7497.06
714.438	7442.83
714.782	7455.26
715.125	7356.5
715.469	7389.95
715.812	7346.33
716.156	7337.52
716.499	7328.48
716.843	7308.82
717.186	7285.54
717.53	7308.59
717.873	7366.44
718.216	7293.23
718.559	7298.88
718.902	7210.97
719.246	7277.41
719.589	7270.85
719.932	7232.21
720.275	7184.53
720.617	7157.64
720.96	7192.89
721.303	7116.51
721.646	7160.57
721.989	7180.23
722.331	7166
722.674	7122.16
723.016	7094.59
723.359	7142.95
723.701	7139.78
724.044	7114.02
724.386	7045.78
724.729	7071.54
725.071	6996.06
725.413	7036.96
725.755	7107.24
726.097	7078.99
726.439	6977.08
726.782	7004.65
727.124	7049.39
727.465	7035.83
727.807	7018.43
728.149	6948.83
728.491	6988.83
728.833	7037.41
729.175	6967.36
729.516	6965.33
729.858	6937.08
730.199	6949.05
730.541	7009.84
730.882	6965.78
731.224	7011.43
731.565	6946.79
731.906	7011.43
732.248	6992.9
732.589	6883.52
732.93	6921.71
733.271	6935.95
733.612	6969.17
733.953	6945.66
734.294	6944.08
734.635	6920.81
734.976	6989.28
735.317	6924.42
735.658	6950.18
735.999	6944.53
736.339	6943.18
736.68	6945.44
737.021	6913.35
737.361	6928.26
737.702	6951.09
738.042	6936.17
738.383	6943.41
738.723	6959.9
739.063	6961.94
739.404	6924.2
739.744	6959
740.084	6972.56
740.424	6999.45
740.764	6996.06
741.104	7002.16
741.444	7002.84
741.784	7035.83
742.124	7031.31
742.464	6962.39
742.804	7008.04
743.143	7016.4
743.483	7003.74
743.823	7074.02
744.162	7053.68
744.502	7109.5
744.841	7130.29
745.181	7145.89
745.52	7169.84
745.86	7206.9
746.199	7206
746.538	7223.4
746.877	7276.96
747.216	7323.73
747.556	7292.77
747.895	7350.17
748.234	7284.86
748.573	7393.11
748.911	7449.61
749.25	7552.88
749.589	7478.08
749.928	7623.16
750.267	7670.17
750.605	7703.84
750.944	7733.89
751.283	7773.44
751.621	7845.08
751.96	7886.43
752.298	7972.08
752.636	8007.56
752.975	8101.34
753.313	8097.72
753.651	8239.87
753.989	8276.25
754.327	8315.8
754.666	8451.61
755.004	8560.09
755.342	8633.53
755.679	8739.74
756.017	8764.15
756.355	8905.16
756.693	8953.52
757.031	9083.69
757.368	9126.17
757.706	9221.31
758.044	9389.44
758.381	9533.39
758.719	9552.6
759.056	9798.02
759.394	9913.27
759.731	9874.4
760.068	10057.9
760.405	10064.23
760.743	10203.21
761.08	10456.76
761.417	10471.22
761.754	10615.17
762.091	10763.87
762.428	10852.23
762.765	11021.26
763.102	11112.33
763.438	11160.7
763.775	11294.7
764.112	11495.83
764.449	11564.07
764.785	11656.73
765.122	11811.98
765.458	11893.33
765.795	11971.3
766.131	12124.51
766.467	12194.11
766.804	12371.96
767.14	12418.29
767.476	12430.49
767.812	12540.77
768.148	12740.77
768.485	12747.09
768.821	12764.72
769.157	12957.71
769.492	13046.75
769.828	13192.96
770.164	13150.25
770.5	13212.39
770.836	13318.38
771.171	13371.94
771.507	13439.96
771.842	13431.82
772.178	13539.16
772.513	13604.92
772.849	13654.64
773.184	13737.58
773.519	13835.88
773.855	13835.43
774.19	13889.66
774.525	13919.27
774.86	14023.67
775.195	14047.85
775.53	14146.38
775.865	14090.34
776.2	14055.99
776.535	13973.5
776.87	14095.08
777.205	14130.11
777.539	14159.26
777.874	14194.29
778.209	14161.75
778.543	14199.26
778.878	14069.55
779.212	14253.27
779.547	14164.23
779.881	14321.52
780.215	14260.95
780.55	14253.27
780.884	14154.29
781.218	14214.85
781.552	14364.68
781.886	14191.12
782.22	14196.55
782.554	14165.14
782.888	14140.5
783.222	14131.46
783.556	14110
783.889	14140.05
784.223	14091.69
784.557	14080.17
784.89	14124.46
785.224	14066.83
785.557	14048.08
785.891	14101.18
786.224	14034.07
786.558	14120.17
786.891	13991.81
787.224	14013.95
787.557	13959.49
787.891	13972.15
788.224	13965.37
788.557	13997.91
788.89	13943.9
789.223	13968.31
789.556	13933.96
789.888	13897.8
790.221	13843.34
790.554	13769.21
790.887	13817.12
791.219	13771.93
791.552	13714.53
791.884	13693.74
792.217	13642.89
792.549	13648.54
792.882	13658.93
793.214	13564.25
793.546	13555.21
793.879	13470.24
794.211	13514.31
794.543	13550.69
794.875	13564.25
795.207	13580.07
795.539	13546.62
795.871	13466.4
796.203	13345.95
796.535	13311.15
796.867	13284.03
797.198	13252.62
797.53	13363.58
797.862	13133.52
798.193	13171.94
798.525	13142.34
798.856	13061.44
799.188	13057.82
799.519	12987.99
799.85	12882.91
800.182	12964.72
800.513	12954.32
800.844	12820.31
801.175	12909.8
801.506	12912.06
801.837	12896.92
802.168	12816.92
802.499	12745.29
802.83	12722.91
803.161	12648.11
803.491	12670.94
803.822	12671.84
804.153	12629.13
804.483	12558.62
804.814	12596.36
805.145	12595.46
805.475	12524.28
805.805	12402.24
806.136	12504.84
806.466	12459.19
806.796	12361.12
807.126	12300.78
807.457	12368.12
807.787	12293.77
808.117	12245.41
808.447	12270.27
808.777	12212.87
809.107	12206.54
809.436	12163.61
809.766	12223.49
810.096	12124.06
810.426	12083.61
810.755	12050.62
811.085	12138.97
811.414	12015.14
811.744	11891.98
812.073	11945.53
812.403	11959.32
812.732	11919.32
813.061	11889.26
813.39	11906.44
813.719	11810.4
814.049	11881.35
814.378	11843.16
814.707	11793.9
815.036	11709.16
815.365	11685.43
815.693	11641.59
816.022	11712.77
816.351	11655.82
816.68	11552.78
817.008	11674.58
817.337	11514.13
817.665	11498.99
817.994	11527.24
818.322	11477.3
818.651	11419.22
818.979	11385.1
819.307	11489.95
819.636	11399.79
819.964	11324.31
820.292	11438.2
820.62	11395.94
820.948	11368.37
821.276	11362.72
821.604	11334.93
821.932	11324.76
822.259	11265.33
822.587	11403.63
822.915	11346.68
823.243	11380.58
823.57	11271.88
823.898	11307.13
824.225	11303.97
824.553	11319.79
824.88	11334.02
825.207	11334.93
825.535	11245.66
825.862	11328.83
826.189	11263.29
826.516	11420.8
826.843	11401.82
827.17	11401.59
827.497	11375.38
827.824	11433.23
828.151	11351.42
828.478	11334.48
828.805	11406.79
829.131	11377.19
829.458	11389.39
829.785	11259.9
830.111	11333.35
830.438	11356.62
830.764	11366.79
831.09	11380.35
831.417	11350.97
831.743	11348.94
832.069	11399.79
832.395	11245.21
832.722	11368.83
833.048	11317.98
833.374	11297.19
833.7	11193.69
834.026	11302.16
834.351	11318.21
834.677	11255.61
835.003	11259.68
835.329	11228.72
835.654	11242.05
835.98	11140.81
836.306	11180.81
836.631	11167.93
836.956	11212.9
837.282	11332.67
837.607	11113.24
837.932	11100.58
838.258	11159.11
838.583	11082.96
838.908	11068.04
839.233	11039.79
839.558	11060.13
839.883	10971.1
840.208	11025.33
840.533	11001.38
840.858	11044.09
841.182	10994.6
841.507	10976.29
841.832	10929.51
842.156	10914.6
842.481	10858.56
842.805	10865.79
843.13	10844.09
843.454	10807.48
843.778	10816.52
844.103	10801.83
844.427	10722.97
844.751	10731.55
845.075	10693.81
845.399	10649.75
845.723	10570.65
846.047	10644.78
846.371	10521.84
846.695	10542.41
847.019	10380.6
847.343	10433.71
847.666	10332.02
847.99	10267.16
848.313	10331.56
848.637	10222.41
848.96	10207.95
849.284	10266.93
849.607	10154.62
849.931	10050.44
850.254	10064
850.577	9970.44
850.9	9975.42
851.223	9921.41
851.546	9868.3
851.869	9765.7
852.192	9908.98
852.515	9741.3
852.838	9725.48
853.161	9735.65
853.483	9663.11
853.806	9681.86
854.129	9595.09
854.451	9550.57
854.774	9619.94
855.096	9515.31
855.419	9537.46
855.741	9441.42
856.063	9451.14
856.385	9421.31
856.708	9388.31
857.03	9366.84
857.352	9350.35
857.674	9284.59
857.996	9342.66
858.318	9231.71
858.64	9229.22
858.961	9207.98
859.283	9179.28
859.605	9142.44
859.926	9215.21
860.248	9129.11
860.57	9080.07
860.891	9062.22
861.212	9066.06
861.534	9031.26
861.855	8993.75
862.176	9037.36
862.498	9012.28
862.819	9068.77
863.14	8934.09
863.461	8948.55
863.782	8955.56
864.103	8893.18
864.424	8915.56
864.745	8933.86
865.065	8840.76
865.386	8798.27
865.707	8782.45
866.027	8783.58
866.348	8768.67
866.668	8767.76
866.989	8705.39
867.309	8685.05
867.63	8724.38
867.95	8688.9
868.27	8631.04
868.59	8701.78
868.91	8636.92
869.23	8627.43
869.55	8579.29
869.87	8641.21
870.19	8571.38
870.51	8615.45
870.83	8640.54
871.15	8561.44
871.469	8546.3
871.789	8593.31
872.109	8548.56
872.428	8522.57
872.748	8530.93
873.067	8501.78
873.386	8416.81
873.706	8498.17
874.025	8444.16
874.344	8451.84
874.663	8412.97
874.982	8403.71
875.301	8387.89
875.62	8445.96
875.939	8436.02
876.258	8438.28
876.577	8361.45
876.896	8306.53
877.214	8300.43
877.533	8366.42
877.852	8313.76
878.17	8270.6
878.489	8288.68
878.807	8281.67
879.125	8285.29
879.444	8271.28
879.762	8185.63
880.08	8238.29
880.398	8142.24
880.716	8187.67
881.034	8170.04
881.352	8205.74
881.67	8062.02
881.988	8128.91
882.306	8088.23
882.624	8033.77
882.941	8027.67
883.259	7949.48
883.577	8016.6
883.894	8025.86
884.212	7995.35
884.529	7963.72
884.846	7946.99
885.164	7948.35
885.481	7951.97
885.798	7953.32
886.115	7823.83
886.432	7822.03
886.75	7811.18
887.067	7791.52
887.383	7788.13
887.7	7829.26
888.017	7760.78
888.334	7782.25
888.651	7786.55
888.967	7733.67
889.284	7630.17
889.6	7653.89
889.917	7559.66
890.233	7630.62
890.55	7518.53
890.866	7554.24
891.182	7540
891.498	7489.15
891.815	7464.97
892.131	7484.63
892.447	7382.04
892.763	7396.05
893.079	7336.62
893.395	7372.32
893.71	7284.19
894.026	7364.64
894.342	7298.88
894.657	7279.44
894.973	7276.28
895.289	7217.97
895.604	7212.32
895.92	7183.62
896.235	7097.98
896.55	7182.95
896.865	7074.25
897.181	7094.59
897.496	7105.66
897.811	7103.63
898.126	7041.03
898.441	6991.54
898.756	6943.86
899.071	6964.65
899.386	6951.77
899.7	6844.42
900.015	6861.15
900.33	6801.04
900.644	6807.36
900.959	6808.04
901.273	6789.28
901.588	6769.85
901.902	6703.86
902.216	6752.45
902.531	6714.26
902.845	6670.64
903.159	6637.88
903.473	6652.57
903.787	6547.71
904.101	6514.04
904.415	6634.94
904.729	6532.34
905.042	6501.83
905.356	6455.73
905.67	6495.51
905.984	6465.9
906.297	6449.63
906.611	6414.83
906.924	6312.69
907.237	6311.11
907.551	6301.39
907.864	6269.52
908.177	6276.08
908.491	6229.07
908.804	6187.72
909.117	6195.85
909.43	6184.78
909.743	6092.35
910.056	6139.81
910.368	6097.33
910.681	6080.83
910.994	5993.15
911.307	6051.9
911.619	5977.78
911.932	5940.27
912.244	5927.39
912.557	5912.92
912.869	5880.38
913.181	5809.42
913.494	5889.42
913.806	5826.82
914.118	5868.18
914.43	5768.97
914.742	5779.59
915.054	5742.08
915.366	5718.35
915.678	5706.6
915.99	5624.12
916.302	5650.56
916.613	5629.32
916.925	5613.95
917.236	5556.77
917.548	5569.88
917.859	5564.01
918.171	5498.92
918.482	5495.99
918.794	5460.73
919.105	5498.92
919.416	5427.51
919.727	5391.36
920.038	5385.25
920.349	5410.11
920.66	5362.88
920.971	5361.75
921.282	5260.29
921.593	5296.44
921.903	5217.12
922.214	5210.8
922.525	5210.57
922.835	5183.68
923.146	5135.32
923.456	5171.47
923.767	5125.6
924.077	5123.79
924.387	5097.58
924.697	5032.49
925.008	5039.5
925.318	4989.11
925.628	5043.34
925.938	4987.98
926.248	4926.28
926.558	4932.16
926.867	4902.33
927.177	4911.82
927.487	4882.22
927.796	4848.32
928.106	4812.39
928.416	4809.45
928.725	4828.88
929.034	4750.47
929.344	4717.25
929.653	4768.32
929.962	4754.76
930.271	4708.89
930.581	4658.72
930.89	4634.77
931.199	4636.57
931.508	4625.95
931.817	4614.43
932.125	4663.01
932.434	4574.88
932.743	4537.82
933.051	4545.5
933.36	4521.1
933.669	4518.61
933.977	4504.37
934.286	4455.33
934.594	4488.78
934.902	4447.88
935.21	4396.35
935.519	4418.5
935.827	4412.17
936.135	4381.89
936.443	4315
936.751	4335.56
937.059	4369.01
937.367	4295.34
937.674	4278.16
937.982	4276.13
938.29	4299.41
938.597	4249.92
938.905	4169.69
939.213	4192.52
939.52	4149.81
939.827	4169.47
940.135	4157.26
940.442	4129.92
940.749	4110.26
941.056	4125.85
941.363	4040.2
941.67	4061.45
941.977	4025.06
942.284	4026.42
942.591	3993.2
942.898	4000.88
943.205	3958.4
943.511	3933.77
943.818	3922.92
944.125	3898.06
944.431	3871.62
944.738	3918.85
945.044	3903.71
945.35	3843.83
945.657	3809.93
945.963	3798.18
946.269	3794.56
946.575	3805.41
946.881	3797.05
947.187	3769.03
947.493	3739.2
947.799	3743.49
948.105	3695.13
948.41	3706.2
948.716	3700.33
949.022	3711.4
949.327	3675.02
949.633	3617.84
949.938	3622.81
950.244	3682.02
950.549	3615.13
950.854	3579.43
951.16	3555.02
951.465	3535.36
951.77	3527.9
952.075	3488.58
952.38	3513.66
952.685	3534.68
952.99	3470.28
953.294	3430.95
953.599	3444.74
953.904	3422.14
954.209	3438.86
954.513	3352.09
954.818	3400
955.122	3381.69
955.426	3387.79
955.731	3314.8
956.035	3359.54
956.339	3308.25
956.643	3306.66
956.948	3312.31
957.252	3289.04
957.556	3292.65
957.86	3233.9
958.163	3232.77
958.467	3219.44
958.771	3174.69
959.075	3224.86
959.378	3192.77
959.682	3178.08
959.985	3154.8
960.289	3131.75
960.592	3160.45
960.896	3107.12
961.199	3129.04
961.502	3107.35
961.805	3127.01
962.108	3091.08
962.411	3049.72
962.714	3000.23
963.017	3056.28
963.32	3016.5
963.623	2993.23
963.926	2957.07
964.228	2973.11
964.531	2953.45
964.833	2968.82
965.136	2908.93
965.438	2908.48
965.741	2905.09
966.043	2887.69
966.345	2884.3
966.648	2858.31
966.95	2899.9
967.252	2834.81
967.554	2830.97
967.856	2832.55
968.158	2811.54
968.46	2835.72
968.761	2759.33
969.063	2805.66
969.365	2804.76
969.666	2767.02
969.968	2759.11
970.269	2734.25
970.571	2766.34
970.872	2729.5
971.174	2708.71
971.475	2679.34
971.776	2655.38
972.077	2706.68
972.378	2665.78
972.679	2664.42
972.98	2663.74
973.281	2619
973.582	2602.95
973.883	2613.58
974.183	2570.64
974.484	2601.15
974.785	2588.27
975.085	2569.73
975.386	2544.65
975.686	2569.51
975.986	2559.79
976.287	2504.88
976.587	2528.83
976.887	2484.09
977.187	2483.41
977.487	2493.8
977.787	2473.01
978.087	2453.13
978.387	2461.49
978.687	2458.55
978.987	2403.19
979.286	2427.14
979.586	2411.32
979.885	2363.64
980.185	2379.68
980.484	2389.63
980.784	2350.31
981.083	2373.36
981.382	2365.22
981.682	2335.39
981.981	2312.79
982.28	2294.94
982.579	2286.13
982.878	2327.26
983.177	2292.45
983.475	2247.03
983.774	2271.89
984.073	2280.02
984.372	2228.95
984.67	2264.88
984.969	2248.39
985.267	2198.9
985.566	2222.17
985.864	2222.85
986.162	2174.26
986.461	2174.72
986.759	2169.52
987.057	2164.1
987.355	2141.72
987.653	2124.77
987.951	2118
988.249	2127.94
988.547	2124.77
988.844	2091.56
989.142	2077.77
989.44	2113.48
989.737	2074.38
990.035	2035.06
990.332	2043.65
990.63	2064.89
990.927	2048.84
991.224	2024.21
991.521	2022.63
991.819	2031.9
992.116	2018.34
992.413	1999.35
992.71	2016.53
993.006	1995.51
993.303	1968.39
993.6	1959.58
993.897	1972.01
994.193	1952.12
994.49	1913.25
994.787	1946.93
995.083	1917.77
995.379	1893.59
995.676	1896.53
995.972	1883.88
996.268	1887.04
996.565	1875.52
996.861	1853.82
997.157	1889.75
997.453	1854.73
997.749	1831
998.044	1830.77
998.34	1805.91
998.636	1788.96
998.932	1786.93
999.227	1781.73
999.523	1786.48
999.818	1789.64
1000.114	1740.15
1000.409	1749.19
1000.704	1755.07
1001	1705.12
1001.295	1715.07
1001.59	1706.71
1001.885	1713.26
1002.18	1713.26
1002.475	1694.05
1002.77	1666.26
1003.065	1673.49
1003.359	1701.96
1003.654	1651.11
1003.949	1653.83
1004.243	1661.28
1004.538	1605.24
1004.832	1628.97
1005.127	1614.05
1005.421	1589.65
1005.715	1634.17
1006.009	1560.95
1006.304	1591.91
1006.598	1560.27
1006.892	1570.44
1007.186	1532.02
1007.48	1544.22
1007.773	1543.77
1008.067	1562.98
1008.361	1522.3
1008.655	1492.02
1008.948	1515.98
1009.242	1520.95
1009.535	1473.94
1009.829	1472.81
1010.122	1471.91
1010.415	1477.79
1010.708	1449.99
1011.001	1464.23
1011.295	1436.88
1011.588	1428.97
1011.881	1445.24
1012.173	1412.25
1012.466	1419.03
1012.759	1402.99
1013.052	1406.38
1013.344	1394.85
1013.637	1362.08
1013.93	1370.67
1014.222	1367.28
1014.514	1367.05
1014.807	1348.98
1015.099	1348.98
1015.391	1340.16
1015.683	1327.51
1015.976	1323.89
1016.268	1299.71
1016.56	1275.31
1016.851	1305.59
1017.143	1295.64
1017.435	1278.24
1017.727	1270.79
1018.018	1242.76
1018.31	1289.99
1018.602	1250.9
1018.893	1255.19
1019.185	1237.34
1019.476	1246.61
1019.767	1215.19
1020.058	1206.61
1020.35	1212.71
1020.641	1172.48
1020.932	1183.33
1021.223	1172.03
1021.514	1202.54
1021.804	1155.08
1022.095	1151.01
1022.386	1170
1022.677	1144.24
1022.967	1106.27
1023.258	1119.38
1023.548	1150.79
1023.839	1122.99
1024.129	1134.07
1024.419	1109.66
1024.709	1106.04
1025	1103.33
1025.29	1091.36
1025.58	1086.38
1025.87	1069.21
1026.16	1063.33
1026.449	1067.18
1026.739	1070.34
1027.029	1038.93
1027.319	1033.96
1027.608	1032.83
1027.898	1035.76
1028.187	1039.83
1028.477	1016.33
1028.766	1020.17
1029.055	989.44
1029.344	986.73
1029.634	1016.1
1029.923	987.86
1030.212	1021.98
1030.501	965.71
1030.79	956.44
1031.078	957.57
1031.367	943.79
1031.656	974.75
1031.945	957.12
1032.233	924.13
1032.522	927.97
1032.81	932.72
1033.099	940.85
1033.387	941.08
1033.675	933.62
1033.963	904.47
1034.251	928.42
1034.54	920.29
1034.828	901.53
1035.116	923.68
1035.403	873.06
1035.691	879.84
1035.979	869.21
1036.267	877.58
1036.554	852.49
1036.842	844.58
1037.129	851.81
1037.417	856.79
1037.704	837.8
1037.992	824.24
1038.279	783.34
1038.566	846.39
1038.853	846.39
1039.14	846.39
