Data from hue_290_FLMS001491_00008.txt Node
Date: Tue Feb 07 15:52:08 GMT 2017
User: dcchb
Spectrometer: FLMS00149
Trigger mode: 0
Integration Time (sec): 2.000000E-2
Scans to average: 10
Electric dark correction enabled: true
Nonlinearity correction enabled: false
Boxcar width: 0
XAxis mode: Wavelengths
Number of Pixels in Spectrum: 2048
>>>>>Begin Spectral Data<<<<<
341.393	-4.19
341.776	-4.19
342.16	-4.19
342.543	-69.28
342.927	-87.36
343.31	-84.64
343.693	-55.27
344.077	-50.3
344.46	-47.81
344.843	-64.98
345.226	-38.54
345.61	-26.57
345.993	-26.12
346.376	-23.4
346.759	5.07
347.142	37.16
347.525	34
347.908	67.89
348.291	76.93
348.674	92.98
349.057	103.6
349.44	128.91
349.823	128.68
350.206	160.55
350.588	182.69
350.971	219.08
351.354	226.99
351.737	216.36
352.119	247.55
352.502	262.01
352.884	252.75
353.267	289.81
353.65	281.45
354.032	281.45
354.414	301.79
354.797	295.68
355.179	301.33
355.562	295.91
355.944	310.83
356.326	313.08
356.709	332.97
357.091	344.95
357.473	335.23
357.855	344.27
358.238	327.1
358.62	321.67
359.002	322.58
359.384	322.58
359.766	343.82
360.148	320.09
360.53	328.9
360.912	328.68
361.294	346.76
361.676	346.3
362.057	350.6
362.439	339.52
362.821	322.35
363.203	335.01
363.584	319.41
363.966	315.8
364.348	306.53
364.729	327.1
365.111	310.83
365.493	304.27
365.874	317.15
366.256	301.33
366.637	292.52
367.019	316.7
367.4	321.67
367.781	311.28
368.163	322.12
368.544	320.99
368.925	330.71
369.306	321.45
369.688	303.14
370.069	302.92
370.45	306.53
370.831	324.38
371.212	321.22
371.593	298.4
371.974	309.24
372.355	310.15
372.736	307.66
373.117	307.66
373.498	306.31
373.879	291.84
374.26	328.9
374.641	292.75
375.021	304.95
375.402	308.57
375.783	307.66
376.163	314.67
376.544	322.12
376.925	319.19
377.305	311.73
377.686	307.89
378.066	317.38
378.447	311.05
378.827	319.86
379.208	345.17
379.588	329.58
379.968	316.25
380.349	334.55
380.729	339.98
381.109	340.43
381.489	308.79
381.87	323.25
382.25	322.58
382.63	339.3
383.01	329.36
383.39	332.97
383.77	338.4
384.15	337.49
384.53	362.12
384.91	351.05
385.29	333.2
385.67	337.27
386.049	357.6
386.429	359.19
386.809	329.58
387.189	346.76
387.568	351.73
387.948	359.64
388.328	361.9
388.707	368.9
389.087	363.25
389.466	347.66
389.846	359.19
390.225	368.22
390.605	376.59
390.984	363.93
391.363	387.89
391.743	380.43
392.122	355.57
392.501	377.26
392.881	384.72
393.26	388.11
393.639	389.24
394.018	383.14
394.397	379.3
394.776	382.91
395.155	380.88
395.534	389.47
395.913	394.21
396.292	397.83
396.671	386.08
397.05	398.51
397.429	388.11
397.808	398.28
398.186	412.29
398.565	416.13
398.944	405.29
399.323	407.32
399.701	401.44
400.08	414.1
400.458	407.32
400.837	432.63
401.215	397.83
401.594	418.84
401.972	432.18
402.351	428.11
402.729	437.6
403.107	425.62
403.486	428.79
403.864	411.39
404.242	448.22
404.62	438.96
404.999	463.36
405.377	457.94
405.755	453.87
406.133	475.34
406.511	480.09
406.889	484.83
407.267	448.9
407.645	469.92
408.023	482.8
408.401	483.7
408.779	480.31
409.156	510.14
409.534	512.4
409.912	510.82
410.29	513.31
410.667	527.32
411.045	519.41
411.422	539.29
411.8	543.36
412.178	565.73
412.555	555.79
412.933	562.8
413.31	582.91
413.687	591.27
414.065	559.86
414.442	625.62
414.819	625.85
415.197	603.47
415.574	643.7
415.951	637.37
416.328	637.37
416.705	625.39
417.082	647.54
417.46	659.52
417.837	692.06
418.214	675.34
418.591	676.92
418.967	690.02
419.344	654.77
419.721	701.1
420.098	702.45
420.475	713.3
420.852	720.08
421.228	698.61
421.605	729.8
421.982	765.73
422.358	751.27
422.735	757.14
423.111	782.9
423.488	773.86
423.864	785.39
424.241	794.2
424.617	804.82
424.994	813.64
425.37	807.76
425.746	828.33
426.123	833.52
426.499	845.27
426.875	838.49
427.251	871.94
427.627	890.47
428.003	900.87
428.379	909.91
428.756	919.85
429.132	905.61
429.507	945.61
429.883	943.35
430.259	939.06
430.635	951.49
431.011	965.95
431.387	998.72
431.763	1011.37
432.138	1004.37
432.514	1000.52
432.89	1005.72
433.265	1056.34
433.641	1061.54
434.016	1069.22
434.392	1090.01
434.767	1113.52
435.143	1092.95
435.518	1126.17
435.894	1109.9
436.269	1136.57
436.644	1171.37
437.02	1149.67
437.395	1184.7
437.77	1192.16
438.145	1209.33
438.52	1220.18
438.895	1224.7
439.271	1259.05
439.646	1283
440.021	1280.97
440.395	1295.21
440.77	1268.54
441.145	1293.17
441.52	1309.22
441.895	1284.36
442.27	1343.34
442.645	1315.32
443.019	1323.68
443.394	1359.16
443.769	1343.11
444.143	1370.23
444.518	1376.79
444.892	1363.9
445.267	1375.2
445.641	1371.81
446.016	1386.05
446.39	1405.03
446.764	1404.36
447.139	1403.23
447.513	1427.18
447.887	1395.09
448.262	1406.16
448.636	1421.3
449.01	1440.74
449.384	1463.79
449.758	1456.11
450.132	1491.81
450.506	1509.89
450.88	1492.49
451.254	1507.18
451.628	1520.74
452.002	1516.9
452.376	1546.05
452.75	1513.05
453.123	1532.49
453.497	1585.37
453.871	1540.17
454.244	1565.03
454.618	1574.07
454.992	1605.71
455.365	1617.01
455.739	1618.81
456.112	1638.93
456.486	1670.11
456.859	1656.33
457.232	1684.8
457.606	1677.34
457.979	1711.47
458.352	1746.72
458.725	1765.7
459.099	1773.61
459.472	1795.98
459.845	1798.24
460.218	1761.18
460.591	1848.86
460.964	1817.23
461.337	1847.73
461.71	1886.83
462.083	1862.87
462.456	1901.74
462.829	1909.88
463.201	1866.49
463.574	1920.73
463.947	1918.01
464.32	1967.5
464.692	1991.01
465.065	1992.59
465.438	2009.54
465.81	2040.95
466.183	2066.26
466.555	2078.91
466.928	2082.76
467.3	2086.37
467.672	2125.01
468.045	2149.87
468.417	2163.21
468.789	2174.73
469.161	2155.75
469.534	2230.55
469.906	2231.68
470.278	2248.85
470.65	2284.33
471.022	2316.2
471.394	2327.95
471.766	2359.58
472.138	2371.34
472.51	2410.43
472.882	2430.32
473.253	2440.03
473.625	2463.99
473.997	2517.09
474.369	2535.4
474.74	2547.83
475.112	2574.04
475.484	2601.16
475.855	2616.3
476.227	2620.59
476.598	2701.27
476.97	2784.43
477.341	2788.05
477.713	2826.01
478.084	2791.21
478.455	2863.53
478.827	2868.5
479.198	2939.46
479.569	2945.33
479.94	3002.51
480.311	3020.36
480.682	3087.02
481.053	3105.55
481.424	3145.1
481.795	3189.17
482.166	3188.49
482.537	3216.51
482.908	3267.81
483.279	3306.9
483.65	3364.53
484.021	3393.91
484.391	3412.21
484.762	3483.4
485.133	3480.01
485.503	3509.61
485.874	3563.17
486.244	3535.15
486.615	3627.35
486.985	3673.9
487.356	3739.44
487.726	3731.3
488.097	3828.25
488.467	3787.8
488.837	3844.07
489.207	3877.74
489.578	3948.24
489.948	3970.39
490.318	4032.08
490.688	3962.25
491.058	4028.24
491.428	4071.18
491.798	4087.68
492.168	4171.97
492.538	4209.03
492.908	4226.65
493.278	4249.93
493.648	4278.4
494.017	4296.03
494.387	4341.45
494.757	4365.63
495.126	4387.1
495.496	4422.81
495.866	4436.82
496.235	4425.29
496.605	4491.51
496.974	4488.12
497.344	4559.98
497.713	4571.05
498.082	4639.98
498.452	4646.76
498.821	4644.27
499.19	4615.34
499.559	4665.29
499.928	4712.74
500.298	4705.29
500.667	4766.3
501.036	4776.02
501.405	4812.63
501.774	4760.65
502.143	4827.54
502.512	4804.04
502.88	4883.36
503.249	4861.44
503.618	4879.29
503.987	4900.76
504.356	4972.17
504.724	4941.66
505.093	4945.96
505.462	4958.39
505.83	5009.46
506.199	5032.51
506.567	5120.64
506.936	5019.4
507.304	5090.13
507.672	5107.54
508.041	5153.41
508.409	5154.09
508.777	5114.09
509.145	5208.32
509.514	5160.64
509.882	5174.2
510.25	5216.46
510.618	5282.45
510.986	5241.09
511.354	5340.3
511.722	5337.81
512.09	5367.19
512.458	5388.21
512.826	5321.77
513.193	5399.96
513.561	5368.55
513.929	5421.65
514.297	5456.68
514.664	5447.41
515.032	5470.92
515.4	5508.2
515.767	5506.17
516.135	5541.65
516.502	5469.79
516.869	5600.86
517.237	5567.86
517.604	5540.29
517.972	5565.83
518.339	5693.73
518.706	5642.44
519.073	5635.43
519.44	5657.13
519.808	5664.13
520.175	5722.66
520.542	5751.13
520.909	5760.85
521.276	5761.76
521.643	5786.61
522.009	5850.11
522.376	5819.15
522.743	5847.18
523.11	5955.42
523.477	5947.74
523.843	5999.26
524.21	6021.64
524.577	6034.97
524.943	6055.53
525.31	6031.35
525.676	6122.65
526.043	6135.53
526.409	6162.2
526.776	6213.04
527.142	6201.29
527.508	6273.61
527.874	6244.23
528.241	6266.83
528.607	6345.47
528.973	6334.17
529.339	6391.8
529.705	6404.9
530.071	6422.98
530.437	6450.32
530.803	6472.92
531.169	6509.98
531.535	6481.28
531.901	6506.59
532.267	6501.62
532.632	6536.65
532.998	6594.73
533.364	6596.99
533.73	6644.22
534.095	6692.58
534.461	6718.11
534.826	6733.26
535.192	6715.4
535.557	6805.8
535.923	6773.93
536.288	6839.92
536.653	6774.84
537.019	6832.69
537.384	6846.92
537.749	6820.71
538.114	6903.87
538.479	6925.11
538.845	6897.09
539.21	6894.38
539.575	6926.02
539.94	7021.38
540.305	7026.81
540.67	7015.96
541.034	7001.72
541.399	7056.86
541.764	7081.27
542.129	7076.97
542.494	7094.38
542.858	7130.53
543.223	7156.97
543.587	7155.84
543.952	7161.72
544.316	7184.09
544.681	7242.39
545.045	7249.85
545.41	7280.81
545.774	7291.66
546.138	7250.08
546.503	7337.08
546.867	7373.24
547.231	7444.2
547.595	7400.36
547.959	7451.88
548.324	7436.51
548.688	7426.12
549.052	7473.35
549.416	7475.61
549.779	7512.67
550.143	7401.94
550.507	7536.85
550.871	7527.36
551.235	7518.77
551.599	7618.66
551.962	7576.62
552.326	7604.64
552.689	7576.4
553.053	7581.59
553.417	7637.19
553.78	7721.25
554.143	7723.29
554.507	7754.47
554.87	7742.27
555.234	7845.32
555.597	7743.4
555.96	7860.46
556.323	7864.52
556.686	7875.37
557.05	7886.45
557.413	7895.94
557.776	7884.64
558.139	7968.02
558.502	7961.92
558.865	7957.86
559.228	8017.52
559.59	8044.86
559.953	8022.71
560.316	8078.76
560.679	8089.38
561.041	8140.68
561.404	8226.1
561.767	8209.6
562.129	8168.92
562.492	8239.88
562.854	8258.41
563.217	8285.3
563.579	8276.49
563.941	8361.01
564.304	8335.25
564.666	8404.62
565.028	8406.21
565.39	8411.18
565.753	8510.16
566.115	8465.41
566.477	8476.49
566.839	8477.39
567.201	8551.29
567.563	8587.9
567.925	8644.39
568.287	8639.42
568.648	8695.92
569.01	8691.17
569.372	8722.81
569.734	8710.15
570.095	8854.1
570.457	8844.61
570.819	8846.65
571.18	8921.9
571.542	8972.74
571.903	8956.47
572.265	9043.02
572.626	9026.3
572.987	9050.93
573.349	9117.83
573.71	9125.73
574.071	9137.71
574.432	9241.89
574.794	9311.94
575.155	9295.9
575.516	9347.65
575.877	9377.93
576.238	9416.57
576.599	9496.57
576.96	9525.72
577.32	9556.91
577.681	9645.04
578.042	9622.44
578.403	9723.69
578.763	9715.32
579.124	9816.56
579.485	9883.23
579.845	9960.29
580.206	9980.18
580.566	10022.43
580.927	10154.63
581.287	10238.93
581.648	10289.32
582.008	10403.22
582.368	10426.94
582.728	10495.87
583.089	10569.09
583.449	10706.48
583.809	10732.7
584.169	10846.14
584.529	10966.14
584.889	11182.86
585.249	11190.77
585.609	11251.33
585.969	11401.16
586.329	11411.55
586.688	11512.56
587.048	11697.42
587.408	11747.81
587.768	11798.88
588.127	11980.57
588.487	12042.95
588.846	12300.57
589.206	12302.15
589.565	12438.19
589.925	12649.48
590.284	12759.76
590.643	12928.35
591.003	13017.38
591.362	13211.05
591.721	13355.91
592.08	13435
592.44	13631.38
592.799	13756.8
593.158	13923.8
593.517	13916.34
593.876	14126.51
594.235	14227.52
594.593	14409.89
594.952	14508.64
595.311	14596.1
595.67	14714.29
596.029	15017.11
596.387	15086.48
596.746	15238.79
597.104	15362.41
597.463	15494.38
597.822	15663.64
598.18	15680.14
598.538	15777.76
598.897	16000.81
599.255	15974.37
599.613	16393.57
599.972	16386.79
600.33	16516.95
600.688	16486.67
601.046	16783.84
601.404	16942.48
601.762	16957.17
602.12	17141.57
602.478	17190.83
602.836	17365.07
603.194	17270.15
603.552	17550.82
603.91	17530.71
604.268	17565.96
604.625	17630.82
604.983	17843.47
605.341	17903.36
605.698	18013.41
606.056	18204.59
606.413	18210.47
606.771	18397.58
607.128	18535.43
607.485	18439.39
607.843	18615.88
608.2	18774.29
608.557	18919.6
608.914	18846.16
609.272	18871.92
609.629	19039.37
609.986	19216.32
610.343	19143.55
610.7	19308.07
611.057	19430.1
611.414	19446.37
611.771	19486.14
612.127	19687.72
612.484	19749.86
612.841	19790.54
613.198	19709.41
613.554	19922.29
613.911	20050.42
614.267	20055.62
614.624	20113.24
614.98	20106.46
615.337	20240.47
615.693	20266.01
616.05	20355.72
616.406	20499.9
616.762	20446.57
617.118	20537.64
617.475	20513.68
617.831	20560.24
618.187	20621.25
618.543	20761.13
618.899	20857.63
619.255	20782.15
619.611	20775.82
619.967	21005.87
620.323	21074.35
620.678	20955.93
621.034	20962.49
621.39	20997.51
621.746	20952.09
622.101	21332.65
622.457	21049.49
622.812	21234.57
623.168	21256.72
623.523	21214.68
623.879	21324.74
624.234	21304.17
624.589	21390.72
624.945	21417.39
625.3	21470.27
625.655	21333.32
626.01	21526.99
626.365	21440.89
626.72	21541.45
627.075	21423.04
627.43	21476.14
627.785	21433.43
628.14	21590.04
628.495	21513.21
628.85	21545.07
629.205	21564.5
629.559	21710.26
629.914	21497.16
630.269	21583.49
630.623	21543.26
630.978	21432.53
631.332	21569.7
631.687	21613.54
632.041	21509.36
632.396	21584.62
632.75	21526.99
633.104	21523.6
633.459	21466.88
633.813	21437.73
634.167	21423.49
634.521	21396.15
634.875	21469.59
635.229	21361.12
635.583	21346.66
635.937	21328.8
636.291	21404.06
636.645	21431.63
636.999	21315.24
637.352	21307.79
637.706	21207.9
638.06	21219.2
638.413	21270.95
638.767	21156.83
639.121	21309.82
639.474	21113.67
639.828	21178.07
640.181	21214.23
640.534	21234.34
640.888	21238.41
641.241	21113.22
641.594	21063.5
641.947	21200.9
642.301	21115.02
642.654	21239.77
643.007	21178.98
643.36	21187.34
643.713	21129.49
644.066	21221.91
644.419	21217.85
644.771	20885.2
645.124	20848.59
645.477	20852.66
645.83	20633.68
646.182	20563.63
646.535	20497.86
646.888	20531.54
647.24	20514.59
647.593	20546.23
647.945	20613.34
648.298	20493.8
648.65	20464.65
649.002	20370.18
649.355	20544.42
649.707	20477.53
650.059	20547.13
650.411	20780.34
650.763	20828.03
651.115	21041.58
651.467	21015.82
651.819	21055.59
652.171	20855.14
652.523	20869.61
652.875	20822.83
653.227	20900.11
653.578	21013.33
653.93	20949.6
654.282	20836.39
654.633	20866.22
654.985	20923.84
655.337	20807.46
655.688	20861.25
656.039	20970.62
656.391	20906.67
656.742	20899.21
657.094	20826.44
657.445	21056.72
657.796	20942.37
658.147	20863.51
658.498	20959.55
658.849	20846.33
659.2	20850.85
659.551	20974.01
659.902	20969.49
660.253	20820.79
660.604	20976.04
660.955	20939.66
661.306	20981.92
661.656	20947.8
662.007	21010.39
662.358	20971.75
662.708	20963.39
663.059	21102.59
663.409	20884.3
663.76	21011.98
664.11	21126.78
664.461	21112.54
664.811	21087.23
665.161	21144.18
665.511	21145.76
665.862	20976.5
666.212	21047.46
666.562	21102.37
666.912	21091.75
667.262	20981.47
667.612	20992.09
667.962	21054.91
668.312	21045.42
668.662	21117.06
669.011	20926.55
669.361	20964.52
669.711	21013.33
670.06	20992.54
670.41	20902.6
670.76	20935.82
671.109	20962.71
671.459	20999.77
671.808	20881.36
672.157	20954.35
672.507	20837.97
672.856	20740.34
673.205	20739.89
673.554	20884.75
673.904	20891.07
674.253	20874.35
674.602	20781.25
674.951	20560.69
675.3	20477.98
675.649	20819.44
675.998	20703.74
676.346	20810.85
676.695	20844.07
677.044	20559.33
677.393	20652.21
677.741	20700.35
678.09	20719.33
678.438	20601.14
678.787	20680.46
679.135	20666
679.484	20492.67
679.832	20581.25
680.181	20445.89
680.529	20501.48
680.877	20401.82
681.225	20344.42
681.573	20592.1
681.922	20384.2
682.27	20309.85
682.618	20368.15
682.966	20278.66
683.314	20271.2
683.661	20177.2
684.009	20107.14
684.357	20103.53
684.705	20115.28
685.053	19995.28
685.4	20091.55
685.748	19980.82
686.095	19899.91
686.443	19692.46
686.79	19835.28
687.138	19807.26
687.485	19859.46
687.832	19829.41
688.18	19799.8
688.527	19663.54
688.874	19729.3
689.221	19539.92
689.568	19485.01
689.915	19441.4
690.262	19435.97
690.609	19407.95
690.956	19259.71
691.303	19388.06
691.65	19082.99
691.997	19196.2
692.344	19038.02
692.69	19125.92
693.037	19009.77
693.383	18836.67
693.73	18951.24
694.077	18777.68
694.423	18873.05
694.769	18741.98
695.116	18675.77
695.462	18595.09
695.808	18646.84
696.155	18618.82
696.501	18447.52
696.847	18453.62
697.193	18348.77
697.539	18278.26
697.885	18189.68
698.231	18109.91
698.577	18153.52
698.923	18061.77
699.269	18023.35
699.614	17879.4
699.96	17769.12
700.306	17759.41
700.651	17662.91
700.997	17610.03
701.342	17684.61
701.688	17607.32
702.033	17559.86
702.379	17466.53
702.724	17344.73
703.069	17452.52
703.415	17266.54
703.76	17269.02
704.105	17235.35
704.45	17233.09
704.795	17089.37
705.14	17039.65
705.485	17024.06
705.83	16990.39
706.175	16972.08
706.52	16891.18
706.865	16796.04
707.209	16773.44
707.554	16719.21
707.899	16733.9
708.243	16578.87
708.588	16651.19
708.932	16514.01
709.277	16491.64
709.621	16431.98
709.966	16353.57
710.31	16441.02
710.654	16266.79
710.998	16205.77
711.342	16205.77
711.687	16181.37
712.031	16152.22
712.375	16096.4
712.719	16054.14
713.063	15989.28
713.407	16118.77
713.75	16028.6
714.094	16050.52
714.438	15866.12
714.782	15959.45
715.125	15853.24
715.469	15934.6
715.812	15803.07
716.156	15729.85
716.499	15716.3
716.843	15682.62
717.186	15624.32
717.53	15734.15
717.873	15673.13
718.216	15659.8
718.559	15573.7
718.902	15519.24
719.246	15416.87
719.589	15467.71
719.932	15461.61
720.275	15467.26
720.617	15438.34
720.96	15351.56
721.303	15321.28
721.646	15435.63
721.989	15291.67
722.331	15364.44
722.674	15261.62
723.016	15350.2
723.359	15271.79
723.701	15266.36
724.044	15197.21
724.386	15157.67
724.729	15209.19
725.071	15140.94
725.413	15202.64
725.755	15093.04
726.097	15044.9
726.439	15094.39
726.782	15031.12
727.124	15163.09
727.465	15064.11
727.807	14975.07
728.149	15053.94
728.491	14859.37
728.833	15004.22
729.175	15039.03
729.516	14890.1
729.858	14947.95
730.199	14947.28
730.541	14938.92
730.882	14919.25
731.224	14931.68
731.565	14912.25
731.906	14861.18
732.248	14908.18
732.589	14831.8
732.93	14815.98
733.271	14773.72
733.612	14853.95
733.953	14902.76
734.294	14804
734.635	14799.26
734.976	14846.49
735.317	14780.5
735.658	14810.1
735.999	14792.7
736.339	14789.77
736.68	14857.34
737.021	14816.66
737.361	14742.76
737.702	14893.49
738.042	14814.85
738.383	14804.23
738.723	14824.12
739.063	14820.27
739.404	14874.28
739.744	14790.44
740.084	14873.15
740.424	14942.76
740.764	14751.35
741.104	14944.56
741.444	14768.3
741.784	14757
742.124	14827.96
742.464	14843.55
742.804	14788.64
743.143	14890.33
743.483	14880.39
743.823	14762.65
744.162	14915.41
744.502	14970.78
744.841	15058.46
745.181	15022.3
745.52	14952.25
745.86	15128.51
746.199	15163.54
746.538	15082.41
746.877	15232.47
747.216	15218.68
747.556	15339.13
747.895	15359.7
748.234	15322.63
748.573	15397.43
748.911	15354.95
749.25	15480.37
749.589	15515.85
749.928	15641.72
750.267	15779.8
750.605	15814.15
750.944	15719.91
751.283	15836.97
751.621	15934.6
751.96	15990.41
752.298	16061.6
752.636	16199.9
752.975	16215.04
753.313	16278.31
753.651	16478.76
753.989	16505.2
754.327	16543.62
754.666	16569.83
755.004	16831.97
755.342	16920.78
755.679	16964.4
756.017	17157.39
756.355	17204.17
756.693	17308.34
757.031	17429.92
757.368	17391.73
757.706	17502.01
758.044	17626.53
758.381	17863.36
758.719	17906.07
759.056	18024.03
759.394	18047.08
759.731	18119.17
760.068	18306.74
760.405	18311.26
760.743	18443.46
761.08	18764.58
761.417	18716.22
761.754	18834.18
762.091	18925.25
762.428	19007.28
762.765	18975.42
763.102	19215.19
763.438	19182.65
763.775	19281.17
764.112	19385.58
764.449	19589.41
764.785	19528.85
765.122	19613.14
765.458	19692.46
765.795	19735.17
766.131	19886.81
766.467	19835.06
766.804	19945.79
767.14	19864.44
767.476	20026.24
767.812	20041.61
768.148	20071.89
768.485	20195.5
768.821	20040.93
769.157	20221.49
769.492	20150.08
769.828	20388.04
770.164	20275.27
770.5	20241.83
770.836	20304.42
771.171	20395.04
771.507	20335.61
771.842	20303.52
772.178	20313.92
772.513	20373.35
772.849	20271.43
773.184	20335.84
773.519	20384.2
773.855	20318.66
774.19	20299.9
774.525	20235.5
774.86	20398.43
775.195	20364.54
775.53	20344.65
775.865	20299.68
776.2	20180.36
776.535	20068.5
776.87	20105.78
777.205	20169.74
777.539	20111.43
777.874	20223.97
778.209	20109.17
778.543	20027.37
778.878	19956.64
779.212	20036.41
779.547	19852.23
779.881	20042.96
780.215	19908.05
780.55	19958.9
780.884	19758.9
781.218	19798
781.552	19830.99
781.886	19656.31
782.22	19672.35
782.554	19519.81
782.888	19464.9
783.222	19399.81
783.556	19402.07
783.889	19430.77
784.223	19253.15
784.557	19284.11
784.89	19201.63
785.224	19161.63
785.557	19178.13
785.891	19052.03
786.224	18993.95
786.558	19036.21
786.891	18801.41
787.224	18818.81
787.557	18875.31
787.891	18856.33
788.224	18847.51
788.557	18886.83
788.89	18686.39
789.223	18706.27
789.556	18582.89
789.888	18570.46
790.221	18605.26
790.554	18274.19
790.887	18358.49
791.219	18363.91
791.552	18357.58
791.884	18209.56
792.217	18165.72
792.549	18144.25
792.882	18024.03
793.214	17937.03
793.546	18022.45
793.879	17835.34
794.211	17742.01
794.543	17813.87
794.875	17786.07
795.207	17842.79
795.539	17597.38
795.871	17662.46
796.203	17556.02
796.535	17560.77
796.867	17415.69
797.198	17359.64
797.53	17406.65
797.862	17302.02
798.193	17347.21
798.525	17250.49
798.856	17310.38
799.188	17049.14
799.519	17049.59
799.85	16912.87
800.182	17013.89
800.513	16899.32
800.844	16776.61
801.175	16877.85
801.506	16775.25
801.837	16720.11
802.168	16715.82
802.499	16643.96
802.83	16501.13
803.161	16515.82
803.491	16476.5
803.822	16474.02
804.153	16392.66
804.483	16286.68
804.814	16296.39
805.145	16237.86
805.475	16183.63
805.805	16186.34
806.136	16124.87
806.466	16141.14
806.796	16123.06
807.126	16096.85
807.457	15925.33
807.787	15917.42
808.117	15888.49
808.447	15785.67
808.777	15903.41
809.107	15754.03
809.436	15851.43
809.766	15762.85
810.096	15684.21
810.426	15657.54
810.755	15620.93
811.085	15569.63
811.414	15590.65
811.744	15429.98
812.073	15424.1
812.403	15447.38
812.732	15335.51
813.061	15309.53
813.39	15282.63
813.719	15302.07
814.049	15294.39
814.378	15298.45
814.707	15094.84
815.036	15155.18
815.365	15062.53
815.693	14916.09
816.022	14966.71
816.351	14856.66
816.68	14805.59
817.008	14810.78
817.337	14761.29
817.665	14709.99
817.994	14740.28
818.322	14720.62
818.651	14642.2
818.979	14551.13
819.307	14592.94
819.636	14594.74
819.964	14526.04
820.292	14534.86
820.62	14477.01
820.948	14472.26
821.276	14549.32
821.604	14474.07
821.932	14551.13
822.259	14632.26
822.587	14500.73
822.915	14450.79
823.243	14537.8
823.57	14494.18
823.898	14514.52
824.225	14457.35
824.553	14491.7
824.88	14367.63
825.207	14505.25
825.535	14488.98
825.862	14502.09
826.189	14419.61
826.516	14495.99
826.843	14500.73
827.17	14544.35
827.497	14599.04
827.824	14501.86
828.151	14566.27
828.478	14493.05
828.805	14546.61
829.131	14444.92
829.458	14463
829.785	14397.69
830.111	14409.44
830.438	14515.2
830.764	14451.24
831.09	14401.3
831.417	14328.54
831.743	14398.36
832.069	14403.11
832.395	14330.34
832.722	14384.13
833.048	14274.07
833.374	14375.77
833.7	14207.18
834.026	14302.77
834.351	14310.01
834.677	14256.67
835.003	14295.32
835.329	14232.49
835.654	14210.8
835.98	14264.36
836.306	14195.88
836.631	14099.62
836.956	14224.36
837.282	14252.83
837.607	14105.94
837.932	14109.56
838.258	14088.99
838.583	14067.75
838.908	13917.7
839.233	14007.19
839.558	14013.52
839.883	13988.43
840.208	13858.72
840.533	13856.46
840.858	13783.24
841.182	13932.84
841.507	13963.57
841.832	13752.05
842.156	13779.17
842.481	13775.56
842.805	13748.89
843.13	13663.02
843.454	13726.97
843.778	13713.86
844.103	13606.07
844.427	13577.37
844.751	13595.9
845.075	13566.97
845.399	13556.35
845.723	13377.83
846.047	13413.08
846.371	13324.72
846.695	13298.05
847.019	13213.31
847.343	13184.38
847.666	13075.46
847.99	13046.31
848.313	13028.23
848.637	12973.09
848.96	12940.1
849.284	12953.2
849.607	12756.6
849.931	12754.34
850.254	12687.45
850.577	12541.24
850.9	12527.23
851.223	12480
851.546	12442.03
851.869	12380.11
852.192	12427.79
852.515	12294.01
852.838	12242.49
853.161	12235.26
853.483	12234.81
853.806	12128.59
854.129	12177.63
854.451	12074.81
854.774	12055.38
855.096	11949.16
855.419	11967.24
855.741	11940.58
856.063	11808.38
856.385	11852.22
856.708	11779.45
857.03	11789.39
857.352	11733.8
857.674	11619.68
857.996	11667.59
858.318	11567.48
858.64	11623.75
858.961	11523.86
859.283	11460.14
859.605	11510.76
859.926	11519.34
860.248	11412
860.57	11389.4
860.891	11474.83
861.212	11393.25
861.534	11306.69
861.855	11369.52
862.176	11310.99
862.498	11297.65
862.819	11311.67
863.14	11244.55
863.461	11282.06
863.782	11179.01
864.103	11230.76
864.424	11130.43
864.745	11169.52
865.065	11087.26
865.386	11052.24
865.707	10988.06
866.027	11001.17
866.348	11035.74
866.668	11021.96
866.989	11028.28
867.309	10902.86
867.63	10892.47
867.95	10967.49
868.27	10878.46
868.59	10915.74
868.91	10874.62
869.23	10794.62
869.55	10711
869.87	10870.1
870.19	10786.03
870.51	10783.09
870.83	10849.53
871.15	10675.07
871.469	10722.98
871.789	10713.72
872.109	10655.19
872.428	10646.82
872.748	10669.2
873.067	10616.32
873.386	10694.05
873.706	10628.29
874.025	10512.14
874.344	10505.81
874.663	10533.16
874.982	10502.87
875.301	10513.49
875.62	10493.38
875.939	10468.52
876.258	10472.59
876.577	10448.86
876.896	10436.66
877.214	10366.61
877.533	10402.09
877.852	10324.8
878.17	10376.32
878.489	10383.78
878.807	10297.68
879.125	10372.93
879.444	10307.62
879.762	10216.78
880.08	10271.69
880.398	10192.37
880.716	10203.67
881.034	10199.6
881.352	10180.62
881.67	10153.96
881.988	10129.1
882.306	10030.8
882.624	10101.3
882.941	9993.73
883.259	10004.36
883.577	10002.1
883.894	10047.74
884.212	10008.88
884.529	9911.7
884.846	9942.89
885.164	9929.78
885.481	9810.46
885.798	9903.79
886.115	9839.39
886.432	9792.84
886.75	9793.97
887.067	9755.1
887.383	9747.87
887.7	9730.69
888.017	9716.91
888.334	9752.38
888.651	9644.82
888.967	9614.99
889.284	9553.29
889.6	9581.32
889.917	9446.63
890.233	9537.93
890.55	9440.75
890.866	9487.31
891.182	9436.91
891.498	9356.01
891.815	9388.55
892.131	9326.63
892.447	9289.57
892.763	9281.21
893.079	9206.86
893.395	9212.29
893.71	9180.2
894.026	9169.12
894.342	9151.95
894.657	9093.87
894.973	9072.4
895.289	9088.45
895.604	9089.8
895.92	8972.07
896.235	8978.39
896.55	8964.38
896.865	8943.14
897.181	8881.9
897.496	8875.12
897.811	8803.71
898.126	8794.44
898.441	8808.91
898.756	8729.36
899.071	8601.68
899.386	8677.61
899.7	8617.73
900.015	8546.09
900.33	8527.56
900.644	8494.34
900.959	8466.32
901.273	8478.07
901.588	8465.19
901.902	8411.86
902.216	8394
902.531	8311.07
902.845	8336.38
903.159	8315.36
903.473	8192.88
903.787	8226.1
904.101	8168.02
904.415	8157.17
904.729	8087.12
905.042	8084.86
905.356	8079.43
905.67	8031.07
905.984	8016.16
906.297	8004.41
906.611	7949.49
906.924	7995.14
907.237	7940
907.551	7827.01
907.864	7865.65
908.177	7843.96
908.491	7819.1
908.804	7798.76
909.117	7713.12
909.43	7723.51
909.743	7679.22
910.056	7613.23
910.368	7603.97
910.681	7629.95
910.994	7575.72
911.307	7514.7
911.619	7447.59
911.932	7504.31
912.244	7394.03
912.557	7370.53
912.869	7332.56
913.181	7366.91
913.494	7293.47
913.806	7219.8
914.118	7269.96
914.43	7215.95
914.742	7128.95
915.054	7143.87
915.366	7079.23
915.678	7037.43
915.99	7081.04
916.302	7010.54
916.613	6980.71
916.925	6929.41
917.236	6969.41
917.548	6905.45
917.859	6891.44
918.171	6874.04
918.482	6778.23
918.794	6811.45
919.105	6781.62
919.416	6719.47
919.727	6732.35
920.038	6691.22
920.349	6617.78
920.66	6601.96
920.971	6627.27
921.282	6611.45
921.593	6534.84
921.903	6487.39
922.214	6414.85
922.525	6456.43
922.835	6415.07
923.146	6363.1
923.456	6390.89
923.767	6351.12
924.077	6342.3
924.387	6296.88
924.697	6271.8
925.008	6236.09
925.318	6191.57
925.628	6186.38
925.938	6166.72
926.248	6091.01
926.558	6136.21
926.867	6111.35
927.177	6072.93
927.487	6047.85
927.796	5957.46
928.106	5992.94
928.416	5992.26
928.725	5940.28
929.034	5917.01
929.344	5866.61
929.653	5892.15
929.962	5820.06
930.271	5831.58
930.581	5780.74
930.89	5705.49
931.199	5715.88
931.508	5741.87
931.817	5648.54
932.125	5666.16
932.434	5691.02
932.743	5597.24
933.051	5563.79
933.36	5557.24
933.669	5584.58
933.977	5499.39
934.286	5507.75
934.594	5473.85
934.902	5443.8
935.21	5420.3
935.519	5411.26
935.827	5371.03
936.135	5345.72
936.443	5322.9
936.751	5266.4
937.059	5234.31
937.367	5271.82
937.674	5230.7
937.982	5257.14
938.29	5159.96
938.597	5224.59
938.905	5132.39
939.213	5121.77
939.52	5053.98
939.827	5100.98
940.135	5065.95
940.442	5018.95
940.749	5038.61
941.056	5022.79
941.363	4935.79
941.67	4950.25
941.977	4899.41
942.284	4888.11
942.591	4868.45
942.898	4877.94
943.205	4861.89
943.511	4811.72
943.818	4828.9
944.125	4790.71
944.431	4764.95
944.738	4725.85
945.044	4650.37
945.35	4650.82
945.657	4642.91
945.963	4633.65
946.269	4641.33
946.575	4671.61
946.881	4616.93
947.187	4573.54
947.493	4552.07
947.799	4545.52
948.105	4520.43
948.41	4478.17
948.716	4514.1
949.022	4519.3
949.327	4468.91
949.633	4412.64
949.938	4396.14
950.244	4413.54
950.549	4353.43
950.854	4323.15
951.16	4336.26
951.465	4292.64
951.77	4331.74
952.075	4289.25
952.38	4264.39
952.685	4312.08
952.99	4221.68
953.294	4182.14
953.599	4174.68
953.904	4156.15
954.209	4117.05
954.513	4152.53
954.818	4096.71
955.122	4083.61
955.426	4053.33
955.731	4047.9
956.035	4073.21
956.339	3994.12
956.643	3993.21
956.948	4000.9
957.252	3932.42
957.556	3973.33
957.86	3923.39
958.163	3949.37
958.467	3905.76
958.771	3925.19
959.075	3853.56
959.378	3853.56
959.682	3885.65
959.985	3822.6
960.289	3802.26
960.592	3804.52
960.896	3797.29
961.199	3765.2
961.502	3763.16
961.805	3717.74
962.108	3706.67
962.411	3701.47
962.714	3645.43
963.017	3627.8
963.32	3616.95
963.623	3653.11
963.926	3606.78
964.228	3590.74
964.531	3557.97
964.833	3571.53
965.136	3529.5
965.438	3469.61
965.741	3542.38
966.043	3534.92
966.345	3467.13
966.648	3489.72
966.95	3445.43
967.252	3444.53
967.554	3387.81
967.856	3379.67
968.158	3385.77
968.46	3383.29
968.761	3386.68
969.063	3369.05
969.365	3338.99
969.666	3338.77
969.968	3311.88
970.269	3270.3
970.571	3322.95
970.872	3285.66
971.174	3250.18
971.475	3237.3
971.776	3223.52
972.077	3214.93
972.378	3195.5
972.679	3200.69
972.98	3150.75
973.281	3167.02
973.582	3120.24
973.883	3118.43
974.183	3139
974.484	3112.79
974.785	3081.83
975.085	3055.61
975.386	3081.6
975.686	3028.49
975.986	3005.9
976.287	3023.97
976.587	2975.84
976.887	3010.42
977.187	2967.03
977.487	2991.43
977.787	2964.54
978.087	2940.13
978.387	2943.75
978.687	2889.74
978.987	2871.89
979.286	2850.65
979.586	2874.37
979.885	2844.54
980.185	2849.06
980.484	2816.75
980.784	2793.47
981.083	2818.56
981.382	2826.01
981.682	2742.17
981.981	2757.31
982.28	2791.66
982.579	2732.91
982.878	2761.61
983.177	2728.61
983.475	2705.34
983.774	2697.2
984.073	2692.46
984.372	2688.84
984.67	2645.45
984.969	2639.58
985.267	2653.59
985.566	2622.18
985.864	2599.58
986.162	2609.07
986.461	2605.68
986.759	2587.6
987.057	2550.54
987.355	2550.31
987.653	2547.83
987.951	2560.03
988.249	2534.72
988.547	2506.25
988.844	2495.63
989.142	2502.63
989.44	2483.2
989.737	2431.67
990.035	2449.07
990.332	2433.03
990.63	2410.66
990.927	2419.92
991.224	2433.48
991.521	2416.53
991.819	2379.47
992.116	2376.99
992.413	2358.45
992.71	2345.8
993.006	2305.12
993.303	2311.45
993.6	2306.48
993.897	2308.29
994.193	2302.19
994.49	2272.81
994.787	2243.66
995.083	2308.06
995.379	2303.32
995.676	2253.82
995.972	2195.07
996.268	2198.46
996.565	2174.96
996.861	2173.38
997.157	2211.57
997.453	2192.58
997.749	2182.41
998.044	2171.12
998.34	2128.86
998.636	2115.98
998.932	2122.53
999.227	2086.37
999.523	2078.91
999.818	2085.24
1000.114	2068.52
1000.409	2049.54
1000.704	2058.8
1001	2012.7
1001.295	2012.93
1001.59	2031.91
1001.885	2015.87
1002.18	1931.35
1002.475	1984.91
1002.77	2004.79
1003.065	1945.81
1003.359	1958.69
1003.654	1992.14
1003.949	1920.27
1004.243	1916.21
1004.538	1901.52
1004.832	1902.2
1005.127	1887.73
1005.421	1882.54
1005.715	1877.34
1006.009	1878.24
1006.304	1813.84
1006.598	1819.26
1006.892	1851.58
1007.186	1830.11
1007.48	1795.31
1007.773	1799.15
1008.067	1798.92
1008.361	1792.37
1008.655	1768.19
1008.948	1770.67
1009.242	1761.86
1009.535	1747.17
1009.829	1707.4
1010.122	1719.15
1010.415	1705.36
1010.708	1694.74
1011.001	1675.99
1011.295	1704.69
1011.588	1689.32
1011.881	1629.21
1012.173	1652.71
1012.466	1637.34
1012.759	1618.81
1013.052	1658.36
1013.344	1605.71
1013.637	1580.4
1013.93	1576.78
1014.222	1584.92
1014.514	1566.84
1014.807	1558.48
1015.099	1543.11
1015.391	1540.85
1015.683	1534.52
1015.976	1539.95
1016.268	1551.02
1016.56	1522.77
1016.851	1488.87
1017.143	1506.27
1017.435	1469.44
1017.727	1438.25
1018.018	1470.57
1018.31	1449.55
1018.602	1461.53
1018.893	1459.27
1019.185	1432.6
1019.476	1428.76
1019.767	1416.33
1020.058	1401.87
1020.35	1417.01
1020.641	1388.31
1020.932	1381.98
1021.223	1358.71
1021.514	1383.11
1021.804	1351.02
1022.095	1333.17
1022.386	1340.85
1022.677	1319.84
1022.967	1317.8
1023.258	1286.17
1023.548	1285.71
1023.839	1291.59
1024.129	1290.69
1024.419	1247.75
1024.709	1249.56
1025	1249.33
1025.29	1271.25
1025.58	1229.9
1025.87	1249.33
1026.16	1233.29
1026.449	1227.86
1026.739	1196.23
1027.029	1196.23
1027.319	1208.43
1027.608	1170.92
1027.898	1189.22
1028.187	1187.41
1028.477	1154.87
1028.766	1180.63
1029.055	1154.19
1029.344	1134.76
1029.634	1153.29
1029.923	1118.71
1030.212	1118.49
1030.501	1105.83
1030.79	1091.82
1031.078	1081.88
1031.367	1103.8
1031.656	1090.47
1031.945	1058.15
1032.233	1093.63
1032.522	1067.42
1032.81	1069.45
1033.099	1059.51
1033.387	1034.42
1033.675	1049.79
1033.963	1031.26
1034.251	1038.26
1034.54	998.49
1034.828	1033.29
1035.116	993.29
1035.403	1005.27
1035.691	995.33
1035.979	1003.46
1036.267	989.9
1036.554	951.71
1036.842	946.74
1037.129	930.7
1037.417	945.38
1037.704	937.48
1037.992	946.29
1038.279	933.41
1038.566	957.81
1038.853	957.81
1039.14	957.81
