Data from hue_140_FLMS001491_00082.txt Node
Date: Tue Feb 07 16:56:31 GMT 2017
User: dcchb
Spectrometer: FLMS00149
Trigger mode: 0
Integration Time (sec): 2.000000E-2
Scans to average: 10
Electric dark correction enabled: true
Nonlinearity correction enabled: false
Boxcar width: 0
XAxis mode: Wavelengths
Number of Pixels in Spectrum: 2048
>>>>>Begin Spectral Data<<<<<
341.393	6.24
341.776	6.24
342.16	6.24
342.543	-38.05
342.927	-44.6
343.31	-46.19
343.693	-82.57
344.077	-57.94
344.46	-61.33
344.843	-63.13
345.226	-59.97
345.61	-8.67
345.993	-28.33
346.376	-23.36
346.759	4.89
347.142	24.77
347.525	59.12
347.908	67.03
348.291	79.24
348.674	90.99
349.057	105.45
349.44	132.34
349.823	135.28
350.206	164.2
350.588	179.35
350.971	207.82
351.354	223.64
351.737	229.97
352.119	255.5
352.502	274.94
352.884	278.55
353.267	275.61
353.65	265.9
354.032	291.66
354.414	327.14
354.797	290.53
355.179	335.73
355.562	332.79
355.944	334.6
356.326	335.95
356.709	313.81
357.091	336.4
357.473	350.64
357.855	360.81
358.238	342.51
358.62	320.81
359.002	323.52
359.384	335.5
359.766	340.47
360.148	332.56
360.53	341.83
360.912	342.73
361.294	333.69
361.676	334.6
362.057	310.42
362.439	348.83
362.821	338.44
363.203	329.17
363.584	324.65
363.966	341.38
364.348	323.75
364.729	340.92
365.111	331.21
365.493	328.49
365.874	300.7
366.256	316.74
366.637	311.09
367.019	310.87
367.4	319.68
367.781	326.91
368.163	324.2
368.544	310.87
368.925	311.32
369.306	307.25
369.688	324.2
370.069	299.12
370.45	313.35
370.831	326.01
371.212	317.42
371.593	312
371.974	302.51
372.355	300.7
372.736	309.51
373.117	309.51
373.498	320.58
373.879	321.04
374.26	316.29
374.641	316.29
375.021	301.6
375.402	315.61
375.783	340.02
376.163	349.74
376.544	314.71
376.925	310.19
377.305	316.97
377.686	336.4
378.066	313.35
378.447	320.81
378.827	304.77
379.208	315.39
379.588	330.98
379.968	326.23
380.349	351.54
380.729	328.49
381.109	330.53
381.489	341.38
381.87	329.4
382.25	342.73
382.63	337.99
383.01	342.28
383.39	351.09
383.77	340.92
384.15	340.47
384.53	326.91
384.91	333.47
385.29	361.94
385.67	340.92
386.049	356.06
386.429	337.53
386.809	354.93
387.189	346.12
387.568	337.76
387.948	354.03
388.328	350.87
388.707	353.8
389.087	363.52
389.466	344.54
389.846	370.75
390.225	381.83
390.605	360.58
390.984	355.84
391.363	345.44
391.743	361.26
392.122	387.48
392.501	380.47
392.881	368.95
393.26	377.98
393.639	348.61
394.018	368.27
394.397	367.82
394.776	372.33
395.155	382.73
395.534	372.33
395.913	377.53
396.292	395.39
396.671	387.02
397.05	392.45
397.429	365.56
397.808	391.32
398.186	386.57
398.565	388.38
398.944	396.51
399.323	400.81
399.701	383.41
400.08	401.94
400.458	383.18
400.837	382.96
401.215	406.23
401.594	405.78
401.972	408.72
402.351	405.55
402.729	405.1
403.107	398.77
403.486	393.13
403.864	414.37
404.242	403.29
404.62	402.62
404.999	405.1
405.377	414.37
405.755	429.28
406.133	413.69
406.511	428.83
406.889	424.99
407.267	431.77
407.645	420.47
408.023	437.42
408.401	447.81
408.779	401.71
409.156	436.06
409.534	437.19
409.912	430.64
410.29	452.78
410.667	442.16
411.045	443.97
411.422	438.77
411.8	453.91
412.178	460.24
412.555	467.7
412.933	474.93
413.31	466.12
413.687	472.45
414.065	469.96
414.442	460.92
414.819	479.45
415.197	476.96
415.574	482.16
415.951	475.61
416.328	476.06
416.705	483.29
417.082	471.09
417.46	506.57
417.837	493.24
418.214	498.89
418.591	505.21
418.967	516.06
419.344	522.61
419.721	512.9
420.098	493.01
420.475	520.13
420.852	523.74
421.228	526.23
421.605	507.47
421.982	527.13
422.358	529.17
422.735	532.1
423.111	543.86
423.488	543.86
423.864	540.01
424.241	573.23
424.617	545.89
424.994	547.47
425.37	566.23
425.746	549.73
426.123	556.28
426.499	563.74
426.875	563.97
427.251	591.31
427.627	588.6
428.003	578.88
428.379	596.51
428.756	593.57
429.132	577.98
429.507	606.23
429.883	612.33
430.259	635.15
430.635	625.66
431.011	631.99
431.387	627.24
431.763	640.58
432.138	627.02
432.514	621.37
432.89	650.07
433.265	629.28
433.641	655.94
434.016	655.49
434.392	672.21
434.767	664.08
435.143	679.45
435.518	683.06
435.894	718.99
436.269	697.3
436.644	692.55
437.02	708.6
437.395	716.28
437.77	722.83
438.145	729.61
438.52	721.93
438.895	744.75
439.271	738.2
439.646	732.33
440.021	755.15
440.395	741.14
440.77	749.27
441.145	790.85
441.52	777.3
441.895	803.74
442.27	760.57
442.645	782.72
443.019	800.8
443.394	811.19
443.769	812.55
444.143	789.72
444.518	838.09
444.892	821.59
445.267	797.63
445.641	821.59
446.016	823.85
446.39	836.28
446.764	849.84
447.139	836.28
447.513	822.49
447.887	830.18
448.262	836.5
448.636	845.77
449.01	857.52
449.384	858.2
449.758	876.28
450.132	882.38
450.506	893
450.88	901.59
451.254	932.55
451.628	896.16
452.002	934.58
452.376	930.29
452.75	929.83
453.123	937.29
453.497	939.33
453.871	970.06
454.244	951.75
454.618	986.33
454.992	1001.7
455.365	998.08
455.739	1026.55
456.112	1014.35
456.486	1060.45
456.859	1013.9
457.232	1041.47
457.606	1048.48
457.979	1063.62
458.352	1091.86
458.725	1093.67
459.099	1115.37
459.472	1134.35
459.845	1137.51
460.218	1160.56
460.591	1170.05
460.964	1167.57
461.337	1189.49
461.71	1201.69
462.083	1218.41
462.456	1242.82
462.829	1229.26
463.201	1278.98
463.574	1290.5
463.947	1299.77
464.32	1335.93
464.692	1309.26
465.065	1339.09
465.438	1369.82
465.81	1411.63
466.183	1407.79
466.555	1444.62
466.928	1448.46
467.3	1432.87
467.672	1485.98
468.045	1529.82
468.417	1529.82
468.789	1549.25
469.161	1536.82
469.534	1597.16
469.906	1626.09
470.278	1623.15
470.65	1685.29
471.022	1724.16
471.394	1742.69
471.766	1770.94
472.138	1792.41
472.51	1815.91
472.882	1873.99
473.253	1923.48
473.625	1932.07
473.997	1996.47
474.369	2003.03
474.74	2073.31
475.112	2132.51
475.484	2176.81
475.855	2203.93
476.227	2251.16
476.598	2309.23
476.97	2349.23
477.341	2463.81
477.713	2501.54
478.084	2581.99
478.455	2633.97
478.827	2682.33
479.198	2794.42
479.569	2810.46
479.94	2982.21
480.311	2983.34
480.682	3058.37
481.053	3137.01
481.424	3228.76
481.795	3330.9
482.166	3437.11
482.537	3482.76
482.908	3592.82
483.279	3683.89
483.65	3758.23
484.021	3899.93
484.391	4000.94
484.762	4070.32
485.133	4159.13
485.503	4263.53
485.874	4393.25
486.244	4518.67
486.615	4667.59
486.985	4666.91
487.356	4871.65
487.726	5002.5
488.097	5110.52
488.467	5208.82
488.837	5342.37
489.207	5473.44
489.578	5635.47
489.948	5749.82
490.318	5852.42
490.688	5933.32
491.058	6111.17
491.428	6227.55
491.798	6371.05
492.168	6542.79
492.538	6646.29
492.908	6740.3
493.278	6900.3
493.648	6949.34
494.017	7198.14
494.387	7238.37
494.757	7393.62
495.126	7508.64
495.496	7605.14
495.866	7724.46
496.235	7786.15
496.605	7962.19
496.974	8062.08
497.344	8229.76
497.713	8262.75
498.082	8391.33
498.452	8627.71
498.821	8678.56
499.19	8744.77
499.559	8789.74
499.928	8961.71
500.298	8972.79
500.667	9134.82
501.036	9159.9
501.405	9351.99
501.774	9333.68
502.143	9562.6
502.512	9518.76
502.88	9670.17
503.249	9725.31
503.618	9804.63
503.987	9820.67
504.356	9893.89
504.724	10058.41
505.093	10072.87
505.462	10215.92
505.83	10274.45
506.199	10361
506.567	10416.14
506.936	10417.27
507.304	10626.98
507.672	10606.87
508.041	10686.41
508.409	10790.37
508.777	10864.49
509.145	10967.08
509.514	10940.64
509.882	10972.73
510.25	11012.96
510.618	11193.75
510.986	11135.22
511.354	11291.82
511.722	11308.32
512.09	11343.8
512.458	11455.43
512.826	11435.32
513.193	11502.89
513.561	11491.36
513.929	11573.4
514.297	11671.7
514.664	11763.67
515.032	11682.77
515.4	11751.7
515.767	11802.09
516.135	11874.18
516.502	11766.16
516.869	12015.42
517.237	11939.49
517.604	11921.64
517.972	11989.88
518.339	12059.49
518.706	12017.68
519.073	12007.06
519.44	12094.51
519.808	12205.92
520.175	12136.32
520.542	12266.26
520.909	12311.91
521.276	12274.39
521.643	12385.8
522.009	12422.41
522.376	12379.93
522.743	12501.96
523.11	12499.02
523.477	12600.26
523.843	12552.81
524.21	12633.48
524.577	12655.4
524.943	12753.03
525.31	12715.29
525.676	12809.07
526.043	12767.26
526.409	12724.33
526.776	12871.67
527.142	12835.28
527.508	12859.92
527.874	12898.79
528.241	12836.64
528.607	12966.81
528.973	12955.73
529.339	12813.82
529.705	12889.75
530.071	12925.9
530.437	12993.25
530.803	12977.2
531.169	13052.45
531.535	12929.97
531.901	12868.05
532.267	12871.22
532.632	12982.62
532.998	12938.78
533.364	13012
533.73	12942.85
534.095	12983.75
534.461	12879.12
534.826	12903.76
535.192	12918.22
535.557	12913.93
535.923	12961.38
536.288	12804.55
536.653	12845
537.019	12796.41
537.384	12769.52
537.749	12719.81
538.114	12769.75
538.479	12705.57
538.845	12769.97
539.21	12587.61
539.575	12666.25
539.94	12627.61
540.305	12634.61
540.67	12543.54
541.034	12581.05
541.399	12565.69
541.764	12422.64
542.129	12419.25
542.494	12408.63
542.858	12447.27
543.223	12360.27
543.587	12402.3
543.952	12321.17
544.316	12311.23
544.681	12229.88
545.045	12241.85
545.41	12305.81
545.774	12217
546.138	12127.51
546.503	12143.1
546.867	12131.57
547.231	12122.53
547.595	12032.59
547.959	12076.43
548.324	12061.97
548.688	12014.29
549.052	11997.34
549.416	11916.21
549.779	11873.73
550.143	11853.61
550.507	11847.06
550.871	11790.11
551.235	11793.28
551.599	11879.38
551.962	11773.17
552.326	11758.02
552.689	11861.52
553.053	11711.47
553.417	11642.1
553.78	11663.56
554.143	11598.25
554.507	11617.24
554.87	11658.82
555.234	11678.7
555.597	11563.23
555.96	11545.37
556.323	11505.6
556.686	11552.38
557.05	11603.23
557.413	11575.88
557.776	11468.09
558.139	11505.15
558.502	11558.93
558.865	11401.65
559.228	11480.97
559.59	11471.93
559.953	11405.04
560.316	11530.91
560.679	11480.97
561.041	11538.82
561.404	11430.8
561.767	11605.49
562.129	11569.55
562.492	11557.13
562.854	11485.94
563.217	11511.48
563.579	11554.64
563.941	11572.04
564.304	11543.57
564.666	11567.52
565.028	11606.84
565.39	11536.11
565.753	11574.98
566.115	11674.18
566.477	11631.47
566.839	11653.39
567.201	11625.6
567.563	11572.72
567.925	11725.03
568.287	11650.46
568.648	11642.1
569.01	11675.54
569.372	11802.32
569.734	11720.96
570.095	11721.64
570.457	11716.9
570.819	11737.69
571.18	11772.94
571.542	11769.78
571.903	11809.55
572.265	11766.39
572.626	11847.97
572.987	11844.12
573.349	11832.15
573.71	11863.33
574.071	11860.85
574.432	11835.08
574.794	11878.25
575.155	11875.08
575.516	11827.4
575.877	11879.6
576.238	11942.2
576.599	11951.92
576.96	11919.38
577.32	11907.4
577.681	11872.82
578.042	11952.14
578.403	11824.69
578.763	11984.68
579.124	11836.67
579.485	11904.69
579.845	11923.67
580.206	11918.47
580.566	11959.83
580.927	11906.72
581.287	11965.02
581.648	11903.33
582.008	11937.23
582.368	11933.84
582.728	11928.64
583.089	11931.13
583.449	11951.69
583.809	11922.77
584.169	11945.59
584.529	11830.79
584.889	12029.43
585.249	11856.33
585.609	11841.86
585.969	12002.09
586.329	11883.9
586.688	11928.87
587.048	11827.17
587.408	11842.77
587.768	11726.16
588.127	11720.29
588.487	11749.66
588.846	11817.68
589.206	11737.01
589.565	11735.65
589.925	11756.22
590.284	11787.63
590.643	11755.54
591.003	11801.86
591.362	11852.94
591.721	11809.32
592.08	11805.71
592.44	11726.84
592.799	11793.05
593.158	11715.54
593.517	11691.13
593.876	11713.28
594.235	11704.01
594.593	11678.93
594.952	11721.19
595.311	11606.84
595.67	11640.51
596.029	11697.91
596.387	11765.03
596.746	11786.95
597.104	11738.82
597.463	11676.9
597.822	11757.35
598.18	11659.27
598.538	11668.76
598.897	11725.71
599.255	11557.8
599.613	11743.79
599.972	11739.04
600.33	11698.59
600.688	11643.9
601.046	11693.39
601.404	11686.84
601.762	11670.79
602.12	11710.12
602.478	11736.56
602.836	11708.31
603.194	11697.23
603.552	11629.44
603.91	11584.47
604.268	11697.69
604.625	11685.03
604.983	11700.17
605.341	11707.63
605.698	11740.85
606.056	11696.33
606.413	11713.51
606.771	11763.67
607.128	11728.65
607.485	11702.21
607.843	11766.61
608.2	11784.24
608.557	11747.85
608.914	11683.68
609.272	11716.67
609.629	11722.77
609.986	11784.92
610.343	11765.48
610.7	11817.01
611.057	11832.6
611.414	11855.87
611.771	11783.11
612.127	11813.39
612.484	11855.42
612.841	11818.81
613.198	11804.8
613.554	11800.51
613.911	11811.36
614.267	11843.22
614.624	11834.86
614.98	11852.94
615.337	11993.72
615.693	11846.16
616.05	11783.11
616.406	11957.57
616.762	11893.61
617.118	11918.92
617.475	11869.21
617.831	11909.66
618.187	11962.99
618.543	11923.44
618.899	11964.12
619.255	11931.8
619.611	11977.91
619.967	11956.44
620.323	12056.1
620.678	11988.3
621.034	12008.19
621.39	11998.02
621.746	11883.67
622.101	12068.75
622.457	11949.43
622.812	11983.78
623.168	12064.23
623.523	11981.97
623.879	12041.86
624.234	12015.87
624.589	12161.4
624.945	12002.99
625.3	12061.74
625.655	12097.45
626.01	11980.84
626.365	12017.23
626.72	12008.41
627.075	11925.93
627.43	12035.98
627.785	11947.17
628.14	11921.86
628.495	12014.51
628.85	12027.4
629.205	11937.91
629.559	12048.64
629.914	11918.7
630.269	12039.15
630.623	11974.97
630.978	11944.46
631.332	11970.22
631.687	11920.28
632.041	11893.84
632.396	11948.08
632.75	11932.26
633.104	11922.09
633.459	11839.83
633.813	11785.82
634.167	11918.92
634.521	11942.65
634.875	11856.55
635.229	11777.91
635.583	11690.23
635.937	11715.77
636.291	11653.17
636.645	11717.35
636.999	11646.84
637.352	11697.46
637.706	11678.48
638.06	11672.38
638.413	11585.6
638.767	11607.75
639.121	11612.94
639.474	11605.49
639.828	11637.58
640.181	11630.34
640.534	11587.18
640.888	11583.11
641.241	11517.13
641.594	11545.83
641.947	11612.72
642.301	11598.03
642.654	11475.09
643.007	11575.66
643.36	11555.09
643.713	11476.45
644.066	11486.62
644.419	11438.26
644.771	11439.39
645.124	11293.18
645.477	11260.18
645.83	11232.84
646.182	11191.26
646.535	11179.51
646.888	11207.08
647.24	11092.05
647.593	11216.34
647.945	11163.24
648.298	11005.5
648.65	11051.15
649.002	10999.17
649.355	11073.75
649.707	11078.72
650.059	11163.92
650.411	11291.14
650.763	11285.04
651.115	11423.34
651.467	11375.89
651.819	11364.14
652.171	11339.05
652.523	11350.13
652.875	11365.49
653.227	11260.18
653.578	11309.45
653.93	11261.77
654.282	11276.68
654.633	11332.95
654.985	11328.66
655.337	11322.78
655.688	11326.17
656.039	11361.2
656.391	11290.69
656.742	11322.1
657.094	11323.46
657.445	11403.01
657.796	11304.25
658.147	11332.05
658.498	11377.47
658.849	11427.86
659.2	11402.33
659.551	11342.89
659.902	11377.92
660.253	11309.45
660.604	11314.42
660.955	11254.08
661.306	11354.64
661.656	11322.78
662.007	11305.15
662.358	11378.6
662.708	11343.35
663.059	11320.75
663.409	11263.8
663.76	11345.61
664.11	11355.1
664.461	11458.15
664.811	11384.25
665.161	11413.63
665.511	11423.12
665.862	11384.93
666.212	11462.89
666.562	11455.66
666.912	11332.27
667.262	11327.3
667.612	11375.66
667.962	11396
668.312	11413.85
668.662	11444.13
669.011	11384.02
669.361	11344.48
669.711	11401.65
670.06	11375.44
670.41	11304.25
670.76	11360.29
671.109	11410.69
671.459	11362.78
671.808	11329.33
672.157	11379.05
672.507	11232.84
672.856	11250.92
673.205	11318.71
673.554	11281.65
673.904	11257.02
674.253	11300.41
674.602	11234.2
674.951	11157.14
675.3	11083.47
675.649	11265.61
675.998	11218.83
676.346	11138.38
676.695	11292.95
677.044	11163.24
677.393	11190.13
677.741	11228.55
678.09	11160.3
678.438	11207.53
678.787	11126.85
679.135	11116.23
679.484	11095.44
679.832	11120.98
680.181	11073.3
680.529	11062.45
680.877	11084.6
681.225	10984.94
681.573	11119.4
681.922	10949.46
682.27	10956.92
682.618	10963.24
682.966	10954.2
683.314	10962.11
683.661	10919.18
684.009	10857.71
684.357	10851.83
684.705	10798.73
685.053	10870.82
685.4	10792.63
685.748	10693.19
686.095	10779.97
686.443	10692.97
686.79	10703.14
687.138	10692.97
687.485	10651.39
687.832	10578.62
688.18	10648.67
688.527	10576.13
688.874	10502.46
689.221	10507.21
689.568	10425.86
689.915	10486.42
690.262	10475.35
690.609	10427.44
690.956	10340.66
691.303	10315.8
691.65	10331.62
691.997	10307.89
692.344	10253.43
692.69	10188.57
693.037	10189.03
693.383	10163.49
693.73	10169.14
694.077	10042.36
694.423	9991.06
694.769	10061.35
695.116	9982.03
695.462	9946.09
695.808	9925.08
696.155	9968.69
696.501	9887.34
696.847	9930.5
697.193	9811.86
697.539	9904.51
697.885	9723.73
698.231	9670.4
698.577	9711.98
698.923	9537.74
699.269	9566.67
699.614	9585.43
699.96	9511.98
700.306	9516.73
700.651	9404.41
700.997	9391.31
701.342	9343.4
701.688	9359.9
702.033	9308.37
702.379	9376.62
702.724	9253.23
703.069	9262.72
703.415	9175.95
703.76	9170.07
704.105	9121.03
704.45	9139.11
704.795	9080.81
705.14	9013.92
705.485	9101.37
705.83	9006.68
706.175	8994.48
706.52	8977.08
706.865	8938.21
707.209	8933.01
707.554	8879.68
707.899	8944.09
708.243	8836.07
708.588	8834.03
708.932	8748.39
709.277	8715.39
709.621	8801.27
709.966	8707.71
710.31	8669.07
710.654	8624.32
710.998	8697.99
711.342	8591.78
711.687	8618.22
712.031	8541.84
712.375	8498.45
712.719	8563.76
713.063	8537.77
713.407	8565.57
713.75	8509.97
714.094	8463.42
714.438	8476.3
714.782	8419.13
715.125	8459.58
715.469	8504.1
715.812	8342.97
716.156	8359.02
716.499	8393.37
716.843	8397.89
717.186	8347.49
717.53	8345.46
717.873	8366.02
718.216	8350.66
718.559	8283.77
718.902	8172.81
719.246	8206.03
719.589	8256.65
719.932	8160.38
720.275	8224.56
720.617	8143.43
720.96	8205.12
721.303	8246.03
721.646	8152.7
721.989	8124.22
722.331	8186.37
722.674	8131.9
723.016	8136.88
723.359	8191.11
723.701	8202.41
724.044	8134.84
724.386	8052.81
724.729	8159.02
725.071	8153.37
725.413	8144.11
725.755	8128.06
726.097	8056.88
726.439	8050.55
726.782	8072.47
727.124	8196.31
727.465	8079.93
727.807	8035.41
728.149	8071.79
728.491	8011.91
728.833	8046.48
729.175	8047.84
729.516	8036.77
729.858	8011.91
730.199	7989.31
730.541	8012.81
730.882	7975.98
731.224	8014.62
731.565	7985.92
731.906	7959.93
732.248	8014.17
732.589	7914.28
732.93	7945.02
733.271	7964.68
733.612	7940.27
733.953	8031.34
734.294	7950.44
734.635	7928.52
734.976	8006.48
735.317	7896.2
735.658	7935.3
735.999	7945.7
736.339	7983.21
736.68	7994.73
737.021	7997.45
737.361	7966.94
737.702	8026.6
738.042	7992.02
738.383	7934.4
738.723	8000.16
739.063	8006.26
739.404	7974.62
739.744	8048.07
740.084	8047.39
740.424	8012.36
740.764	8041.06
741.104	8118.8
741.444	8114.05
741.784	8030.21
742.124	8055.3
742.464	8108.63
742.804	8107.27
743.143	8061.17
743.483	8142.3
743.823	8100.27
744.162	8189.3
744.502	8217.33
744.841	8207.16
745.181	8325.8
745.52	8243.31
745.86	8330.54
746.199	8350.2
746.538	8367.83
746.877	8398.79
747.216	8503.65
747.556	8531.67
747.895	8542.29
748.234	8635.39
748.573	8604.89
748.911	8677.65
749.25	8746.8
749.589	8758.33
749.928	8872
750.267	8959
750.605	9011.66
750.944	9070.64
751.283	9104.99
751.621	9180.46
751.96	9228.6
752.298	9352.21
752.636	9436.5
752.975	9509.5
753.313	9547.23
753.651	9768.7
753.989	9780.68
754.327	9919.65
754.666	9899.09
755.004	10066.32
755.342	10232.64
755.679	10397.61
756.017	10532.07
756.355	10516.02
756.693	10696.36
757.031	10904.26
757.368	10929.8
757.706	11139.74
758.044	11177.7
758.381	11388.32
758.719	11491.59
759.056	11654.52
759.394	11840.73
759.731	11893.84
760.068	12055.42
760.405	12245.69
760.743	12388.97
761.08	12534.73
761.417	12640.49
761.754	12852.46
762.091	13033.47
762.428	13193.69
762.765	13319.11
763.102	13463.97
763.438	13539.67
763.775	13736.05
764.112	13942.15
764.449	14154.8
764.785	14291.74
765.122	14313.21
765.458	14553.66
765.795	14593.2
766.131	14736.48
766.467	14877.72
766.804	14955.91
767.14	15105.96
767.476	15374.43
767.812	15350.92
768.148	15572.16
768.485	15583.01
768.821	15789.1
769.157	15889.89
769.492	15983
769.828	16146.38
770.164	16068.42
770.5	16248.3
770.836	16387.51
771.171	16424.57
771.507	16673.38
771.842	16578.46
772.178	16717.89
772.513	16860.94
772.849	16869.3
773.184	16951.33
773.519	17045.12
773.855	17107.71
774.19	17179.35
774.525	17150.42
774.86	17349.97
775.195	17412.79
775.53	17421.15
775.865	17434.71
776.2	17361.94
776.535	17448.95
776.87	17464.31
777.205	17559.45
777.539	17502.28
777.874	17728.71
778.209	17588.83
778.543	17689.85
778.878	17669.28
779.212	17754.7
779.547	17694.82
779.881	17811.42
780.215	17719.45
780.55	17864.53
780.884	17712.67
781.218	17775.95
781.552	17835.15
781.886	17869.28
782.22	17768.94
782.554	17772.33
782.888	17726.91
783.222	17631.77
783.556	17740.24
783.889	17605.55
784.223	17611.43
784.557	17545.67
784.89	17667.7
785.224	17610.75
785.557	17592.22
785.891	17581.37
786.224	17655.72
786.558	17702.05
786.891	17461.15
787.224	17509.29
787.557	17420.02
787.891	17476.74
788.224	17540.47
788.557	17556.52
788.89	17542.96
789.223	17432
789.556	17373.24
789.888	17384.32
790.221	17367.14
790.554	17283.75
790.887	17331.89
791.219	17170.31
791.552	17207.6
791.884	17166.24
792.217	17131.44
792.549	17083.53
792.882	17051.67
793.214	16972.58
793.546	17067.26
793.879	16985.23
794.211	16908.4
794.543	16943.2
794.875	16872.69
795.207	16867.49
795.539	16797.67
795.871	16805.8
796.203	16679.48
796.535	16671.57
796.867	16659.14
797.198	16641.29
797.53	16652.36
797.862	16484.91
798.193	16620.95
798.525	16511.35
798.856	16528.07
799.188	16287.62
799.519	16275.65
799.85	16269.09
800.182	16226.16
800.513	16341.86
800.844	16163.11
801.175	16185.25
801.506	16147.29
801.837	16132.6
802.168	16157.23
802.499	16063.45
802.83	16004.92
803.161	15988.65
803.491	15968.31
803.822	15929.44
804.153	15864.13
804.483	15790.91
804.814	15723.12
805.145	15709.56
805.475	15746.85
805.805	15661.88
806.136	15765.6
806.466	15595.66
806.796	15624.14
807.126	15472.05
807.457	15414.65
807.787	15521.09
808.117	15401.32
808.447	15352.96
808.777	15476.8
809.107	15348.89
809.436	15307.54
809.766	15226.41
810.096	15238.16
810.426	15203.58
810.755	15227.31
811.085	15163.36
811.414	15084.94
811.744	15122.46
812.073	15043.36
812.403	15000.2
812.732	14967.43
813.061	15042.01
813.39	14908
813.719	14827.32
814.049	14910.48
814.378	14816.93
814.707	14790.26
815.036	14815.34
815.365	14686.76
815.693	14501.45
816.022	14649.02
816.351	14554.11
816.68	14474.34
817.008	14520.66
817.337	14438.86
817.665	14439.76
817.994	14421.23
818.322	14443.6
818.651	14311.63
818.979	14282.93
819.307	14395.69
819.636	14374.45
819.964	14244.96
820.292	14315.47
820.62	14317.28
820.948	14274.34
821.276	14318.63
821.604	14237.06
821.932	14384.62
822.259	14346.43
822.587	14178.98
822.915	14235.47
823.243	14316.37
823.57	14252.42
823.898	14327.22
824.225	14250.84
824.553	14226.43
824.88	14285.42
825.207	14285.19
825.535	14274.57
825.862	14287.68
826.189	14236.83
826.516	14274.34
826.843	14389.14
827.17	14340.78
827.497	14308.01
827.824	14289.48
828.151	14329.48
828.478	14237.28
828.805	14265.53
829.131	14245.87
829.458	14323.38
829.785	14108.24
830.111	14273.89
830.438	14362.25
830.764	14291.74
831.09	14320.89
831.417	14190.28
831.743	14303.95
832.069	14220.78
832.395	14195.7
832.722	14229.82
833.048	14145.08
833.374	14225.08
833.7	14150.73
834.026	14209.03
834.351	14165.87
834.677	14145.31
835.003	14218.07
835.329	14148.24
835.654	14215.81
835.98	14008.59
836.306	14086.78
836.631	14068.47
836.956	14047.91
837.282	14078.19
837.607	14012.2
837.932	14030.73
838.258	13967.01
838.583	13950.51
838.908	13867.12
839.233	13915.71
839.558	13808.82
839.883	13879.78
840.208	13804.52
840.533	13825.09
840.858	13824.64
841.182	13790.06
841.507	13786.22
841.832	13699.89
842.156	13623.96
842.481	13739.67
842.805	13706.67
843.13	13573.12
843.454	13561.59
843.778	13455.38
844.103	13521.37
844.427	13447.7
844.751	13430.75
845.075	13427.81
845.399	13447.25
845.723	13312.79
846.047	13266.46
846.371	13164.09
846.695	13203.41
847.019	13031.89
847.343	13035.5
847.666	13021.04
847.99	12848.39
848.313	12965.9
848.637	12895.4
848.96	12831.67
849.284	12758.68
849.607	12707.38
849.931	12739.92
850.254	12607.72
850.577	12532.02
850.9	12477.78
851.223	12437.33
851.546	12429.42
851.869	12317.56
852.192	12351.23
852.515	12265.81
852.838	12141.52
853.161	12283.89
853.483	12064.91
853.806	12084.57
854.129	12102.65
854.451	11932.48
854.774	11950.11
855.096	12021.75
855.419	11878.92
855.741	11860.85
856.063	11762.77
856.385	11762.54
856.708	11764.58
857.03	11680.51
857.352	11709.44
857.674	11671.02
857.996	11628.54
858.318	11519.16
858.64	11521.42
858.961	11489.1
859.283	11462.89
859.605	11392.61
859.926	11471.03
860.248	11360.52
860.57	11349.9
860.891	11319.39
861.212	11297.25
861.534	11302.67
861.855	11314.65
862.176	11256.57
862.498	11233.29
862.819	11262.22
863.14	11207.76
863.461	11179.51
863.782	11092.96
864.103	11144.48
864.424	11072.39
864.745	11083.47
865.065	11040.53
865.386	11036.91
865.707	11040.53
866.027	11056.12
866.348	10934.54
866.668	10990.36
866.989	10915.33
867.309	10856.8
867.63	10862.23
867.95	10869.46
868.27	10806.41
868.59	10847.77
868.91	10783.13
869.23	10815.9
869.55	10739.29
869.87	10786.52
870.19	10771.61
870.51	10733.19
870.83	10784.04
871.15	10709.24
871.469	10693.87
871.789	10712.85
872.109	10685.74
872.428	10610.03
872.748	10592.63
873.067	10613.2
873.386	10579.75
873.706	10579.07
874.025	10490.71
874.344	10490.94
874.663	10501.11
874.982	10425.63
875.301	10453.2
875.62	10408.68
875.939	10485.52
876.258	10371.62
876.577	10310.15
876.896	10433.31
877.214	10319.64
877.533	10347.44
877.852	10273.77
878.17	10276.26
878.489	10266.31
878.807	10275.58
879.125	10361.22
879.444	10253.88
879.762	10155.58
880.08	10216.82
880.398	10188.12
880.716	10228.35
881.034	10159.65
881.352	10146.32
881.67	10130.5
881.988	10169.59
882.306	10114.68
882.624	10040.1
882.941	9928.02
883.259	10062.7
883.577	9996.94
883.894	9956.94
884.212	9911.07
884.529	9923.04
884.846	9880.33
885.164	9798.08
885.481	9872.42
885.798	9863.61
886.115	9775.48
886.432	9749.49
886.75	9756.72
887.067	9727.8
887.383	9713.33
887.7	9672.88
888.017	9675.37
888.334	9737.29
888.651	9628.81
888.967	9607.35
889.284	9528.25
889.6	9530.96
889.917	9434.02
890.233	9479.89
890.55	9402.83
890.866	9450.97
891.182	9404.19
891.498	9333.23
891.815	9324.64
892.131	9257.52
892.447	9311.31
892.763	9231.76
893.079	9206.9
893.395	9205.1
893.71	9166
894.026	9169.17
894.342	9131.43
894.657	9031.32
894.973	9046.91
895.289	8975.95
895.604	8957.19
895.92	8944.54
896.235	8910.64
896.55	8870.87
896.865	8912.9
897.181	8851.21
897.496	8839.23
897.811	8775.05
898.126	8824.77
898.441	8685.79
898.756	8731.66
899.071	8698.22
899.386	8688.73
899.7	8596.98
900.015	8533.02
900.33	8506.36
900.644	8540.48
900.959	8461.39
901.273	8479.69
901.588	8387.49
901.902	8371.45
902.216	8271.79
902.531	8344.55
902.845	8326.7
903.159	8281.05
903.473	8251.45
903.787	8169.64
904.101	8121.96
904.415	8123.54
904.729	8090.55
905.042	8110.21
905.356	7965.58
905.67	8019.14
905.984	7946.82
906.297	7959.71
906.611	7911.57
906.924	7848.97
907.237	7912.25
907.551	7840.16
907.864	7764.91
908.177	7761.97
908.491	7736.89
908.804	7676.1
909.117	7667.96
909.43	7542.32
909.743	7572.6
910.056	7580.96
910.368	7545.03
910.681	7426.39
910.994	7483.56
911.307	7437.46
911.619	7399.95
911.932	7396.78
912.244	7341.42
912.557	7328.54
912.869	7282.21
913.181	7274.3
913.494	7272.49
913.806	7227.52
914.118	7194.75
914.43	7130.58
914.742	7128.77
915.054	7058.94
915.366	7054.87
915.678	7051.26
915.99	6984.59
916.302	6968.55
916.613	6948.43
916.925	6902.11
917.236	6945.72
917.548	6837.48
917.859	6854.2
918.171	6802
918.482	6813.97
918.794	6751.38
919.105	6785.5
919.416	6662.34
919.727	6670.7
920.038	6617.82
920.349	6594.09
920.66	6600.42
920.971	6561.1
921.282	6533.08
921.593	6493.08
921.903	6464.15
922.214	6462.34
922.525	6416.7
922.835	6380.09
923.146	6348.22
923.456	6294.21
923.767	6274.33
924.077	6285.63
924.387	6279.75
924.697	6258.73
925.008	6222.12
925.318	6207.21
925.628	6154.56
925.938	6176.7
926.248	6075.01
926.558	6113.43
926.867	6072.52
927.177	6046.31
927.487	6014.9
927.796	5948.46
928.106	5989.36
928.416	5978.74
928.725	5893.32
929.034	5907.78
929.344	5884.05
929.653	5861.91
929.962	5827.78
930.271	5814.9
930.581	5751.18
930.89	5778.97
931.199	5723.15
931.508	5748.24
931.817	5744.17
932.125	5662.37
932.434	5634.8
932.743	5656.04
933.051	5595.93
933.36	5568.58
933.669	5563.84
933.977	5501.92
934.286	5481.81
934.594	5483.84
934.902	5428.47
935.21	5466.44
935.519	5424.41
935.827	5410.17
936.135	5354.12
936.443	5320.68
936.751	5298.31
937.059	5342.6
937.367	5273.45
937.674	5277.97
937.982	5249.04
938.29	5217.63
938.597	5223.28
938.905	5136.28
939.213	5098.09
939.52	5127.46
939.827	5148.25
940.135	5120.46
940.442	5051.53
940.749	5042.49
941.056	5054.25
941.363	4944.42
941.67	5035.94
941.977	4980.12
942.284	4917.98
942.591	4935.6
942.898	4859.67
943.205	4917.98
943.511	4892.67
943.818	4869.62
944.125	4767.02
944.431	4792.11
944.738	4760.02
945.044	4739
945.35	4731.54
945.657	4689.28
945.963	4696.06
946.269	4646.12
946.575	4641.83
946.881	4575.84
947.187	4570.19
947.493	4600.47
947.799	4535.16
948.105	4520.93
948.41	4501.27
948.716	4495.16
949.022	4452.45
949.327	4516.86
949.633	4440.7
949.938	4403.87
950.244	4439.12
950.549	4368.16
950.854	4341.04
951.16	4329.97
951.465	4338.56
951.77	4309.41
952.075	4318.45
952.38	4282.06
952.685	4259.24
952.99	4251.1
953.294	4232.57
953.599	4172.91
953.904	4196.42
954.209	4140.6
954.513	4177.88
954.818	4157.09
955.122	4123.42
955.426	4099.92
955.731	4066.93
956.035	4006.36
956.339	4040.71
956.643	4045.68
956.948	4004.78
957.252	3977.44
957.556	3989.41
957.86	3958.91
958.163	3956.65
958.467	3926.59
958.771	3914.61
959.075	3900.83
959.378	3871
959.682	3885.46
959.985	3867.61
960.289	3810.44
960.592	3862.86
960.896	3755.97
961.199	3806.37
961.502	3752.13
961.805	3769.31
962.108	3702.19
962.411	3713.04
962.714	3703.32
963.017	3664
963.32	3680.72
963.623	3689.08
963.926	3679.37
964.228	3591.91
964.531	3628.97
964.833	3615.19
965.136	3585.36
965.438	3574.06
965.741	3526.38
966.043	3523.89
966.345	3543.1
966.648	3499.71
966.95	3504.46
967.252	3484.57
967.554	3471.91
967.856	3416.77
968.158	3406.83
968.46	3430.56
968.761	3423.33
969.063	3413.38
969.365	3366.61
969.666	3376.32
969.968	3313.05
970.269	3310.79
970.571	3314.18
970.872	3278.7
971.174	3293.39
971.475	3269.43
971.776	3245.71
972.077	3254.29
972.378	3227.63
972.679	3235.08
972.98	3183.79
973.281	3189.44
973.582	3164.58
973.883	3147.18
974.183	3160.74
974.484	3175.42
974.785	3094.98
975.085	3083.9
975.386	3094.3
975.686	3068.99
975.986	3049.1
976.287	3050.68
976.587	3015.88
976.887	3052.72
977.187	2990.35
977.487	3014.07
977.787	2975.43
978.087	2985.15
978.387	2953.51
978.687	2963.68
978.987	2932.95
979.286	2911.7
979.586	2878.03
979.885	2901.31
980.185	2860.86
980.484	2807.98
980.784	2871.03
981.083	2846.39
981.382	2842.1
981.682	2814.76
981.981	2820.86
982.28	2758.94
982.579	2733.85
982.878	2743.12
983.177	2751.26
983.475	2732.5
983.774	2740.41
984.073	2721.65
984.372	2707.64
984.67	2713.29
984.969	2701.77
985.267	2678.71
985.566	2678.94
985.864	2654.99
986.162	2629.68
986.461	2655.66
986.759	2585.38
987.057	2582.9
987.355	2567.08
987.653	2579.28
987.951	2564.14
988.249	2565.05
988.547	2520.75
988.844	2513.3
989.142	2489.34
989.44	2465.84
989.737	2510.58
990.035	2483.01
990.332	2501.54
990.63	2463.35
990.927	2431.49
991.224	2438.72
991.521	2452.73
991.819	2425.16
992.116	2389.46
992.413	2395.56
992.71	2365.73
993.006	2348.55
993.303	2334.77
993.6	2375.22
993.897	2359.18
994.193	2329.12
994.49	2344.94
994.787	2326.41
995.083	2290.25
995.379	2275.79
995.676	2298.84
995.972	2241.44
996.268	2247.99
996.565	2282.79
996.861	2222.68
997.157	2230.14
997.453	2212.74
997.749	2166.19
998.044	2198.05
998.34	2154.89
998.636	2145.4
998.932	2151.95
999.227	2159.63
999.523	2131.61
999.818	2121.22
1000.114	2122.8
1000.409	2076.02
1000.704	2082.35
1001	2088.9
1001.295	2043.03
1001.59	2052.29
1001.885	2050.03
1002.18	2022.01
1002.475	2022.46
1002.77	2001.9
1003.065	1974.78
1003.359	1997.83
1003.654	1975.23
1003.949	1962.8
1004.243	1927.55
1004.538	1934.33
1004.832	1918.96
1005.127	1900.88
1005.421	1895.01
1005.715	1901.11
1006.009	1871.73
1006.304	1871.96
1006.598	1878.06
1006.892	1859.75
1007.186	1828.12
1007.48	1824.5
1007.773	1828.12
1008.067	1821.11
1008.361	1782.47
1008.655	1824.27
1008.948	1771.17
1009.242	1779.08
1009.535	1779.08
1009.829	1751.51
1010.122	1731.4
1010.415	1730.27
1010.708	1737.5
1011.001	1735.69
1011.295	1702.47
1011.588	1701.11
1011.881	1654.56
1012.173	1671.96
1012.466	1655.24
1012.759	1686.2
1013.052	1664.05
1013.344	1634.9
1013.637	1637.84
1013.93	1617.27
1014.222	1597.16
1014.514	1605.52
1014.807	1593.55
1015.099	1596.94
1015.391	1558.97
1015.683	1544.51
1015.976	1554.68
1016.268	1540.44
1016.56	1535.02
1016.851	1528.46
1017.143	1502.25
1017.435	1525.07
1017.727	1496.6
1018.018	1489.37
1018.31	1464.06
1018.602	1493.44
1018.893	1470.84
1019.185	1447.11
1019.476	1459.09
1019.767	1424.06
1020.058	1443.04
1020.35	1425.64
1020.641	1405.75
1020.932	1409.37
1021.223	1401.69
1021.514	1386.77
1021.804	1349.03
1022.095	1356.04
1022.386	1331.18
1022.677	1353.55
1022.967	1327.79
1023.258	1344.96
1023.548	1327.11
1023.839	1336.83
1024.129	1315.36
1024.419	1310.39
1024.709	1288.02
1025	1269.03
1025.29	1255.02
1025.58	1271.97
1025.87	1255.48
1026.16	1247.57
1026.449	1234.69
1026.739	1224.29
1027.029	1229.04
1027.319	1201.92
1027.608	1207.57
1027.898	1225.19
1028.187	1200.56
1028.477	1166.89
1028.766	1170.05
1029.055	1144.29
1029.344	1165.76
1029.634	1166.66
1029.923	1154.91
1030.212	1129.38
1030.501	1158.98
1030.79	1117.17
1031.078	1125.31
1031.367	1107
1031.656	1092.99
1031.945	1088.93
1032.233	1081.02
1032.522	1077.18
1032.81	1071.75
1033.099	1075.14
1033.387	1078.3
1033.675	1062.26
1033.963	1038.08
1034.251	1065.88
1034.54	1042.6
1034.828	1028.59
1035.116	1012.32
1035.403	1029.27
1035.691	1018.42
1035.979	1011.19
1036.267	971.42
1036.554	1000.79
1036.842	987.91
1037.129	997.18
1037.417	985.65
1037.704	970.74
1037.992	967.35
1038.279	957.86
1038.566	934.81
1038.853	934.81
1039.14	934.81
