Data from hue_90_FLMS001491_65.txt Node
Date: Mon Feb 06 15:25:28 GMT 2017
User: dcchb
Spectrometer: FLMS00149
Trigger mode: 0
Integration Time (sec): 2.000000E-2
Scans to average: 10
Electric dark correction enabled: true
Nonlinearity correction enabled: false
Boxcar width: 0
XAxis mode: Wavelengths
Number of Pixels in Spectrum: 2048
>>>>>Begin Spectral Data<<<<<
341.393	-17.88
341.776	-17.88
342.16	-17.88
342.543	-43.42
342.927	-80.25
343.31	-77.77
343.693	-70.08
344.077	-58.56
344.46	-58.11
344.843	-48.61
345.226	-38.9
345.61	-23.53
345.993	-21.27
346.376	2.01
346.759	25.28
347.142	22.34
347.525	24.38
347.908	36.13
348.291	72.96
348.674	97.14
349.057	116.58
349.44	123.13
349.823	136.92
350.206	162.91
350.588	207.88
350.971	215.79
351.354	237.25
351.737	245.16
352.119	240.87
352.502	264.37
352.884	284.03
353.267	285.39
353.65	275.9
354.032	306.18
354.414	300.75
354.797	304.37
355.179	303.24
355.562	331.94
355.944	330.58
356.326	343.01
356.709	335.33
357.091	333.97
357.473	346.63
357.855	315.9
358.238	348.89
358.62	366.74
359.002	346.86
359.384	328.78
359.766	337.82
360.148	336.46
360.53	349.57
360.912	354.76
361.294	339.4
361.676	326.97
362.057	338.27
362.439	334.88
362.821	341.66
363.203	320.42
363.584	324.26
363.966	340.75
364.348	337.14
364.729	326.29
365.111	337.36
365.493	333.75
365.874	326.29
366.256	318.16
366.637	332.17
367.019	332.84
367.4	310.7
367.781	328.78
368.163	329.91
368.544	316.8
368.925	319.51
369.306	331.49
369.688	327.42
370.069	334.88
370.45	311.6
370.831	313.64
371.212	311.6
371.593	300.3
371.974	314.31
372.355	312.28
372.736	315.44
373.117	329.68
373.498	306.63
373.879	325.16
374.26	316.8
374.641	313.41
375.021	326.06
375.402	304.37
375.783	324.71
376.163	328.32
376.544	306.63
376.925	309.79
377.305	327.42
377.686	338.72
378.066	340.53
378.447	328.55
378.827	346.63
379.208	335.56
379.588	340.53
379.968	342.56
380.349	353.63
380.729	326.06
381.109	335.1
381.489	335.33
381.87	348.66
382.25	346.4
382.63	337.82
383.01	352.05
383.39	352.05
383.77	341.88
384.15	340.75
384.53	341.66
384.91	349.79
385.29	344.82
385.67	350.7
386.049	351.15
386.429	347.53
386.809	340.53
387.189	345.5
387.568	347.53
387.948	347.31
388.328	352.5
388.707	364.26
389.087	352.5
389.466	398.83
389.846	367.19
390.225	377.36
390.605	380.98
390.984	369.45
391.363	373.97
391.743	367.65
392.122	376.46
392.501	368.78
392.881	373.75
393.26	374.43
393.639	397.25
394.018	391.37
394.397	383.69
394.776	376.01
395.155	399.74
395.534	384.82
395.913	390.47
396.292	397.7
396.671	394.31
397.05	417.59
397.429	397.48
397.808	393.86
398.186	377.14
398.565	398.61
398.944	410.13
399.323	409
399.701	394.31
400.08	402.9
400.458	420.98
400.837	414.2
401.215	411.03
401.594	414.65
401.972	401.77
402.351	421.66
402.729	423.69
403.107	415.78
403.486	434.08
403.864	420.07
404.242	419.85
404.62	438.15
404.999	432.5
405.377	442.9
405.755	466.63
406.133	428.44
406.511	443.12
406.889	439.06
407.267	439.73
407.645	461.2
408.023	435.89
408.401	443.35
408.779	448.1
409.156	453.75
409.534	469.56
409.912	455.55
410.29	486.06
410.667	464.37
411.045	472.73
411.422	473.63
411.8	490.58
412.178	470.02
412.555	474.54
412.933	502.56
413.31	497.36
413.687	516.57
414.065	485.38
414.442	500.75
414.819	513.18
415.197	496.68
415.574	500.75
415.951	521.09
416.328	545.95
416.705	508.88
417.082	524.25
417.46	533.07
417.837	548.21
418.214	547.08
418.591	527.19
418.967	525.38
419.344	528.32
419.721	513.63
420.098	546.4
420.475	544.14
420.852	528.32
421.228	559.28
421.605	573.29
421.982	561.31
422.358	591.59
422.735	587.75
423.111	585.04
423.488	585.27
423.864	591.59
424.241	591.37
424.617	573.97
424.994	585.27
425.37	578.49
425.746	594.98
426.123	592.95
426.499	600.86
426.875	612.39
427.251	614.42
427.627	627.07
428.003	622.78
428.379	629.33
428.756	648.54
429.132	631.14
429.507	649.22
429.883	657.36
430.259	652.16
430.635	665.94
431.011	658.94
431.387	666.39
431.763	688.77
432.138	685.83
432.514	691.48
432.89	691.48
433.265	714.53
433.641	705.26
434.016	721.08
434.392	735.32
434.767	730.57
435.143	736
435.518	733.29
435.894	741.65
436.269	771.02
436.644	766.96
437.02	743.23
437.395	785.71
437.77	772.83
438.145	799.27
438.52	797.01
438.895	800.4
439.271	793.85
439.646	811.02
440.021	816.45
440.395	798.37
440.77	830.91
441.145	825.71
441.52	845.83
441.895	848.09
442.27	841.31
442.645	852.38
443.019	848.31
443.394	860.97
443.769	857.12
444.143	852.6
444.518	876.11
444.892	880.17
445.267	867.97
445.641	885.6
446.016	912.49
446.39	910.68
446.764	907.97
447.139	874.98
447.513	898.93
447.887	920.63
448.262	923.11
448.636	935.99
449.01	946.39
449.384	961.53
449.758	959.95
450.132	939.16
450.506	959.27
450.88	992.71
451.254	979.61
451.628	982.77
452.002	961.08
452.376	1005.82
452.75	994.07
453.123	989.32
453.497	1031.81
453.871	1033.16
454.244	1042.88
454.618	1065.93
454.992	1077.68
455.365	1086.95
455.739	1089.21
456.112	1110
456.486	1122.43
456.859	1151.58
457.232	1167.4
457.606	1158.81
457.979	1175.99
458.352	1145.7
458.725	1210.34
459.099	1211.01
459.472	1234.06
459.845	1260.05
460.218	1245.59
460.591	1266.83
460.964	1257.34
461.337	1283.33
461.71	1305.02
462.083	1342.99
462.456	1354.74
462.829	1344.8
463.201	1380.05
463.574	1371.46
463.947	1369.2
464.32	1456.43
464.692	1449.2
465.065	1492.81
465.438	1455.3
465.81	1511.57
466.183	1546.6
466.555	1550.67
466.928	1574.17
467.3	1568.07
467.672	1611.45
468.045	1632.47
468.417	1662.07
468.789	1698.68
469.161	1691.68
469.534	1715.86
469.906	1752.02
470.278	1782.3
470.65	1879.7
471.022	1894.61
471.394	1919.02
471.766	1943.88
472.138	1945.68
472.51	2010.77
472.882	2082.18
473.253	2102.74
473.625	2134.83
473.997	2187.94
474.369	2219.12
474.74	2309.97
475.112	2332.79
475.484	2371.66
475.855	2455.27
476.227	2507.93
476.598	2562.62
476.97	2611.88
477.341	2717.64
477.713	2727.13
478.084	2780.46
478.455	2916.28
478.827	2956.5
479.198	3062.72
479.569	3122.83
479.94	3222.03
480.311	3250.06
480.682	3366.21
481.053	3457.06
481.424	3558.07
481.795	3643.04
482.166	3741.34
482.537	3840.1
482.908	3971.17
483.279	4089.13
483.65	4206.64
484.021	4309.69
484.391	4386.52
484.762	4476.01
485.133	4610.25
485.503	4692.28
485.874	4849.56
486.244	4976.56
486.615	5149.89
486.985	5205.03
487.356	5423.33
487.726	5495.42
488.097	5677.34
488.467	5737.45
488.837	5896.09
489.207	6045.91
489.578	6223.31
489.948	6366.58
490.318	6482.06
490.688	6611.78
491.058	6736.97
491.428	6964.99
491.798	7014.02
492.168	7238.2
492.538	7341.7
492.908	7518.42
493.278	7628.25
493.648	7817.39
494.017	7976.49
494.387	8075.92
494.757	8236.37
495.126	8346.64
495.496	8476.36
495.866	8582.12
496.235	8759.52
496.605	8964.71
496.974	8905.73
497.344	9166.06
497.713	9290.57
498.082	9401.31
498.452	9577.12
498.821	9681.3
499.19	9747.29
499.559	9954.29
499.928	10010.1
500.298	10194.05
500.667	10304.56
501.036	10274.05
501.405	10522.18
501.774	10546.36
502.143	10703.19
502.512	10823.87
502.88	10919.46
503.249	10957.42
503.618	11088.04
503.987	11194.25
504.356	11283.97
504.724	11287.13
505.093	11421.59
505.462	11505.43
505.83	11611.87
506.199	11730.96
506.567	11928.02
506.936	11863.84
507.304	12017.96
507.672	12071.29
508.041	12112.87
508.409	12295.02
508.777	12319.2
509.145	12483.71
509.514	12510.38
509.882	12563.26
510.25	12613.65
510.618	12733.87
510.986	12737.94
511.354	12877.6
511.722	12966.18
512.09	13067.65
512.458	13003.7
512.826	13149.23
513.193	13177.93
513.561	13152.62
513.929	13277.59
514.297	13389.68
514.664	13496.57
515.032	13472.39
515.4	13475.78
515.767	13610.46
516.135	13596
516.502	13518.26
516.869	13718.71
517.237	13753.51
517.604	13697.46
517.972	13830.57
518.339	13867.4
518.706	13979.49
519.073	13912.15
519.44	13992.82
519.808	14153.27
520.175	14071.69
520.542	14207.96
520.909	14211.58
521.276	14230.11
521.643	14260.61
522.009	14406.37
522.376	14402.53
522.743	14432.59
523.11	14486.82
523.477	14603.2
523.843	14629.19
524.21	14722.97
524.577	14750.77
524.943	14772.69
525.31	14760.04
525.676	14883.42
526.043	14879.81
526.409	14911.67
526.776	14983.08
527.142	14988.73
527.508	15027.6
527.874	15096.75
528.241	14970.88
528.607	14969.52
528.973	15147.6
529.339	14989.63
529.705	15158.67
530.071	15259.68
530.437	15135.17
530.803	15247.71
531.169	15214.94
531.535	15195.5
531.901	15182.85
532.267	15204.32
532.632	15188.95
532.998	15168.16
533.364	15206.35
533.73	15174.04
534.095	15173.36
534.461	15226.01
534.826	15214.26
535.192	15233.47
535.557	15221.49
535.923	15069.63
536.288	15209.74
536.653	15246.8
537.019	15111.21
537.384	15047.94
537.749	15042.51
538.114	15084.32
538.479	15068.05
538.845	14984.44
539.21	14924.78
539.575	14918.68
539.94	14922.74
540.305	14894.27
540.67	14831.45
541.034	14808.85
541.399	14845.01
541.764	14781.5
542.129	14758.23
542.494	14767.72
542.858	14739.92
543.223	14613.82
543.587	14757.1
543.952	14622.86
544.316	14604.56
544.681	14638.68
545.045	14549.65
545.41	14544.22
545.774	14563.66
546.138	14447.28
546.503	14517.78
546.867	14345.58
547.231	14390.55
547.595	14290.44
547.959	14338.8
548.324	14293.16
548.688	14256.77
549.052	14182.2
549.416	14220.16
549.779	14106.95
550.143	14108.08
550.507	14176.77
550.871	14109.88
551.235	14000.28
551.599	14054.52
551.962	14108.53
552.326	13990.79
552.689	14093.61
553.053	13917.8
553.417	13899.49
553.78	13975.65
554.143	13977.68
554.507	13903.56
554.87	13885.48
555.234	13964.58
555.597	13807.52
555.96	13772.26
556.323	13793.73
556.686	13772.94
557.05	13776.11
557.413	13718.71
557.776	13786.95
558.139	13802.09
558.502	13828.31
558.865	13767.07
559.228	13687.07
559.59	13731.36
559.953	13724.36
560.316	13860.4
560.679	13756.22
561.041	13829.66
561.404	13796.22
561.767	13849.1
562.129	13752.15
562.492	13844.13
562.854	13763
563.217	13790.34
563.579	13825.82
563.941	13814.07
564.304	13866.73
564.666	13816.33
565.028	13855.2
565.39	13890.68
565.753	13937.23
566.115	13806.39
566.477	13915.76
566.839	13873.96
567.201	13978.59
567.563	13816.78
567.925	14004.8
568.287	13979.49
568.648	13990.56
569.01	14034.86
569.372	14067.85
569.734	13997.12
570.095	14087.06
570.457	14080.96
570.819	14017
571.18	14034.18
571.542	14065.82
571.903	14108.53
572.265	14220.16
572.626	14151.92
572.987	14110.79
573.349	14115.76
573.71	14173.84
574.071	14157.79
574.432	14177.45
574.794	14227.39
575.155	14186.27
575.516	14146.94
575.877	14171.58
576.238	14201.18
576.599	14295.87
576.96	14199.6
577.32	14276.43
577.681	14252.48
578.042	14130.9
578.403	14213.38
578.763	14229.65
579.124	14257.68
579.485	14233.5
579.845	14299.03
580.206	14253.38
580.566	14211.35
580.927	14210.67
581.287	14240.95
581.648	14198.24
582.008	14309.2
582.368	14234.4
582.728	14287.28
583.089	14213.84
583.449	14244.79
583.809	14057.68
584.169	14225.13
584.529	14130
584.889	14291.57
585.249	14195.53
585.609	14064.23
585.969	14185.36
586.329	14200.05
586.688	14212.25
587.048	14189.2
587.408	14028.76
587.768	14124.57
588.127	14124.57
588.487	14052.94
588.846	14092.03
589.206	14055.87
589.565	14031.24
589.925	14090
590.284	14073.95
590.643	14054.74
591.003	14031.69
591.362	14049.77
591.721	14107.17
592.08	14028.98
592.44	14074.18
592.799	14002.54
593.158	13952.37
593.517	13966.84
593.876	14033.95
594.235	14069.66
594.593	13976.78
594.952	13939.27
595.311	13949.89
595.67	13994.63
596.029	14019.04
596.387	13997.57
596.746	13944.46
597.104	13910.11
597.463	13922.77
597.822	13929.77
598.18	13876.22
598.538	13912.83
598.897	13888.87
599.255	13849.78
599.613	14064.69
599.972	13948.08
600.33	13974.29
600.688	13834.41
601.046	13903.11
601.404	13993.95
601.762	13914.41
602.12	13947.85
602.478	13840.96
602.836	13988.98
603.194	13785.82
603.552	13936.1
603.91	13854.75
604.268	13865.14
604.625	13797.58
604.983	13916.44
605.341	13795.99
605.698	13885.03
606.056	13869.89
606.413	13957.57
606.771	13953.28
607.128	13968.19
607.485	13828.76
607.843	13817.46
608.2	14015.65
608.557	13957.34
608.914	13965.48
609.272	13977.68
609.629	14009.09
609.986	13986.04
610.343	13982.65
610.7	14084.12
611.057	14007.97
611.414	14071.24
611.771	13988.76
612.127	14070.34
612.484	14134.06
612.841	14066.27
613.198	14014.97
613.554	14085.7
613.911	14146.94
614.267	14114.63
614.624	14077.34
614.98	14144.91
615.337	14183.1
615.693	14073.5
616.05	14184.01
616.406	14227.17
616.762	14125.48
617.118	14182.2
617.475	14154.85
617.831	14233.5
618.187	14181.75
618.543	14193.95
618.899	14335.19
619.255	14193.04
619.611	14255.87
619.967	14265.36
620.323	14304.23
620.678	14300.84
621.034	14200.95
621.39	14252.7
621.746	14199.6
622.101	14376.32
622.457	14258.81
622.812	14322.53
623.168	14308.52
623.523	14329.76
623.879	14369.99
624.234	14237.11
624.589	14278.01
624.945	14307.39
625.3	14380.16
625.655	14279.37
626.01	14339.93
626.365	14271.01
626.72	14219.71
627.075	14279.82
627.43	14204.8
627.785	14212.71
628.14	14256.32
628.495	14231.24
628.85	14174.74
629.205	14174.06
629.559	14206.6
629.914	14144.68
630.269	14228.52
630.623	14168.19
630.978	14122.54
631.332	14260.84
631.687	14202.99
632.041	14113.05
632.396	14076.66
632.75	14043.22
633.104	14022.88
633.459	13976.1
633.813	14012.26
634.167	14001.64
634.521	14076.89
634.875	14038.47
635.229	13943.33
635.583	13899.49
635.937	13947.18
636.291	13872.83
636.645	13920.51
636.999	13933.62
637.352	13918.48
637.706	13800.96
638.06	13914.41
638.413	13886.16
638.767	13845.94
639.121	13784.24
639.474	13749.21
639.828	13797.12
640.181	13770.68
640.534	13787.86
640.888	13714.19
641.241	13693.85
641.594	13680.29
641.947	13722.1
642.301	13676
642.654	13701.31
643.007	13669.67
643.36	13689.78
643.713	13634.42
644.066	13667.86
644.419	13613.4
644.771	13558.49
645.124	13380.41
645.477	13431.71
645.83	13298.38
646.182	13243.69
646.535	13228.78
646.888	13192.39
647.24	13112.85
647.593	13210.92
647.945	13241.21
648.298	13199.4
648.65	13142.9
649.002	13167.99
649.355	13164.82
649.707	13178.16
650.059	13258.15
650.411	13297.02
650.763	13396.23
651.115	13541.99
651.467	13519.16
651.819	13485.27
652.171	13504.25
652.523	13451.82
652.875	13510.12
653.227	13351.49
653.578	13480.97
653.93	13492.72
654.282	13403.91
654.633	13346.29
654.985	13437.58
655.337	13468.77
655.688	13465.83
656.039	13485.04
656.391	13388.32
656.742	13501.99
657.094	13474.19
657.445	13469.45
657.796	13458.83
658.147	13486.4
658.498	13421.77
658.849	13492.05
659.2	13506.28
659.551	13482.1
659.902	13454.31
660.253	13447.75
660.604	13518.26
660.955	13457.7
661.306	13505.38
661.656	13475.1
662.007	13507.41
662.358	13487.53
662.708	13511.93
663.059	13563.23
663.409	13413.18
663.76	13485.27
664.11	13571.59
664.461	13488.43
664.811	13528.66
665.161	13621.08
665.511	13558.26
665.862	13638.03
666.212	13556.9
666.562	13610.69
666.912	13612.72
667.262	13592.61
667.612	13529.33
667.962	13530.24
668.312	13614.08
668.662	13570.91
669.011	13514.42
669.361	13584.93
669.711	13548.99
670.06	13499.5
670.41	13399.17
670.76	13537.02
671.109	13520.75
671.459	13498.83
671.808	13433.06
672.157	13542.44
672.507	13460.86
672.856	13406.85
673.205	13480.52
673.554	13518.26
673.904	13370.92
674.253	13465.83
674.602	13391.26
674.951	13252.5
675.3	13186.52
675.649	13326.4
675.998	13260.41
676.346	13378.6
676.695	13413.86
677.044	13274.88
677.393	13330.02
677.741	13288.66
678.09	13346.97
678.438	13249.11
678.787	13324.37
679.135	13308.77
679.484	13279.17
679.832	13205.5
680.181	13039.63
680.529	13139.97
680.877	13153.98
681.225	13109.23
681.573	13107.65
681.922	13104.94
682.27	12967.31
682.618	13054.09
682.966	13013.87
683.314	12978.39
683.661	12965.28
684.009	12884.15
684.357	12816.58
684.705	12847.09
685.053	12808.45
685.4	12758.51
685.748	12721.22
686.095	12720.09
686.443	12669.92
686.79	12597.83
687.138	12653.88
687.485	12782.46
687.832	12689.13
688.18	12588.57
688.527	12491.39
688.874	12551.51
689.221	12444.16
689.568	12458.63
689.915	12450.27
690.262	12356.03
690.609	12356.48
690.956	12339.76
691.303	12237.16
691.65	12249.59
691.997	12198.07
692.344	12080.33
692.69	12126.43
693.037	12178.41
693.383	12033.33
693.73	12045.98
694.077	11938.19
694.423	11954.46
694.769	11939.32
695.116	11862.71
695.462	11824.75
695.808	11768.48
696.155	11781.36
696.501	11637.41
696.847	11639.21
697.193	11581.81
697.539	11567.58
697.885	11506.56
698.231	11487.58
698.577	11492.32
698.923	11375.49
699.269	11359
699.614	11257.3
699.96	11226.34
700.306	11285.78
700.651	11194.48
700.997	11120.13
701.342	11112.9
701.688	11131.66
702.033	11060.7
702.379	11014.37
702.724	10970.53
703.069	10960.59
703.415	10834.04
703.76	10859.35
704.105	10784.55
704.45	10776.64
704.795	10691.89
705.14	10671.1
705.485	10606.02
705.83	10665.68
706.175	10588.85
706.52	10562.86
706.865	10551.78
707.209	10521.28
707.554	10427.72
707.899	10529.41
708.243	10412.35
708.588	10378
708.932	10315.86
709.277	10392.92
709.621	10356.08
709.966	10284.45
710.31	10325.35
710.654	10191.12
710.998	10274.5
711.342	10256.43
711.687	10240.83
712.031	10059.37
712.375	10140.5
712.719	10161.06
713.063	10113.83
713.407	10166.94
713.75	10061.63
714.094	10037.45
714.438	10021.4
714.782	10010.78
715.125	9952.7
715.469	9917.23
715.812	9891.24
716.156	9845.14
716.499	9920.84
716.843	9825.25
717.186	9843.1
717.53	9858.02
717.873	9857.11
718.216	9783.67
718.559	9831.13
718.902	9738.25
719.246	9715.42
719.589	9725.37
719.932	9678.59
720.275	9674.97
720.617	9715.2
720.96	9664.12
721.303	9587.06
721.646	9650.34
721.989	9577.12
722.331	9585.03
722.674	9623.9
723.016	9590.91
723.359	9629.32
723.701	9635.88
724.044	9530.12
724.386	9558.14
724.729	9603.56
725.071	9579.38
725.413	9544.81
725.755	9475.2
726.097	9482.89
726.439	9445.6
726.782	9402.21
727.124	9498.03
727.465	9405.83
727.807	9406.96
728.149	9430.01
728.491	9443.34
728.833	9391.14
729.175	9453.06
729.516	9411.93
729.858	9416.9
730.199	9413.74
730.541	9457.12
730.882	9394.98
731.224	9452.15
731.565	9392.95
731.906	9368.54
732.248	9399.72
732.589	9400.85
732.93	9336.9
733.271	9407.18
733.612	9419.61
733.953	9436.33
734.294	9344.13
734.635	9376.22
734.976	9385.04
735.317	9306.17
735.658	9379.84
735.999	9372.83
736.339	9354.3
736.68	9371.48
737.021	9379.84
737.361	9295.55
737.702	9428.42
738.042	9420.29
738.383	9420.52
738.723	9506.16
739.063	9481.76
739.404	9454.86
739.744	9451.02
740.084	9477.46
740.424	9493.51
740.764	9433.62
741.104	9542.09
741.444	9452.83
741.784	9506.39
742.124	9574.41
742.464	9577.8
742.804	9565.37
743.143	9597.91
743.483	9601.08
743.823	9594.97
744.162	9594.52
744.502	9641.53
744.841	9659.83
745.181	9785.03
745.52	9708.42
745.86	9822.31
746.199	9806.72
746.538	9865.02
746.877	9930.11
747.216	10073.38
747.556	10003.55
747.895	10046.94
748.234	10104.79
748.573	10129.42
748.911	10185.47
749.25	10263.2
749.589	10384.56
749.928	10433.37
750.267	10482.63
750.605	10572.35
750.944	10593.82
751.283	10628.62
751.621	10830.2
751.96	10829.74
752.298	11003.75
752.636	11086.46
752.975	11183.86
753.313	11258.66
753.651	11467.69
753.989	11455.26
754.327	11589.05
754.666	11777.29
755.004	11925.31
755.342	11983.16
755.679	12081.69
756.017	12219.99
756.355	12434.22
756.693	12529.59
757.031	12685.06
757.368	12864.49
757.706	12939.07
758.044	13109.91
758.381	13327.98
758.719	13407.53
759.056	13579.05
759.394	13673.74
759.731	13873.51
760.068	13952.6
760.405	14230.33
760.743	14309.65
761.08	14530.44
761.417	14656.99
761.754	14814.95
762.091	15040.48
762.428	15176.07
762.765	15279.57
763.102	15510.75
763.438	15606.79
763.775	15804.3
764.112	15975.6
764.449	16131.07
764.785	16277.06
765.122	16318.64
765.458	16482.7
765.795	16717.95
766.131	16815.57
766.467	16844.73
766.804	17068.9
767.14	17213.98
767.476	17371.04
767.812	17413.53
768.148	17675.89
768.485	17657.59
768.821	17751.82
769.157	17899.61
769.492	18026.84
769.828	18166.95
770.164	18207.85
770.5	18460.28
770.836	18531.01
771.171	18539.15
771.507	18634.28
771.842	18668.41
772.178	18755.64
772.513	18982.07
772.849	18946.82
773.184	19125.12
773.519	19209.18
773.855	19150.2
774.19	19215.06
774.525	19242.63
774.86	19361.04
775.195	19388.61
775.53	19467.03
775.865	19380.25
776.2	19414.83
776.535	19323.31
776.87	19509.97
777.205	19510.65
777.539	19593.13
777.874	19734.14
778.209	19563.53
778.543	19568.72
778.878	19652.79
779.212	19554.26
779.547	19559.23
779.881	19702.73
780.215	19537.54
780.55	19743.86
780.884	19653.92
781.218	19690.75
781.552	19780.69
781.886	19702.05
782.22	19673.8
782.554	19691.66
782.888	19541.38
783.222	19488.95
783.556	19451.66
783.889	19553.81
784.223	19396.07
784.557	19401.04
784.89	19543.86
785.224	19483.3
785.557	19455.73
785.891	19384.77
786.224	19366.69
786.558	19461.83
786.891	19241.05
787.224	19251.67
787.557	19242.86
787.891	19286.47
788.224	19218.9
788.557	19218.9
788.89	19175.29
789.223	19125.57
789.556	19049.64
789.888	19062.97
790.221	19031.11
790.554	18990.66
790.887	18976.2
791.219	18902.75
791.552	18928.51
791.884	18846.93
792.217	18869.98
792.549	18730.33
792.882	18620.5
793.214	18695.07
793.546	18700.95
793.879	18603.1
794.211	18479.49
794.543	18526.26
794.875	18524.46
795.207	18576.43
795.539	18438.13
795.871	18455.53
796.203	18272.94
796.535	18208.98
796.867	18306.16
797.198	18159.27
797.53	18259.38
797.862	18034.07
798.193	18130.57
798.525	18092.15
798.856	18185.03
799.188	17884.7
799.519	17897.13
799.85	17839.28
800.182	17846.73
800.513	17808.77
800.844	17710.24
801.175	17740.3
801.506	17692.16
801.837	17572.17
802.168	17619.4
802.499	17501.66
802.83	17526.74
803.161	17479.06
803.491	17323.58
803.822	17384.83
804.153	17328.1
804.483	17149.13
804.814	17174.89
805.145	17205.85
805.475	17098.96
805.805	17100.99
806.136	17065.29
806.466	17034.55
806.796	16987.77
807.126	16881.34
807.457	16864.16
807.787	16822.81
808.117	16855.8
808.447	16773.99
808.777	16837.5
809.107	16700.32
809.436	16591.4
809.766	16638.4
810.096	16620.78
810.426	16576.03
810.755	16575.81
811.085	16448.35
811.414	16474.57
811.744	16419.88
812.073	16288.13
812.403	16380.33
812.732	16198.42
813.061	16267.34
813.39	16114.35
813.719	16139.89
814.049	16193.22
814.378	16139.21
814.707	16085.42
815.036	16114.8
815.365	16102.37
815.693	15882.27
816.022	15920.23
816.351	15915.49
816.68	15768.6
817.008	15811.31
817.337	15713.91
817.665	15660.12
817.994	15840.23
818.322	15698.32
818.651	15564.08
818.979	15618.09
819.307	15673.01
819.636	15651.31
819.964	15463.97
820.292	15599.56
820.62	15556.85
820.948	15471.88
821.276	15548.49
821.604	15505.1
821.932	15478.66
822.259	15544.2
822.587	15518.89
822.915	15466.01
823.243	15509.39
823.57	15478.66
823.898	15510.3
824.225	15400.24
824.553	15467.14
824.88	15465.33
825.207	15478.43
825.535	15477.3
825.862	15503.07
826.189	15342.17
826.516	15526.8
826.843	15562.05
827.17	15577.87
827.497	15552.78
827.824	15514.59
828.151	15550.98
828.478	15449.96
828.805	15487.25
829.131	15449.51
829.458	15431.2
829.785	15494.93
830.111	15510.07
830.438	15489.73
830.764	15438.66
831.09	15517.3
831.417	15435.27
831.743	15491.77
832.069	15504.87
832.395	15361.38
832.722	15529.73
833.048	15428.49
833.374	15478.21
833.7	15302.85
834.026	15340.36
834.351	15378.78
834.677	15372.45
835.003	15400.7
835.329	15396.86
835.654	15434.37
835.98	15287.93
836.306	15303.75
836.631	15187.14
836.956	15294.03
837.282	15285.45
837.607	15244.99
837.932	15125.68
838.258	15173.36
838.583	15145.11
838.908	15042.51
839.233	15168.16
839.558	15050.2
839.883	15073.47
840.208	14949.18
840.533	15019.46
840.858	14954.61
841.182	14987.6
841.507	15026.92
841.832	14920.71
842.156	14783.99
842.481	14833.93
842.805	14777.44
843.13	14779.92
843.454	14807.72
843.778	14644.56
844.103	14746.93
844.427	14598.23
844.751	14652.24
845.075	14567.5
845.399	14509.42
845.723	14338.13
846.047	14391.01
846.371	14384.9
846.695	14247.28
847.019	14170.22
847.343	14145.36
847.666	14122.09
847.99	14032.15
848.313	14016.78
848.637	13963.22
848.96	13934.52
849.284	13836.22
849.607	13780.85
849.931	13763.23
850.254	13675.54
850.577	13585.15
850.9	13501.99
851.223	13468.09
851.546	13442.56
851.869	13297.25
852.192	13417.47
852.515	13285.72
852.838	13204.6
853.161	13218.83
853.483	13180.87
853.806	13028.78
854.129	13078.72
854.451	12998.5
854.774	12927.99
855.096	12940.42
855.419	12917.37
855.741	12882.57
856.063	12843.93
856.385	12767.32
856.708	12712.18
857.03	12629.7
857.352	12641.22
857.674	12643.71
857.996	12585.4
858.318	12531.17
858.64	12459.08
858.961	12509.47
859.283	12431.74
859.605	12481
859.926	12405.52
860.248	12324.39
860.57	12304.28
860.891	12361.23
861.212	12270.38
861.534	12203.72
861.855	12165.98
862.176	12155.58
862.498	12040.56
862.819	12181.57
863.14	12027.45
863.461	12057.06
863.782	12029.49
864.103	11988.36
864.424	11984.29
864.745	12114.23
865.065	12018.64
865.386	11879.66
865.707	11950.62
866.027	11894.8
866.348	11864.52
866.668	11894.57
866.989	11826.1
867.309	11780.23
867.63	11778.19
867.95	11755.59
868.27	11627.01
868.59	11750.85
868.91	11727.12
869.23	11678.31
869.55	11670.17
869.87	11705.2
870.19	11637.86
870.51	11609.84
870.83	11618.88
871.15	11584.98
871.469	11511.08
871.789	11639.21
872.109	11528.26
872.428	11411.88
872.748	11464.98
873.067	11513.79
873.386	11378.88
873.706	11466.79
874.025	11433.8
874.344	11402.38
874.663	11422.27
874.982	11337.53
875.301	11378.66
875.62	11264.53
875.939	11286.45
876.258	11291.2
876.577	11180.02
876.896	11239.68
877.214	11166.91
877.533	11192.22
877.852	11163.97
878.17	11100.7
878.489	11057.99
878.807	11169.4
879.125	11101.83
879.444	11118.55
879.762	11029.96
880.08	11057.76
880.398	10962.85
880.716	11022.51
881.034	10919.01
881.352	10952.45
881.67	10987.93
881.988	10868.84
882.306	10881.72
882.624	10867.48
882.941	10830.42
883.259	10766.02
883.577	10821.38
883.894	10747.94
884.212	10683.53
884.529	10773.47
884.846	10668.84
885.164	10646.25
885.481	10636.53
885.798	10618
886.115	10601.95
886.432	10623.87
886.75	10505.23
887.067	10545.91
887.383	10559.92
887.7	10488.06
888.017	10388.4
888.334	10462.52
888.651	10413.48
888.967	10370.32
889.284	10342.98
889.6	10260.27
889.917	10196.31
890.233	10276.76
890.55	10187.27
890.866	10145.92
891.182	10208.29
891.498	10066.6
891.815	10067.96
892.131	10014.4
892.447	10027.28
892.763	9956.55
893.079	9985.7
893.395	9935.08
893.71	9919.48
894.026	9941.41
894.342	9796.1
894.657	9800.39
894.973	9777.12
895.289	9687.17
895.604	9681.07
895.92	9699.6
896.235	9678.14
896.55	9640.4
896.865	9626.39
897.181	9580.96
897.496	9555.2
897.811	9517.24
898.126	9429.55
898.441	9391.82
898.756	9345.49
899.071	9429.33
899.386	9380.06
899.7	9315.66
900.015	9302.1
900.33	9166.74
900.644	9162.67
900.959	9193.85
901.273	9127.64
901.588	9031.37
901.902	8998.38
902.216	8952.5
902.531	9005.84
902.845	8966.29
903.159	8865.28
903.473	8814.66
903.787	8868.44
904.101	8804.26
904.415	8780.53
904.729	8682.46
905.042	8679.97
905.356	8643.13
905.67	8651.95
905.984	8615.56
906.297	8563.81
906.611	8551.61
906.924	8605.17
907.237	8513.19
907.551	8423.48
907.864	8425.29
908.177	8403.59
908.491	8368.79
908.804	8307.78
909.117	8310.49
909.43	8206.99
909.743	8265.52
910.056	8211.73
910.368	8144.39
910.681	8142.81
910.994	8127.22
911.307	8077.73
911.619	8040.66
911.932	8035.92
912.244	7952.76
912.557	7895.58
912.869	7829.6
913.181	7870.27
913.494	7818.07
913.806	7786.89
914.118	7737.62
914.43	7666.89
914.742	7718.19
915.054	7612.65
915.366	7614.23
915.678	7574.46
915.99	7646.32
916.302	7480.45
916.613	7510.06
916.925	7482.03
917.236	7438.65
917.548	7422.83
917.859	7387.35
918.171	7349.16
918.482	7313.68
918.794	7230.06
919.105	7331.53
919.416	7214.25
919.727	7269.16
920.038	7150.29
920.349	7099.22
920.66	7152.1
920.971	7105.55
921.282	7110.07
921.593	6979.22
921.903	6988.49
922.214	6978.09
922.525	6975.16
922.835	6951.88
923.146	6887.47
923.456	6866.46
923.767	6816.29
924.077	6799.57
924.387	6776.29
924.697	6755.73
925.008	6734.71
925.318	6691.55
925.628	6724.31
925.938	6621.72
926.248	6623.53
926.558	6617.88
926.867	6612.23
927.177	6507.15
927.487	6490.65
927.796	6440.03
928.106	6449.52
928.416	6427.6
928.725	6440.03
929.034	6369.07
929.344	6352.35
929.653	6363.19
929.962	6308.28
930.271	6271.22
930.581	6247.49
930.89	6183.54
931.199	6193.93
931.508	6134.95
931.817	6170.88
932.125	6081.85
932.434	6115.74
932.743	6059.47
933.051	5965.69
933.36	6013.6
933.669	5958.69
933.977	5951.23
934.286	5932.7
934.594	5933.83
934.902	5868.52
935.21	5870.33
935.519	5809.08
935.827	5776.54
936.135	5788.97
936.443	5712.82
936.751	5710.78
937.059	5686.83
937.367	5669.43
937.674	5622.42
937.982	5592.14
938.29	5623.33
938.597	5596.66
938.905	5529.32
939.213	5482.54
939.52	5484.8
939.827	5541.07
940.135	5466.95
940.442	5410.9
940.749	5429.43
941.056	5421.75
941.363	5343.11
941.67	5315.99
941.977	5318.25
942.284	5292.94
942.591	5272.38
942.898	5245.48
943.205	5211.59
943.511	5193.28
943.818	5157.8
944.125	5140.63
944.431	5109.67
944.738	5160.29
945.044	5114.87
945.35	5067.41
945.657	5049.33
945.963	4988.09
946.269	4997.13
946.575	4961.2
946.881	4983.12
947.187	4981.31
947.493	4916.9
947.799	4934.98
948.105	4852.27
948.41	4854.99
948.716	4884.36
949.022	4778.15
949.327	4775.67
949.633	4740.19
949.938	4756.46
950.244	4744.25
950.549	4701.32
950.854	4682.79
951.16	4709.45
951.465	4673.97
951.77	4633.52
952.075	4583.58
952.38	4577.7
952.685	4566.86
952.99	4537.03
953.294	4545.39
953.599	4536.35
953.904	4452.74
954.209	4496.12
954.513	4463.36
954.818	4419.52
955.122	4445.96
955.426	4365.96
955.731	4365.05
956.035	4345.85
956.339	4298.16
956.643	4333.87
956.948	4319.18
957.252	4299.97
957.556	4290.93
957.86	4255.23
958.163	4244.15
958.467	4248
958.771	4188.11
959.075	4178.39
959.378	4138.85
959.682	4173.87
959.985	4109.47
960.289	4108.11
960.592	4089.13
960.896	4104.72
961.199	4067.89
961.502	4024.05
961.805	4060.43
962.108	3970.71
962.411	3967.1
962.714	3986.08
963.017	3958.74
963.32	3966.42
963.623	3932.07
963.926	3944.27
964.228	3908.57
964.531	3851.4
964.833	3844.62
965.136	3794.22
965.438	3807.1
965.741	3772.3
966.043	3767.78
966.345	3763.71
966.648	3751.96
966.95	3705.64
967.252	3745.18
967.554	3682.36
967.856	3697.05
968.158	3696.6
968.46	3657.28
968.761	3662.25
969.063	3654.11
969.365	3579.31
969.666	3647.56
969.968	3563.95
970.269	3561.23
970.571	3523.49
970.872	3565.08
971.174	3469.49
971.475	3522.37
971.776	3496.38
972.077	3504.96
972.378	3468.81
972.679	3463.16
972.98	3429.49
973.281	3453.44
973.582	3400.33
973.883	3379.77
974.183	3360.34
974.484	3384.29
974.785	3331.18
975.085	3323.05
975.386	3325.99
975.686	3277.17
975.986	3289.15
976.287	3242.6
976.587	3217.74
976.887	3227.01
977.187	3260.68
977.487	3251.64
977.787	3209.83
978.087	3134.58
978.387	3182.71
978.687	3157.18
978.987	3097.97
979.286	3102.49
979.586	3112.66
979.885	3097.74
980.185	3048.03
980.484	3031.76
980.784	3089.61
981.083	3035.15
981.382	3029.27
981.682	3018.88
981.981	2999.21
982.28	2975.94
982.579	2941.36
982.878	2936.17
983.177	2942.95
983.475	2951.98
983.774	2923.28
984.073	2908.37
984.372	2904.3
984.67	2879.9
984.969	2863.4
985.267	2858.43
985.566	2827.92
985.864	2861.14
986.162	2822.72
986.461	2820.91
986.759	2807.81
987.057	2753.35
987.355	2752.89
987.653	2755.38
987.951	2765.32
988.249	2734.59
988.547	2718.32
988.844	2663.86
989.142	2664.99
989.44	2678.55
989.737	2642.61
990.035	2636.96
990.332	2640.13
990.63	2621.6
990.927	2624.31
991.224	2595.16
991.521	2605.78
991.819	2599.45
992.116	2559.45
992.413	2565.33
992.71	2524.65
993.006	2537.98
993.303	2496.63
993.6	2486.01
993.897	2476.06
994.193	2506.57
994.49	2475.61
994.787	2426.35
995.083	2455.95
995.379	2444.88
995.676	2399.91
995.972	2435.61
996.268	2397.65
996.565	2397.65
996.861	2374.15
997.157	2359.46
997.453	2335.28
997.749	2330.53
998.044	2295.96
998.34	2290.08
998.636	2300.02
998.932	2272.68
999.227	2295.28
999.523	2248.73
999.818	2234.04
1000.114	2194.04
1000.409	2228.61
1000.704	2227.71
1001	2201.04
1001.295	2190.65
1001.59	2176.64
1001.885	2177.99
1002.18	2150.2
1002.475	2158.56
1002.77	2124.44
1003.065	2120.59
1003.359	2107.49
1003.654	2104.55
1003.949	2116.53
1004.243	2082.4
1004.538	2087.83
1004.832	2074.04
1005.127	2059.35
1005.421	2037.66
1005.715	2022.74
1006.009	1995.63
1006.304	1993.37
1006.598	1999.92
1006.892	1988.39
1007.186	1945.68
1007.48	1957.66
1007.773	1919.92
1008.067	1942.97
1008.361	1928.51
1008.655	1954.5
1008.948	1870.66
1009.242	1875.4
1009.535	1878.57
1009.829	1835.4
1010.122	1853.03
1010.415	1815.97
1010.708	1821.62
1011.001	1805.57
1011.295	1810.09
1011.588	1790.21
1011.881	1780.72
1012.173	1773.26
1012.466	1772.58
1012.759	1764.9
1013.052	1769.64
1013.344	1737.78
1013.637	1721.73
1013.93	1727.61
1014.222	1712.24
1014.514	1684
1014.807	1679.7
1015.099	1647.61
1015.391	1656.88
1015.683	1679.25
1015.976	1611.23
1016.268	1625.69
1016.56	1611
1016.851	1614.62
1017.143	1627.27
1017.435	1581.4
1017.727	1617.1
1018.018	1601.96
1018.31	1558.8
1018.602	1555.86
1018.893	1531.23
1019.185	1542.08
1019.476	1514.96
1019.767	1514.51
1020.058	1523.32
1020.35	1504.56
1020.641	1516.54
1020.932	1467.28
1021.223	1477.45
1021.514	1443.1
1021.804	1453.49
1022.095	1440.84
1022.386	1426.15
1022.677	1390.22
1022.967	1421.86
1023.258	1399.03
1023.548	1406.26
1023.839	1393.61
1024.129	1358.81
1024.419	1374.85
1024.709	1373.04
1025	1334.4
1025.29	1345.7
1025.58	1329.2
1025.87	1319.03
1026.16	1305.25
1026.449	1308.19
1026.739	1295.3
1027.029	1305.93
1027.319	1288.07
1027.608	1270.45
1027.898	1251.24
1028.187	1224.57
1028.477	1237
1028.766	1216.89
1029.055	1214.86
1029.344	1234.74
1029.634	1217.11
1029.923	1211.01
1030.212	1196.1
1030.501	1197.23
1030.79	1173.5
1031.078	1159.49
1031.367	1161.07
1031.656	1187.51
1031.945	1152.03
1032.233	1161.98
1032.522	1145.03
1032.81	1139.15
1033.099	1111.58
1033.387	1132.82
1033.675	1117.46
1033.963	1119.49
1034.251	1069.77
1034.54	1070.9
1034.828	1070.23
1035.116	1050.34
1035.403	1044.69
1035.691	1058.93
1035.979	1078.59
1036.267	1060.51
1036.554	1048.31
1036.842	1020.96
1037.129	1019.61
1037.417	1037.23
1037.704	1003.79
1037.992	1021.87
1038.279	1013.5
1038.566	996.1
1038.853	996.1
1039.14	996.1
