Data from hue_130_FLMS001491_00014.txt Node
Date: Tue Feb 07 16:57:14 GMT 2017
User: dcchb
Spectrometer: FLMS00149
Trigger mode: 0
Integration Time (sec): 2.000000E-2
Scans to average: 10
Electric dark correction enabled: true
Nonlinearity correction enabled: false
Boxcar width: 0
XAxis mode: Wavelengths
Number of Pixels in Spectrum: 2048
>>>>>Begin Spectral Data<<<<<
341.393	-15.04
341.776	-15.04
342.16	-15.04
342.543	-47.36
342.927	-73.12
343.31	-97.75
343.693	-65.66
344.077	-50.52
344.46	-58.2
344.843	-45.78
345.226	-55.27
345.61	-35.15
345.993	-1.93
346.376	-4.19
346.759	0.32
347.142	27.89
347.525	31.96
347.908	67.89
348.291	73.09
348.674	94.11
349.057	119.19
349.44	131.62
349.823	158.06
350.206	170.04
350.588	194.67
350.971	212.97
351.354	188.12
351.737	211.84
352.119	253.2
352.502	262.92
352.884	266.76
353.267	270.15
353.65	287.55
354.032	295.46
354.414	281.9
354.797	316.7
355.179	324.16
355.562	323.48
355.944	338.4
356.326	334.1
356.709	350.15
357.091	346.3
357.473	332.75
357.855	334.1
358.238	333.65
358.62	351.28
359.002	343.14
359.384	349.47
359.766	338.4
360.148	326.64
360.53	354.67
360.912	332.75
361.294	346.76
361.676	330.03
362.057	317.83
362.439	327.32
362.821	337.04
363.203	317.38
363.584	318.73
363.966	339.3
364.348	320.77
364.729	332.52
365.111	331.16
365.493	308.34
365.874	317.6
366.256	314.21
366.637	338.85
367.019	322.58
367.4	296.36
367.781	307.21
368.163	312.41
368.544	306.53
368.925	302.46
369.306	316.93
369.688	316.47
370.069	293.42
370.45	297.72
370.831	306.76
371.212	310.15
371.593	308.57
371.974	302.24
372.355	315.34
372.736	313.76
373.117	315.57
373.498	323.03
373.879	325.97
374.26	323.48
374.641	340.43
375.021	302.46
375.402	302.24
375.783	321.45
376.163	323.93
376.544	327.32
376.925	314.21
377.305	339.07
377.686	321.67
378.066	338.4
378.447	315.8
378.827	313.76
379.208	329.13
379.588	319.86
379.968	328.9
380.349	331.16
380.729	325.51
381.109	334.55
381.489	349.02
381.87	325.74
382.25	345.63
382.63	344.5
383.01	349.47
383.39	330.71
383.77	337.94
384.15	357.83
384.53	343.14
384.91	354.44
385.29	350.15
385.67	358.96
386.049	346.76
386.429	351.73
386.809	355.34
387.189	345.4
387.568	351.28
387.948	352.86
388.328	360.77
388.707	360.32
389.087	359.86
389.466	369.35
389.846	360.32
390.225	354.89
390.605	352.18
390.984	369.58
391.363	369.35
391.743	387.21
392.122	373.42
392.501	367.09
392.881	406.87
393.26	376.59
393.639	370.94
394.018	360.09
394.397	383.14
394.776	388.34
395.155	388.56
395.534	385.4
395.913	384.04
396.292	377.49
396.671	388.56
397.05	394.89
397.429	391.05
397.808	383.14
398.186	393.53
398.565	393.99
398.944	389.02
399.323	385.63
399.701	378.17
400.08	408.22
400.458	397.83
400.837	413.87
401.215	394.66
401.594	407.55
401.972	396.92
402.351	390.15
402.729	393.31
403.107	406.42
403.486	409.35
403.864	409.81
404.242	419.97
404.62	420.88
404.999	415.68
405.377	426.53
405.755	418.84
406.133	427.43
406.511	426.98
406.889	428.11
407.267	436.47
407.645	431.73
408.023	428.34
408.401	438.51
408.779	449.58
409.156	464.04
409.534	453.19
409.912	464.72
410.29	481.44
410.667	451.84
411.045	465.17
411.422	448.67
411.8	462.46
412.178	481.89
412.555	456.36
412.933	477.37
413.31	483.02
413.687	469.24
414.065	484.61
414.442	468.56
414.819	497.49
415.197	495.91
415.574	481.22
415.951	493.19
416.328	508.11
416.705	512.18
417.082	516.24
417.46	503.81
417.837	501.33
418.214	509.92
418.591	493.65
418.967	521.89
419.344	538.16
419.721	538.39
420.098	547.88
420.475	532.74
420.852	524.15
421.228	519.63
421.605	523.93
421.982	518.96
422.358	540.42
422.735	539.52
423.111	543.81
423.488	567.09
423.864	552.63
424.241	584.94
424.617	584.26
424.994	597.6
425.37	580.2
425.746	580.87
426.123	583.36
426.499	583.36
426.875	607.99
427.251	591.72
427.627	593.98
428.003	611.38
428.379	595.79
428.756	612.74
429.132	603.92
429.507	624.72
429.883	613.87
430.259	619.74
430.635	627.2
431.011	627.88
431.387	645.73
431.763	663.36
432.138	650.7
432.514	656.13
432.89	651.16
433.265	680.76
433.641	673.53
434.016	714.66
434.392	683.92
434.767	714.43
435.143	700.42
435.518	688.89
435.894	722.34
436.269	703.36
436.644	689.12
437.02	717.82
437.395	745.39
437.77	726.18
438.145	742.68
438.52	764.15
438.895	770.7
439.271	756.01
439.646	747.2
440.021	772.28
440.395	755.33
440.77	763.69
441.145	779.97
441.52	797.82
441.895	793.75
442.27	798.27
442.645	786.29
443.019	788.78
443.394	789.23
443.769	824.26
444.143	829.91
444.518	816.8
444.892	827.65
445.267	826.97
445.641	830.13
446.016	856.35
446.39	848.66
446.764	878.72
447.139	858.38
447.513	875.1
447.887	867.87
448.262	887.76
448.636	862
449.01	877.82
449.384	872.17
449.758	895.22
450.132	908.55
450.506	931.6
450.88	912.17
451.254	918.27
451.628	919.62
452.002	916.01
452.376	958.94
452.75	977.02
453.123	979.96
453.497	993.52
453.871	985.38
454.244	988.1
454.618	991.94
454.992	1008.89
455.365	1038.72
455.739	1056.34
456.112	1065.16
456.486	1058.38
456.859	1079.17
457.232	1066.06
457.606	1074.42
457.979	1081.2
458.352	1095.89
458.725	1134.08
459.099	1139.05
459.472	1158.94
459.845	1173.4
460.218	1183.8
460.591	1166.4
460.964	1195.32
461.337	1233.06
461.71	1223.12
462.083	1246.17
462.456	1257.24
462.829	1251.14
463.201	1303.34
463.574	1309.67
463.947	1293.17
464.32	1329.33
464.692	1379.05
465.065	1346.05
465.438	1372.94
465.81	1414.3
466.183	1438.25
466.555	1458.82
466.928	1488.65
467.3	1495.88
467.672	1528.19
468.045	1516.22
468.417	1563.67
468.789	1556.22
469.161	1582.43
469.534	1599.38
469.906	1667.4
470.278	1646.61
470.65	1713.95
471.022	1769.77
471.394	1801.63
471.766	1799.15
472.138	1835.76
472.51	1880.28
472.882	1898.81
473.253	1940.61
473.625	1996.43
473.997	2072.13
474.369	2081.63
474.74	2141.74
475.112	2163.66
475.484	2218.8
475.855	2290.21
476.227	2293.15
476.598	2409.3
476.97	2430.54
477.341	2485.46
477.713	2556.64
478.084	2636.19
478.455	2690.42
478.827	2761.61
479.198	2888.61
479.569	2910.53
479.94	3016.52
480.311	3004.99
480.682	3135.16
481.053	3229.84
481.424	3320.01
481.795	3396.39
482.166	3502.38
482.537	3566.78
482.908	3693.11
483.279	3772.66
483.65	3882.03
484.021	4026.21
484.391	4082.7
484.762	4122.93
485.133	4271.62
485.503	4400.89
485.874	4507.78
486.244	4610.83
486.615	4687.43
486.985	4831.16
487.356	5017.82
487.726	5109.8
488.097	5273.41
488.467	5357.7
488.837	5512.04
489.207	5621.42
489.578	5828.87
489.948	5861.41
490.318	6005.14
490.688	6146.15
491.058	6253.04
491.428	6394.28
491.798	6547.27
492.168	6748.62
492.538	6840.82
492.908	6982.74
493.278	7167.59
493.648	7197.42
494.017	7338.21
494.387	7437.64
494.757	7616.85
495.126	7742.72
495.496	7875.15
495.866	7958.76
496.235	8157.62
496.605	8313.33
496.974	8330.05
497.344	8496.82
497.713	8608.23
498.082	8716.48
498.452	8848.91
498.821	8912.63
499.19	8999.64
499.559	9141.78
499.928	9226.07
500.298	9422.22
500.667	9561.66
501.036	9514.42
501.405	9700.41
501.774	9706.28
502.143	9834.42
502.512	9862.44
502.88	10048.42
503.249	10065.6
503.618	10223.78
503.987	10244.8
504.356	10340.39
504.724	10402.99
505.093	10509.2
505.462	10544.91
505.83	10757.78
506.199	10735.41
506.567	10849.31
506.936	10995.97
507.304	11046.59
507.672	11148.51
508.041	11171.78
508.409	11215.85
508.777	11356.86
509.145	11462.17
509.514	11466.92
509.882	11535.84
510.25	11543.07
510.618	11619.68
510.986	11617.19
511.354	11757.53
511.722	11841.14
512.09	11933.8
512.458	11919.11
512.826	11976.73
513.193	12040.23
513.561	12099.67
513.929	12161.36
514.297	12329.27
514.664	12300.34
515.032	12305.54
515.4	12405.2
515.767	12429.83
516.135	12478.19
516.502	12377.17
516.869	12593.89
517.237	12638.86
517.604	12544.4
517.972	12724.51
518.339	12715.47
518.706	12713.66
519.073	12775.58
519.44	12774
519.808	12888.57
520.175	12786.2
520.542	13038.85
520.909	12984.39
521.276	13000.89
521.643	13084.95
522.009	13104.84
522.376	13152.75
522.743	13161.11
523.11	13255.12
523.477	13302.12
523.843	13329.47
524.21	13460.31
524.577	13350.93
524.943	13417.83
525.31	13484.04
525.676	13553.87
526.043	13541.66
526.409	13597.93
526.776	13713.64
527.142	13633.41
527.508	13638.61
527.874	13726.07
528.241	13714.09
528.607	13732.85
528.973	13740.08
529.339	13719.29
529.705	13832.73
530.071	13817.59
530.437	13869.34
530.803	13815.78
531.169	13895.78
531.535	13813.52
531.901	13785.05
532.267	13809.23
532.632	13940.3
532.998	13878.6
533.364	13820.3
533.73	13811.04
534.095	13890.13
534.461	13784.82
534.826	13869.56
535.192	13803.35
535.557	13863.92
535.923	13726.29
536.288	13806.29
536.653	13702.79
537.019	13669.57
537.384	13764.71
537.749	13751.38
538.114	13684.26
538.479	13655.56
538.845	13679.29
539.21	13606.75
539.575	13602.45
539.94	13560.65
540.305	13557.26
540.67	13554.09
541.034	13483.81
541.399	13522.46
541.764	13453.53
542.129	13452.4
542.494	13406.75
542.858	13366.08
543.223	13367.66
543.587	13393.87
543.952	13269.58
544.316	13258.96
544.681	13079.98
545.045	13204.72
545.41	13203.14
545.774	13155.91
546.138	13085.4
546.503	13054.67
546.867	13041.11
547.231	13074.56
547.595	13009.93
547.959	13049.7
548.324	12960.21
548.688	12932.87
549.052	12881.34
549.416	12913.88
549.779	12852.19
550.143	12823.72
550.507	12905.3
550.871	12827.78
551.235	12791.63
551.599	12814.68
551.962	12664.62
552.326	12715.24
552.689	12742.36
553.053	12602.25
553.417	12586.43
553.78	12701.91
554.143	12556.83
554.507	12585.98
554.87	12633.66
555.234	12719.54
555.597	12503.95
555.96	12548.24
556.323	12507.11
556.686	12491.07
557.05	12469.83
557.413	12522.71
557.776	12495.59
558.139	12488.81
558.502	12437.96
558.865	12499.43
559.228	12542.82
559.59	12432.31
559.953	12465.99
560.316	12512.54
560.679	12423.05
561.041	12474.12
561.404	12490.84
561.767	12500.11
562.129	12510.5
562.492	12643.16
562.854	12470.96
563.217	12476.83
563.579	12510.5
563.941	12511.63
564.304	12531.52
564.666	12564.74
565.028	12562.03
565.39	12666.43
565.753	12669.82
566.115	12719.54
566.477	12676.38
566.839	12712.53
567.201	12677.73
567.563	12658.75
567.925	12676.6
568.287	12669.37
568.648	12637.51
569.01	12756.15
569.372	12818.07
569.734	12736.94
570.095	12750.05
570.457	12860.55
570.819	12815.58
571.18	12766.77
571.542	12756.37
571.903	12871.4
572.265	12842.47
572.626	12908.01
572.987	12835.02
573.349	12948.01
573.71	12974.22
574.071	12891.51
574.432	12957.72
574.794	12995.46
575.155	12907.33
575.516	12945.07
575.877	12977.38
576.238	12947.1
576.599	13014.67
576.96	12988.91
577.32	12941.45
577.681	12967.22
578.042	13003.15
578.403	12974.45
578.763	12994.79
579.124	13013.77
579.485	12981.9
579.845	13004.5
580.206	12881.12
580.566	12992.75
580.927	13005.41
581.287	13022.13
581.648	12994.11
582.008	13016.93
582.368	12977.38
582.728	13035.46
583.089	12922.47
583.449	12999.76
583.809	12912.98
584.169	13016.93
584.529	12934.67
584.889	13041.56
585.249	12935.35
585.609	12870.04
585.969	12962.92
586.329	12846.09
586.688	12915.69
587.048	12929.48
587.408	12874.79
587.768	12876.6
588.127	12915.92
588.487	12816.71
588.846	12987.1
589.206	12758.41
589.565	12755.24
589.925	12800.67
590.284	12783.72
590.643	12821.46
591.003	12840.67
591.362	12960.66
591.721	12818.52
592.08	12782.81
592.44	12812.19
592.799	12789.37
593.158	12820.55
593.517	12821.68
593.876	12847.44
594.235	12763.61
594.593	12757.96
594.952	12687.45
595.311	12666.88
595.67	12724.28
596.029	12763.38
596.387	12801.57
596.746	12865.75
597.104	12679.99
597.463	12722.7
597.822	12761.8
598.18	12674.79
598.538	12693.55
598.897	12759.54
599.255	12600.9
599.613	12793.43
599.972	12719.54
600.33	12742.36
600.688	12689.03
601.046	12759.09
601.404	12743.49
601.762	12678.18
602.12	12713.66
602.478	12854.22
602.836	12738.07
603.194	12721.8
603.552	12747.33
603.91	12649.94
604.268	12798.18
604.625	12689.26
604.983	12745.07
605.341	12637.51
605.698	12757.5
606.056	12819.65
606.413	12746.88
606.771	12786.43
607.128	12777.62
607.485	12738.07
607.843	12745.53
608.2	12815.36
608.557	12805.41
608.914	12777.16
609.272	12839.08
609.629	12805.41
609.986	12851.74
610.343	12756.15
610.7	12842.7
611.057	12928.8
611.414	12805.64
611.771	12909.36
612.127	12876.37
612.484	12958.85
612.841	13026.2
613.198	12935.8
613.554	12881.34
613.911	12964.05
614.267	12913.43
614.624	12972.64
614.98	12955.92
615.337	13040.21
615.693	12971.06
616.05	12946.2
616.406	13077.95
616.762	13008.34
617.118	13006.31
617.475	13016.48
617.831	13069.36
618.187	13046.54
618.543	13162.24
618.899	13099.87
619.255	13130.15
619.611	13116.59
619.967	13126.76
620.323	13145.74
620.678	13033.88
621.034	13091.28
621.39	13137.83
621.746	13121.11
622.101	13084.95
622.457	13091.51
622.812	13094.67
623.168	13165.85
623.523	13119.3
623.879	13142.8
624.234	13079.08
624.589	13162.69
624.945	13148.45
625.3	13137.15
625.655	13128.57
626.01	13188.68
626.365	13165.4
626.72	13158.17
627.075	13107.32
627.43	13148.45
627.785	13112.97
628.14	13076.37
628.495	13065.74
628.85	13085.4
629.205	13015.35
629.559	13154.78
629.914	13079.3
630.269	13114.78
630.623	13081.34
630.978	13028.68
631.332	13098.96
631.687	13090.38
632.041	13005.63
632.396	13001.11
632.75	12962.47
633.104	13003.6
633.459	12996.37
633.813	12952.3
634.167	12985.07
634.521	12908.69
634.875	12949.59
635.229	12898.29
635.583	12872.3
635.937	12744.62
636.291	12828.01
636.645	12751.18
636.999	12823.94
637.352	12840.67
637.706	12702.59
638.06	12812.19
638.413	12724.74
638.767	12639.09
639.121	12722.7
639.474	12615.13
639.828	12582.59
640.181	12672.76
640.534	12728.58
640.888	12646.09
641.241	12656.04
641.594	12599.54
641.947	12574.01
642.301	12557.28
642.654	12632.31
643.007	12630.05
643.36	12586.43
643.713	12580.11
644.066	12552.54
644.419	12492.65
644.771	12431.41
645.124	12441.58
645.477	12371.3
645.83	12231.87
646.182	12275.48
646.535	12136.28
646.888	12160.46
647.24	12140.8
647.593	12203.39
647.945	12244.3
648.298	12052.44
648.65	12145.32
649.002	11998.65
649.355	12134.47
649.707	12101.93
650.059	12268.7
650.411	12340.57
650.763	12342.6
651.115	12437.74
651.467	12362.26
651.819	12377.17
652.171	12439.55
652.523	12383.28
652.875	12337.85
653.227	12392.09
653.578	12453.1
653.93	12386.21
654.282	12329.04
654.633	12420.79
654.985	12423.5
655.337	12336.05
655.688	12337.85
656.039	12451.75
656.391	12308.93
656.742	12328.36
657.094	12389.38
657.445	12465.53
657.796	12425.99
658.147	12383.73
658.498	12419.21
658.849	12470.96
659.2	12415.82
659.551	12405.2
659.902	12437.06
660.253	12497.4
660.604	12438.42
660.955	12420.79
661.306	12444.52
661.656	12367.91
662.007	12449.04
662.358	12468.02
662.708	12405.65
663.059	12437.29
663.409	12379.43
663.76	12399.77
664.11	12472.31
664.461	12529.26
664.811	12425.31
665.161	12459.88
665.511	12463.73
665.862	12527.23
666.212	12549.83
666.562	12392.09
666.912	12425.31
667.262	12433.44
667.612	12363.84
667.962	12435.03
668.312	12512.76
668.662	12583.04
669.011	12449.72
669.361	12372.88
669.711	12496.95
670.06	12373.33
670.41	12366.33
670.76	12432.09
671.109	12460.56
671.459	12459.66
671.808	12436.38
672.157	12427.34
672.507	12346.89
672.856	12277.29
673.205	12293.33
673.554	12369.49
673.904	12298.76
674.253	12406.55
674.602	12347.34
674.951	12134.02
675.3	12108.26
675.649	12268.25
675.998	12263.73
676.346	12190.74
676.695	12336.95
677.044	12227.12
677.393	12186.45
677.741	12249.49
678.09	12256.95
678.438	12266.89
678.787	12230.96
679.135	12157.97
679.484	12057.18
679.832	12173.79
680.181	12018.77
680.529	12151.42
680.877	12030.97
681.225	12048.82
681.573	12114.58
681.922	11940.12
682.27	11995.94
682.618	12012.44
682.966	11906.45
683.314	11908.26
683.661	11895.61
684.009	11824.42
684.357	11798.43
684.705	11847.7
685.053	11784.65
685.4	11832.56
685.748	11745.55
686.095	11766.8
686.443	11736.97
686.79	11648.83
687.138	11677.76
687.485	11652.67
687.832	11590.53
688.18	11669.85
688.527	11543.07
688.874	11490.42
689.221	11534.26
689.568	11425.56
689.915	11421.95
690.262	11451.32
690.609	11414.94
690.956	11391.21
691.303	11329.52
691.65	11340.82
691.997	11256.53
692.344	11212.23
692.69	11156.64
693.037	11155.51
693.383	11047.27
693.73	11137.89
694.077	10978.79
694.423	10950.09
694.769	10974.95
695.116	10916.42
695.462	10940.15
695.808	10854.95
696.155	10887.5
696.501	10816.09
696.847	10788.74
697.193	10674.39
697.539	10759.14
697.885	10635.3
698.231	10548.07
698.577	10682.53
698.923	10592.36
699.269	10500.39
699.614	10452.93
699.96	10412.48
700.306	10451.8
700.651	10375.87
700.997	10320.51
701.342	10308.53
701.688	10278.92
702.033	10276.66
702.379	10219.04
702.724	10240.96
703.069	10248.19
703.415	10053.17
703.76	10038.03
704.105	10019.27
704.45	9999.38
704.795	9962.77
705.14	9927.75
705.485	10009.78
705.83	9823.12
706.175	9895.88
706.52	9800.29
706.865	9777.02
707.209	9772.27
707.554	9734.76
707.899	9703.35
708.243	9739.05
708.588	9677.13
708.932	9553.52
709.277	9580.86
709.621	9605.95
709.966	9574.76
710.31	9557.59
710.654	9470.36
710.998	9455.9
711.342	9422.45
711.687	9457.93
712.031	9344.71
712.375	9358.04
712.719	9374.32
713.063	9349.23
713.407	9316.24
713.75	9306.52
714.094	9266.3
714.438	9239.86
714.782	9277.14
715.125	9278.72
715.469	9204.6
715.812	9202.57
716.156	9120.31
716.499	9181.33
716.843	9182.91
717.186	9082.8
717.53	9115.57
717.873	9090.03
718.216	9111.5
718.559	9040.99
718.902	8986.76
719.246	9088.67
719.589	8984.5
719.932	9003.7
720.275	8993.53
720.617	8973.2
720.96	9006.42
721.303	8946.08
721.646	8971.16
721.989	8910.37
722.331	8944.72
722.674	8890.26
723.016	8921.22
723.359	8882.8
723.701	8868.57
724.044	8802.58
724.386	8842.8
724.729	8830.83
725.071	8813.43
725.413	8864.05
725.755	8815.23
726.097	8742.24
726.439	8761
726.782	8711.28
727.124	8755.8
727.465	8761
727.807	8766.42
728.149	8726.88
728.491	8715.58
728.833	8779.76
729.175	8760.55
729.516	8708.57
729.858	8706.54
730.199	8735.01
730.541	8740.89
730.882	8740.43
731.224	8805.07
731.565	8679.64
731.906	8788.57
732.248	8765.97
732.589	8610.72
732.93	8675.35
733.271	8712.64
733.612	8706.76
733.953	8710.15
734.294	8688.46
734.635	8636.93
734.976	8747.67
735.317	8659.53
735.658	8654.56
735.999	8672.41
736.339	8623.15
736.68	8711.73
737.021	8680.1
737.361	8619.31
737.702	8686.88
738.042	8701.79
738.383	8660.44
738.723	8668.57
739.063	8707.21
739.404	8779.98
739.744	8757.83
740.084	8637.16
740.424	8740.66
740.764	8811.84
741.104	8779.98
741.444	8753.54
741.784	8790.83
742.124	8794.44
742.464	8788.79
742.804	8790.6
743.143	8767.55
743.483	8892.52
743.823	8887.1
744.162	8907.89
744.502	8992.18
744.841	8919.64
745.181	9017.94
745.52	8968.68
745.86	9045.51
746.199	9119.41
746.538	9072.63
746.877	9151.95
747.216	9201.21
747.556	9269.23
747.895	9321.66
748.234	9385.16
748.573	9320.76
748.911	9404.15
749.25	9546.97
749.589	9506.06
749.928	9607.3
750.267	9699.73
750.605	9820.86
750.944	9867.41
751.283	9899.5
751.621	9955.09
751.96	10051.36
752.298	10135.2
752.636	10237.12
752.975	10318.25
753.313	10364.12
753.651	10495.19
753.989	10597.11
754.327	10671.46
754.666	10751.23
755.004	10927.5
755.342	11145.12
755.679	11148.05
756.017	11273.7
756.355	11393.7
756.693	11481.6
757.031	11666.01
757.368	11690.64
757.706	11940.35
758.044	12039.56
758.381	12204.98
758.719	12363.39
759.056	12587.11
759.394	12695.13
759.731	12758.63
760.068	12959.98
760.405	13076.82
760.743	13218.28
761.08	13410.14
761.417	13475.22
761.754	13665.05
762.091	13865.95
762.428	13939.85
762.765	14060.97
763.102	14396.33
763.438	14426.16
763.775	14573.95
764.112	14776.43
764.449	14995.64
764.785	15051.23
765.122	15111.79
765.458	15281.5
765.795	15487.83
766.131	15685.79
766.467	15798.55
766.804	15855.5
767.14	15988.38
767.476	16131.43
767.812	16217.07
768.148	16413
768.485	16352.89
768.821	16553.79
769.157	16712.88
769.492	16777.06
769.828	16963.95
770.164	16909.26
770.5	17064.96
770.836	17196.71
771.171	17233.77
771.507	17381.56
771.842	17336.82
772.178	17457.49
772.513	17560.54
772.849	17612.29
773.184	17788.33
773.519	17820.87
773.855	17884.6
774.19	17939.51
774.525	17856.8
774.86	18021.32
775.195	18026.97
775.53	18152.39
775.865	18085.73
776.2	18124.59
776.535	18035.78
776.87	18160.07
777.205	18258.15
777.539	18165.5
777.874	18337.47
778.209	18210.92
778.543	18287.3
778.878	18286.17
779.212	18423.34
779.547	18318.49
779.881	18404.81
780.215	18296.11
780.55	18476.68
780.884	18403.46
781.218	18333.18
781.552	18502.66
781.886	18452.5
782.22	18321.43
782.554	18383.8
782.888	18322.1
783.222	18310.58
783.556	18306.74
783.889	18231.71
784.223	18263.57
784.557	18201.65
784.89	18264.7
785.224	18254.99
785.557	18132.5
785.891	18035.78
786.224	18153.75
786.558	18196.91
786.891	17998.04
787.224	18039.4
787.557	17926.86
787.891	18033.75
788.224	18063.13
788.557	17979.51
788.89	17995.11
789.223	17937.25
789.556	17927.99
789.888	17952.85
790.221	17869.01
790.554	17762.57
790.887	17694.1
791.219	17740.88
791.552	17738.16
791.884	17628.11
792.217	17482.35
792.549	17572.29
792.882	17478.28
793.214	17481.67
793.546	17445.29
793.879	17488
794.211	17328.91
794.543	17398.29
794.875	17325.75
795.207	17430.38
795.539	17265.63
795.871	17274.67
796.203	17182.92
796.535	17136.37
796.867	17072.42
797.198	17064.06
797.53	17111.29
797.862	16926.89
798.193	17013.44
798.525	16947.45
798.856	16984.74
799.188	16715.37
799.519	16715.37
799.85	16601.47
800.182	16669.49
800.513	16761.69
800.844	16550.85
801.175	16676.27
801.506	16615.48
801.837	16516.05
802.168	16526.9
802.499	16459.33
802.83	16377.97
803.161	16323.96
803.491	16315.15
803.822	16307.69
804.153	16332.78
804.483	16176.62
804.814	16068.83
805.145	16098.88
805.475	16103.86
805.805	15939.57
806.136	16033.8
806.466	15987.93
806.796	15948.15
807.126	15882.85
807.457	15851.43
807.787	15842.39
808.117	15758.1
808.447	15760.81
808.777	15784.54
809.107	15763.07
809.436	15599.69
809.766	15611.89
810.096	15672
810.426	15560.14
810.755	15578.67
811.085	15554.49
811.414	15429.3
811.744	15476.3
812.073	15390.43
812.403	15266.59
812.732	15279.02
813.061	15314.72
813.39	15212.58
813.719	15197.89
814.049	15326.93
814.378	15228.4
814.707	15138.01
815.036	15156.99
815.365	15061.17
815.693	14882.42
816.022	15016.88
816.351	14926.49
816.68	14971.91
817.008	14926.94
817.337	14829.54
817.665	14768.98
817.994	14773.04
818.322	14749.77
818.651	14706.15
818.979	14701.63
819.307	14736.66
819.636	14668.41
819.964	14593.61
820.292	14685.81
820.62	14689.88
820.948	14712.93
821.276	14649.43
821.604	14567.63
821.932	14627.06
822.259	14606.95
822.587	14526.95
822.915	14596.33
823.243	14710.9
823.57	14558.59
823.898	14544.12
824.225	14513.84
824.553	14548.42
824.88	14585.25
825.207	14610.34
825.535	14541.64
825.862	14613.73
826.189	14443.79
826.516	14505.25
826.843	14561.98
827.17	14585.7
827.497	14590.9
827.824	14535.31
828.151	14619.15
828.478	14575.99
828.805	14556.1
829.131	14519.72
829.458	14524.69
829.785	14493.05
830.111	14554.07
830.438	14589.77
830.764	14526.5
831.09	14656.89
831.417	14541.41
831.743	14530.79
832.069	14541.41
832.395	14463.45
832.722	14494.86
833.048	14473.16
833.374	14500.96
833.7	14424.13
834.026	14462.09
834.351	14486.27
834.677	14468.42
835.003	14526.95
835.329	14479.49
835.654	14446.05
835.98	14423.9
836.306	14487.63
836.631	14400.17
836.956	14480.17
837.282	14396.33
837.607	14271.14
837.932	14223.68
838.258	14418.25
838.583	14217.8
838.908	14208.54
839.233	14163.34
839.558	14156.56
839.883	14144.81
840.208	14074.53
840.533	13978.71
840.858	14057.13
841.182	14062.1
841.507	14107.3
841.832	14019.84
842.156	14001.99
842.481	13896.46
842.805	13979.39
843.13	13880.64
843.454	13825.95
843.778	13823.46
844.103	13837.48
844.427	13820.53
844.751	13740.75
845.075	13761.54
845.399	13645.84
845.723	13556.13
846.047	13605.62
846.371	13484.72
846.695	13471.84
847.019	13402.91
847.343	13337.6
847.666	13245.4
847.99	13190.94
848.313	13227.77
848.637	13125.63
848.96	13138.28
849.284	13046.31
849.607	13022.58
849.931	12980.55
850.254	12902.36
850.577	12843.38
850.9	12713.66
851.223	12705.3
851.546	12695.13
851.869	12592.54
852.192	12637.28
852.515	12466.66
852.838	12548.02
853.161	12365.65
853.483	12442.71
853.806	12413.33
854.129	12365.88
854.451	12289.49
854.774	12206.56
855.096	12225.54
855.419	12144.19
855.741	12034.81
856.063	12057.18
856.385	12040.46
856.708	11923.63
857.03	12011.76
857.352	11949.16
857.674	11911.2
857.996	11825.78
858.318	11709.85
858.64	11729.28
858.961	11755.04
859.283	11718.66
859.605	11673.46
859.926	11640.92
860.248	11657.42
860.57	11600.02
860.891	11583.75
861.212	11527.48
861.534	11495.16
861.855	11506.69
862.176	11506.69
862.498	11455.62
862.819	11383.98
863.14	11430.31
863.461	11402.74
863.782	11331.1
864.103	11410.87
864.424	11324.77
864.745	11350.31
865.065	11213.82
865.386	11303.76
865.707	11207.94
866.027	11269.86
866.348	11233.25
866.668	11194.38
866.989	11190.77
867.309	11087.72
867.63	11155.51
867.95	11150.99
868.27	11093.14
868.59	11150.31
868.91	11060.6
869.23	11095.63
869.55	11013.59
869.87	10932.24
870.19	11007.95
870.51	11016.53
870.83	10985.35
871.15	10941.51
871.469	10980.15
871.789	10929.53
872.109	10963.65
872.428	10792.13
872.748	10874.16
873.067	10878.68
873.386	10810.89
873.706	10786.93
874.025	10690.21
874.344	10717.33
874.663	10751.23
874.982	10726.37
875.301	10737.67
875.62	10739.7
875.939	10703.77
876.258	10612.7
876.577	10591.01
876.896	10597.56
877.214	10518.92
877.533	10591.46
877.852	10551.23
878.17	10552.36
878.489	10449.99
878.807	10541.29
879.125	10485.47
879.444	10475.53
879.762	10418.36
880.08	10502.2
880.398	10437.79
880.716	10356.21
881.034	10338.58
881.352	10415.42
881.67	10287.51
881.988	10307.85
882.306	10297.91
882.624	10197.34
882.941	10216.1
883.259	10176.55
883.577	10167.74
883.894	10191.24
884.212	10161.19
884.529	10109.89
884.846	10106.95
885.164	10079.16
885.481	10075.99
885.798	10040.29
886.115	10000.06
886.432	10023.34
886.75	9871.7
887.067	9959.84
887.383	9918.93
887.7	9871.48
888.017	9881.19
888.334	9837.13
888.651	9829.22
888.967	9780.86
889.284	9778.15
889.6	9782.44
889.917	9667.87
890.233	9678.49
890.55	9621.09
890.866	9673.29
891.182	9613.18
891.498	9532.73
891.815	9529.34
892.131	9476.91
892.447	9488.44
892.763	9474.2
893.079	9426.97
893.395	9405.5
893.71	9395.78
894.026	9347.88
894.342	9295.9
894.657	9272.62
894.973	9218.16
895.289	9210.03
895.604	9192.63
895.92	9164.83
896.235	9143.36
896.55	9114.44
896.865	9061.33
897.181	9031.73
897.496	9021.1
897.811	9003.03
898.126	8979.75
898.441	8877.15
898.756	8873.09
899.071	8797.61
899.386	8834.44
899.7	8804.16
900.015	8718.97
900.33	8675.58
900.644	8648.91
900.959	8688.91
901.273	8649.81
901.588	8610.95
901.902	8548.35
902.216	8542.47
902.531	8553.32
902.845	8472.42
903.159	8403.49
903.473	8391.97
903.787	8401.46
904.101	8296.6
904.415	8310.39
904.729	8250.05
905.042	8217.06
905.356	8192.88
905.67	8213.67
905.984	8165.99
906.297	8157.62
906.611	8111.98
906.924	8042.15
907.237	8061.36
907.551	8065.88
907.864	7988.59
908.177	7944.52
908.491	7916.95
908.804	7886.67
909.117	7788.37
909.43	7758.54
909.743	7744.75
910.056	7712.89
910.368	7677.41
910.681	7649.39
910.994	7636.51
911.307	7675.38
911.619	7510.18
911.932	7561.26
912.244	7517.42
912.557	7519.9
912.869	7415.27
913.181	7363.75
913.494	7409.4
913.806	7395.38
914.118	7389.51
914.43	7295.95
914.742	7253.24
915.054	7240.13
915.366	7251.89
915.678	7199.46
915.99	7194.94
916.302	7131.21
916.613	7095.28
916.925	7036.98
917.236	7036.3
917.548	7007.15
917.859	6975.96
918.171	6903.42
918.482	6952.91
918.794	6893.02
919.105	6848.73
919.416	6821.61
919.727	6781.62
920.038	6775.29
920.349	6780.94
920.66	6722.41
920.971	6685.8
921.282	6707.49
921.593	6617.78
921.903	6629.08
922.214	6637.21
922.525	6593.6
922.835	6509.08
923.146	6524.45
923.456	6467.73
923.767	6461.85
924.077	6408.29
924.387	6352.7
924.697	6369.87
925.008	6346.37
925.318	6359.03
925.628	6346.6
925.938	6277.67
926.248	6235.87
926.558	6192.03
926.867	6228.18
927.177	6199.94
927.487	6130.79
927.796	6152.93
928.106	6103.89
928.416	6078.58
928.725	6051.47
929.034	6003.56
929.344	6065.93
929.653	5976.44
929.962	5964.24
930.271	5946.16
930.581	5922.66
930.89	5870.45
931.199	5862.09
931.508	5866.16
931.817	5824.8
932.125	5835.2
932.434	5731.02
932.743	5686.05
933.051	5744.13
933.36	5726.28
933.669	5672.72
933.977	5665.49
934.286	5628.88
934.594	5622.1
934.902	5561.53
935.21	5563.34
935.519	5554.3
935.827	5508.88
936.135	5475.44
936.443	5447.41
936.751	5460.52
937.059	5414.87
937.367	5404.93
937.674	5406.06
937.982	5411.26
938.29	5320.41
938.597	5307.3
938.905	5293.52
939.213	5231.37
939.52	5215.1
939.827	5170.13
940.135	5165.61
940.442	5161.09
940.749	5135.56
941.056	5091.94
941.363	5106.18
941.67	5073.64
941.977	5062.79
942.284	5022.11
942.591	4984.83
942.898	4967.65
943.205	5004.26
943.511	4951.16
943.818	4934.43
944.125	4905.51
944.431	4875
944.738	4853.08
945.044	4858.5
945.35	4767.43
945.657	4765.17
945.963	4787.09
946.269	4771.27
946.575	4772.18
946.881	4672.97
947.187	4696.92
947.493	4654.89
947.799	4621.22
948.105	4643.14
948.41	4593.2
948.716	4575.35
949.022	4597.72
949.327	4559.98
949.633	4546.42
949.938	4517.04
950.244	4544.16
950.549	4481.79
950.854	4461
951.16	4463.71
951.465	4437.27
951.77	4400.21
952.075	4385.29
952.38	4386.42
952.685	4382.13
952.99	4331.74
953.294	4313.66
953.599	4294.68
953.904	4292.87
954.209	4276.6
954.513	4275.69
954.818	4207.22
955.122	4172.64
955.426	4189.82
955.731	4124.28
956.035	4153.21
956.339	4134.45
956.643	4112.53
956.948	4083.38
957.252	4110.05
957.556	4039.54
957.86	4014.23
958.163	4032.99
958.467	4012.65
958.771	3985.98
959.075	3972.42
959.378	3980.33
959.682	3947.11
959.985	3967.68
960.289	3908.24
960.592	3913.44
960.896	3888.13
961.199	3889.04
961.502	3827.79
961.805	3831.18
962.108	3794.58
962.411	3786.67
962.714	3761.58
963.017	3772.2
963.32	3731.3
963.623	3748.7
963.926	3688.36
964.228	3684.97
964.531	3663.96
964.833	3639.78
965.136	3644.3
965.438	3635.71
965.741	3630.51
966.043	3592.77
966.345	3592.55
966.648	3588.71
966.95	3529.95
967.252	3513.68
967.554	3541.47
967.856	3536.73
968.158	3486.11
968.46	3489.5
968.761	3466.9
969.063	3423.51
969.365	3414.02
969.666	3422.38
969.968	3382.61
970.269	3361.82
970.571	3366.34
970.872	3356.85
971.174	3331.99
971.475	3324.76
971.776	3286.57
972.077	3312.1
972.378	3261.03
972.679	3291.99
972.98	3289.96
973.281	3195.04
973.582	3233.23
973.883	3216.29
974.183	3223.97
974.484	3182.61
974.785	3187.13
975.085	3179.45
975.386	3147.13
975.686	3106.91
975.986	3120.69
976.287	3105.1
976.587	3072.11
976.887	3130.41
977.187	3098.1
977.487	3061.94
977.787	3047.93
978.087	3019.45
978.387	3041.37
978.687	2961.6
978.987	2955.73
979.286	2943.52
979.586	2979.23
979.885	2968.38
980.185	2918.67
980.484	2913.24
980.784	2904.66
981.083	2876.63
981.382	2859.23
981.682	2894.94
981.981	2875.5
982.28	2831.21
982.579	2810.65
982.878	2808.39
983.177	2830.98
983.475	2770.65
983.774	2804.09
984.073	2773.36
984.372	2761.61
984.67	2731.55
984.969	2720.03
985.267	2761.83
985.566	2705.79
985.864	2696.07
986.162	2671.89
986.461	2641.16
986.759	2671.44
987.057	2633.02
987.355	2636.64
987.653	2607.71
987.951	2627.37
988.249	2620.59
988.547	2598.45
988.844	2605.45
989.142	2534.27
989.44	2528.39
989.737	2508.96
990.035	2527.04
990.332	2522.97
990.63	2484.55
990.927	2477.55
991.224	2492.24
991.521	2460.37
991.819	2438.9
992.116	2456.31
992.413	2434.61
992.71	2392.58
993.006	2400.71
993.303	2407.72
993.6	2366.36
993.897	2371.34
994.193	2395.74
994.49	2327.27
994.787	2341.73
995.083	2331.34
995.379	2330.89
995.676	2265.58
995.972	2320.72
996.268	2274.39
996.565	2260.6
996.861	2248.85
997.157	2244.79
997.453	2253.6
997.749	2223.54
998.044	2245.01
998.34	2199.36
998.636	2193.49
998.932	2172.02
999.227	2165.01
999.523	2168.86
999.818	2132.47
1000.114	2159.36
1000.409	2124.56
1000.704	2129.76
1001	2123.88
1001.295	2111.23
1001.59	2073.26
1001.885	2094.73
1002.18	2069.65
1002.475	2037.56
1002.77	2049.99
1003.065	2038.69
1003.359	2010.22
1003.654	1982.87
1003.949	2013.61
1004.243	1971.8
1004.538	1977.45
1004.832	1951.01
1005.127	1969.31
1005.421	1950.78
1005.715	1931.12
1006.009	1927.28
1006.304	1935.87
1006.598	1892.03
1006.892	1892.25
1007.186	1887.73
1007.48	1856.77
1007.773	1845.47
1008.067	1859.26
1008.361	1807.96
1008.655	1831.24
1008.948	1839.82
1009.242	1830.33
1009.535	1793.5
1009.829	1788.07
1010.122	1746.95
1010.415	1786.27
1010.708	1750.79
1011.001	1725.48
1011.295	1726.16
1011.588	1716.21
1011.881	1713.27
1012.173	1699.72
1012.466	1700.17
1012.759	1660.85
1013.052	1658.81
1013.344	1681.41
1013.637	1650.68
1013.93	1635.54
1014.222	1625.82
1014.514	1632.82
1014.807	1635.99
1015.099	1621.75
1015.391	1600.73
1015.683	1613.62
1015.976	1572.94
1016.268	1572.03
1016.56	1544.92
1016.851	1536.1
1017.143	1546.27
1017.435	1539.04
1017.727	1536.56
1018.018	1516.9
1018.31	1513.51
1018.602	1493.84
1018.893	1506.05
1019.185	1472.83
1019.476	1456.78
1019.767	1432.83
1020.058	1443.68
1020.35	1452.72
1020.641	1413.62
1020.932	1430.12
1021.223	1431.25
1021.514	1391.93
1021.804	1377.01
1022.095	1358.71
1022.386	1379.72
1022.677	1372.27
1022.967	1376.11
1023.258	1369.1
1023.548	1347.18
1023.839	1335.88
1024.129	1320.97
1024.419	1335.88
1024.709	1305.38
1025	1299.05
1025.29	1289.33
1025.58	1303.79
1025.87	1286.17
1026.16	1268.54
1026.449	1275.09
1026.739	1263.12
1027.029	1258.82
1027.319	1244.59
1027.608	1223.12
1027.898	1221.99
1028.187	1200.52
1028.477	1180.63
1028.766	1209.78
1029.055	1191.93
1029.344	1183.8
1029.634	1162.55
1029.923	1156.68
1030.212	1177.7
1030.501	1146.74
1030.79	1138.37
1031.078	1118.71
1031.367	1137.24
1031.656	1108.54
1031.945	1103.35
1032.233	1080.75
1032.522	1095.89
1032.81	1104.25
1033.099	1093.18
1033.387	1059.05
1033.675	1078.94
1033.963	1079.39
1034.251	1066.74
1034.54	1041.43
1034.828	1046.63
1035.116	1021.77
1035.403	1007.3
1035.691	1024.03
1035.979	1019.28
1036.267	1038.94
1036.554	996.23
1036.842	998.72
1037.129	1000.75
1037.417	987.19
1037.704	977.02
1037.992	985.16
1038.279	952.62
1038.566	966.63
1038.853	966.63
1039.14	966.63
