Data from hue_230_FLMS001491_00028.txt Node
Date: Tue Feb 07 16:37:01 GMT 2017
User: dcchb
Spectrometer: FLMS00149
Trigger mode: 0
Integration Time (sec): 2.000000E-2
Scans to average: 10
Electric dark correction enabled: true
Nonlinearity correction enabled: false
Boxcar width: 0
XAxis mode: Wavelengths
Number of Pixels in Spectrum: 2048
>>>>>Begin Spectral Data<<<<<
341.393	-8.11
341.776	-8.11
342.16	-8.11
342.543	-65.73
342.927	-61.21
343.31	-67.99
343.693	-67.54
344.077	-62.79
344.46	-66.86
344.843	-60.54
345.226	-65.51
345.61	-35.68
345.993	6.36
346.376	0.25
346.759	-2.01
347.142	45.9
347.525	46.81
347.908	44.32
348.291	92
348.674	77.54
349.057	115.73
349.44	128.84
349.823	139.46
350.206	157.09
350.588	178.33
350.971	214.26
351.354	232.11
351.737	224.43
352.119	252.9
352.502	269.4
352.884	278.44
353.267	269.85
353.65	284.99
354.032	290.42
354.414	304.43
354.797	313.24
355.179	300.13
355.562	326.35
355.944	332.9
356.326	331.77
356.709	311.66
357.091	310.3
357.473	332
357.855	349.85
358.238	339.68
358.62	334.48
359.002	319.12
359.384	336.74
359.766	324.31
360.148	314.82
360.53	335.84
360.912	331.77
361.294	329.06
361.676	319.12
362.057	319.12
362.439	325.44
362.821	306.46
363.203	311.88
363.584	318.21
363.966	325.44
364.348	335.84
364.729	301.72
365.111	311.88
365.493	318.44
365.874	292
366.256	310.53
366.637	317.08
367.019	324.54
367.4	306.23
367.781	300.59
368.163	297.87
368.544	313.24
368.925	307.14
369.306	333.58
369.688	318.66
370.069	310.3
370.45	299.46
370.831	318.89
371.212	315.27
371.593	308.49
371.974	306.23
372.355	296.74
372.736	321.15
373.117	316.4
373.498	295.84
373.879	308.27
374.26	294.26
374.641	321.15
375.021	308.49
375.402	302.62
375.783	320.02
376.163	315.05
376.544	305.78
376.925	324.54
377.305	335.84
377.686	326.57
378.066	311.66
378.447	327.48
378.827	329.06
379.208	320.92
379.588	331.54
379.968	317.53
380.349	309.85
380.729	319.79
381.109	313.92
381.489	334.03
381.87	323.86
382.25	338.55
382.63	332.45
383.01	336.52
383.39	362.05
383.77	335.84
384.15	337.65
384.53	325.44
384.91	344.2
385.29	359.11
385.67	349.17
386.049	348.72
386.429	340.81
386.809	360.24
387.189	351.21
387.568	355.73
387.948	359.11
388.328	359.34
388.707	350.3
389.087	362.28
389.466	369.06
389.846	375.16
390.225	361.83
390.605	348.95
390.984	370.64
391.363	374.93
391.743	358.66
392.122	357.53
392.501	375.16
392.881	370.41
393.26	372
393.639	367.02
394.018	383.75
394.397	370.41
394.776	356.63
395.155	392.33
395.534	377.42
395.913	385.33
396.292	409.51
396.671	394.82
397.05	357.76
397.429	385.33
397.808	403.18
398.186	409.73
398.565	396.18
398.944	387.81
399.323	410.19
399.701	388.04
400.08	420.81
400.458	403.41
400.837	428.49
401.215	408.38
401.594	398.89
401.972	413.35
402.351	413.58
402.729	415.84
403.107	404.31
403.486	423.29
403.864	401.37
404.242	437.53
404.62	449.96
404.999	433.46
405.377	427.81
405.755	422.16
406.133	455.16
406.511	443.18
406.889	444.08
407.267	440.47
407.645	459.9
408.023	441.82
408.401	485.21
408.779	479.79
409.156	485.44
409.534	452.9
409.912	501.03
410.29	484.08
410.667	497.19
411.045	509.85
411.422	519.56
411.8	497.64
412.178	525.89
412.555	525.21
412.933	538.09
413.31	564.76
413.687	570.86
414.065	550.07
414.442	562.95
414.819	580.58
415.197	552.33
415.574	590.3
415.951	578.77
416.328	563.4
416.705	609.96
417.082	611.31
417.46	603.85
417.837	610.63
418.214	618.54
418.591	638.88
418.967	645.66
419.344	663.97
419.721	658.09
420.098	650.18
420.475	649.5
420.852	660.8
421.228	692.89
421.605	691.76
421.982	686.34
422.358	712.78
422.735	727.47
423.111	703.74
423.488	736.96
423.864	715.94
424.241	770.86
424.617	768.82
424.994	771.53
425.37	793.45
425.746	809.95
426.123	806.33
426.499	839.1
426.875	822.15
427.251	821.25
427.627	839.78
428.003	854.24
428.379	880.23
428.756	865.77
429.132	875.71
429.507	909.83
429.883	904.86
430.259	913
430.635	904.19
431.011	940.34
431.387	954.13
431.763	941.02
432.138	981.25
432.514	997.52
432.89	992.54
433.265	988.7
433.641	1010.4
434.016	1039.32
434.392	1079.55
434.767	1080
435.143	1090.85
435.518	1106.21
435.894	1125.42
436.269	1132.88
436.644	1148.02
437.02	1165.2
437.395	1145.76
437.77	1214.46
438.145	1198.19
438.52	1217.62
438.895	1256.94
439.271	1260.56
439.646	1305.53
440.021	1279.99
440.395	1327.45
440.77	1274.8
441.145	1324.06
441.52	1351.86
441.895	1347.34
442.27	1357.73
442.645	1368.35
443.019	1392.76
443.394	1415.36
443.769	1432.53
444.143	1440.44
444.518	1439.31
444.892	1427.34
445.267	1455.58
445.641	1478.86
446.016	1461.46
446.39	1504.4
446.764	1502.59
447.139	1477.73
447.513	1507.56
447.887	1518.18
448.262	1518.86
448.636	1517.05
449.01	1551.4
449.384	1587.33
449.758	1600.66
450.132	1625.75
450.506	1610.38
450.88	1609.48
451.254	1642.02
451.628	1638.86
452.002	1691.51
452.376	1651.51
452.75	1664.84
453.123	1685.41
453.497	1745.52
453.871	1745.97
454.244	1768.57
454.618	1765.63
454.992	1773.09
455.365	1785.97
455.739	1828.91
456.112	1854.89
456.486	1885.85
456.859	1865.52
457.232	1915.01
457.606	1940.77
457.979	1920.66
458.352	1958.85
458.725	1982.12
459.099	1968.79
459.472	2049.92
459.845	2058.51
460.218	2052.86
460.591	2066.19
460.964	2076.81
461.337	2145.51
461.71	2168.78
462.083	2178.5
462.456	2211.27
462.829	2184.38
463.201	2242.91
463.574	2245.84
463.947	2259.18
464.32	2305.73
464.692	2314.32
465.065	2355.45
465.438	2392.96
465.81	2383.69
466.183	2390.7
466.555	2487.87
466.928	2483.58
467.3	2469.12
467.672	2523.35
468.045	2542.56
468.417	2550.24
468.789	2585.05
469.161	2616.91
469.534	2648.77
469.906	2700.75
470.278	2735.55
470.65	2732.16
471.022	2796.79
471.394	2832.04
471.766	2867.3
472.138	2852.38
472.51	2944.81
472.882	2975.32
473.253	3005.82
473.625	3041.98
473.997	3102.32
474.369	3101.19
474.74	3143.67
475.112	3155.88
475.484	3198.59
475.855	3331.47
476.227	3299.83
476.598	3369.43
476.97	3385.7
477.341	3484.68
477.713	3527.85
478.084	3498.02
478.455	3594.51
478.827	3647.84
479.198	3703.43
479.569	3750.44
479.94	3797.67
480.311	3765.13
480.682	3923.99
481.053	3960.38
481.424	4008.96
481.795	4082.41
482.166	4096.87
482.537	4196.75
482.908	4225.68
483.279	4273.36
483.65	4356.98
484.021	4431.1
484.391	4424.32
484.762	4501.83
485.133	4509.97
485.503	4539.8
485.874	4670.19
486.244	4672.45
486.615	4757.64
486.985	4775.04
487.356	4836.51
487.726	4920.8
488.097	4979.78
488.467	4950.86
488.837	5060.91
489.207	5172.1
489.578	5191.3
489.948	5280.79
490.318	5289.15
490.688	5318.31
491.058	5361.02
491.428	5377.06
491.798	5470.17
492.168	5524.4
492.538	5593.78
492.908	5646.89
493.278	5653.66
493.648	5678.07
494.017	5700.67
494.387	5791.97
494.757	5819.76
495.126	5850.5
495.496	5920.1
495.866	5877.16
496.235	5919.19
496.605	6014.11
496.974	6039.42
497.344	6090.72
497.713	6152.41
498.082	6135.46
498.452	6146.99
498.821	6186.31
499.19	6194.22
499.559	6276.47
499.928	6285.29
500.298	6270.15
500.667	6323.03
501.036	6318.73
501.405	6433.08
501.774	6426.07
502.143	6415
502.512	6419.52
502.88	6503.36
503.249	6487.09
503.618	6572.96
503.987	6557.82
504.356	6634.2
504.724	6614.32
505.093	6614.32
505.462	6672.4
505.83	6668.55
506.199	6652.96
506.567	6714.88
506.936	6738.61
507.304	6789.23
507.672	6850.92
508.041	6793.75
508.409	6840.3
508.777	6895.44
509.145	6856.12
509.514	6831.04
509.882	6925.72
510.25	6899.51
510.618	6962.78
510.986	6938.38
511.354	7018.6
511.722	7041.65
512.09	7066.96
512.458	7060.63
512.826	7111.71
513.193	7116
513.561	7102.21
513.929	7151.25
514.297	7213.4
514.664	7158.03
515.032	7218.14
515.4	7207.97
515.767	7176.11
516.135	7265.6
516.502	7185.15
516.869	7303.34
517.237	7341.53
517.604	7264.47
517.972	7332.94
518.339	7319.84
518.706	7329.55
519.073	7393.96
519.44	7287.52
519.808	7389.21
520.175	7360.29
520.542	7385.37
520.909	7443.22
521.276	7375.65
521.643	7478.93
522.009	7445.71
522.376	7496.33
522.743	7517.57
523.11	7567.06
523.477	7550.79
523.843	7575.65
524.21	7614.97
524.577	7650.45
524.943	7641.41
525.31	7696.32
525.676	7619.26
526.043	7650
526.409	7678.24
526.776	7733.84
527.142	7755.98
527.508	7717.34
527.874	7803.89
528.241	7756.21
528.607	7728.19
528.973	7778.81
529.339	7784.91
529.705	7772.25
530.071	7839.82
530.437	7889.76
530.803	7892.25
531.169	7842.99
531.535	7842.08
531.901	7790.11
532.267	7828.75
532.632	7900.84
532.998	7805.02
533.364	7795.3
533.73	7852.7
534.095	7892.02
534.461	7847.73
534.826	7833.95
535.192	7897.22
535.557	7895.41
535.923	7892.48
536.288	7873.72
536.653	7890.67
537.019	7809.99
537.384	7840.73
537.749	7799.15
538.114	7800.73
538.479	7850.44
538.845	7821.29
539.21	7779.48
539.575	7777.9
539.94	7774.06
540.305	7780.61
540.67	7753.27
541.034	7766.38
541.399	7766.38
541.764	7734.51
542.129	7746.27
542.494	7732.03
542.858	7768.41
543.223	7742.65
543.587	7766.6
543.952	7737.23
544.316	7705.36
544.681	7665.36
545.045	7665.82
545.41	7716.66
545.774	7711.92
546.138	7722.76
546.503	7729.54
546.867	7600.51
547.231	7594.18
547.595	7663.56
547.959	7687.06
548.324	7588.98
548.688	7619.71
549.052	7641.64
549.416	7577.23
549.779	7654.97
550.143	7550.11
550.507	7618.13
550.871	7614.52
551.235	7520.51
551.599	7581.75
551.962	7539.04
552.326	7549.21
552.689	7524.12
553.053	7492.49
553.417	7516.89
553.78	7597.34
554.143	7556.21
554.507	7573.61
554.87	7507.63
555.234	7673.5
555.597	7495.65
555.96	7527.97
556.323	7552.82
556.686	7553.95
557.05	7552.82
557.413	7579.72
557.776	7520.06
558.139	7623.33
558.502	7573.16
558.865	7514.86
559.228	7602.54
559.59	7621.52
559.953	7595.99
560.316	7657.68
560.679	7659.04
561.041	7667.85
561.404	7622.88
561.767	7732.03
562.129	7710.33
562.492	7759.82
562.854	7702.88
563.217	7648.64
563.579	7707.4
563.941	7714.4
564.304	7766.38
564.666	7806.15
565.028	7864.45
565.39	7798.69
565.753	7741.52
566.115	7831.46
566.477	7831.23
566.839	7887.73
567.201	7930.89
567.563	7892.48
567.925	7939.71
568.287	7989.2
568.648	7933.6
569.01	7980.16
569.372	7976.99
569.734	7998.46
570.095	8088.63
570.457	8050.66
570.819	8002.08
571.18	7991.23
571.542	8113.94
571.903	8105.58
572.265	8158.01
572.626	8155.29
572.987	8142.41
573.349	8186.48
573.71	8174.05
574.071	8217.89
574.432	8244.11
574.794	8281.39
575.155	8219.7
575.516	8249.75
575.877	8295.63
576.238	8322.75
576.599	8306.48
576.96	8341.5
577.32	8309.19
577.681	8403.88
578.042	8383.76
578.403	8428.96
578.763	8450.2
579.124	8410.2
579.485	8498.11
579.845	8487.26
580.206	8478.68
580.566	8470.77
580.927	8499.69
581.287	8476.87
581.648	8580.14
582.008	8569.52
582.368	8512.35
582.728	8639.8
583.089	8608.84
583.449	8618.11
583.809	8583.31
584.169	8645.9
584.529	8631.21
584.889	8670.08
585.249	8658.11
585.609	8652.91
585.969	8669.63
586.329	8710.53
586.688	8706.69
587.048	8717.09
587.408	8702.4
587.768	8757.09
588.127	8687.26
588.487	8697.65
588.846	8823.75
589.206	8769.74
589.565	8760.25
589.925	8792.57
590.284	8797.54
590.643	8820.81
591.003	8798.67
591.362	8932.9
591.721	8820.36
592.08	8878.21
592.44	8862.39
592.799	8924.31
593.158	8888.61
593.517	8873.69
593.876	8882.28
594.235	8833.47
594.593	8932
594.952	8954.14
595.311	8899
595.67	8887.93
596.029	8996.18
596.387	8964.31
596.746	8979.23
597.104	8940.81
597.463	8972.45
597.822	9000.7
598.18	8995.05
598.538	9034.14
598.897	9042.05
599.255	8905.1
599.613	9115.49
599.972	9067.59
600.33	9105.1
600.688	9000.24
601.046	9047.25
601.404	9035.95
601.762	9142.61
602.12	9081.6
602.478	9108.26
602.836	9130.86
603.194	9135.38
603.552	9145.55
603.91	9074.37
604.268	9195.72
604.625	9162.5
604.983	9066.46
605.341	9056.74
605.698	9085.89
606.056	9168.37
606.413	9096.74
606.771	9177.64
607.128	9186
607.485	9207.24
607.843	9125.66
608.2	9246.79
608.557	9200.01
608.914	9199.11
609.272	9274.13
609.629	9311.65
609.986	9310.29
610.343	9264.19
610.7	9269.62
611.057	9255.6
611.414	9291.08
611.771	9243.85
612.127	9310.52
612.484	9305.55
612.841	9333.12
613.198	9341.25
613.554	9313.23
613.911	9356.17
614.267	9360.23
614.624	9346
614.98	9290.41
615.337	9393.68
615.693	9310.29
616.05	9331.76
616.406	9410.18
616.762	9282.5
617.118	9366.11
617.475	9391.65
617.831	9473.45
618.187	9419.67
618.543	9344.19
618.899	9450.85
619.255	9413.57
619.611	9441.81
619.967	9469.16
620.323	9517.29
620.678	9408.14
621.034	9529.5
621.39	9424.64
621.746	9397.97
622.101	9476.62
622.457	9445.2
622.812	9466.9
623.168	9507.35
623.523	9506.44
623.879	9442.04
624.234	9483.17
624.589	9488.14
624.945	9571.08
625.3	9451.76
625.655	9511.64
626.01	9556.39
626.365	9438.65
626.72	9412.89
627.075	9485.43
627.43	9440.01
627.785	9451.08
628.14	9518.87
628.495	9511.64
628.85	9429.84
629.205	9476.16
629.559	9495.37
629.914	9370.4
630.269	9425.32
630.623	9399.56
630.978	9407.46
631.332	9369.73
631.687	9426.9
632.041	9400.01
632.396	9377.41
632.75	9424.87
633.104	9342.16
633.459	9302.61
633.813	9348.93
634.167	9266
634.521	9294.25
634.875	9311.65
635.229	9322.04
635.583	9243.18
635.937	9257.41
636.291	9255.38
636.645	9286.34
636.999	9183.97
637.352	9247.92
637.706	9173.12
638.06	9194.36
638.413	9184.65
638.767	9200.01
639.121	9204.53
639.474	9106.68
639.828	9070.07
640.181	9102.39
640.534	9052.9
640.888	9051.32
641.241	9102.16
641.594	9074.37
641.947	9167.24
642.301	9060.58
642.654	9091.77
643.007	9121.82
643.36	9046.34
643.713	9067.13
644.066	9056.97
644.419	9078.66
644.771	8919.57
645.124	8885.67
645.477	8841.38
645.83	8851.55
646.182	8776.52
646.535	8774.49
646.888	8736.52
647.24	8768.16
647.593	8758.67
647.945	8779.23
648.298	8665.34
648.65	8690.42
649.002	8680.03
649.355	8727.93
649.707	8751.89
650.059	8748.05
650.411	8836.41
650.763	8815.62
651.115	8910.08
651.467	8865.33
651.819	8936.74
652.171	8919.12
652.523	8909.62
652.875	8859.23
653.227	8818.1
653.578	8914.14
653.93	8841.83
654.282	8862.85
654.633	8848.16
654.985	8848.16
655.337	8903.97
655.688	8865.33
656.039	8908.27
656.391	8804.99
656.742	8843.64
657.094	8807.03
657.445	8854.71
657.796	8869.4
658.147	8820.36
658.498	8854.26
658.849	8864.43
659.2	8894.48
659.551	8882.73
659.902	8837.08
660.253	8864.2
660.604	8852.68
660.955	8894.26
661.306	8891.77
661.656	8816.97
662.007	8842.06
662.358	8927.93
662.708	8952.79
663.059	8850.19
663.409	8856.52
663.76	8866.91
664.11	8882.28
664.461	8817.2
664.811	8876.41
665.161	8910.3
665.511	8863.75
665.862	8868.95
666.212	8874.6
666.562	8886.8
666.912	8919.79
667.262	8852
667.612	8866.69
667.962	8913.47
668.312	8814.71
668.662	8926.35
669.011	8887.7
669.361	8800.02
669.711	8801.6
670.06	8855.16
670.41	8784.88
670.76	8807.71
671.109	8855.61
671.459	8834.82
671.808	8809.97
672.157	8827.14
672.507	8765.22
672.856	8780.59
673.205	8844.77
673.554	8824.65
673.904	8802.28
674.253	8838.89
674.602	8775.39
674.951	8605.68
675.3	8629.41
675.649	8755.28
675.998	8742.85
676.346	8705.56
676.695	8737.65
677.044	8702.17
677.393	8701.49
677.741	8686.58
678.09	8633.47
678.438	8618.56
678.787	8699.69
679.135	8702.17
679.484	8577.66
679.832	8645.45
680.181	8591.67
680.529	8641.83
680.877	8633.7
681.225	8495.17
681.573	8654.04
681.922	8548.73
682.27	8528.84
682.618	8536.07
682.966	8508.28
683.314	8511.44
683.661	8383.54
684.009	8418.34
684.357	8442.52
684.705	8447.94
685.053	8398.23
685.4	8371.11
685.748	8342.63
686.095	8320.26
686.443	8296.53
686.79	8333.59
687.138	8294.05
687.485	8370.66
687.832	8305.35
688.18	8322.75
688.527	8179.93
688.874	8225.8
689.221	8141.51
689.568	8183.99
689.915	8231.22
690.262	8124.79
690.609	8065.35
690.956	8050.89
691.303	8073.49
691.65	7987.39
691.997	8061.74
692.344	7931.12
692.69	7959.59
693.037	7959.37
693.383	7876.66
693.73	7904
694.077	7877.11
694.423	7850.9
694.769	7898.35
695.116	7731.12
695.462	7833.49
695.808	7721.86
696.155	7843.66
696.501	7699.49
696.847	7675.08
697.193	7659.26
697.539	7631.24
697.885	7604.57
698.231	7548.3
698.577	7569.32
698.923	7571.35
699.269	7524.35
699.614	7426.05
699.96	7475.31
700.306	7475.09
700.651	7433.05
700.997	7359.83
701.342	7333.85
701.688	7337.01
702.033	7325.26
702.379	7296.11
702.724	7310.34
703.069	7243.23
703.415	7207.07
703.76	7231.25
704.105	7183.57
704.45	7171.82
704.795	7130.01
705.14	7089.79
705.485	7050.01
705.83	7071.93
706.175	7092.05
706.52	7053.4
706.865	7031.48
707.209	6986.29
707.554	6955.33
707.899	6960.07
708.243	6901.09
708.588	6993.74
708.932	6866.29
709.277	6818.38
709.621	6815.22
709.966	6825.16
710.31	6852.96
710.654	6770.02
710.998	6741.77
711.342	6769.79
711.687	6775.67
712.031	6752.62
712.375	6726.86
712.719	6743.35
713.063	6714.88
713.407	6692.28
713.75	6691.15
714.094	6645.73
714.438	6673.75
714.782	6681.21
715.125	6575
715.469	6650.93
715.812	6619.52
716.156	6541.55
716.499	6560.76
716.843	6579.97
717.186	6518.5
717.53	6582.68
717.873	6559.86
718.216	6537.03
718.559	6481.21
718.902	6451.16
719.246	6520.99
719.589	6469.24
719.932	6433.98
720.275	6455.9
720.617	6437.83
720.96	6417.49
721.303	6469.46
721.646	6423.59
721.989	6379.3
722.331	6416.36
722.674	6369.58
723.016	6402.12
723.359	6399.41
723.701	6396.02
724.044	6395.79
724.386	6368.22
724.729	6435.34
725.071	6357.83
725.413	6351.95
725.755	6337.26
726.097	6370.03
726.439	6305.4
726.782	6315.34
727.124	6356.47
727.465	6343.14
727.807	6331.39
728.149	6303.14
728.491	6334.78
728.833	6344.04
729.175	6271.5
729.516	6266.53
729.858	6295.46
730.199	6255.68
730.541	6214.1
730.882	6252.07
731.224	6269.24
731.565	6268.11
731.906	6259.52
732.248	6338.17
732.589	6213.42
732.93	6227.89
733.271	6265.85
733.612	6245.06
733.953	6302.01
734.294	6266.53
734.635	6201.22
734.976	6255.23
735.317	6222.69
735.658	6220.2
735.999	6231.73
736.339	6278.96
736.68	6209.81
737.021	6251.39
737.361	6252.52
737.702	6272.18
738.042	6270.37
738.383	6203.03
738.723	6251.84
739.063	6218.17
739.404	6304.04
739.744	6244.38
740.084	6263.59
740.424	6335
740.764	6324.16
741.104	6289.81
741.444	6328.68
741.784	6311.27
742.124	6349.01
742.464	6321.22
742.804	6349.01
743.143	6364.83
743.483	6362.57
743.823	6377.26
744.162	6383.82
744.502	6401.67
744.841	6400.31
745.181	6477.37
745.52	6446.64
745.86	6502.91
746.199	6532.96
746.538	6508.78
746.877	6577.03
747.216	6600.53
747.556	6643.02
747.895	6613.64
748.234	6669.23
748.573	6730.47
748.911	6767.99
749.25	6764.6
749.589	6820.87
749.928	6836.01
750.267	6957.13
750.605	6930.24
750.944	6953.97
751.283	6985.61
751.621	7068.09
751.96	7148.31
752.298	7263.34
752.636	7285.03
752.975	7283
753.313	7382.66
753.651	7459.95
753.989	7510.34
754.327	7660.62
754.666	7689.77
755.004	7783.1
755.342	7840.5
755.679	7954.85
756.017	8033.26
756.355	8152.13
756.693	8138.8
757.031	8278.91
757.368	8387.15
757.706	8545.11
758.044	8588.5
758.381	8654.04
758.719	8766.58
759.056	8913.01
759.394	9030.53
759.731	9037.08
760.068	9210.86
760.405	9265.1
760.743	9344.64
761.08	9543.96
761.417	9678.19
761.754	9810.62
762.091	9854.68
762.428	10024.17
762.765	10050.16
763.102	10255.58
763.438	10368.12
763.775	10411.05
764.112	10579.86
764.449	10722.46
764.785	10756.58
765.122	10862.79
765.458	10967.2
765.795	11072.28
766.131	11180.98
766.467	11260.98
766.804	11351.37
767.14	11387.3
767.476	11592.72
767.812	11577.35
768.148	11747.52
768.485	11816.44
768.821	11853.95
769.157	12044.68
769.492	12113.61
769.828	12248.29
770.164	12214.62
770.5	12327.61
770.836	12480.83
771.171	12311.12
771.507	12509.53
771.842	12432.47
772.178	12613.03
772.513	12612.35
772.849	12691.67
773.184	12733.7
773.519	12874.49
773.855	12884.44
774.19	12935.73
774.525	12946.58
774.86	13066.13
775.195	13110.42
775.53	12967.14
775.865	13038.1
776.2	12976.64
776.535	13102.96
776.87	13072.23
777.205	13234.03
777.539	13109.51
777.874	13220.02
778.209	13157.65
778.543	13158.55
778.878	13153.58
779.212	13207.14
779.547	13205.78
779.881	13317.64
780.215	13184.77
780.55	13333.24
780.884	13281.71
781.218	13234.03
781.552	13309.73
781.886	13249.4
782.22	13289.85
782.554	13245.33
782.888	13195.61
783.222	13172.79
783.556	13160.59
783.889	13207.82
784.223	13101.15
784.557	13079.46
784.89	13216.86
785.224	13154.71
785.557	13076.97
785.891	13163.07
786.224	13126.24
786.558	13078.55
786.891	13067.26
787.224	13026.8
787.557	12949.74
787.891	12988.84
788.224	13054.6
788.557	12946.35
788.89	13030.42
789.223	12963.76
789.556	12966.92
789.888	12933.47
790.221	12886.24
790.554	12827.49
790.887	12867.49
791.219	12837.88
791.552	12755.85
791.884	12764.89
792.217	12705.91
792.549	12734.61
792.882	12581.39
793.214	12607.83
793.546	12590.66
793.879	12572.35
794.211	12508.4
794.543	12451.45
794.875	12484.9
795.207	12606.25
795.539	12501.39
795.871	12566.48
796.203	12365.13
796.535	12409.87
796.867	12391.11
797.198	12323.32
797.53	12349.99
797.862	12238.8
798.193	12268.41
798.525	12189.76
798.856	12118.58
799.188	12158.13
799.519	12087.17
799.85	11976.44
800.182	11980.05
800.513	12060.95
800.844	11946.83
801.175	11990
801.506	12047.85
801.837	11950.22
802.168	11933.27
802.499	11888.53
802.83	11820.28
803.161	11827.06
803.491	11827.51
803.822	11777.35
804.153	11685.82
804.483	11637.24
804.814	11707.29
805.145	11590.01
805.475	11644.02
805.805	11508.88
806.136	11556.56
806.466	11598.14
806.796	11502.78
807.126	11460.07
807.457	11439.05
807.787	11431.82
808.117	11414.42
808.447	11412.84
808.777	11398.82
809.107	11300.97
809.436	11272.05
809.766	11257.13
810.096	11239.05
810.426	11232.05
810.755	11295.32
811.085	11220.3
811.414	11217.81
811.744	11080.19
812.073	11083.8
812.403	11162.9
812.732	11029.57
813.061	11080.19
813.39	10953.19
813.719	10922.23
814.049	11087.65
814.378	11034.77
814.707	10940.53
815.036	10952.28
815.365	10830.25
815.693	10863.7
816.022	10812.17
816.351	10813.98
816.68	10720.2
817.008	10797.94
817.337	10638.62
817.665	10727.88
817.994	10727.43
818.322	10722.91
818.651	10618.51
818.979	10676.13
819.307	10638.62
819.636	10620.31
819.964	10574.89
820.292	10655.79
820.62	10636.36
820.948	10591.39
821.276	10587.32
821.604	10602.69
821.932	10595.91
822.259	10568.79
822.587	10536.25
822.915	10541.9
823.243	10560.43
823.57	10526.98
823.898	10651.05
824.225	10539.86
824.553	10509.81
824.88	10565.85
825.207	10603.37
825.535	10482.01
825.862	10588
826.189	10524.95
826.516	10562.91
826.843	10597.04
827.17	10584.83
827.497	10593.87
827.824	10549.36
828.151	10635.23
828.478	10538.96
828.805	10659.63
829.131	10569.02
829.458	10586.19
829.785	10584.38
830.111	10599.98
830.438	10617.15
830.764	10579.19
831.09	10569.24
831.417	10537.6
831.743	10650.37
832.069	10617.6
832.395	10552.07
832.722	10596.81
833.048	10540.99
833.374	10511.39
833.7	10503.48
834.026	10455.57
834.351	10535.34
834.677	10470.71
835.003	10511.84
835.329	10485.18
835.654	10457.15
835.98	10401.34
836.306	10450.83
836.631	10399.3
836.956	10439.98
837.282	10470.26
837.607	10383.94
837.932	10376.7
838.258	10381.45
838.583	10391.85
838.908	10271.85
839.233	10322.24
839.558	10298.29
839.883	10241.11
840.208	10312.53
840.533	10152.3
840.858	10190.95
841.182	10178.07
841.507	10197.95
841.832	10199.53
842.156	10137.61
842.481	10128.8
842.805	10072.31
843.13	10077.5
843.454	10053.78
843.778	9980.1
844.103	10025.08
844.427	10013.1
844.751	10008.58
845.075	9914.57
845.399	9894.91
845.723	9894.91
846.047	9886.55
846.371	9769.04
846.695	9837.74
847.019	9816.49
847.343	9721.81
847.666	9680.9
847.99	9597.29
848.313	9591.64
848.637	9529.5
848.96	9483.39
849.284	9467.35
849.607	9484.75
849.931	9430.74
850.254	9361.36
850.577	9294.47
850.9	9266
851.223	9316.17
851.546	9184.19
851.869	9143.06
852.192	9240.01
852.515	9030.3
852.838	9103.07
853.161	9111.43
853.483	9039.34
853.806	8968.38
854.129	9046.34
854.451	8931.77
854.774	8907.59
855.096	8893.13
855.419	8939.23
855.741	8827.59
856.063	8760.25
856.385	8747.59
856.708	8798.21
857.03	8685.9
857.352	8678.67
857.674	8660.37
857.996	8656.07
858.318	8557.77
858.64	8625.56
858.961	8623.76
859.283	8578.33
859.605	8528.17
859.926	8545.79
860.248	8477.55
860.57	8470.54
860.891	8452.01
861.212	8405
861.534	8442.07
861.855	8361.84
862.176	8381.5
862.498	8379.47
862.819	8334.05
863.14	8286.14
863.461	8314.16
863.782	8296.99
864.103	8346.93
864.424	8259.25
864.745	8256.31
865.065	8193.49
865.386	8188.74
865.707	8201.62
866.027	8246.59
866.348	8157.1
866.668	8196.42
866.989	8142.64
867.309	8108.52
867.63	8124.56
867.95	8129.53
868.27	8013.83
868.59	8060.16
868.91	8092.92
869.23	8052.47
869.55	8000.72
869.87	8027.84
870.19	8056.99
870.51	8007.05
870.83	8005.02
871.15	7995.3
871.469	7974.06
871.789	8035.75
872.109	7983.1
872.428	7934.51
872.748	7982.87
873.067	7954.17
873.386	7930.44
873.706	7941.06
874.025	7891.57
874.344	7832.59
874.663	7929.54
874.982	7837.79
875.301	7840.73
875.62	7817.22
875.939	7766.83
876.258	7825.36
876.577	7771.12
876.896	7734.29
877.214	7752.37
877.533	7739.71
877.852	7736.77
878.17	7745.36
878.489	7728.86
878.807	7753.72
879.125	7675.98
879.444	7660.84
879.762	7618.58
880.08	7598.7
880.398	7596.44
880.716	7596.21
881.034	7602.99
881.352	7584.46
881.67	7537.01
881.988	7519.6
882.306	7438.25
882.624	7522.99
882.941	7423.79
883.259	7485.71
883.577	7440.96
883.894	7420.62
884.212	7428.53
884.529	7379.72
884.846	7374.3
885.164	7348.54
885.481	7361.87
885.798	7352.15
886.115	7293.4
886.432	7325.03
886.75	7298.59
887.067	7272.83
887.383	7204.81
887.7	7237.35
888.017	7233.28
888.334	7226.5
888.651	7114.64
888.967	7168.65
889.284	7152.38
889.6	7132.27
889.917	7081.2
890.233	7110.58
890.55	7035.78
890.866	7069.45
891.182	7034.87
891.498	6965.27
891.815	6973.86
892.131	6969.56
892.447	6947.64
892.763	6915.78
893.079	6843.92
893.395	6911.03
893.71	6825.61
894.026	6839.62
894.342	6806.85
894.657	6772.28
894.973	6774.54
895.289	6790.58
895.604	6739.29
895.92	6697.03
896.235	6647.31
896.55	6717.37
896.865	6655.67
897.181	6682.79
897.496	6641.66
897.811	6591.27
898.126	6579.74
898.441	6523.47
898.756	6522.34
899.071	6516.02
899.386	6514.43
899.7	6445.51
900.015	6415.45
900.33	6350.82
900.644	6391.72
900.959	6418.39
901.273	6342.01
901.588	6320.54
901.902	6316.02
902.216	6224.27
902.531	6315.57
902.845	6218.62
903.159	6193.54
903.473	6149.02
903.787	6104.73
904.101	6125.97
904.415	6111.05
904.729	6103.37
905.042	6030.83
905.356	6037.38
905.67	6030.6
905.984	6034.45
906.297	5977.5
906.611	5945.41
906.924	5936.6
907.237	5918.74
907.551	5923.26
907.864	5892.75
908.177	5828.58
908.491	5848.46
908.804	5805.53
909.117	5778.86
909.43	5733.44
909.743	5756.71
910.056	5756.04
910.368	5709.26
910.681	5681.01
910.994	5669.03
911.307	5602.37
911.619	5602.82
911.932	5598.07
912.244	5555.81
912.557	5485.76
912.869	5478.08
913.181	5469.71
913.494	5504.52
913.806	5409.6
914.118	5445.53
914.43	5472.2
914.742	5411.19
915.054	5344.52
915.366	5328.7
915.678	5327.57
915.99	5304.52
916.302	5250.06
916.613	5188.82
916.925	5223.85
917.236	5208.03
917.548	5178.2
917.859	5181.36
918.171	5128.03
918.482	5151.76
918.794	5089.39
919.105	5083.96
919.416	5056.39
919.727	5061.59
920.038	5023.62
920.349	4950.41
920.66	4990.18
920.971	4944.98
921.282	4986.11
921.593	4926
921.903	4888.94
922.214	4931.88
922.525	4889.17
922.835	4842.84
923.146	4826.79
923.456	4821.82
923.767	4800.35
924.077	4791.09
924.387	4771.88
924.697	4702.05
925.008	4730.53
925.318	4704.09
925.628	4704.99
925.938	4689.17
926.248	4636.97
926.558	4600.13
926.867	4621.83
927.177	4546.35
927.487	4562.39
927.796	4566.91
928.106	4573.69
928.416	4546.58
928.725	4522.62
929.034	4453.92
929.344	4490.76
929.653	4465.67
929.962	4424.32
930.271	4382.51
930.581	4353.59
930.89	4374.83
931.199	4363.3
931.508	4362.85
931.817	4335.06
932.125	4365.34
932.434	4323.08
932.743	4276.53
933.051	4291.44
933.36	4195.85
933.669	4241.95
933.977	4221.84
934.286	4187.94
934.594	4182.07
934.902	4150.43
935.21	4108.17
935.519	4124.89
935.827	4140.26
936.135	4078.11
936.443	4054.84
936.751	4016.19
937.059	4041.96
937.367	4040.37
937.674	4033.37
937.982	4018
938.29	3989.98
938.597	4014.16
938.905	3938
939.213	3911.56
939.52	3885.58
939.827	3895.52
940.135	3867.05
940.442	3892.81
940.749	3851.45
941.056	3850.77
941.363	3826.37
941.67	3786.82
941.977	3752.25
942.284	3763.55
942.591	3772.58
942.898	3716.99
943.205	3726.26
943.511	3702.98
943.818	3719.93
944.125	3651.68
944.431	3681.51
944.738	3634.06
945.044	3609.42
945.35	3631.12
945.657	3573.95
945.963	3594.96
946.269	3546.15
946.575	3559.48
946.881	3535.75
947.187	3556.32
947.493	3486.94
947.799	3513.83
948.105	3495.3
948.41	3427.96
948.716	3470.9
949.022	3474.97
949.327	3444.91
949.633	3454.63
949.938	3412.37
950.244	3407.62
950.549	3393.39
950.854	3354.74
951.16	3341.86
951.465	3347.06
951.77	3319.26
952.075	3321.07
952.38	3260.73
952.685	3276.55
952.99	3255.76
953.294	3288.76
953.599	3235.88
953.904	3216.21
954.209	3177.35
954.513	3198.14
954.818	3205.59
955.122	3218.93
955.426	3177.57
955.731	3140.51
956.035	3137.12
956.339	3139.15
956.643	3105.03
956.948	3094.64
957.252	3079.27
957.556	3048.99
957.86	3039.95
958.163	3043.11
958.467	3040.4
958.771	3019.38
959.075	2974.64
959.378	3001.08
959.682	2983.9
959.985	2924.92
960.289	2963.34
960.592	2956.33
960.896	2917.01
961.199	2928.31
961.502	2906.62
961.805	2914.98
962.108	2867.3
962.411	2877.01
962.714	2842.67
963.017	2823.68
963.32	2822.1
963.623	2812.84
963.926	2804.47
964.228	2807.86
964.531	2791.14
964.833	2782.1
965.136	2753.18
965.438	2802.67
965.741	2707.75
966.043	2718.83
966.345	2688.77
966.648	2677.7
966.95	2663.91
967.252	2661.43
967.554	2648.55
967.856	2650.35
968.158	2634.31
968.46	2597.02
968.761	2623.01
969.063	2600.64
969.365	2562.9
969.666	2581.2
969.968	2592.05
970.269	2575.55
970.571	2531.94
970.872	2533.75
971.174	2540.75
971.475	2543.24
971.776	2504.6
972.077	2509.34
972.378	2472.28
972.679	2491.04
972.98	2460.3
973.281	2453.75
973.582	2442
973.883	2435.67
974.183	2440.64
974.484	2439.06
974.785	2433.18
975.085	2414.2
975.386	2372.85
975.686	2414.43
975.986	2370.59
976.287	2372.4
976.587	2346.41
976.887	2342.79
977.187	2325.16
977.487	2338.72
977.787	2333.3
978.087	2310.7
978.387	2281.1
978.687	2303.24
978.987	2272.28
979.286	2275.9
979.586	2244.04
979.885	2232.96
980.185	2260.31
980.484	2213.76
980.784	2199.07
981.083	2181.67
981.382	2196.58
981.682	2209.24
981.981	2219.63
982.28	2182.57
982.579	2137.83
982.878	2135.34
983.177	2155.45
983.475	2154.55
983.774	2131.95
984.073	2132.18
984.372	2135.34
984.67	2105.51
984.969	2118.84
985.267	2098.5
985.566	2086.08
985.864	2060.09
986.162	2082.91
986.461	2071.61
986.759	2012.63
987.057	2010.6
987.355	2035
987.653	2018.28
987.951	1982.12
988.249	2007.21
988.547	1983.03
988.844	1998.39
989.142	1962.69
989.44	1970.15
989.737	1959.07
990.035	1956.36
990.332	1919.07
990.63	1916.36
990.927	1955.68
991.224	1905.06
991.521	1905.97
991.819	1886.53
992.116	1870.04
992.413	1876.36
992.71	1840.43
993.006	1869.13
993.303	1836.59
993.6	1861.9
993.897	1816.25
994.193	1815.57
994.49	1797.72
994.787	1791.17
995.083	1819.42
995.379	1801.79
995.676	1805.18
995.972	1812.41
996.268	1772.86
996.565	1756.59
996.861	1755.24
997.157	1725.63
997.453	1741.45
997.749	1739.42
998.044	1719.53
998.34	1720.43
998.636	1722.47
998.932	1683.15
999.227	1676.59
999.523	1678.85
999.818	1668.01
1000.114	1663.26
1000.409	1660.32
1000.704	1619.42
1001	1643.6
1001.295	1635.24
1001.59	1614.9
1001.885	1622.36
1002.18	1616.93
1002.475	1597.27
1002.77	1593.88
1003.065	1589.59
1003.359	1604.96
1003.654	1552.08
1003.949	1567.9
1004.243	1560.89
1004.538	1545.75
1004.832	1539.42
1005.127	1547.56
1005.421	1530.84
1005.715	1545.98
1006.009	1503.72
1006.304	1487.9
1006.598	1468.01
1006.892	1476.83
1007.186	1463.04
1007.48	1449.93
1007.773	1431.4
1008.067	1462.36
1008.361	1441.12
1008.655	1417.39
1008.948	1429.37
1009.242	1400.44
1009.535	1415.13
1009.829	1385.53
1010.122	1405.64
1010.415	1389.14
1010.708	1367.68
1011.001	1358.41
1011.295	1363.83
1011.588	1348.24
1011.881	1332.2
1012.173	1377.62
1012.466	1338.52
1012.759	1369.26
1013.052	1328.35
1013.344	1316.6
1013.637	1322.25
1013.93	1292.42
1014.222	1286.77
1014.514	1263.72
1014.807	1289.94
1015.099	1251.75
1015.391	1247.23
1015.683	1254.01
1015.976	1242.26
1016.268	1248.58
1016.56	1227.11
1016.851	1224.85
1017.143	1235.7
1017.435	1216.27
1017.727	1192.09
1018.018	1193.9
1018.31	1184.4
1018.602	1190.96
1018.893	1183.27
1019.185	1141.47
1019.476	1182.14
1019.767	1127.68
1020.058	1154.12
1020.35	1143.5
1020.641	1119.32
1020.932	1103.28
1021.223	1110.06
1021.514	1107.8
1021.804	1097.4
1022.095	1124.52
1022.386	1113.45
1022.677	1117.96
1022.967	1075.25
1023.258	1068.47
1023.548	1070.73
1023.839	1039.32
1024.129	1050.85
1024.419	1075.71
1024.709	1027.35
1025	1048.14
1025.29	1039.1
1025.58	1029.38
1025.87	1016.05
1026.16	997.74
1026.449	1031.19
1026.739	1020.11
1027.029	982.6
1027.319	1005.65
1027.608	1004.07
1027.898	979.44
1028.187	985.09
1028.477	969.72
1028.766	972.21
1029.055	959.55
1029.344	945.31
1029.634	931.08
1029.923	935.6
1030.212	940.57
1030.501	956.16
1030.79	929.04
1031.078	903.51
1031.367	875.26
1031.656	897.86
1031.945	901.25
1032.233	910.06
1032.522	919.33
1032.81	878.42
1033.099	868.48
1033.387	888.59
1033.675	863.73
1033.963	880.91
1034.251	877.52
1034.54	870.06
1034.828	848.14
1035.116	844.98
1035.403	833.9
1035.691	835.94
1035.979	851.31
1036.267	831.87
1036.554	843.4
1036.842	797.3
1037.129	797.3
1037.417	839.1
1037.704	783.96
1037.992	806.11
1038.279	790.29
1038.566	806.11
1038.853	806.11
1039.14	806.11
