Data from hue_280_FLMS001491_00039.txt Node
Date: Tue Feb 07 15:55:12 GMT 2017
User: dcchb
Spectrometer: FLMS00149
Trigger mode: 0
Integration Time (sec): 2.000000E-2
Scans to average: 10
Electric dark correction enabled: true
Nonlinearity correction enabled: false
Boxcar width: 0
XAxis mode: Wavelengths
Number of Pixels in Spectrum: 2048
>>>>>Begin Spectral Data<<<<<
341.393	-22.05
341.776	-22.05
342.16	-22.05
342.543	-53.01
342.927	-64.08
343.31	-76.51
343.693	-64.98
344.077	-79.45
344.46	-50.52
344.843	-43.29
345.226	-43.74
345.61	-21.82
345.993	-33.57
346.376	2.58
346.759	-21.6
347.142	33.32
347.525	44.62
347.908	60.44
348.291	74.9
348.674	92.75
349.057	126.88
349.44	123.26
349.823	136.82
350.206	169.59
350.588	186.08
350.971	214.1
351.354	218.4
351.737	231.05
352.119	231.28
352.502	267.21
352.884	275.12
353.267	267.21
353.65	288
354.032	288.23
354.414	307.66
354.797	297.27
355.179	297.72
355.562	321.9
355.944	320.99
356.326	324.84
356.709	335.91
357.091	326.19
357.473	342.69
357.855	344.04
358.238	339.3
358.62	324.84
359.002	344.95
359.384	328.23
359.766	322.35
360.148	336.59
360.53	330.94
360.912	348.56
361.294	326.64
361.676	336.59
362.057	329.58
362.439	351.28
362.821	311.28
363.203	321.22
363.584	318.73
363.966	330.71
364.348	330.71
364.729	327.32
365.111	319.19
365.493	319.41
365.874	330.26
366.256	299.3
366.637	303.82
367.019	295.46
367.4	315.12
367.781	307.66
368.163	325.74
368.544	299.53
368.925	290.71
369.306	279.87
369.688	305.63
370.069	309.47
370.45	315.12
370.831	295.91
371.212	299.3
371.593	305.85
371.974	307.44
372.355	304.27
372.736	315.57
373.117	316.02
373.498	304.95
373.879	331.39
374.26	304.5
374.641	306.08
375.021	327.55
375.402	301.56
375.783	311.96
376.163	321.67
376.544	326.42
376.925	324.38
377.305	323.03
377.686	324.84
378.066	321.22
378.447	331.16
378.827	307.44
379.208	315.8
379.588	322.58
379.968	323.93
380.349	337.94
380.729	326.87
381.109	339.3
381.489	323.25
381.87	319.41
382.25	320.54
382.63	330.71
383.01	323.03
383.39	342.01
383.77	328.9
384.15	344.04
384.53	325.06
384.91	339.98
385.29	339.3
385.67	325.97
386.049	346.08
386.429	354.44
386.809	322.35
387.189	373.65
387.568	354.89
387.948	366.19
388.328	381.33
388.707	359.86
389.087	361.9
389.466	357.15
389.846	332.97
390.225	379.07
390.605	375
390.984	352.41
391.363	352.63
391.743	366.87
392.122	365.29
392.501	364.61
392.881	387.21
393.26	371.39
393.639	370.03
394.018	373.42
394.397	388.11
394.776	389.47
395.155	362.12
395.534	385.17
395.913	376.13
396.292	373.87
396.671	393.31
397.05	422.69
397.429	403.03
397.808	401.22
398.186	390.37
398.565	390.15
398.944	409.81
399.323	400.99
399.701	394.44
400.08	395.57
400.458	448.22
400.837	427.88
401.215	407.77
401.594	423.36
401.972	391.5
402.351	424.72
402.729	436.25
403.107	434.89
403.486	424.04
403.864	406.19
404.242	429.24
404.62	453.87
404.999	455.68
405.377	454.32
405.755	458.17
406.133	466.3
406.511	454.1
406.889	465.85
407.267	451.61
407.645	492.52
408.023	488.9
408.401	499.75
408.779	481.22
409.156	489.13
409.534	504.04
409.912	502.23
410.29	514.21
410.667	507.88
411.045	522.8
411.422	511.27
411.8	508.33
412.178	518.28
412.555	530.03
412.933	551.04
413.31	550.37
413.687	574.77
414.065	587.88
414.442	556.69
414.819	565.73
415.197	585.39
415.574	585.17
415.951	619.29
416.328	609.35
416.705	607.31
417.082	634.66
417.46	643.47
417.837	641.66
418.214	651.61
418.591	656.58
418.967	681.44
419.344	659.74
419.721	676.01
420.098	680.31
420.475	696.13
420.852	698.61
421.228	707.2
421.605	709.68
421.982	733.64
422.358	727.09
422.735	735.45
423.111	740.87
423.488	765.95
423.864	762.11
424.241	778.61
424.617	780.19
424.994	803.24
425.37	782.9
425.746	805.28
426.123	811.38
426.499	800.3
426.875	857.48
427.251	827.65
427.627	886.4
428.003	876.46
428.379	877.14
428.756	909.68
429.132	903.58
429.507	930.02
429.883	944.25
430.259	934.09
430.635	927.98
431.011	959.17
431.387	950.58
431.763	979.51
432.138	1006.63
432.514	1008.21
432.89	1030.35
433.265	1009.34
433.641	1038.94
434.016	1042.56
434.392	1052.73
434.767	1113.97
435.143	1069.22
435.518	1112.84
435.894	1113.97
436.269	1131.82
436.644	1141.99
437.02	1167.3
437.395	1175.66
437.77	1186.06
438.145	1202.55
438.52	1216.56
438.895	1243.23
439.271	1255.66
439.646	1257.69
440.021	1290.01
440.395	1278.71
440.77	1260.4
441.145	1282.1
441.52	1319.39
441.895	1323.91
442.27	1340.18
442.645	1325.26
443.019	1355.09
443.394	1359.61
443.769	1360.06
444.143	1350.12
444.518	1400.51
444.892	1384.7
445.267	1359.61
445.641	1408.42
446.016	1430.34
446.39	1441.87
446.764	1444.81
447.139	1427.63
447.513	1444.81
447.887	1431.93
448.262	1489.1
448.636	1480.29
449.01	1444.13
449.384	1453.85
449.758	1492.49
450.132	1522.54
450.506	1483.68
450.88	1526.39
451.254	1520.96
451.628	1539.49
452.002	1540.85
452.376	1541.3
452.75	1567.29
453.123	1546.95
453.497	1613.62
453.871	1607.51
454.244	1630.79
454.618	1637.57
454.992	1654.07
455.365	1653.84
455.739	1692.03
456.112	1707.85
456.486	1704.91
456.859	1728.64
457.232	1744.69
457.606	1746.49
457.979	1778.13
458.352	1774.74
458.725	1806.61
459.099	1804.8
459.472	1859.71
459.845	1839.37
460.218	1841.86
460.591	1871.24
460.964	1896.32
461.337	1913.49
461.71	1936.77
462.083	1942.19
462.456	1964.12
462.829	1980.16
463.201	1994.17
463.574	2003.21
463.947	2026.03
464.32	2046.6
464.692	2075.98
465.065	2073.26
465.438	2089.76
465.81	2092.7
466.183	2133.6
466.555	2153.94
466.928	2193.49
467.3	2165.01
467.672	2187.61
468.045	2231.68
468.417	2236.42
468.789	2237.1
469.161	2268.97
469.534	2305.8
469.906	2353.48
470.278	2381.73
470.65	2372.92
471.022	2416.76
471.394	2455.18
471.766	2465.34
472.138	2480.26
472.51	2510.32
472.882	2556.42
473.253	2608.17
473.625	2606.36
473.997	2621.95
474.369	2624.44
474.74	2659.92
475.112	2678.9
475.484	2741.04
475.855	2786.24
476.227	2777.2
476.598	2852.45
476.97	2835.05
477.341	2923.64
477.713	2929.06
478.084	2962.05
478.455	3018.55
478.827	3068.72
479.198	3114.59
479.569	3131.99
479.94	3141.94
480.311	3169.06
480.682	3256.51
481.053	3311.88
481.424	3330.63
481.795	3365.66
482.166	3408.37
482.537	3438.65
482.908	3470.06
483.279	3515.49
483.65	3520.01
484.021	3595.71
484.391	3630.06
484.762	3681.58
485.133	3650.62
485.503	3728.81
485.874	3795.03
486.244	3835.03
486.615	3865.31
486.985	3897.4
487.356	3998.41
487.726	3987.79
488.097	4041.12
488.467	4035.47
488.837	4119.99
489.207	4128.8
489.578	4191.85
489.948	4198.18
490.318	4265.98
490.688	4258.97
491.058	4356.59
491.428	4366.09
491.798	4410.38
492.168	4478.63
492.538	4490.6
492.908	4551.17
493.278	4601.79
493.648	4542.13
494.017	4610.15
494.387	4646.3
494.757	4631.84
495.126	4710.71
495.496	4712.52
495.866	4761.1
496.235	4782.35
496.605	4798.16
496.974	4806.07
497.344	4864.15
497.713	4889.46
498.082	4921.55
498.452	4909.57
498.821	4970.59
499.19	4929.46
499.559	4988.22
499.928	4993.41
500.298	5063.47
500.667	5066.41
501.036	5078.16
501.405	5126.97
501.774	5112.28
502.143	5143.69
502.512	5131.94
502.88	5169.45
503.249	5193.86
503.618	5204.26
503.987	5218.04
504.356	5231.37
504.724	5260.3
505.093	5317.25
505.462	5270.47
505.83	5317.47
506.199	5385.95
506.567	5384.59
506.936	5362.9
507.304	5438.37
507.672	5450.35
508.041	5411.71
508.409	5442.44
508.777	5472.95
509.145	5552.27
509.514	5489.9
509.882	5542.78
510.25	5554.76
510.618	5590.46
510.986	5622.78
511.354	5627.97
511.722	5609.44
512.09	5673.85
512.458	5659.61
512.826	5708.88
513.193	5719.5
513.561	5674.3
513.929	5763.79
514.297	5810.12
514.664	5780.96
515.032	5788.65
515.4	5872.94
515.767	5826.16
516.135	5886.5
516.502	5831.36
516.869	5873.39
517.237	5859.83
517.604	5919.94
517.972	5949.55
518.339	6008.75
518.706	5952.71
519.073	5996.78
519.44	5985.48
519.808	6078.58
520.175	6047.85
520.542	6059.15
520.909	6076.78
521.276	6069.54
521.643	6166.94
522.009	6136.21
522.376	6145.7
522.743	6176.21
523.11	6229.54
523.477	6253.95
523.843	6243.55
524.21	6314.74
524.577	6328.52
524.943	6385.69
525.31	6368.29
525.676	6455.07
526.043	6412.81
526.409	6448.52
526.776	6519.48
527.142	6479.7
527.508	6521.74
527.874	6594.5
528.241	6608.74
528.607	6602.41
528.973	6652.13
529.339	6628.63
529.705	6726.02
530.071	6747.27
530.437	6721.96
530.803	6773.93
531.169	6762.18
531.535	6812.8
531.901	6831.56
532.267	6865.23
532.632	6852.8
532.998	6814.61
533.364	6865.23
533.73	6911.56
534.095	6948.62
534.461	6933.93
534.826	7010.76
535.192	6966.24
535.557	7025
535.923	7016.86
536.288	7034.26
536.653	7037.43
537.019	7010.76
537.384	7132.11
537.749	7051.89
538.114	7126.01
538.479	7138.22
538.845	7086.01
539.21	7094.6
539.575	7189.06
539.94	7147.26
540.305	7189.51
540.67	7124.21
541.034	7164.43
541.399	7238.33
541.764	7261.38
542.129	7278.78
542.494	7241.94
542.858	7275.16
543.223	7287.14
543.587	7353.35
543.952	7300.02
544.316	7361.49
544.681	7327.59
545.045	7374.59
545.41	7446.46
545.774	7398.32
546.138	7426.8
546.503	7357.87
546.867	7462.28
547.231	7527.36
547.595	7451.88
547.959	7507.47
548.324	7546.57
548.688	7458.66
549.052	7505.89
549.416	7491.43
549.779	7559
550.143	7584.53
550.507	7601.71
550.871	7583.85
551.235	7618.2
551.599	7610.97
551.962	7613.01
552.326	7676.06
552.689	7697.98
553.053	7647.81
553.417	7708.37
553.78	7772.32
554.143	7696.39
554.507	7750.86
554.87	7759.67
555.234	7803.96
555.597	7750.4
555.96	7810.51
556.323	7840.12
556.686	7846.67
557.05	7846.9
557.413	7816.84
557.776	7924.86
558.139	7899.55
558.502	7964.18
558.865	7952.88
559.228	7977.06
559.59	8046.21
559.953	7994.69
560.316	8097.97
560.679	8052.99
561.041	8089.83
561.404	8101.35
561.767	8178.64
562.129	8140.68
562.492	8289.6
562.854	8161.69
563.217	8224.97
563.579	8220.9
563.941	8279.88
564.304	8379.99
564.666	8355.13
565.028	8408.69
565.39	8430.39
565.753	8364.62
566.115	8496.82
566.477	8478.07
566.839	8527.33
567.201	8571.4
567.563	8502.7
567.925	8613.43
568.287	8623.37
568.648	8625.41
569.01	8667.67
569.372	8684.39
569.734	8681.9
570.095	8748.12
570.457	8815.46
570.819	8819.08
571.18	8815.01
571.542	8840.54
571.903	8919.41
572.265	8881.67
572.626	8973.42
572.987	8944.04
573.349	9001.67
573.71	9020.88
574.071	9028.11
574.432	9116.47
574.794	9180.42
575.155	9099.07
575.516	9135.9
575.877	9198.28
576.238	9315.56
576.599	9370.02
576.96	9316.92
577.32	9387.42
577.681	9457.03
578.042	9434.43
578.403	9413.64
578.763	9501.54
579.124	9600.75
579.485	9603.24
579.845	9715.55
580.206	9683.23
580.566	9719.62
580.927	9789.45
581.287	9834.19
581.648	9875.09
582.008	9909.89
582.368	10017.91
582.728	10006.16
583.089	10067.63
583.449	10082.09
583.809	10149.66
584.169	10250.68
584.529	10205.48
584.889	10356.21
585.249	10309.43
585.609	10396.89
585.969	10459.94
586.329	10561.63
586.688	10609.76
587.048	10653.83
587.408	10674.85
587.768	10766.6
588.127	10842.98
588.487	10838.46
588.846	10996.65
589.206	10969.75
589.565	11061.95
589.925	11153.03
590.284	11203.19
590.643	11269.41
591.003	11339.01
591.362	11480.93
591.721	11416.52
592.08	11470.53
592.44	11621.49
592.799	11661.26
593.158	11723.63
593.517	11808.83
593.876	11873.46
594.235	11930.18
594.593	11941.03
594.952	12070.74
595.311	12044.3
595.67	12178.31
596.029	12305.09
596.387	12302.15
596.746	12350.06
597.104	12405.87
597.463	12467.79
597.822	12567
598.18	12522.48
598.538	12560.67
598.897	12762.93
599.255	12700.1
599.613	12858.29
599.972	12829.14
600.33	12959.31
600.688	12899.42
601.046	13061.9
601.404	13128.12
601.762	13152.97
602.12	13221.45
602.478	13253.31
602.836	13179.19
603.194	13273.65
603.552	13303.25
603.91	13342.35
604.268	13406.98
604.625	13479.07
604.983	13522.91
605.341	13439.07
605.698	13598.39
606.056	13687.42
606.413	13640.64
606.771	13753.64
607.128	13890.81
607.485	13750.92
607.843	13783.92
608.2	13842.67
608.557	13936.91
608.914	13904.37
609.272	14029.79
609.629	14029.56
609.986	14012.39
610.343	13987.08
610.7	14229.33
611.057	14183.91
611.414	14178.94
611.771	14215.77
612.127	14270.91
612.484	14307.52
612.841	14366.5
613.198	14326.05
613.554	14271.81
613.911	14453.5
614.267	14545.25
614.624	14423.45
614.98	14503.67
615.337	14624.8
615.693	14622.99
616.05	14606.49
616.406	14713.16
616.762	14689.2
617.118	14609.43
617.475	14689.43
617.831	14774.85
618.187	14814.4
618.543	14745.02
618.899	14865.02
619.255	14821.18
619.611	14801.07
619.967	14814.4
620.323	14735.3
620.678	14842.87
621.034	14842.19
621.39	14888.29
621.746	14888.97
622.101	15017.11
622.457	14902.53
622.812	14965.13
623.168	15063.66
623.523	14993.38
623.879	15034.96
624.234	14962.64
624.589	14984.79
624.945	15085.58
625.3	15003.77
625.655	15067.5
626.01	15053.94
626.365	15043.77
626.72	15033.6
627.075	15095.3
627.43	15085.8
627.785	15074.96
628.14	15088.06
628.495	15009.2
628.85	14956.32
629.205	15053.04
629.559	15160.38
629.914	15010.78
630.269	15066.14
630.623	15076.54
630.978	14994.05
631.332	14949.76
631.687	15133.49
632.041	14905.24
632.396	14971.46
632.75	14953.38
633.104	14950.67
633.459	14928.97
633.813	14832.25
634.167	14863.21
634.521	14874.28
634.875	14899.37
635.229	14872.93
635.583	14872.7
635.937	14944.34
636.291	14841.52
636.645	14811.23
636.999	14785.02
637.352	14813.95
637.706	14645.36
638.06	14776.66
638.413	14783.66
638.767	14686.27
639.121	14827.96
639.474	14681.29
639.828	14600.17
640.181	14741.86
640.534	14746.6
640.888	14623.22
641.241	14559.72
641.594	14618.47
641.947	14734.85
642.301	14682.65
642.654	14722.65
643.007	14559.49
643.36	14608.75
643.713	14612.37
644.066	14624.57
644.419	14538.93
644.771	14462.77
645.124	14397.01
645.477	14343.68
645.83	14244.92
646.182	14191.36
646.535	14155.88
646.888	14152.72
647.24	14183.91
647.593	14162.66
647.945	14262.1
648.298	14025.72
648.65	14119.5
649.002	14031.82
649.355	14108.43
649.707	14110.46
650.059	14147.07
650.411	14324.02
650.763	14374.41
651.115	14527.85
651.467	14524.01
651.819	14497.8
652.171	14493.05
652.523	14440.4
652.875	14446.95
653.227	14425.93
653.578	14487.4
653.93	14503.67
654.282	14455.99
654.633	14420.06
654.985	14465.48
655.337	14449.44
655.688	14538.02
656.039	14477.91
656.391	14433.39
656.742	14441.98
657.094	14461.64
657.445	14494.18
657.796	14397.46
658.147	14369.89
658.498	14492.37
658.849	14458.7
659.2	14477.23
659.551	14489.21
659.902	14496.89
660.253	14475.65
660.604	14535.99
660.955	14502.54
661.306	14504.58
661.656	14471.81
662.007	14499.83
662.358	14523.11
662.708	14520.17
663.059	14472.71
663.409	14401.53
663.76	14527.4
664.11	14611.92
664.461	14569.43
664.811	14574.63
665.161	14564.91
665.511	14449.21
665.862	14589.09
666.212	14573.73
666.562	14564.46
666.912	14571.69
667.262	14517.23
667.612	14562.2
667.962	14601.52
668.312	14535.99
668.662	14550
669.011	14590
669.361	14497.34
669.711	14499.6
670.06	14471.58
670.41	14506.84
670.76	14439.49
671.109	14478.81
671.459	14441.75
671.808	14468.87
672.157	14461.87
672.507	14433.39
672.856	14361.3
673.205	14441.75
673.554	14450.34
673.904	14382.32
674.253	14442.66
674.602	14448.76
674.951	14173.74
675.3	14189.56
675.649	14384.35
675.998	14278.82
676.346	14237.92
676.695	14314.52
677.044	14243.57
677.393	14268.88
677.741	14303.45
678.09	14250.12
678.438	14224.36
678.787	14228.88
679.135	14207.18
679.484	14214.41
679.832	14249.44
680.181	14086.28
680.529	14116.34
680.877	14094.87
681.225	14117.92
681.573	14125.15
681.922	14036.79
682.27	13996.34
682.618	13998.15
682.966	13999.73
683.314	13971.48
683.661	13938.04
684.009	13851.03
684.357	13836.8
684.705	13884.48
685.053	13748.66
685.4	13842.67
685.748	13809.23
686.095	13762.67
686.443	13644.03
686.79	13615.11
687.138	13706.86
687.485	13679.97
687.832	13575.11
688.18	13598.39
688.527	13602.45
688.874	13499.4
689.221	13488.33
689.568	13445.4
689.915	13290.14
690.262	13478.61
690.609	13291.95
690.956	13246.3
691.303	13233.65
691.65	13210.15
691.997	13185.29
692.344	13119.98
692.69	13089.7
693.037	13110.26
693.383	12925.18
693.73	13052.86
694.077	12945.52
694.423	12917.05
694.769	12837.5
695.116	12769.71
695.462	12750.27
695.808	12727.9
696.155	12738.07
696.501	12623.72
696.847	12672.08
697.193	12531.97
697.539	12624.4
697.885	12459.66
698.231	12489.04
698.577	12462.6
698.923	12466.21
699.269	12299.44
699.614	12206.33
699.96	12210.17
700.306	12235.48
700.651	12154.81
700.997	12030.97
701.342	11996.39
701.688	12063.74
702.033	11990.74
702.379	11968.82
702.724	11858.32
703.069	11899
703.415	11781.71
703.76	11733.12
704.105	11733.12
704.45	11769.05
704.795	11663.52
705.14	11666.91
705.485	11541.49
705.83	11465.56
706.175	11575.84
706.52	11501.94
706.865	11466.69
707.209	11423.53
707.554	11390.31
707.899	11425.56
708.243	11345.34
708.588	11360.48
708.932	11225.11
709.277	11245.23
709.621	11308.28
709.966	11081.84
710.31	11118.68
710.654	11071.45
710.998	11058.79
711.342	11060.15
711.687	11023.54
712.031	11020.83
712.375	10928.17
712.719	10922.07
713.063	10940.6
713.407	10974.73
713.75	10888.63
714.094	10909.87
714.438	10764.34
714.782	10769.99
715.125	10733.38
715.469	10808.85
715.812	10784
716.156	10667.84
716.499	10670.33
716.843	10742.19
717.186	10667.61
717.53	10694.51
717.873	10675.52
718.216	10620.38
718.559	10590.55
718.902	10449.32
719.246	10545.81
719.589	10488.86
719.932	10432.82
720.275	10494.96
720.617	10561.86
720.96	10524.12
721.303	10481.63
721.646	10489.31
721.989	10421.29
722.331	10456.1
722.674	10412.25
723.016	10389.2
723.359	10354.63
723.701	10403.89
724.044	10305.59
724.386	10330.45
724.729	10390.11
725.071	10299.72
725.413	10362.09
725.755	10381.07
726.097	10240.73
726.439	10296.55
726.782	10269.21
727.124	10302.2
727.465	10211.58
727.807	10214.75
728.149	10282.54
728.491	10225.37
728.833	10244.58
729.175	10209.77
729.516	10147.85
729.858	10239.6
730.199	10220.62
730.541	10200.96
730.882	10100.4
731.224	10171.81
731.565	10211.81
731.906	10184.92
732.248	10185.37
732.589	10107.4
732.93	10061.76
733.271	10147.63
733.612	10213.39
733.953	10165.71
734.294	10132.49
734.635	10171.13
734.976	10153.05
735.317	10177.68
735.658	10158.7
735.999	10187.18
736.339	10134.52
736.68	10203.67
737.021	10196.67
737.361	10180.62
737.702	10197.8
738.042	10187.63
738.383	10181.07
738.723	10221.3
739.063	10193.73
739.404	10259.72
739.744	10247.97
740.084	10246.16
740.424	10265.82
740.764	10244.12
741.104	10336.78
741.444	10229.89
741.784	10245.93
742.124	10317.34
742.464	10300.39
742.804	10341.97
743.143	10328.64
743.483	10350.79
743.823	10272.6
744.162	10355.31
744.502	10420.16
744.841	10412.93
745.181	10493.38
745.52	10474.85
745.86	10509.65
746.199	10608.63
746.538	10585.36
746.877	10618.12
747.216	10743.77
747.556	10712.13
747.895	10848.85
748.234	10855.63
748.573	10917.55
748.911	10939.7
749.25	11014.5
749.589	11045.68
749.928	11089.07
750.267	11229.86
750.605	11212.46
750.944	11303.08
751.283	11393.02
751.621	11549.63
751.96	11517.76
752.298	11665.55
752.636	11741.49
752.975	11778.77
753.313	11918.88
753.651	12088.37
753.989	12052.89
754.327	12129.95
754.666	12216.27
755.004	12434.35
755.342	12566.32
755.679	12610.61
756.017	12656.26
756.355	12837.28
756.693	13006.54
757.031	13125.86
757.368	13211.28
757.706	13390.26
758.044	13537.82
758.381	13632.96
758.719	13736.23
759.056	13825.72
759.394	14039.05
759.731	14059.39
760.068	14243.57
760.405	14372.83
760.743	14495.76
761.08	14701.41
761.417	14822.53
761.754	14890.1
762.091	15168.97
762.428	15209.64
762.765	15299.81
763.102	15548.39
763.438	15639.46
763.775	15595.85
764.112	15897.53
764.449	16036.74
764.785	16099.34
765.122	16218.88
765.458	16347.01
765.795	16502.72
766.131	16658.42
766.467	16649.6
766.804	16833.78
767.14	16833.1
767.476	17014.57
767.812	17101.8
768.148	17327.33
768.485	17292.3
768.821	17316.25
769.157	17480.09
769.492	17547.89
769.828	17695.68
770.164	17628.34
770.5	17715.57
770.836	17879.85
771.171	17791.72
771.507	17959.63
771.842	17865.39
772.178	18133.86
772.513	18134.76
772.849	18069.91
773.184	18197.81
773.519	18225.83
773.855	18269.22
774.19	18270.58
774.525	18242.11
774.86	18356
775.195	18377.02
775.53	18346.51
775.865	18367.3
776.2	18325.27
776.535	18294.31
776.87	18426.51
777.205	18360.97
777.539	18406.85
777.874	18451.14
778.209	18393.97
778.543	18448.2
778.878	18404.13
779.212	18388.32
779.547	18424.47
779.881	18483.45
780.215	18418.82
780.55	18500.63
780.884	18454.53
781.218	18360.75
781.552	18432.61
781.886	18235.55
782.22	18304.7
782.554	18360.97
782.888	18294.31
783.222	18239.62
783.556	18124.59
783.889	18167.98
784.223	18173.18
784.557	18113.52
784.89	18132.5
785.224	18038.27
785.557	18029.91
785.891	18043.69
786.224	17992.39
786.558	17986.29
786.891	17876.92
787.224	17814.09
787.557	17747.2
787.891	17837.6
788.224	17851.83
788.557	17843.02
788.89	17795.11
789.223	17728.67
789.556	17668.79
789.888	17661.33
790.221	17651.61
790.554	17479.41
790.887	17493.42
791.219	17528.45
791.552	17558.96
791.884	17518.96
792.217	17380.66
792.549	17323.26
792.882	17219.53
793.214	17162.36
793.546	17320.55
793.879	17131.63
794.211	17025.19
794.543	17198.97
794.875	17050.95
795.207	17193.32
795.539	17003.27
795.871	16971.86
796.203	16859.32
796.535	16775.93
796.867	16823.84
797.198	16720.56
797.53	16680.11
797.862	16610.28
798.193	16649.83
798.525	16530.06
798.856	16674.01
799.188	16398.54
799.519	16336.39
799.85	16368.71
800.182	16345.66
800.513	16404.64
800.844	16240.58
801.175	16299.11
801.506	16233.12
801.837	16178.66
802.168	16192.44
802.499	16123.97
802.83	15982.5
803.161	16020.47
803.491	16013.24
803.822	15918.78
804.153	15922.62
804.483	15801.27
804.814	15770.08
805.145	15740.02
805.475	15722.4
805.805	15634.49
806.136	15659.8
806.466	15612.34
806.796	15564.21
807.126	15500.48
807.457	15466.81
807.787	15396.3
808.117	15414.16
808.447	15342.97
808.777	15337.77
809.107	15280.15
809.436	15287.83
809.766	15341.39
810.096	15161.73
810.426	15091.45
810.755	15161.73
811.085	15093.04
811.414	14988.86
811.744	15003.55
812.073	14954.28
812.403	15037.9
812.732	14943.66
813.061	14951.57
813.39	14782.76
813.719	14757
814.049	14958.12
814.378	14790.9
814.707	14727.85
815.036	14807.62
815.365	14680.39
815.693	14482.43
816.022	14545.93
816.351	14533.28
816.68	14505.03
817.008	14603.56
817.337	14398.36
817.665	14371.92
817.994	14403.56
818.322	14370.34
818.651	14341.42
818.979	14260.51
819.307	14370.34
819.636	14300.97
819.964	14208.31
820.292	14239.27
820.62	14192.49
820.948	14218.03
821.276	14274.75
821.604	14142.55
821.932	14228.65
822.259	14156.11
822.587	14225.49
822.915	14147.98
823.243	14101.42
823.57	14089.9
823.898	14206.28
824.225	14088.54
824.553	14103
824.88	14177.13
825.207	14110.69
825.535	14104.59
825.862	14112.5
826.189	14078.6
826.516	14185.04
826.843	14220.52
827.17	14244.02
827.497	14213.51
827.824	14195.88
828.151	14269.33
828.478	14150.01
828.805	14244.47
829.131	14172.16
829.458	14210.57
829.785	14098.49
830.111	14136.9
830.438	14227.52
830.764	14198.14
831.09	14101.87
831.417	14009
831.743	14176.45
832.069	14133.74
832.395	14116.79
832.722	14159.95
833.048	14088.32
833.374	14102.78
833.7	14025.49
834.026	13993.86
834.351	13999.28
834.677	14026.4
835.003	14018.49
835.329	13915.67
835.654	13948.43
835.98	13871.15
836.306	13912.5
836.631	13931.03
836.956	13947.3
837.282	13977.58
837.607	13897.36
837.932	13874.31
838.258	13871.15
838.583	13820.98
838.908	13750.25
839.233	13781.66
839.558	13753.18
839.883	13670.93
840.208	13679.51
840.533	13682.45
840.858	13632.06
841.182	13630.02
841.507	13624.15
841.832	13569.01
842.156	13496.47
842.481	13513.42
842.805	13523.13
843.13	13344.38
843.454	13454.66
843.778	13365.4
844.103	13307.55
844.427	13272.97
844.751	13408.33
845.075	13286.76
845.399	13199.98
845.723	13115.23
846.047	13208.57
846.371	13028.46
846.695	13039.76
847.019	12917.05
847.343	12876.6
847.666	12858.74
847.99	12754.57
848.313	12825.3
848.637	12727.9
848.96	12630.95
849.284	12718.63
849.607	12463.5
849.931	12529.71
850.254	12445.65
850.577	12385.76
850.9	12327.01
851.223	12319.55
851.546	12223.05
851.869	12204.98
852.192	12270.06
852.515	12196.61
852.838	12104.87
853.161	12091.08
853.483	12070.97
853.806	12002.95
854.129	11903.06
854.451	11904.42
854.774	11796.62
855.096	11858.54
855.419	11737.42
855.741	11781.26
856.063	11727.02
856.385	11743.97
856.708	11650.41
857.03	11606.12
857.352	11607.48
857.674	11522.51
857.996	11452.68
858.318	11424.88
858.64	11447.03
858.961	11394.15
859.283	11356.86
859.605	11320.71
859.926	11363.19
860.248	11236.41
860.57	11160.48
860.891	11216.75
861.212	11194.83
861.534	11141.73
861.855	11082.97
862.176	11122.74
862.498	11121.39
862.819	11151.44
863.14	11060.15
863.461	10972.69
863.782	11039.13
864.103	11028.74
864.424	10943.54
864.745	10932.24
865.065	10902.64
865.386	10863.99
865.707	10872.13
866.027	10915.29
866.348	10833.49
866.668	10835.29
866.989	10801.4
867.309	10792.81
867.63	10748.06
867.95	10753.26
868.27	10660.16
868.59	10742.64
868.91	10695.41
869.23	10677.56
869.55	10539.03
869.87	10738.57
870.19	10670.78
870.51	10671.91
870.83	10580.39
871.15	10632.36
871.469	10576.32
871.789	10559.6
872.109	10509.2
872.428	10481.63
872.748	10525.47
873.067	10501.97
873.386	10537.45
873.706	10427.17
874.025	10436.89
874.344	10357.34
874.663	10356.44
874.982	10377
875.301	10358.47
875.62	10314.86
875.939	10315.76
876.258	10188.53
876.577	10256.33
876.896	10285.7
877.214	10257
877.533	10243.45
877.852	10244.8
878.17	10196.44
878.489	10132.94
878.807	10191.92
879.125	10201.19
879.444	10080.96
879.762	10126.16
880.08	10094.3
880.398	10032.6
880.716	10044.81
881.034	10040.96
881.352	10040.29
881.67	9940.4
881.988	9925.04
882.306	9876.22
882.624	9860.63
882.941	9824.7
883.259	9834.42
883.577	9854.98
883.894	9820.18
884.212	9750.58
884.529	9825.6
884.846	9774.53
885.164	9699.28
885.481	9686.4
885.798	9686.17
886.115	9612.73
886.432	9642.33
886.75	9606.4
887.067	9616.8
887.383	9562.79
887.7	9552.39
888.017	9555.1
888.334	9538.83
888.651	9492.28
888.967	9418.38
889.284	9398.27
889.6	9402.56
889.917	9287.54
890.233	9350.59
890.55	9314.88
890.866	9268.1
891.182	9282.34
891.498	9256.35
891.815	9226.07
892.131	9171.16
892.447	9186.3
892.763	9114.66
893.079	9073.08
893.395	9119.18
893.71	9100.2
894.026	9047.09
894.342	9043.02
894.657	8920.77
894.973	8975.46
895.289	8917.83
895.604	8977.49
895.92	8863.82
896.235	8819.3
896.55	8825.86
896.865	8744.95
897.181	8736.37
897.496	8740.66
897.811	8742.02
898.126	8640.78
898.441	8617.5
898.756	8529.14
899.071	8530.04
899.386	8524.62
899.7	8492.76
900.015	8467.22
900.33	8354
900.644	8348.35
900.959	8381.12
901.273	8338.64
901.588	8313.1
901.902	8285.3
902.216	8244.4
902.531	8198.53
902.845	8171.64
903.159	8206.89
903.473	8155.14
903.787	8076.27
904.101	8078.3
904.415	7970.74
904.729	7958.99
905.042	7958.99
905.356	7939.1
905.67	7864.3
905.984	7934.35
906.297	7850.06
906.611	7846.9
906.924	7823.17
907.237	7716.73
907.551	7758.76
907.864	7673.34
908.177	7720.12
908.491	7670.41
908.804	7603.97
909.117	7580.24
909.43	7462.28
909.743	7524.19
910.056	7433.12
910.368	7503.18
910.681	7434.03
910.994	7413.92
911.307	7321.94
911.619	7274.26
911.932	7333.69
912.244	7227.03
912.557	7230.87
912.869	7157.2
913.181	7193.13
913.494	7119.23
913.806	7086.92
914.118	7053.92
914.43	7051.66
914.742	6972.34
915.054	6990.42
915.366	6977.32
915.678	6937.54
915.99	6885.12
916.302	6866.58
916.613	6862.52
916.925	6835.4
917.236	6824.55
917.548	6733.71
917.859	6775.29
918.171	6761.05
918.482	6636.53
918.794	6656.87
919.105	6639.92
919.416	6625.91
919.727	6566.48
920.038	6564.45
920.349	6489.42
920.66	6486.93
920.971	6461.4
921.282	6459.36
921.593	6353.6
921.903	6368.52
922.214	6324.23
922.525	6294.62
922.835	6287.39
923.146	6248.07
923.456	6251.69
923.767	6237.67
924.077	6216.43
924.387	6165.36
924.697	6164
925.008	6121.29
925.318	6059.15
925.628	6052.82
925.938	6073.16
926.248	5985.7
926.558	6025.7
926.867	5999.49
927.177	5979.6
927.487	5932.6
927.796	5831.36
928.106	5865.93
928.416	5838.59
928.725	5822.09
929.034	5742.32
929.344	5762.43
929.653	5773.28
929.962	5763.79
930.271	5734.64
930.581	5644.24
930.89	5653.28
931.199	5649.67
931.508	5646.05
931.817	5597.47
932.125	5580.07
932.434	5603.12
932.743	5514.76
933.051	5488.99
933.36	5458.49
933.669	5423.23
933.977	5460.52
934.286	5427.3
934.594	5424.14
934.902	5340.3
935.21	5330.13
935.519	5329.9
935.827	5300.98
936.135	5289.68
936.443	5262.79
936.751	5232.28
937.059	5235.89
937.367	5234.99
937.674	5135.11
937.982	5177.82
938.29	5129
938.597	5085.84
938.905	5009.68
939.213	5051.27
939.52	5031.38
939.827	5011.27
940.135	4998.84
940.442	4983.7
940.749	4972.17
941.056	4946.41
941.363	4896.69
941.67	4874.1
941.977	4870.93
942.284	4828.22
942.591	4848.33
942.898	4801.1
943.205	4812.4
943.511	4740.31
943.818	4767.43
944.125	4707.55
944.431	4722.69
944.738	4649.69
945.044	4678.62
945.35	4648.56
945.657	4592.07
945.963	4602.01
946.269	4625.74
946.575	4581.9
946.881	4537.83
947.187	4541.22
947.493	4497.83
947.799	4475.46
948.105	4446.31
948.41	4469.59
948.716	4418.97
949.022	4434.56
949.327	4439.3
949.633	4335.13
949.938	4368.35
950.244	4376.93
950.549	4258.74
950.854	4297.84
951.16	4322.25
951.465	4268.69
951.77	4225.98
952.075	4214.68
952.38	4199.99
952.685	4206.77
952.99	4130.84
953.294	4149.37
953.599	4130.61
953.904	4080.9
954.209	4104.85
954.513	4061.46
954.818	4023.5
955.122	4011.97
955.426	4020.78
955.731	4022.59
956.035	3990.5
956.339	3972.65
956.643	3960.45
956.948	3934.01
957.252	3922.71
957.556	3948.47
957.86	3884.74
958.163	3870.28
958.467	3864.86
958.771	3861.24
959.075	3887
959.378	3821.24
959.682	3779.21
959.985	3764.07
960.289	3748.02
960.592	3718.19
960.896	3716.84
961.199	3717.52
961.502	3693.11
961.805	3673.45
962.108	3637.07
962.411	3678.65
962.714	3578.54
963.017	3616.95
963.32	3663.96
963.623	3563.85
963.926	3608.82
964.228	3564.98
964.531	3540.34
964.833	3518.65
965.136	3501.02
965.438	3475.71
965.741	3453.12
966.043	3455.15
966.345	3455.15
966.648	3421.93
966.95	3394.36
967.252	3399.33
967.554	3384.19
967.856	3357.52
968.158	3395.94
968.46	3351.88
968.761	3365.89
969.063	3331.54
969.365	3299
969.666	3300.58
969.968	3272.56
970.269	3276.17
970.571	3253.8
970.872	3215.38
971.174	3208.15
971.475	3200.24
971.776	3193.01
972.077	3175.61
972.378	3147.13
972.679	3133.8
972.98	3115.72
973.281	3077.98
973.582	3110.75
973.883	3114.82
974.183	3109.85
974.484	3064.65
974.785	3054.26
975.085	3029.85
975.386	3043.41
975.686	3019
975.986	2986.24
976.287	2973.35
976.587	2936.29
976.887	2929.51
977.187	2939.91
977.487	2910.53
977.787	2926.35
978.087	2872.11
978.387	2873.02
978.687	2873.24
978.987	2889.74
979.286	2831.66
979.586	2854.04
979.885	2770.2
980.185	2824.88
980.484	2829.85
980.784	2772.68
981.083	2798.67
981.382	2770.65
981.682	2733.59
981.981	2733.59
982.28	2725.45
982.579	2686.36
982.878	2693.36
983.177	2666.7
983.475	2673.7
983.774	2662.63
984.073	2642.29
984.372	2638.67
984.67	2661.27
984.969	2643.19
985.267	2588.73
985.566	2582.18
985.864	2559.81
986.162	2616.3
986.461	2547.6
986.759	2545.12
987.057	2566.59
987.355	2544.44
987.653	2520.26
987.951	2479.58
988.249	2474.38
988.547	2487.72
988.844	2474.61
989.142	2454.05
989.44	2438.9
989.737	2404.56
990.035	2421.73
990.332	2414.95
990.63	2398.23
990.927	2369.53
991.224	2372.47
991.521	2348.96
991.819	2353.26
992.116	2367.04
992.413	2302.64
992.71	2315.52
993.006	2302.64
993.303	2314.39
993.6	2266.25
993.897	2302.86
994.193	2284.78
994.49	2268.74
994.787	2241.85
995.083	2226.93
995.379	2211.11
995.676	2201.17
995.972	2212.92
996.268	2198.01
996.565	2173.38
996.861	2122.98
997.157	2175.41
997.453	2152.58
997.749	2146.03
998.044	2084.11
998.34	2127.05
998.636	2105.81
998.932	2110.1
999.227	2089.31
999.523	2068.07
999.818	2063.77
1000.114	2052.47
1000.409	2055.86
1000.704	2040.05
1001	2033.27
1001.295	1990.56
1001.59	2003.21
1001.885	1972.25
1002.18	1955.75
1002.475	1962.53
1002.77	1949.43
1003.065	1947.84
1003.359	1939.48
1003.654	1915.98
1003.949	1885.25
1004.243	1903.33
1004.538	1877.11
1004.832	1877.34
1005.127	1898.81
1005.421	1846.15
1005.715	1837.56
1006.009	1828.53
1006.304	1850.22
1006.598	1815.42
1006.892	1811.12
1007.186	1808.64
1007.48	1806.38
1007.773	1764.35
1008.067	1756.66
1008.361	1763.22
1008.655	1764.12
1008.948	1746.95
1009.242	1753.05
1009.535	1717.79
1009.829	1690
1010.122	1710.79
1010.415	1712.82
1010.708	1715.76
1011.001	1661.07
1011.295	1671.24
1011.588	1654.74
1011.881	1627.4
1012.173	1653.39
1012.466	1619.72
1012.759	1619.49
1013.052	1624.91
1013.344	1610.68
1013.637	1587.85
1013.93	1583.79
1014.222	1580.4
1014.514	1552.15
1014.807	1559.61
1015.099	1539.72
1015.391	1546.95
1015.683	1509.44
1015.976	1499.49
1016.268	1501.08
1016.56	1482.77
1016.851	1468.99
1017.143	1483.9
1017.435	1456.78
1017.727	1454.98
1018.018	1450.46
1018.31	1454.3
1018.602	1457.01
1018.893	1407.29
1019.185	1425.82
1019.476	1403.9
1019.767	1405.26
1020.058	1384.47
1020.35	1384.02
1020.641	1355.54
1020.932	1351.48
1021.223	1373.4
1021.514	1356.45
1021.804	1341.31
1022.095	1309.89
1022.386	1327.07
1022.677	1332.72
1022.967	1318.48
1023.258	1299.73
1023.548	1290.46
1023.839	1276.22
1024.129	1266.96
1024.419	1247.07
1024.709	1262.66
1025	1230.12
1025.29	1237.81
1025.58	1237.13
1025.87	1230.12
1026.16	1196.68
1026.449	1183.57
1026.739	1174.76
1027.029	1198.26
1027.319	1163.91
1027.608	1171.37
1027.898	1178.37
1028.187	1164.59
1028.477	1156.45
1028.766	1141.76
1029.055	1145.38
1029.344	1128.2
1029.634	1141.09
1029.923	1123.91
1030.212	1121.2
1030.501	1117.58
1030.79	1095.21
1031.078	1041.43
1031.367	1097.7
1031.656	1089.11
1031.945	1057.02
1032.233	1082.1
1032.522	1070.81
1032.81	1031.26
1033.099	1061.09
1033.387	1027.64
1033.675	1010.47
1033.963	1008.21
1034.251	1012.95
1034.54	1011.37
1034.828	1012.05
1035.116	971.37
1035.403	975.21
1035.691	964.82
1035.979	1000.07
1036.267	954.88
1036.554	964.37
1036.842	956.91
1037.129	955.33
1037.417	921.88
1037.704	939.28
1037.992	915.56
1038.279	905.16
1038.566	917.36
1038.853	917.36
1039.14	917.36
