Data from hue_270_FLMS001491_00065.txt Node
Date: Tue Feb 07 15:57:32 GMT 2017
User: dcchb
Spectrometer: FLMS00149
Trigger mode: 0
Integration Time (sec): 2.000000E-2
Scans to average: 10
Electric dark correction enabled: true
Nonlinearity correction enabled: false
Boxcar width: 0
XAxis mode: Wavelengths
Number of Pixels in Spectrum: 2048
>>>>>Begin Spectral Data<<<<<
341.393	-11.69
341.776	-11.69
342.16	-11.69
342.543	-52.37
342.927	-60.96
343.31	-80.39
343.693	-60.05
344.077	-53.73
344.46	-52.15
344.843	-47.4
345.226	-59.15
345.61	-29.32
345.993	-17.8
346.376	-7.4
346.759	29.66
347.142	23.11
347.525	30.11
347.908	61.3
348.291	80.73
348.674	67.17
349.057	115.31
349.44	120.28
349.823	130.67
350.206	145.82
350.588	197.34
350.971	198.24
351.354	229.88
351.737	219.94
352.119	241.63
352.502	261.97
352.884	252.71
353.267	264.23
353.65	280.05
354.032	282.99
354.414	299.26
354.797	304.68
355.179	314.17
355.562	312.36
355.944	325.25
356.326	324.79
356.709	321.4
357.091	328.86
357.473	339.48
357.855	340.84
358.238	338.58
358.62	315.98
359.002	311.91
359.384	317.79
359.766	343.32
360.148	327.96
360.53	342.42
360.912	313.49
361.294	353.49
361.676	327.05
362.057	332.48
362.439	346.94
362.821	335.41
363.203	334.06
363.584	339.26
363.966	299.94
364.348	320.95
364.729	312.82
365.111	313.04
365.493	316.21
365.874	300.61
366.256	331.12
366.637	312.82
367.019	323.44
367.4	313.95
367.781	309.88
368.163	315.53
368.544	296.09
368.925	303.78
369.306	304
369.688	306.94
370.069	304
370.45	294.51
370.831	318.24
371.212	304.68
371.593	301.97
371.974	303.1
372.355	315.08
372.736	322.53
373.117	292.93
373.498	298.13
373.879	310.1
374.26	313.95
374.641	313.95
375.021	329.99
375.402	318.24
375.783	297.22
376.163	309.65
376.544	334.06
376.925	335.87
377.305	316.43
377.686	334.06
378.066	315.3
378.447	314.62
378.827	314.4
379.208	314.85
379.588	314.62
379.968	330.44
380.349	329.99
380.729	324.34
381.109	328.64
381.489	336.32
381.87	336.77
382.25	319.6
382.63	352.59
383.01	341.06
383.39	349.2
383.77	335.41
384.15	340.16
384.53	349.65
384.91	351.91
385.29	356.66
385.67	341.06
386.049	336.54
386.429	331.35
386.809	349.65
387.189	357.56
387.568	336.54
387.948	354.62
388.328	348.07
388.707	352.14
389.087	361.63
389.466	362.76
389.846	372.25
390.225	367.5
390.605	351.46
390.984	358.69
391.363	363.44
391.743	367.96
392.122	380.39
392.501	358.24
392.881	369.54
393.26	371.57
393.639	383.78
394.018	395.75
394.397	386.71
394.776	416.54
395.155	383.1
395.534	367.05
395.913	374.74
396.292	398.46
396.671	394.4
397.05	406.37
397.429	391.01
397.808	382.42
398.186	396.43
398.565	388.07
398.944	393.49
399.323	384
399.701	410.22
400.08	408.18
400.458	402.53
400.837	435.3
401.215	410.89
401.594	406.83
401.972	410.89
402.351	446.82
402.729	411.35
403.107	441.17
403.486	415.19
403.864	419.03
404.242	446.15
404.62	432.81
404.999	432.59
405.377	435.53
405.755	449.76
406.133	457.45
406.511	457.22
406.889	489.08
407.267	484.56
407.645	480.04
408.023	466.71
408.401	443.89
408.779	499.25
409.156	475.52
409.534	483.89
409.912	486.37
410.29	488.86
410.667	494.05
411.045	532.25
411.422	515.52
411.8	527.73
412.178	531.34
412.555	524.56
412.933	552.58
413.31	558.01
413.687	560.04
414.065	561.4
414.442	600.49
414.819	583.77
415.197	581.51
415.574	582.41
415.951	590.32
416.328	614.28
416.705	613.15
417.082	599.81
417.46	607.05
417.837	631.45
418.214	634.16
418.591	637.78
418.967	641.85
419.344	657.67
419.721	651.11
420.098	662.64
420.475	674.16
420.852	684.11
421.228	689.53
421.605	717.1
421.982	709.64
422.358	734.5
422.735	733.37
423.111	721.39
423.488	751.68
423.864	750.55
424.241	760.71
424.617	776.08
424.994	791.67
425.37	778.57
425.746	805.69
426.123	834.38
426.499	820.6
426.875	827.83
427.251	834.61
427.627	849.53
428.003	880.94
428.379	869.86
428.756	871.9
429.132	853.14
429.507	878.68
429.883	905.12
430.259	926.13
430.635	935.17
431.011	940.37
431.387	939.47
431.763	982.86
432.138	963.42
432.514	962.52
432.89	975.62
433.265	1012.23
433.641	1010.2
434.016	1023.76
434.392	1074.38
434.767	1103.53
435.143	1090.88
435.518	1106.47
435.894	1104.43
436.269	1153.92
436.644	1179.01
437.02	1186.01
437.395	1172
437.77	1215.39
438.145	1229.85
438.52	1248.84
438.895	1255.84
439.271	1239.57
439.646	1298.1
440.021	1289.06
440.395	1334.94
440.77	1305.11
441.145	1313.24
441.52	1342.17
441.895	1359.12
442.27	1382.62
442.645	1384.43
443.019	1387.59
443.394	1394.82
443.769	1409.06
444.143	1407.25
444.518	1431.88
444.892	1412
445.267	1417.87
445.641	1447.02
446.016	1460.36
446.39	1475.95
446.764	1475.5
447.139	1474.82
447.513	1504.2
447.887	1521.6
448.262	1507.36
448.636	1527.02
449.01	1540.81
449.384	1570.18
449.758	1563.63
450.132	1573.35
450.506	1596.4
450.88	1591.88
451.254	1583.07
451.628	1614.7
452.002	1632.1
452.376	1641.6
452.75	1639.11
453.123	1660.13
453.497	1673.23
453.871	1722.5
454.244	1710.07
454.618	1729.73
454.992	1760.69
455.365	1714.59
455.739	1769.5
456.112	1781.48
456.486	1792.33
456.859	1822.38
457.232	1847.24
457.606	1867.35
457.979	1855.6
458.352	1899.44
458.725	1907.58
459.099	1918.2
459.472	1950.74
459.845	1970.63
460.218	1969.04
460.591	1985.09
460.964	1989.38
461.337	2020.12
461.71	2057.63
462.083	2079.55
462.456	2051.98
462.829	2081.58
463.201	2123.39
463.574	2171.98
463.947	2157.51
464.32	2174.24
464.692	2219.43
465.065	2234.8
465.438	2251.3
465.81	2272.77
466.183	2283.39
466.555	2335.36
466.928	2319.32
467.3	2339.43
467.672	2387.34
468.045	2417.17
468.417	2448.81
468.789	2410.16
469.161	2457.84
469.534	2466.66
469.906	2522.93
470.278	2535.13
470.65	2573.1
471.022	2584.62
471.394	2680.44
471.766	2662.13
472.138	2668.23
472.51	2732.19
472.882	2750.04
473.253	2778.97
473.625	2852.41
473.997	2843.6
474.369	2868.68
474.74	2858.96
475.112	2949.36
475.484	2964.27
475.855	3008.56
476.227	3061.22
476.598	3113.87
476.97	3118.62
477.341	3215.11
477.713	3221.67
478.084	3221.21
478.455	3290.14
478.827	3315.22
479.198	3423.24
479.569	3388.89
479.94	3459.63
480.311	3496.24
480.682	3573.75
481.053	3669.56
481.424	3655.78
481.795	3667.53
482.166	3744.82
482.537	3796.57
482.908	3821.88
483.279	3821.65
483.65	3907.3
484.021	3974.42
484.391	3963.34
484.762	4018.26
485.133	4057.35
485.503	4058.71
485.874	4179.83
486.244	4224.35
486.615	4252.37
486.985	4309.32
487.356	4357.68
487.726	4394.07
488.097	4432.93
488.467	4445.14
488.837	4487.85
489.207	4549.54
489.578	4622.08
489.948	4612.82
490.318	4700.05
490.688	4685.58
491.058	4744.34
491.428	4806.03
491.798	4850.32
492.168	4925.58
492.538	4950.89
492.908	4968.97
493.278	4990.21
493.648	5012.13
494.017	5053.48
494.387	5129.87
494.757	5135.74
495.126	5202.63
495.496	5215.96
495.866	5250.09
496.235	5274.95
496.605	5271.33
496.974	5301.16
497.344	5397.65
497.713	5369.41
498.082	5407.82
498.452	5462.29
498.821	5455.28
499.19	5485.79
499.559	5456.18
499.928	5515.84
500.298	5497.54
500.667	5617.08
501.036	5595.84
501.405	5606.91
501.774	5610.76
502.143	5657.08
502.512	5660.25
502.88	5745.44
503.249	5698.66
503.618	5718.32
503.987	5727.14
504.356	5813.46
504.724	5778.89
505.093	5833.8
505.462	5805.55
505.83	5802.16
506.199	5898.88
506.567	5927.81
506.936	5903.86
507.304	5962.84
507.672	5992.22
508.041	6019.11
508.409	6023.63
508.777	6048.49
509.145	6094.59
509.514	6067.47
509.882	6114.02
510.25	6067.69
510.618	6114.92
510.986	6123.96
511.354	6133.45
511.722	6171.65
512.09	6231.76
512.458	6224.3
512.826	6218.88
513.193	6280.8
513.561	6289.61
513.929	6281.93
514.297	6301.59
514.664	6302.26
515.032	6363.5
515.4	6367.8
515.767	6400.79
516.135	6373.9
516.502	6366.44
516.869	6413.9
517.237	6383.84
517.604	6389.72
517.972	6504.97
518.339	6457.29
518.706	6513.56
519.073	6456.61
519.44	6510.17
519.808	6550.39
520.175	6549.49
520.542	6581.35
520.909	6605.53
521.276	6525.53
521.643	6644.4
522.009	6666.55
522.376	6630.62
522.743	6652.76
523.11	6687.79
523.477	6738.86
523.843	6763.95
524.21	6801.01
524.577	6807.79
524.943	6838.52
525.31	6853.44
525.676	6830.16
526.043	6946.31
526.409	6934.56
526.776	6952.42
527.142	6960.55
527.508	6953.77
527.874	7047.1
528.241	7049.36
528.607	7014.11
528.973	7066.31
529.339	7023.83
529.705	7091.85
530.071	7152.18
530.437	7095.46
530.803	7193.54
531.169	7204.61
531.535	7138.4
531.901	7151.28
532.267	7217.04
532.632	7242.8
532.998	7242.13
533.364	7231.73
533.73	7299.3
534.095	7273.09
534.461	7332.75
534.826	7319.19
535.192	7332.29
535.557	7435.79
535.923	7357.6
536.288	7358.06
536.653	7382.01
537.019	7352.18
537.384	7350.82
537.749	7367.32
538.114	7415.68
538.479	7439.41
538.845	7421.1
539.21	7398.51
539.575	7416.13
539.94	7470.14
540.305	7437.15
540.67	7474.44
541.034	7464.04
541.399	7493.19
541.764	7465.85
542.129	7558.73
542.494	7498.62
542.858	7426.08
543.223	7557.6
543.587	7586.07
543.952	7551.72
544.316	7522.8
544.681	7540.42
545.045	7544.94
545.41	7610.48
545.774	7622
546.138	7594.89
546.503	7599.63
546.867	7587.43
547.231	7637.14
547.595	7688.44
547.959	7678.95
548.324	7603.92
548.688	7631.72
549.052	7636.47
549.416	7671.95
549.779	7672.85
550.143	7650.48
550.507	7736.58
550.871	7743.81
551.235	7686.63
551.599	7700.64
551.962	7727.54
552.326	7760.98
552.689	7815.22
553.053	7735.67
553.417	7798.95
553.78	7830.81
554.143	7779.74
554.507	7820.64
554.87	7828.55
555.234	7866.97
555.597	7840.75
555.96	7785.16
556.323	7816.8
556.686	7880.98
557.05	7939.06
557.413	7913.07
557.776	7951.71
558.139	7977.47
558.502	7988.32
558.865	8002.33
559.228	8047.98
559.59	8086.17
559.953	8084.14
560.316	8160.29
560.679	8163.46
561.041	8142.89
561.404	8237.35
561.767	8223.57
562.129	8230.35
562.492	8273.06
562.854	8280.29
563.217	8284.36
563.579	8313.06
563.941	8317.35
564.304	8405.94
564.666	8403.23
565.028	8408.42
565.39	8488.19
565.753	8453.62
566.115	8584.01
566.477	8566.61
566.839	8577.23
567.201	8621.52
567.563	8593.28
567.925	8687.51
568.287	8642.09
568.648	8682.09
569.01	8712.37
569.372	8732.03
569.734	8774.74
570.095	8847.28
570.457	8835.76
570.819	8811.12
571.18	8850.45
571.542	8982.87
571.903	8932.03
572.265	9019.71
572.626	9010.89
572.987	8994.62
573.349	9041.85
573.71	9096.77
574.071	9096.77
574.432	9084.11
574.794	9179.02
575.155	9179.25
575.516	9180.15
575.877	9191.91
576.238	9288.85
576.599	9314.16
576.96	9379.02
577.32	9325.69
577.681	9400.71
578.042	9385.57
578.403	9442.07
578.763	9458.79
579.124	9461.28
579.485	9591.22
579.845	9577.21
580.206	9619.69
580.566	9637.54
580.927	9553.7
581.287	9721.61
581.648	9603.19
582.008	9694.04
582.368	9691.55
582.728	9735.17
583.089	9802.74
583.449	9801.38
583.809	9856.07
584.169	9871.44
584.529	9842.06
584.889	9993.69
585.249	9898.55
585.609	9934.71
585.969	10002.51
586.329	10073.92
586.688	10067.59
587.048	10036.4
587.408	10048.38
587.768	10093.58
588.127	10129.06
588.487	10141.26
588.846	10177.19
589.206	10201.82
589.565	10192.56
589.925	10268.26
590.284	10269.62
590.643	10330.41
591.003	10330.18
591.362	10401.82
591.721	10331.99
592.08	10348.03
592.44	10443.85
592.799	10465.32
593.158	10453.34
593.517	10412.21
593.876	10473.45
594.235	10468.71
594.593	10552.77
594.952	10531.53
595.311	10581.47
595.67	10505.54
596.029	10690.62
596.387	10652.88
596.746	10690.17
597.104	10592.09
597.463	10665.09
597.822	10710.28
598.18	10697.85
598.538	10711.87
598.897	10779.66
599.255	10694.01
599.613	10881.58
599.972	10868.47
600.33	10798.19
600.688	10816.72
601.046	10800.45
601.404	10967.68
601.762	10894.91
602.12	10908.02
602.478	10935.14
602.836	10914.57
603.194	10884.74
603.552	10975.14
603.91	10867.79
604.268	10948.24
604.625	10935.36
604.983	11009.71
605.341	10937.4
605.698	11017.17
606.056	10994.34
606.413	11007.68
606.771	11064.62
607.128	11109.82
607.485	10996.38
607.843	11069.14
608.2	11187.11
608.557	11112.98
608.914	11085.87
609.272	11112.76
609.629	11205.41
609.986	11262.81
610.343	11208.12
610.7	11232.76
611.057	11282.47
611.414	11179.88
611.771	11284.28
612.127	11206.54
612.484	11255.58
612.841	11301.23
613.198	11199.99
613.554	11277.27
613.911	11390.27
614.267	11359.76
614.624	11240.66
614.98	11315.01
615.337	11414.22
615.693	11380.32
616.05	11314.34
616.406	11458.51
616.762	11380.32
617.118	11361.11
617.475	11415.35
617.831	11418.97
618.187	11467.55
618.543	11487.66
618.899	11525.63
619.255	11508.91
619.611	11477.95
619.967	11538.06
620.323	11487.66
620.678	11483.6
621.034	11481.79
621.39	11449.02
621.746	11466.2
622.101	11631.39
622.457	11511.39
622.812	11466.87
623.168	11603.37
623.523	11489.25
623.879	11559.07
624.234	11477.95
624.589	11532.63
624.945	11537.38
625.3	11547.78
625.655	11505.29
626.01	11571.73
626.365	11556.14
626.72	11490.6
627.075	11519.75
627.43	11486.76
627.785	11522.92
628.14	11552.97
628.495	11534.67
628.85	11573.99
629.205	11427.55
629.559	11526.08
629.914	11437.72
630.269	11428.68
630.623	11479.98
630.978	11496.48
631.332	11480.66
631.687	11464.84
632.041	11444.28
632.396	11433.2
632.75	11363.15
633.104	11417.16
633.459	11340.32
633.813	11299.87
634.167	11305.07
634.521	11351.62
634.875	11403.82
635.229	11358.85
635.583	11296.48
635.937	11267.56
636.291	11190.95
636.645	11235.69
636.999	11244.51
637.352	11279.99
637.706	11206.99
638.06	11228.24
638.413	11213.55
638.767	11164.73
639.121	11157.5
639.474	11117.5
639.828	11150.5
640.181	11190.95
640.534	11255.58
640.888	11119.09
641.241	11060.56
641.594	11129.48
641.947	11047.22
642.301	11115.02
642.654	11137.62
643.007	11121.8
643.36	11050.84
643.713	11035.25
644.066	11067.34
644.419	11004.06
644.771	10969.94
645.124	10770.62
645.477	10872.54
645.83	10838.87
646.182	10711.87
646.535	10629.83
646.888	10642.94
647.24	10615.37
647.593	10717.51
647.945	10646.33
648.298	10665.99
648.65	10604.52
649.002	10570.17
649.355	10674.35
649.707	10693.79
650.059	10642.94
650.411	10797.29
650.763	10827.12
651.115	10862.82
651.467	10903.27
651.819	10882.93
652.171	10863.05
652.523	10877.96
652.875	10830.05
653.227	10812.65
653.578	10837.96
653.93	10880
654.282	10830.73
654.633	10811.98
654.985	10808.81
655.337	10778.3
655.688	10862.6
656.039	10841.58
656.391	10722.26
656.742	10847.23
657.094	10903.27
657.445	10883.39
657.796	10842.94
658.147	10779.21
658.498	10831.18
658.849	10848.13
659.2	10774.46
659.551	10837.74
659.902	10861.24
660.253	10768.81
660.604	10891.75
660.955	10835.93
661.306	10795.25
661.656	10840.9
662.007	10829.83
662.358	10800.68
662.708	10797.96
663.059	10831.18
663.409	10770.62
663.76	10867.12
664.11	10867.34
664.461	10846.1
664.811	10889.26
665.161	10804.74
665.511	10763.62
665.862	10889.26
666.212	10889.26
666.562	10896.49
666.912	10837.74
667.262	10812.43
667.612	10838.42
667.962	10808.36
668.312	10816.95
668.662	10923.84
669.011	10826.89
669.361	10741.02
669.711	10774.46
670.06	10820.34
670.41	10768.81
670.76	10704.63
671.109	10830.51
671.459	10792.32
671.808	10760.68
672.157	10801.81
672.507	10646.33
672.856	10734.69
673.205	10717.51
673.554	10720.45
673.904	10679.78
674.253	10715.03
674.602	10764.75
674.951	10554.13
675.3	10505.54
675.649	10700.57
675.998	10658.53
676.346	10621.47
676.695	10701.92
677.044	10674.35
677.393	10604.52
677.741	10680.45
678.09	10536.28
678.438	10593.22
678.787	10604.07
679.135	10566.33
679.484	10479.1
679.832	10558.42
680.181	10478.2
680.529	10511.42
680.877	10500.12
681.225	10459.67
681.573	10503.28
681.922	10356.39
682.27	10370.63
682.618	10377.86
682.966	10442.72
683.314	10367.92
683.661	10382.83
684.009	10325.66
684.357	10260.8
684.705	10263.97
685.053	10301.71
685.4	10281.82
685.748	10211.77
686.095	10188.04
686.443	10153.69
686.79	10161.6
687.138	10194.14
687.485	10132.9
687.832	10136.97
688.18	10110.53
688.527	10042.96
688.874	10013.13
689.221	10020.36
689.568	9949.85
689.915	9997.76
690.262	9941.94
690.609	9822.4
690.956	9830.08
691.303	9812
691.65	9829.18
691.997	9777.65
692.344	9721.16
692.69	9732.46
693.037	9726.35
693.383	9645.9
693.73	9619.24
694.077	9660.37
694.423	9562.52
694.769	9501.73
695.116	9517.77
695.462	9500.37
695.808	9466.25
696.155	9443.65
696.501	9445.46
696.847	9443.88
697.193	9301.73
697.539	9332.01
697.885	9261.28
698.231	9191.45
698.577	9222.19
698.923	9260.38
699.269	9165.69
699.614	9088.41
699.96	9074.85
700.306	9045.02
700.651	8992.36
700.997	8995.07
701.342	8914.17
701.688	8945.13
702.033	8895.19
702.379	8908.97
702.724	8888.86
703.069	8868.52
703.415	8812.48
703.76	8834.4
704.105	8808.86
704.45	8837.79
704.795	8715.99
705.14	8668.98
705.485	8676.21
705.83	8616.1
706.175	8699.26
706.52	8598.47
706.865	8539.27
707.209	8571.81
707.554	8491.13
707.899	8502.66
708.243	8470.34
708.588	8431.47
708.932	8376.79
709.277	8400.29
709.621	8423.11
709.966	8270.12
710.31	8407.97
710.654	8175.89
710.998	8270.12
711.342	8295.43
711.687	8226.96
712.031	8240.97
712.375	8149.67
712.719	8214.53
713.063	8220.86
713.407	8152.84
713.75	8167.3
714.094	8174.08
714.438	8070.58
714.782	8144.25
715.125	8083.91
715.469	8064.25
715.812	8070.8
716.156	8020.41
716.499	8007.98
716.843	8004.14
717.186	7963.69
717.53	7993.74
717.873	7962.11
718.216	7996.91
718.559	7923.24
718.902	7888.44
719.246	7925.05
719.589	7931.6
719.932	7899.06
720.275	7892.28
720.617	7847.08
720.96	7850.02
721.303	7846.63
721.646	7834.88
721.989	7785.84
722.331	7818.38
722.674	7878.72
723.016	7832.39
723.359	7780.19
723.701	7813.64
724.044	7763.92
724.386	7739.51
724.729	7819.51
725.071	7794.2
725.413	7807.99
725.755	7803.24
726.097	7695.9
726.439	7691.83
726.782	7735.67
727.124	7717.37
727.465	7725.05
727.807	7735.45
728.149	7693.64
728.491	7682.57
728.833	7721.66
729.175	7651.15
729.516	7653.87
729.858	7657.26
730.199	7695.9
730.541	7679.63
730.882	7640.08
731.224	7659.29
731.565	7590.82
731.906	7637.14
732.248	7663.36
732.589	7578.84
732.93	7601.66
733.271	7661.1
733.612	7561.44
733.953	7676.01
734.294	7603.92
734.635	7610.25
734.976	7627.43
735.317	7603.02
735.658	7589.46
735.999	7632.17
736.339	7630.14
736.68	7588.33
737.021	7619.74
737.361	7502.68
737.702	7606.86
738.042	7622.68
738.383	7561.21
738.723	7645.28
739.063	7610.7
739.404	7683.02
739.744	7617.71
740.084	7596.24
740.424	7681.21
740.764	7704.49
741.104	7674.88
741.444	7706.07
741.784	7676.69
742.124	7702.23
742.464	7675.79
742.804	7646.18
743.143	7719.85
743.483	7762.11
743.823	7730.7
744.162	7775.22
744.502	7747.2
744.841	7746.52
745.181	7809.79
745.52	7833.52
745.86	7806.86
746.199	7889.79
746.538	7911.26
746.877	7947.87
747.216	8034.42
747.556	8037.13
747.895	8088.66
748.234	8038.04
748.573	8098.6
748.911	8124.36
749.25	8195.55
749.589	8223.57
749.928	8336.79
750.267	8383.11
750.605	8437.57
750.944	8441.64
751.283	8512.6
751.621	8637.12
751.96	8612.94
752.298	8693.84
752.636	8878.92
752.975	8867.85
753.313	8929.99
753.651	9013.38
753.989	9145.8
754.327	9175.18
754.666	9275.97
755.004	9388.28
755.342	9545.12
755.679	9667.82
756.017	9666.47
756.355	9825.56
756.693	9952.79
757.031	10132.67
757.368	10209.73
757.706	10397.3
758.044	10442.27
758.381	10590.74
758.719	10717.06
759.056	10831.41
759.394	11030.95
759.731	11100.1
760.068	11245.64
760.405	11330.61
760.743	11537.83
761.08	11788.67
761.417	11854.43
761.754	11996.58
762.091	12074.99
762.428	12254.2
762.765	12405.15
763.102	12684.69
763.438	12717.91
763.775	12825.03
764.112	13084.91
764.449	13284.68
764.785	13326.94
765.122	13432.02
765.458	13608.06
765.795	13735.51
766.131	13912.91
766.467	14067.26
766.804	14144.54
767.14	14215.73
767.476	14479.68
767.812	14562.16
768.148	14651.42
768.485	14780.23
768.821	14867.24
769.157	15034.01
769.492	15278.75
769.828	15221.8
770.164	15365.75
770.5	15436.71
770.836	15598.97
771.171	15631.51
771.507	15756.93
771.842	15766.65
772.178	15920.54
772.513	16054.55
772.849	16190.37
773.184	16281.44
773.519	16375.45
773.855	16381.32
774.19	16411.15
774.525	16511.03
774.86	16527.08
775.195	16674.65
775.53	16744.7
775.865	16782.21
776.2	16780.41
776.535	16843
776.87	16865.83
777.205	16955.99
777.539	16995.99
777.874	17057.24
778.209	17007.07
778.543	17010
778.878	17023.79
779.212	17160.51
779.547	17169.32
779.881	17245.7
780.215	17161.19
780.55	17260.62
780.884	17188.53
781.218	17168.42
781.552	17292.94
781.886	17282.99
782.22	17298.13
782.554	17365.25
782.888	17225.59
783.222	17108.76
783.556	17215.2
783.889	17152.6
784.223	17196.21
784.557	17225.82
784.89	17220.39
785.224	17186.05
785.557	17168.64
785.891	17192.15
786.224	17259.04
786.558	17197.8
786.891	17036.9
787.224	16914.64
787.557	17055.88
787.891	17112.15
788.224	17108.31
788.557	17029.44
788.89	17114.18
789.223	17109.44
789.556	17055.65
789.888	17040.74
790.221	16903.79
790.554	16903.34
790.887	17000.06
791.219	16921.19
791.552	16913.06
791.884	16776.11
792.217	16831.93
792.549	16805.04
792.882	16639.62
793.214	16687.98
793.546	16697.92
793.879	16564.59
794.211	16545.61
794.543	16676.45
794.875	16555.78
795.207	16617.47
795.539	16527.53
795.871	16591.71
796.203	16436.69
796.535	16343.58
796.867	16354.65
797.198	16362.11
797.53	16309.91
797.862	16261.1
798.193	16257.03
798.525	16186.75
798.856	16214.77
799.188	16045.74
799.519	15986.08
799.85	15958.73
800.182	15990.37
800.513	15962.57
800.844	15830.83
801.175	15952.86
801.506	15970.94
801.837	15900.2
802.168	15794.44
802.499	15715.12
802.83	15779.98
803.161	15660.21
803.491	15665.86
803.822	15693.88
804.153	15554
804.483	15491.4
804.814	15531.85
805.145	15411.4
805.475	15375.47
805.805	15408.92
806.136	15427.9
806.466	15360.56
806.796	15328.69
807.126	15184.29
807.457	15180.22
807.787	15228.36
808.117	15178.64
808.447	15056.61
808.777	15132.77
809.107	15143.16
809.436	15121.47
809.766	15122.14
810.096	15079.66
810.426	14991.98
810.755	14974.8
811.085	14953.79
811.414	14976.61
811.744	14896.61
812.073	14803.28
812.403	14846.22
812.732	14744.08
813.061	14812.55
813.39	14694.36
813.719	14677.86
814.049	14768.93
814.378	14674.25
814.707	14615.49
815.036	14613.23
815.365	14509.96
815.693	14451.65
816.022	14418.66
816.351	14437.19
816.68	14335.5
817.008	14523.97
817.337	14363.97
817.665	14248.72
817.994	14289.62
818.322	14266.35
818.651	14255.73
818.979	14229.51
819.307	14255.27
819.636	14198.1
819.964	14083.3
820.292	14223.86
820.62	14186.12
820.948	14157.88
821.276	14161.94
821.604	14098.67
821.932	14220.47
822.259	14157.42
822.587	14151.55
822.915	14106.35
823.243	14115.84
823.57	14061.83
823.898	14044.21
824.225	14029.74
824.553	14089.86
824.88	14048.73
825.207	14152.9
825.535	14048.73
825.862	14153.81
826.189	14057.31
826.516	14080.59
826.843	14205.33
827.17	14190.87
827.497	14127.59
827.824	14129.85
828.151	14153.13
828.478	14245.78
828.805	14273.13
829.131	14105.45
829.458	14179.8
829.785	14050.53
830.111	14144.32
830.438	14253.47
830.764	14175.95
831.09	14175.5
831.417	14110.42
831.743	14141.83
832.069	14188.38
832.395	14024.55
832.722	14153.58
833.048	14032.23
833.374	14076.07
833.7	14017.32
834.026	13980.03
834.351	14031.78
834.677	14042.4
835.003	14045.11
835.329	14055.28
835.654	13996.52
835.98	13899.58
836.306	13909.75
836.631	13952.46
836.956	14001.5
837.282	13991.33
837.607	13908.17
837.932	13831.56
838.258	13870.2
838.583	13821.16
838.908	13816.64
839.233	13786.81
839.558	13766.25
839.883	13776.64
840.208	13742.52
840.533	13691.67
840.858	13653.93
841.182	13657.55
841.507	13598.57
841.832	13589.3
842.156	13617.1
842.481	13541.62
842.805	13497.1
843.13	13475.18
843.454	13493.26
843.778	13451.45
844.103	13509.76
844.427	13399.48
844.751	13294.85
845.075	13255.98
845.399	13289.88
845.723	13157.22
846.047	13217.56
846.371	13102.99
846.695	13143.21
847.019	12995.87
847.343	13022.76
847.666	12863.67
847.99	12844.01
848.313	12798.59
848.637	12723.56
848.96	12703.23
849.284	12661.87
849.607	12655.32
849.931	12557.24
850.254	12449.67
850.577	12420.75
850.9	12337.59
851.223	12344.14
851.546	12269.11
851.869	12229.34
852.192	12272.28
852.515	12121.77
852.838	12139.4
853.161	12107.53
853.483	12018.27
853.806	12010.36
854.129	11966.75
854.451	11941.89
854.774	11967.65
855.096	11804.27
855.419	11861.21
855.741	11825.06
856.063	11762.01
856.385	11694.66
856.708	11640.2
857.03	11627.1
857.352	11612.41
857.674	11583.71
857.996	11562.01
858.318	11477.27
858.64	11492.18
858.961	11390.49
859.283	11401.56
859.605	11394.33
859.926	11401.56
860.248	11255.35
860.57	11251.96
860.891	11352.98
861.212	11186.2
861.534	11172.42
861.855	11161.34
862.176	11116.15
862.498	11196.6
862.819	11166.32
863.14	11114.34
863.461	11139.2
863.782	11030.5
864.103	11023.04
864.424	11010.16
864.745	11006.09
865.065	10961.35
865.386	10877.74
865.707	10966.1
866.027	11005.42
866.348	10839.09
866.668	10845.42
866.989	10818.76
867.309	10802.03
867.63	10753.9
867.95	10779.43
868.27	10787.8
868.59	10774.24
868.91	10752.99
869.23	10669.83
869.55	10696.27
869.87	10696.05
870.19	10670.74
870.51	10703.28
870.83	10618.53
871.15	10607.46
871.469	10638.42
871.789	10570.85
872.109	10608.14
872.428	10531.98
872.748	10577.41
873.067	10557.07
873.386	10566.56
873.706	10545.54
874.025	10465.54
874.344	10374.7
874.663	10449.95
874.982	10362.95
875.301	10403.85
875.62	10416.73
875.939	10379.9
876.258	10421.25
876.577	10324.76
876.896	10325.89
877.214	10281.59
877.533	10323.85
877.852	10325.66
878.17	10336.73
878.489	10256.96
878.807	10199.56
879.125	10225.78
879.444	10185.55
879.762	10132.67
880.08	10136.06
880.398	10098.77
880.716	10115.5
881.034	10069.85
881.352	10068.04
881.67	10064.42
881.988	9999.12
882.306	10007.03
882.624	9988.49
882.941	9932.9
883.259	9936.97
883.577	9967.25
883.894	9956.4
884.212	9947.59
884.529	9860.36
884.846	9805.9
885.164	9768.16
885.481	9802.51
885.798	9797.99
886.115	9734.94
886.432	9670.54
886.75	9586.47
887.067	9702.85
887.383	9627.6
887.7	9623.98
888.017	9661.72
888.334	9633.02
888.651	9558.45
888.967	9499.02
889.284	9481.62
889.6	9498.34
889.917	9355.29
890.233	9444.55
890.55	9357.78
890.866	9422.86
891.182	9327.72
891.498	9254.95
891.815	9289.98
892.131	9238.91
892.447	9147.61
892.763	9171.79
893.079	9178.12
893.395	9171.11
893.71	9086.6
894.026	9032.36
894.342	9111.91
894.657	9035.98
894.973	9054.51
895.289	8913.95
895.604	8936.54
895.92	8904.46
896.235	8870.56
896.55	8804.57
896.865	8792.82
897.181	8754.4
897.496	8681.18
897.811	8665.59
898.126	8727.96
898.441	8662.43
898.756	8591.69
899.071	8595.08
899.386	8597.34
899.7	8440.51
900.015	8530.91
900.33	8463.34
900.644	8411.13
900.959	8379.05
901.273	8418.14
901.588	8360.74
901.902	8242.78
902.216	8251.82
902.531	8287.07
902.845	8201.2
903.159	8157.81
903.473	8156.9
903.787	8071.93
904.101	8016.34
904.415	8060.64
904.729	8012.95
905.042	7956.01
905.356	7955.55
905.67	7931.6
905.984	7946.74
906.297	7883.92
906.611	7865.16
906.924	7845.05
907.237	7848.44
907.551	7788.55
907.864	7753.3
908.177	7702.68
908.491	7707.42
908.804	7680.31
909.117	7595.56
909.43	7547.2
909.743	7508.79
910.056	7460.88
910.368	7498.84
910.681	7463.59
910.994	7430.6
911.307	7389.01
911.619	7298.4
911.932	7357.6
912.244	7259.53
912.557	7296.36
912.869	7238.74
913.181	7164.16
913.494	7188.79
913.806	7106.54
914.118	7103.6
914.43	6986.54
914.742	7083.49
915.054	7003.26
915.366	6968.01
915.678	6956.71
915.99	6961.46
916.302	6858.18
916.613	6806.66
916.925	6857.5
917.236	6817.28
917.548	6783.83
917.859	6819.99
918.171	6745.87
918.482	6706.77
918.794	6682.37
919.105	6664.74
919.416	6666.55
919.727	6641.92
920.038	6551.07
920.349	6547.91
920.66	6551.3
920.971	6476.95
921.282	6495.25
921.593	6400.11
921.903	6383.39
922.214	6391.98
922.525	6423.39
922.835	6342.04
923.146	6280.8
923.456	6288.93
923.767	6230.18
924.077	6259.33
924.387	6187.92
924.697	6173.23
925.008	6163.74
925.318	6162.61
925.628	6097.98
925.938	6098.43
926.248	5980.69
926.558	6036.96
926.867	6044.19
927.177	5999.9
927.487	5955.61
927.796	5955.38
928.106	5943.86
928.416	5881.94
928.725	5850.52
929.034	5821.37
929.344	5830.41
929.653	5824.99
929.962	5759.68
930.271	5782.96
930.581	5687.59
930.89	5636.97
931.199	5631.55
931.508	5641.72
931.817	5679
932.125	5584.77
932.434	5593.13
932.743	5570.53
933.051	5530.76
933.36	5493.47
933.669	5459.57
933.977	5463.42
934.286	5472.68
934.594	5401.5
934.902	5376.86
935.21	5365.57
935.519	5370.08
935.827	5376.86
936.135	5351.55
936.443	5321.95
936.751	5279.92
937.059	5255.29
937.367	5273.36
937.674	5228.85
937.982	5178
938.29	5174.61
938.597	5156.76
938.905	5166.02
939.213	5097.78
939.52	5070.88
939.827	5072.47
940.135	5026.82
940.442	4957.67
940.749	5020.72
941.056	4985.91
941.363	4947.27
941.67	4942.75
941.977	4880.61
942.284	4840.61
942.591	4821.85
942.898	4794.28
943.205	4818.46
943.511	4796.77
943.818	4764.45
944.125	4766.94
944.431	4759.93
944.738	4741.4
945.044	4748.86
945.35	4678.35
945.657	4662.98
945.963	4596.32
946.269	4637.9
946.575	4574.17
946.881	4596.77
947.187	4587.51
947.493	4485.81
947.799	4524.23
948.105	4516.32
948.41	4493.05
948.716	4492.82
949.022	4454.85
949.327	4414.86
949.633	4449.88
949.938	4391.58
950.244	4414.86
950.549	4337.34
950.854	4313.84
951.16	4323.56
951.465	4283.11
951.77	4293.05
952.075	4264.35
952.38	4272.49
952.685	4236.33
952.99	4221.41
953.294	4167.18
953.599	4153.85
953.904	4089.44
954.209	4147.29
954.513	4133.28
954.818	4103
955.122	4075.66
955.426	4065.49
955.731	4041.31
956.035	4054.87
956.339	4001.08
956.643	3978.03
956.948	3951.82
957.252	3971.7
957.556	3983.91
957.86	3936.45
958.163	3957.69
958.467	3875.89
958.771	3842.89
959.075	3835.44
959.378	3847.19
959.682	3827.53
959.985	3783.69
960.289	3782.1
960.592	3795.44
960.896	3720.86
961.199	3738.72
961.502	3718.15
961.805	3780.75
962.108	3670.69
962.411	3703.46
962.714	3669.79
963.017	3674.54
963.32	3682.45
963.623	3640.86
963.926	3618.72
964.228	3600.64
964.531	3587.98
964.833	3565.84
965.136	3532.84
965.438	3524.71
965.741	3543.47
966.043	3500.98
966.345	3512.05
966.648	3501.43
966.95	3493.07
967.252	3451.94
967.554	3415.33
967.856	3423.02
968.158	3418.5
968.46	3350.93
968.761	3354.09
969.063	3366.3
969.365	3337.82
969.666	3284.94
969.968	3283.13
970.269	3275.22
970.571	3287.65
970.872	3274.32
971.174	3238.62
971.475	3233.19
971.776	3230.93
972.077	3231.38
972.378	3155.68
972.679	3206.75
972.98	3152.29
973.281	3187.54
973.582	3160.65
973.883	3150.93
974.183	3121.78
974.484	3148.22
974.785	3050.6
975.085	3055.34
975.386	3117.71
975.686	3020.09
975.986	3033.88
976.287	3044.72
976.587	3013.54
976.887	2973.09
977.187	2997.72
977.487	2982.12
977.787	2938.51
978.087	2941
978.387	2930.83
978.687	2943.93
978.987	2922.01
979.286	2903.03
979.586	2907.32
979.885	2849.25
980.185	2811.51
980.484	2857.61
980.784	2838.4
981.083	2828.91
981.382	2793.88
981.682	2790.72
981.981	2778.74
982.28	2776.93
982.579	2759.76
982.878	2781.45
983.177	2761.57
983.475	2734.9
983.774	2720.21
984.073	2687.9
984.372	2657.16
984.67	2645.41
984.969	2682.47
985.267	2647.44
985.566	2598.18
985.864	2606.54
986.162	2588.69
986.461	2563.38
986.759	2563.6
987.057	2549.37
987.355	2507.34
987.653	2549.59
987.951	2513.21
988.249	2495.81
988.547	2517.73
988.844	2498.07
989.142	2502.59
989.44	2471.18
989.737	2477.51
990.035	2451.74
990.332	2456.49
990.63	2436.83
990.927	2397.96
991.224	2410.84
991.521	2394.8
991.819	2373.78
992.116	2390.5
992.413	2346.89
992.71	2353.21
993.006	2342.37
993.303	2352.31
993.6	2310.73
993.897	2300.79
994.193	2304.85
994.49	2295.36
994.787	2303.27
995.083	2245.42
995.379	2239.09
995.676	2237.96
995.972	2234.8
996.268	2229.15
996.565	2203.84
996.861	2185.31
997.157	2183.73
997.453	2169.72
997.749	2153.45
998.044	2157.06
998.34	2125.2
998.636	2102.37
998.932	2097.85
999.227	2103.05
999.523	2098.98
999.818	2104.63
1000.114	2088.82
1000.409	2052.66
1000.704	2061.25
1001	2018.31
1001.295	2034.81
1001.59	2014.01
1001.885	1996.39
1002.18	2033.9
1002.475	1999.55
1002.77	1988.03
1003.065	1961.13
1003.359	1976.05
1003.654	1927.69
1003.949	1933.11
1004.243	1925.43
1004.538	1915.26
1004.832	1942.15
1005.127	1908.48
1005.421	1899.89
1005.715	1864.64
1006.009	1840.01
1006.304	1845.66
1006.598	1840.01
1006.892	1816.51
1007.186	1821.7
1007.48	1814.02
1007.773	1799.78
1008.067	1816.51
1008.361	1755.94
1008.655	1756.62
1008.948	1765.66
1009.242	1760.01
1009.535	1728.6
1009.829	1726.79
1010.122	1696.28
1010.415	1723.63
1010.708	1675.72
1011.001	1670.97
1011.295	1732.67
1011.588	1644.31
1011.881	1678.88
1012.173	1637.53
1012.466	1634.82
1012.759	1607.02
1013.052	1586
1013.344	1585.78
1013.637	1627.81
1013.93	1584.2
1014.222	1572.67
1014.514	1590.52
1014.807	1592.33
1015.099	1552.11
1015.391	1556.63
1015.683	1551.88
1015.976	1511.2
1016.268	1522.05
1016.56	1480.47
1016.851	1517.08
1017.143	1507.59
1017.435	1486.8
1017.727	1482.28
1018.018	1436.4
1018.31	1449.96
1018.602	1443.63
1018.893	1423.07
1019.185	1416.74
1019.476	1398.66
1019.767	1410.64
1020.058	1397.31
1020.35	1395.05
1020.641	1372.9
1020.932	1360.02
1021.223	1341.72
1021.514	1365.44
1021.804	1339.91
1022.095	1316.18
1022.386	1338.33
1022.677	1332.45
1022.967	1328.16
1023.258	1320.93
1023.548	1326.35
1023.839	1283.41
1024.129	1296.07
1024.419	1255.62
1024.709	1244.32
1025	1239.8
1025.29	1251.1
1025.58	1228.5
1025.87	1216.3
1026.16	1227.14
1026.449	1218.78
1026.739	1187.14
1027.029	1190.99
1027.319	1198.67
1027.608	1183.08
1027.898	1140.37
1028.187	1159.8
1028.477	1143.53
1028.766	1165.9
1029.055	1151.66
1029.344	1135.85
1029.634	1114.6
1029.923	1125.45
1030.212	1117.09
1030.501	1137.88
1030.79	1131.78
1031.078	1101.95
1031.367	1101.5
1031.656	1109.41
1031.945	1090.88
1032.233	1071.89
1032.522	1065.57
1032.81	1058.56
1033.099	1063.08
1033.387	1060.14
1033.675	1023.76
1033.963	1016.3
1034.251	1034.83
1034.54	1020.82
1034.828	992.57
1035.116	998
1035.403	1001.84
1035.691	1002.74
1035.979	968.17
1036.267	982.4
1036.554	1000.26
1036.842	958.68
1037.129	953.48
1037.417	949.18
1037.704	927.94
1037.992	935.17
1038.279	934.27
1038.566	915.29
1038.853	915.29
1039.14	915.29
