Data from hue_28_FLMS001491_00051.txt Node
Date: Tue Feb 07 17:17:27 GMT 2017
User: dcchb
Spectrometer: FLMS00149
Trigger mode: 0
Integration Time (sec): 2.000000E-2
Scans to average: 10
Electric dark correction enabled: true
Nonlinearity correction enabled: false
Boxcar width: 0
XAxis mode: Wavelengths
Number of Pixels in Spectrum: 2048
>>>>>Begin Spectral Data<<<<<
341.393	6.5
341.776	6.5
342.16	6.5
342.543	-49.09
342.927	-36.67
343.31	-45.48
343.693	-81.86
344.077	-61.52
344.46	-46.83
344.843	-68.98
345.226	-24.01
345.61	-35.99
345.993	-5.71
346.376	7.17
346.759	2.88
347.142	27.51
347.525	55.31
347.908	41.52
348.291	48.53
348.674	84.91
349.057	102.54
349.44	136.44
349.823	135.53
350.206	165.14
350.588	205.81
350.971	198.36
351.354	247.85
351.737	255.76
352.119	263.67
352.502	274.74
352.884	285.59
353.267	303.44
353.65	309.09
354.032	307.28
354.414	320.39
354.797	319.94
355.179	327.17
355.562	333.72
355.944	324.68
356.326	356.32
356.709	342.31
357.091	321.97
357.473	347.05
357.855	348.63
358.238	369.65
358.62	352.7
359.002	349.09
359.384	344.34
359.766	358.35
360.148	333.72
360.53	322.87
360.912	362.65
361.294	343.89
361.676	324.45
362.057	352.48
362.439	357.9
362.821	324.23
363.203	346.15
363.584	342.08
363.966	330.56
364.348	350.44
364.729	326.04
365.111	316.32
365.493	332.14
365.874	337.34
366.256	328.97
366.637	339.14
367.019	356.32
367.4	323.55
367.781	318.13
368.163	318.35
368.544	324
368.925	311.57
369.306	331.46
369.688	316.55
370.069	321.52
370.45	313.83
370.831	309.54
371.212	323.78
371.593	330.78
371.974	332.14
372.355	316.32
372.736	307.96
373.117	332.36
373.498	318.35
373.879	334.17
374.26	335.3
374.641	319.03
375.021	321.07
375.402	325.36
375.783	338.01
376.163	329.2
376.544	334.4
376.925	319.03
377.305	342.31
377.686	347.05
378.066	319.26
378.447	335.3
378.827	321.29
379.208	349.09
379.588	325.36
379.968	331.46
380.349	335.3
380.729	318.81
381.109	345.92
381.489	358.58
381.87	343.21
382.25	352.02
382.63	334.62
383.01	357.67
383.39	355.19
383.77	351.12
384.15	350.22
384.53	335.75
384.91	361.06
385.29	357.45
385.67	348.86
386.049	363.78
386.429	351.35
386.809	360.39
387.189	363.78
387.568	332.59
387.948	361.97
388.328	356.77
388.707	349.09
389.087	378.46
389.466	372.82
389.846	355.87
390.225	362.87
390.605	362.19
390.984	354.74
391.363	374.17
391.743	376.88
392.122	375.75
392.501	389.31
392.881	356.54
393.26	383.21
393.639	380.5
394.018	387.28
394.397	386.37
394.776	382.53
395.155	389.76
395.534	386.83
395.913	386.6
396.292	404.23
396.671	359.03
397.05	386.6
397.429	389.76
397.808	421.4
398.186	404
398.565	384.79
398.944	393.83
399.323	398.8
399.701	407.16
400.08	410.1
400.458	416.88
400.837	411.01
401.215	407.16
401.594	409.2
401.972	401.97
402.351	408.52
402.729	409.88
403.107	413.72
403.486	406.03
403.864	398.13
404.242	407.62
404.62	416.2
404.999	413.27
405.377	419.82
405.755	420.72
406.133	432.47
406.511	418.69
406.889	421.63
407.267	440.61
407.645	428.18
408.023	428.63
408.401	424.79
408.779	463.21
409.156	447.62
409.534	436.32
409.912	430.21
410.29	440.61
410.667	435.64
411.045	458.01
411.422	457.78
411.8	455.75
412.178	451.01
412.555	467.95
412.933	458.91
413.31	478.8
413.687	451.01
414.065	461.85
414.442	476.54
414.819	479.7
415.197	484.45
415.574	479.48
415.951	475.86
416.328	495.07
416.705	486.71
417.082	481.51
417.46	470.89
417.837	497.78
418.214	504.79
418.591	493.72
418.967	498.24
419.344	505.92
419.721	506.6
420.098	508.63
420.475	536.65
420.852	533.94
421.228	517.9
421.605	502.3
421.982	515.86
422.358	522.19
422.735	552.7
423.111	526.26
423.488	543.21
423.864	538.46
424.241	553.38
424.617	551.57
424.994	542.75
425.37	542.53
425.746	575.07
426.123	562.87
426.499	536.65
426.875	563.32
427.251	578.91
427.627	568.29
428.003	583.21
428.379	583.43
428.756	577.1
429.132	570.55
429.507	587.72
429.883	607.39
430.259	613.71
430.635	597.22
431.011	595.41
431.387	614.16
431.763	642.86
432.138	619.81
432.514	651.68
432.89	635.18
433.265	646.93
433.641	647.61
434.016	638.57
434.392	625.69
434.767	658.91
435.143	657.55
435.518	676.31
435.894	662.52
436.269	681.51
436.644	698.23
437.02	669.98
437.395	671.56
437.77	685.8
438.145	696.87
438.52	705.69
438.895	699.13
439.271	713.82
439.646	728.06
440.021	712.24
440.395	735.74
440.77	726.25
441.145	714.95
441.52	732.58
441.895	732.13
442.27	742.75
442.645	735.29
443.019	756.08
443.394	767.83
443.769	756.99
444.143	753.82
444.518	766.93
444.892	752.69
445.267	796.08
445.641	789.08
446.016	777.1
446.39	793.37
446.764	774.84
447.139	804.22
447.513	797.89
447.887	799.24
448.262	799.02
448.636	806.93
449.01	829.75
449.384	817.55
449.758	812.13
450.132	816.19
450.506	829.53
450.88	822.97
451.254	828.85
451.628	843.99
452.002	849.19
452.376	862.75
452.75	879.47
453.123	885.57
453.497	892.35
453.871	891.67
454.244	902.52
454.618	898.9
454.992	919.02
455.365	928.28
455.739	928.73
456.112	918.34
456.486	932.57
456.859	938.22
457.232	960.14
457.606	956.75
457.979	953.82
458.352	980.26
458.725	985.45
459.099	978.9
459.472	1023.19
459.845	1042.18
460.218	1052.12
460.591	1052.12
460.964	1062.74
461.337	1057.77
461.71	1061.38
462.083	1083.3
462.456	1102.51
462.829	1098.9
463.201	1133.25
463.574	1107.26
463.947	1141.16
464.32	1174.38
464.692	1154.49
465.065	1183.64
465.438	1177.09
465.81	1168.95
466.183	1220.93
466.555	1223.64
466.928	1251.21
467.3	1254.37
467.672	1259.12
468.045	1283.3
468.417	1301.15
468.789	1310.19
469.161	1310.42
469.534	1337.08
469.906	1343.86
470.278	1379.12
470.65	1396.97
471.022	1434.93
471.394	1432.9
471.766	1455.95
472.138	1515.61
472.51	1509.06
472.882	1536.85
473.253	1517.64
473.625	1558.32
473.997	1597.19
474.369	1629.05
474.74	1606.23
475.112	1683.52
475.484	1740.46
475.855	1730.29
476.227	1764.42
476.598	1809.84
476.97	1817.75
477.341	1896.39
477.713	1899.33
478.084	1919.67
478.455	1970.06
478.827	2017.74
479.198	2081.47
479.569	2091.64
479.94	2153.33
480.311	2174.58
480.682	2230.62
481.053	2288.7
481.424	2306.55
481.795	2337.06
482.166	2407.79
482.537	2455.25
482.908	2530.05
483.279	2536.37
483.65	2589.48
484.021	2651.85
484.391	2719.42
484.762	2763.49
485.133	2742.7
485.503	2837.83
485.874	2914.67
486.244	2955.12
486.615	2996.93
486.985	3082.35
487.356	3137.94
487.726	3189.01
488.097	3235.56
488.467	3288.44
488.837	3342
489.207	3410.7
489.578	3486.41
489.948	3563.47
490.318	3591.94
490.688	3622.9
491.058	3692.5
491.428	3724.37
491.798	3792.84
492.168	3889.78
492.538	3905.38
492.908	3955.55
493.278	4013.85
493.648	4060.85
494.017	4090.91
494.387	4167.52
494.757	4227.63
495.126	4273.28
495.496	4323.22
495.866	4348.3
496.235	4405.7
496.605	4533.61
496.974	4505.36
497.344	4523.89
497.713	4583.33
498.082	4629.88
498.452	4651.12
498.821	4699.03
499.19	4743.55
499.559	4758.69
499.928	4803.43
500.298	4902.64
500.667	4904.9
501.036	4903.77
501.405	4962.3
501.774	4979.7
502.143	5016.08
502.512	5080.94
502.88	5083.2
503.249	5100.6
503.618	5172.01
503.987	5206.59
504.356	5251.78
504.724	5255.17
505.093	5279.13
505.462	5303.98
505.83	5365.23
506.199	5421.5
506.567	5454.04
506.936	5428.5
507.304	5543.53
507.672	5520.7
508.041	5532.91
508.409	5583.98
508.777	5613.58
509.145	5642.28
509.514	5732.67
509.882	5672.34
510.25	5749.17
510.618	5779.45
510.986	5797.31
511.354	5800.02
511.722	5835.5
512.09	5914.82
512.458	5910.97
512.826	5946
513.193	5973.35
513.561	5995.94
513.929	5965.66
514.297	6053.57
514.664	6133.12
515.032	6089.27
515.4	6127.24
515.767	6165.43
516.135	6169.72
516.502	6100.35
516.869	6268.93
517.237	6247.01
517.604	6189.61
517.972	6311.64
518.339	6373.34
518.706	6394.58
519.073	6355.71
519.44	6389.15
519.808	6455.82
520.175	6429.6
520.542	6522.94
520.909	6513.9
521.276	6508.02
521.643	6589.6
522.009	6616.49
522.376	6660.79
522.743	6619.2
523.11	6697.39
523.477	6761.35
523.843	6799.99
524.21	6840.44
524.577	6899.42
524.943	6911.85
525.31	6919.54
525.676	6992.53
526.043	7038.18
526.409	7061.23
526.776	7068.91
527.142	7094.67
527.508	7225.97
527.874	7162.47
528.241	7257.83
528.607	7261.22
528.973	7246.98
529.339	7340.09
529.705	7388.9
530.071	7427.09
530.437	7429.8
530.803	7496.47
531.169	7595.22
531.535	7524.49
531.901	7546.86
532.267	7575.56
532.632	7672.74
532.998	7619.86
533.364	7745.73
533.73	7686.52
534.095	7783.02
534.461	7830.92
534.826	7891.26
535.192	7871.37
535.557	7990.47
535.923	7940.98
536.288	7962.67
536.653	8010.58
537.019	8022.33
537.384	8019.62
537.749	8091.26
538.114	8128.32
538.479	8139.62
538.845	8219.84
539.21	8143.46
539.575	8250.8
539.94	8281.08
540.305	8318.14
540.67	8299.39
541.034	8330.8
541.399	8437.01
541.764	8408.08
542.129	8434.98
542.494	8525.6
542.858	8551.58
543.223	8520.62
543.587	8618.02
543.952	8626.16
544.316	8689.88
544.681	8641.75
545.045	8799.71
545.41	8748.64
545.774	8866.83
546.138	8810.79
546.503	8903.44
546.867	8913.38
547.231	8973.94
547.595	8895.08
547.959	9048.97
548.324	9030.44
548.688	9070.21
549.052	9121.06
549.416	9135.07
549.779	9160.61
550.143	9139.82
550.507	9245.35
550.871	9266.37
551.235	9265.46
551.599	9301.17
551.962	9284.22
552.326	9354.05
552.689	9421.39
553.053	9384.56
553.417	9408.51
553.78	9566.7
554.143	9507.72
554.507	9519.02
554.87	9547.72
555.234	9659.8
555.597	9598.56
555.96	9712.68
556.323	9688.28
556.686	9768.95
557.05	9762.17
557.413	9784.32
557.776	9766.01
558.139	9852.57
558.502	9843.3
558.865	9846.46
559.228	9981.6
559.59	9966.01
559.953	10045.56
560.316	10093.24
560.679	10070.64
561.041	10152.44
561.404	10133.24
561.767	10228.15
562.129	10235.38
562.492	10322.16
562.854	10215.27
563.217	10317.19
563.579	10306.11
563.941	10430.4
564.304	10389.27
564.666	10512.21
565.028	10522.83
565.39	10483.06
565.753	10544.98
566.115	10592.21
566.477	10695.03
566.839	10700.68
567.201	10783.16
567.563	10757.85
567.925	10899.32
568.287	10890.96
568.648	10869.94
569.01	10924.18
569.372	10976.6
569.734	11025.87
570.095	11048.47
570.457	11151.74
570.819	11122.59
571.18	11154
571.542	11203.04
571.903	11270.61
572.265	11393.77
572.626	11426.99
572.987	11457.5
573.349	11503.14
573.71	11548.79
574.071	11690.26
574.432	11751.05
574.794	11861.1
575.155	11910.82
575.516	11941.78
575.877	11941.1
576.238	12096.12
576.599	12185.39
576.96	12271.26
577.32	12398.04
577.681	12502.21
578.042	12567.3
578.403	12803
578.763	12819.04
579.124	12925.93
579.485	13037.57
579.845	13111.24
580.206	13348.97
580.566	13425.81
580.927	13565.46
581.287	13658.34
581.648	13808.62
582.008	14075.51
582.368	14196.41
582.728	14400.02
583.089	14555.49
583.449	14781.02
583.809	14937.4
584.169	15160.67
584.529	15317.96
584.889	15673.88
585.249	15794.33
585.609	15946.64
585.969	16371.94
586.329	16492.62
586.688	16822.1
587.048	16979.61
587.408	17216.67
587.768	17446.94
588.127	17837.67
588.487	18070.88
588.846	18457.31
589.206	18613.01
589.565	18852.78
589.925	19328.93
590.284	19546.32
590.643	19756.03
591.003	20213.2
591.362	20511.27
591.721	20791.71
592.08	21144.7
592.44	21534.29
592.799	21668.75
593.158	22070.78
593.517	22327.04
593.876	22751.66
594.235	23068.26
594.593	23458.31
594.952	23767.23
595.311	23879.99
595.67	24357.95
596.029	24842.45
596.387	25267.53
596.746	25515.88
597.104	25729.66
597.463	26048.07
597.822	26402.64
598.18	26762.18
598.538	26968.05
598.897	27466.57
599.255	27647.13
599.613	28344.28
599.972	28497.73
600.33	28853.65
600.688	29032.17
601.046	29384.03
601.404	29737.01
601.762	30072.83
602.12	30423.55
602.478	30705.12
602.836	31001.16
603.194	31190.99
603.552	31619.23
603.91	31730.18
604.268	32221.47
604.625	32281.13
604.983	32832.07
605.341	32842.92
605.698	33188.22
606.056	33677.48
606.413	33848.32
606.771	34222.32
607.128	34517.91
607.485	34619.6
607.843	34688.97
608.2	35330.31
608.557	35484.21
608.914	35575.05
609.272	35966.23
609.629	36331.87
609.986	36645.76
610.343	36757.85
610.7	37079.65
611.057	37260.88
611.414	37536.81
611.771	37718.73
612.127	37958.27
612.484	38197.58
612.841	38403.91
613.198	38483.45
613.554	38541.3
613.911	39035.08
614.267	39181.06
614.624	39466.48
614.98	39570.2
615.337	39841.38
615.693	39916.86
616.05	39983.75
616.406	40355.04
616.762	40454.7
617.118	40586.45
617.475	40654.47
617.831	40972.43
618.187	41158.86
618.543	41206.77
618.899	41602.92
619.255	41609.47
619.611	41547.78
619.967	41852.4
620.323	42140.76
620.678	42084.71
621.034	42167.42
621.39	42203.81
621.746	42241.32
622.101	42795.88
622.457	42556.11
622.812	42677.24
623.168	42958.81
623.523	42931.92
623.879	43147.28
624.234	42974.86
624.589	43194.29
624.945	43364
625.3	43430.89
625.655	43464.34
626.01	43570.55
626.365	43550.44
626.72	43657.1
627.075	43644.9
627.43	43682.18
627.785	43672.92
628.14	43818.68
628.495	43955.4
628.85	43856.42
629.205	43879.69
629.559	44181.15
629.914	44046.02
630.269	44275.16
630.623	44148.16
630.978	44225.9
631.332	44355.16
631.687	44567.81
632.041	44232.68
632.396	44377.76
632.75	44322.62
633.104	44513.12
633.459	44311.77
633.813	44270.87
634.167	44317.2
634.521	44332.11
634.875	44477.19
635.229	44386.8
635.583	44367.59
635.937	44356.07
636.291	44262.51
636.645	44394.26
636.999	44316.52
637.352	44539.56
637.706	44308.61
638.06	44477.42
638.413	44293.92
638.767	44367.59
639.121	44370.3
639.474	44201.49
639.828	44197.65
640.181	44340.47
640.534	44285.56
640.888	44268.84
641.241	44143.42
641.594	44375.95
641.947	44395.84
642.301	44160.14
642.654	44303.19
643.007	44396.97
643.36	44302.28
643.713	44104.09
644.066	44373.92
644.419	44216.63
644.771	43840.82
645.124	43539.14
645.477	43500.04
645.83	43121.52
646.182	43004.69
646.535	43118.13
646.888	43171.24
647.24	42956.78
647.593	43319.48
647.945	42985.48
648.298	42804.69
648.65	42807.63
649.002	42696.67
649.355	42889.21
649.707	42887.4
650.059	43033.39
650.411	43460.5
650.763	43575.52
651.115	43860.26
651.467	43727.38
651.819	43913.82
652.171	43657.78
652.523	43633.37
652.875	43703.65
653.227	43572.36
653.578	43811.45
653.93	43715.18
654.282	43444.22
654.633	43489.42
654.985	43583.88
655.337	43567.84
655.688	43664.78
656.039	43821.84
656.391	43405.13
656.742	43511.12
657.094	43542.3
657.445	43754.05
657.796	43587.05
658.147	43545.47
658.498	43377.11
658.849	43523.09
659.2	43493.26
659.551	43456.2
659.902	43610.1
660.253	43381.85
660.604	43611.45
660.955	43341.63
661.306	43482.64
661.656	43398.8
662.007	43474.28
662.358	43547.5
662.708	43446.26
663.059	43429.99
663.409	43115.19
663.76	43455.75
664.11	43309.09
664.461	43564.45
664.811	43304.34
665.161	43380.05
665.511	43331.23
665.862	43304.57
666.212	43556.76
666.562	43490.1
666.912	43361.29
667.262	43301.86
667.612	43277.22
667.962	43307.96
668.312	43267.28
668.662	43372.81
669.011	43317.67
669.361	43233.38
669.711	43249.65
670.06	43155.64
670.41	43070.9
670.76	43119.71
671.109	43256.89
671.459	43234.06
671.808	43073.84
672.157	43257.11
672.507	42882.88
672.856	43061.86
673.205	42934.41
673.554	43081.97
673.904	42959.27
674.253	43152.48
674.602	43013.28
674.951	42435.44
675.3	42149.34
675.649	43003.56
675.998	42767.86
676.346	42799.5
676.695	42958.59
677.044	42678.6
677.393	42791.36
677.741	42835.65
678.09	42740.29
678.438	42640.86
678.787	42791.13
679.135	42734.64
679.484	42452.84
679.832	42618.71
680.181	42426.85
680.529	42554.53
680.877	42360.86
681.225	42429.34
681.573	42716.11
681.922	42292.84
682.27	42188.66
682.618	42172.39
682.966	42069.12
683.314	42283.8
683.661	42081.32
684.009	41905.96
684.357	41803.82
684.705	41835.45
685.053	41925.17
685.4	41794.55
685.748	41491.51
686.095	41692.86
686.443	41466.65
686.79	41511.85
687.138	41406.31
687.485	41591.84
687.832	41278.41
688.18	41283.83
688.527	41132.65
688.874	41225.75
689.221	41017.4
689.568	40951.86
689.915	40778.76
690.262	40817.4
690.609	40623.51
690.956	40670.74
691.303	40565.88
691.65	40471.2
691.997	40344.65
692.344	40105.1
692.69	40246.34
693.037	40118.44
693.383	39819.01
693.73	40041.83
694.077	39757.32
694.423	39795.51
694.769	39536.53
695.116	39688.84
695.462	39505.57
695.808	39403.2
696.155	39508.96
696.501	39017.45
696.847	39186.48
697.193	38837.34
697.539	39047.05
697.885	38673.5
698.231	38711.02
698.577	38763.67
698.923	38655.42
699.269	38356.9
699.614	38277.58
699.96	38276.23
700.306	38221.54
700.651	38057.47
700.997	37892.28
701.342	38051.6
701.688	37810.93
702.033	37839.4
702.379	37805.96
702.724	37659.29
703.069	37597.37
703.415	37317.38
703.76	37310.15
704.105	37418.17
704.45	37290.94
704.795	37051.17
705.14	36941.57
705.485	36831.07
705.83	36725.98
706.175	36773.67
706.52	36748.81
706.865	36526.67
707.209	36587.68
707.554	36467.23
707.899	36533.9
708.243	36295.94
708.588	36285.32
708.932	35954.7
709.277	35989.73
709.621	35997.64
709.966	35769.17
710.31	35850.98
710.654	35472.23
710.998	35583.19
711.342	35665.67
711.687	35498.9
712.031	35441.05
712.375	35204.44
712.719	35305
713.063	35218.23
713.407	35318.11
713.75	35098
714.094	35065.24
714.438	34969.87
714.782	34924
715.125	34845.58
715.469	34962.64
715.812	34699.82
716.156	34493.73
716.499	34508.64
716.843	34552.93
717.186	34372.15
717.53	34417.34
717.873	34377.8
718.216	34354.52
718.559	34217.57
718.902	34001.76
719.246	33921.76
719.589	33922.89
719.932	33904.81
720.275	33837.7
720.617	33836.79
720.96	33759.28
721.303	33721.09
721.646	33704.14
721.989	33510.7
722.331	33532.17
722.674	33456.69
723.016	33560.19
723.359	33470.25
723.701	33552.73
724.044	33264.38
724.386	33053.54
724.729	33285.85
725.071	33254.66
725.413	33164.04
725.755	33093.76
726.097	33044.5
726.439	32772.87
726.782	32782.58
727.124	33011.05
727.465	32829.59
727.807	32740.33
728.149	32618.07
728.491	32660.33
728.833	32702.81
729.175	32516.38
729.516	32572.19
729.858	32493.1
730.199	32482.03
730.541	32347.79
730.882	32277.51
731.224	32469.37
731.565	32066.67
731.906	32200.23
732.248	32190.51
732.589	32030.51
732.93	31778.32
733.271	31972.44
733.612	31992.32
733.953	32028.71
734.294	31818.54
734.635	31732.89
734.976	31720.92
735.317	31599.79
735.658	31710.52
735.999	31721.82
736.339	31600.92
736.68	31699
737.021	31601.37
737.361	31420.13
737.702	31637.08
738.042	31373.81
738.383	31382.17
738.723	31442.73
739.063	31227.15
739.404	31355.96
739.744	31103.31
740.084	31004.33
740.424	31147.37
740.764	31050.2
741.104	31127.49
741.444	30960.49
741.784	30932.24
742.124	30797.78
742.464	30830.32
742.804	30788.74
743.143	30692.24
743.483	30784.67
743.823	30557.56
744.162	30514.62
744.502	30616.77
744.841	30364.79
745.181	30569.08
745.52	30422.42
745.86	30455.19
746.199	30277.11
746.538	30281.41
746.877	30455.64
747.216	30390.1
747.556	30241.86
747.895	30268.3
748.234	30177
748.573	30086.16
748.911	30070.79
749.25	29990.12
749.589	29936.11
749.928	30006.84
750.267	29998.48
750.605	29750.35
750.944	29858.59
751.283	29683
751.621	29845.03
751.96	29624.25
752.298	29560.07
752.636	29589.9
752.975	29516.46
753.313	29373.18
753.651	29566.17
753.989	29334.31
754.327	29315.33
754.666	29045.51
755.004	29043.02
755.342	29262.22
755.679	29113.08
756.017	28946.3
756.355	28961.89
756.693	28893.87
757.031	28871.95
757.368	28775.01
757.706	28740.2
758.044	28596.25
758.381	28576.82
758.719	28453.43
759.056	28584.28
759.394	28427.9
759.731	28292.98
760.068	28187.9
760.405	28075.36
760.743	28070.39
761.08	28118.3
761.417	27997.85
761.754	27936.38
762.091	27837.86
762.428	27710.63
762.765	27508.15
763.102	27678.09
763.438	27448.26
763.775	27329.17
764.112	27385.89
764.449	27339.11
764.785	27278.55
765.122	27046.01
765.458	27023.87
765.795	26954.94
766.131	27085.11
766.467	26908.39
766.804	26729.86
767.14	26578.23
767.476	26576.87
767.812	26415.07
768.148	26415.29
768.485	26262.76
768.821	26200.61
769.157	26151.8
769.492	26069.99
769.828	26103.89
770.164	25773.5
770.5	25713.84
770.836	25668.2
771.171	25601.53
771.507	25679.49
771.842	25277.7
772.178	25283.8
772.513	25310.01
772.849	25129
773.184	25088.55
773.519	25086.52
773.855	24967.2
774.19	24783.02
774.525	24792.74
774.86	24695.57
775.195	24747.99
775.53	24480.88
775.865	24555.68
776.2	24305.52
776.535	24192.3
776.87	24134.22
777.205	23984.4
777.539	23988.92
777.874	24025.98
778.209	23806.78
778.543	23787.11
778.878	23621.92
779.212	23493.11
779.547	23475.03
779.881	23450.85
780.215	23294.7
780.55	23304.64
780.884	23188.26
781.218	23176.74
781.552	23066.46
781.886	22977.87
782.22	22840.02
782.554	22690.65
782.888	22590.08
783.222	22508.96
783.556	22398
783.889	22369.75
784.223	22250.88
784.557	22332.69
784.89	22181.96
785.224	22065.13
785.557	21965.02
785.891	21968.41
786.224	21803.21
786.558	21761.18
786.891	21592.37
787.224	21625.82
787.557	21516.67
787.891	21377.46
788.224	21441.64
788.557	21336.78
788.89	21350.34
789.223	21254.3
789.556	21077.81
789.888	21012.95
790.221	20901.54
790.554	20689.79
790.887	20822.22
791.219	20731.38
791.552	20662.9
791.884	20548.78
792.217	20487.77
792.549	20437.37
792.882	20259.07
793.214	20302.91
793.546	20210.71
793.879	20097.04
794.211	20045.52
794.543	20090.49
794.875	20003.49
795.207	20095.91
795.539	19968.91
795.871	19832.19
796.203	19732.31
796.535	19651.18
796.867	19541.12
797.198	19487.57
797.53	19642.59
797.862	19494.35
798.193	19434.91
798.525	19265.2
798.856	19289.15
799.188	19217.52
799.519	19094.58
799.85	18958.54
800.182	18996.05
800.513	19001.48
800.844	18841.26
801.175	18810.07
801.506	18799.68
801.837	18671.09
802.168	18715.84
802.499	18669.51
802.83	18609.62
803.161	18419.8
803.491	18530.76
803.822	18401.72
804.153	18292.34
804.483	18185.91
804.814	18060.94
805.145	18083.76
805.475	18060.26
805.805	17955.18
806.136	18047.38
806.466	17999.92
806.796	17826.59
807.126	17801.28
807.457	17656.43
807.787	17793.83
808.117	17688.29
808.447	17582.98
808.777	17658.01
809.107	17597.45
809.436	17482.65
809.766	17493.27
810.096	17425.02
810.426	17381.18
810.755	17267.29
811.085	17284.01
811.414	17182.77
811.744	17081.08
812.073	16970.34
812.403	17104.35
812.732	17044.47
813.061	16938.71
813.39	16914.98
813.719	16854.87
814.049	16875.66
814.378	16828.65
814.707	16694.65
815.036	16736.45
815.365	16710.92
815.693	16519.06
816.022	16470.24
816.351	16409.46
816.68	16286.97
817.008	16484.26
817.337	16379.4
817.665	16354.54
817.994	16317.25
818.322	16244.49
818.651	16180.76
818.979	16122.91
819.307	16248.56
819.636	16044.95
819.964	16004.04
820.292	16099.86
820.62	16058.73
820.948	16011.05
821.276	16051.72
821.604	15990.94
821.932	15961.78
822.259	15944.83
822.587	15951.84
822.915	15899.41
823.243	16021.22
823.57	15987.77
823.898	15988.9
824.225	15870.71
824.553	15881.33
824.88	15879.07
825.207	15884.05
825.535	15933.76
825.862	15853.76
826.189	15863.93
826.516	15932.18
826.843	15920.2
827.17	15958.39
827.497	15987.32
827.824	15904.84
828.151	15882.69
828.478	15954.55
828.805	15956.59
829.131	15851.73
829.458	15769.7
829.785	15816.25
830.111	15827.32
830.438	15949.81
830.764	15974.89
831.09	15937.6
831.417	15767.66
831.743	15990.26
832.069	15849.02
832.395	15786.42
832.722	15828.23
833.048	15802.01
833.374	15807.21
833.7	15753.43
834.026	15818.74
834.351	15708.46
834.677	15699.42
835.003	15691.28
835.329	15696.48
835.654	15625.07
835.98	15613.77
836.306	15614.67
836.631	15533.55
836.956	15516.15
837.282	15557.05
837.607	15470.95
837.932	15458.97
838.258	15469.37
838.583	15376.71
838.908	15331.52
839.233	15369.93
839.558	15358.41
839.883	15364.29
840.208	15221.24
840.533	15237.96
840.858	15193.89
841.182	15237.06
841.507	15222.37
841.832	15121.13
842.156	15049.94
842.481	15102.6
842.805	15044.75
843.13	15052.88
843.454	15057.17
843.778	14999.1
844.103	14947.35
844.427	14910.96
844.751	14848.59
845.075	14755.49
845.399	14713.68
845.723	14705.77
846.047	14749.84
846.371	14549.17
846.695	14560.24
847.019	14457.64
847.343	14342.62
847.666	14255.16
847.99	14285.67
848.313	14241.38
848.637	14192.79
848.96	14229.17
849.284	14109.4
849.607	14052.46
849.931	13948.5
850.254	13812.24
850.577	13769.75
850.9	13653.37
851.223	13641.39
851.546	13585.35
851.869	13552.13
852.192	13663.54
852.515	13480.49
852.838	13435.97
853.161	13481.4
853.483	13273.72
853.806	13204.12
854.129	13215.64
854.451	13192.82
854.774	13177.9
855.096	13165.02
855.419	13102.42
855.741	13004.8
856.063	13038.24
856.385	12986.72
856.708	12972.03
857.03	12964.12
857.352	12884.35
857.674	12868.08
857.996	12745.82
858.318	12744.92
858.64	12712.83
858.961	12647.29
859.283	12655.88
859.605	12562.78
859.926	12626.96
860.248	12566.84
860.57	12386.28
860.891	12556
861.212	12416.34
861.534	12461.54
861.855	12426.74
862.176	12377.47
862.498	12372.05
862.819	12374.76
863.14	12287.3
863.461	12294.31
863.782	12202.33
864.103	12240.07
864.424	12192.39
864.745	12185.39
865.065	12038.5
865.386	12084.82
865.707	12045.5
866.027	12019.51
866.348	12053.41
866.668	12065.61
866.989	11993.3
867.309	12002.34
867.63	11957.37
867.95	11947.65
868.27	11861.78
868.59	11819.97
868.91	11830.59
869.23	11803.93
869.55	11844.6
869.87	11789.01
870.19	11796.02
870.51	11775.91
870.83	11783.81
871.15	11698.84
871.469	11705.17
871.789	11718.28
872.109	11648.9
872.428	11586.53
872.748	11633.76
873.067	11631.73
873.386	11665.85
873.706	11585.85
874.025	11578.4
874.344	11475.35
874.663	11542.92
874.982	11485.74
875.301	11562.13
875.62	11441.45
875.939	11378.63
876.258	11402.13
876.577	11394.22
876.896	11406.65
877.214	11309.25
877.533	11350.61
877.852	11332.75
878.17	11387.21
878.489	11263.15
878.807	11365.97
879.125	11225.64
879.444	11245.52
879.762	11168.01
880.08	11145.87
880.398	11089.6
880.716	11138.63
881.034	11073.55
881.352	11149.71
881.67	11100.67
881.988	11075.81
882.306	11042.82
882.624	10992.87
882.941	10959.66
883.259	10940.67
883.577	10919.66
883.894	10879.66
884.212	10919.66
884.529	10895.7
884.846	10773.22
885.164	10740.68
885.481	10764.18
885.798	10829.72
886.115	10737.51
886.432	10714.69
886.75	10693.45
887.067	10638.53
887.383	10591.3
887.7	10641.92
888.017	10600.79
888.334	10523.96
888.651	10519.89
888.967	10510.85
889.284	10483.51
889.6	10480.35
889.917	10364.42
890.233	10361.25
890.55	10284.87
890.866	10327.81
891.182	10282.84
891.498	10248.26
891.815	10216.85
892.131	10170.52
892.447	10163.29
892.763	10140.24
893.079	10094.14
893.395	10034.26
893.71	10032.9
894.026	10078.77
894.342	9996.97
894.657	9929.17
894.973	9976.86
895.289	9871.32
895.604	9911.1
895.92	9778.67
896.235	9773.47
896.55	9763.08
896.865	9737.99
897.181	9668.16
897.496	9717.88
897.811	9617.77
898.126	9650.99
898.441	9511.56
898.756	9621.61
899.071	9463.42
899.386	9507.04
899.7	9457.1
900.015	9447.83
900.33	9381.17
900.644	9333.26
900.959	9345.69
901.273	9255.52
901.588	9231.57
901.902	9218.91
902.216	9168.52
902.531	9128.74
902.845	9027.73
903.159	9022.76
903.473	9038.12
903.787	9045.13
904.101	8895.53
904.415	9023.44
904.729	8941.18
905.042	8848.52
905.356	8869.09
905.67	8751.58
905.984	8825.02
906.297	8721.52
906.611	8587.74
906.924	8608.3
907.237	8681.98
907.551	8638.36
907.864	8575.99
908.177	8570.57
908.491	8550.23
908.804	8480.85
909.117	8380.06
909.43	8452.83
909.743	8379.38
910.056	8371.02
910.368	8295.54
910.681	8302.78
910.994	8287.41
911.307	8216.9
911.619	8156.11
911.932	8131.26
912.244	8145.94
912.557	8092.16
912.869	8001.54
913.181	7983.69
913.494	7980.52
913.806	7927.19
914.118	7909.57
914.43	7879.96
914.742	7825.95
915.054	7797.93
915.366	7775.56
915.678	7747.31
915.99	7726.52
916.302	7671.38
916.613	7637.03
916.925	7641.78
917.236	7551.38
917.548	7574.66
917.859	7532.85
918.171	7484.04
918.482	7456.24
918.794	7438.17
919.105	7376.47
919.416	7368.56
919.727	7343.03
920.038	7313.65
920.349	7231.84
920.66	7141.68
920.971	7238.62
921.282	7156.14
921.593	7159.98
921.903	7119.3
922.214	7129.7
922.525	7034.33
922.835	7007.67
923.146	6944.62
923.456	6959.76
923.767	6926.99
924.077	6908.46
924.387	6901
924.697	6865.75
925.008	6866.2
925.318	6779.43
925.628	6787.34
925.938	6756.83
926.248	6724.74
926.558	6652.2
926.867	6665.98
927.177	6601.58
927.487	6578.98
927.796	6549.38
928.106	6444.29
928.416	6481.81
928.725	6496.04
929.034	6452.43
929.344	6428.7
929.653	6416.95
929.962	6326.33
930.271	6360.91
930.581	6346.67
930.89	6260.12
931.199	6205.88
931.508	6214.24
931.817	6158.2
932.125	6220.8
932.434	6216.05
932.743	6062.61
933.051	6083.85
933.36	6031.42
933.669	5982.61
933.977	6008.15
934.286	5977.19
934.594	6013.34
934.902	5921.14
935.21	5921.14
935.519	5914.36
935.827	5931.09
936.135	5799.79
936.443	5762.96
936.751	5812.67
937.059	5717.76
937.367	5740.13
937.674	5711.66
937.982	5683.41
938.29	5683.86
938.597	5681.38
938.905	5593.92
939.213	5576.29
939.52	5538.1
939.827	5567.25
940.135	5552.57
940.442	5520.7
940.749	5489.74
941.056	5503.53
941.363	5437.99
941.67	5370.42
941.977	5346.24
942.284	5331.33
942.591	5304.66
942.898	5291.33
943.205	5282.97
943.511	5245
943.818	5238
944.125	5208.17
944.431	5199.58
944.738	5159.58
945.044	5172.46
945.35	5074.61
945.657	5020.83
945.963	5015.86
946.269	4993.71
946.575	5015.86
946.881	5027.38
947.187	4989.42
947.493	4971.34
947.799	4899.02
948.105	4921.4
948.41	4901.51
948.716	4894.73
949.022	4898.8
949.327	4841.62
949.633	4785.13
949.938	4764.11
950.244	4820.16
950.549	4766.37
950.854	4736.77
951.16	4761.63
951.465	4681.18
951.77	4655.19
952.075	4662.65
952.38	4671.01
952.685	4617.9
952.99	4619.48
953.294	4589.65
953.599	4560.95
953.904	4560.05
954.209	4504.91
954.513	4487.51
954.818	4472.82
955.122	4437.11
955.426	4457
955.731	4445.02
956.035	4419.04
956.339	4373.84
956.643	4356.89
956.948	4337.23
957.252	4335.42
957.556	4318.25
957.86	4285.25
958.163	4307.4
958.467	4245.03
958.771	4258.81
959.075	4239.61
959.378	4224.69
959.682	4194.41
959.985	4225.82
960.289	4128.65
960.592	4089.55
960.896	4074.64
961.199	4066.5
961.502	4075.32
961.805	4051.81
962.108	4044.81
962.411	4017.24
962.714	4021.98
963.017	4017.92
963.32	3998.93
963.623	3924.81
963.926	3908.54
964.228	3921.42
964.531	3943.79
964.833	3873.29
965.136	3859.73
965.438	3866.28
965.741	3846.62
966.043	3817.7
966.345	3799.84
966.648	3764.14
966.95	3759.17
967.252	3735.44
967.554	3749.68
967.856	3723.01
968.158	3680.07
968.46	3661.99
968.761	3684.37
969.063	3668.77
969.365	3621.54
969.666	3637.14
969.968	3537.25
970.269	3570.02
970.571	3584.03
970.872	3553.52
971.174	3533.86
971.475	3514.88
971.776	3524.14
972.077	3509.68
972.378	3458.84
972.679	3457.93
972.98	3437.14
973.281	3422.45
973.582	3420.19
973.883	3382.23
974.183	3397.37
974.484	3370.25
974.785	3329.35
975.085	3366.63
975.386	3328.9
975.686	3310.14
975.986	3291.38
976.287	3346.07
976.587	3237.37
976.887	3226.07
977.187	3233.98
977.487	3244.15
977.787	3196.7
978.087	3194.44
978.387	3162.8
978.687	3170.71
978.987	3128.45
979.286	3124.61
979.586	3126.41
979.885	3083.03
980.185	3095.23
980.484	3086.19
980.784	3072.18
981.083	3062.69
981.382	3033.54
981.682	3046.64
981.981	2991.73
982.28	3005.74
982.579	2965.52
982.878	2982.46
983.177	2939.08
983.475	2951.5
983.774	2926.87
984.073	2907.89
984.372	2904.27
984.67	2909.47
984.969	2862.24
985.267	2867.44
985.566	2873.99
985.864	2848.91
986.162	2830.6
986.461	2835.35
986.759	2849.59
987.057	2807.1
987.355	2802.13
987.653	2771.4
987.951	2727.78
988.249	2739.08
988.547	2713.54
988.844	2688.46
989.142	2701.57
989.44	2708.8
989.737	2693.43
990.035	2664.28
990.332	2643.04
990.63	2648.46
990.927	2622.02
991.224	2595.36
991.521	2631.29
991.819	2560.1
992.116	2573.21
992.413	2561.01
992.71	2548.35
993.006	2561.46
993.303	2516.26
993.6	2548.58
993.897	2513.55
994.193	2507.9
994.49	2490.95
994.787	2492.31
995.083	2481.69
995.379	2467.22
995.676	2426.09
995.972	2459.77
996.268	2402.59
996.565	2395.13
996.861	2403.27
997.157	2385.19
997.453	2367.11
997.749	2374.34
998.044	2338.87
998.34	2314.91
998.636	2282.37
998.932	2318.75
999.227	2322.59
999.523	2309.49
999.818	2266.55
1000.114	2248.25
1000.409	2252.54
1000.704	2231.07
1001	2256.83
1001.295	2205.54
1001.59	2196.04
1001.885	2178.64
1002.18	2185.42
1002.475	2166.44
1002.77	2157.17
1003.065	2153.33
1003.359	2134.58
1003.654	2157.85
1003.949	2116.95
1004.243	2080.79
1004.538	2092.77
1004.832	2114.01
1005.127	2076.5
1005.421	2067.46
1005.715	2020.23
1006.009	1996.73
1006.304	2011.87
1006.598	2034.92
1006.892	2030.17
1007.186	1975.71
1007.48	1969.61
1007.773	1936.62
1008.067	1974.35
1008.361	1933
1008.655	1918.76
1008.948	1925.09
1009.242	1947.69
1009.535	1894.13
1009.829	1887.58
1010.122	1869.05
1010.415	1846.9
1010.708	1850.29
1011.001	1862.49
1011.295	1824.75
1011.588	1838.31
1011.881	1843.96
1012.173	1816.62
1012.466	1809.39
1012.759	1769.84
1013.052	1774.13
1013.344	1745.89
1013.637	1752.21
1013.93	1755.6
1014.222	1741.82
1014.514	1761.25
1014.807	1718.32
1015.099	1717.19
1015.391	1683.52
1015.683	1679.67
1015.976	1677.41
1016.268	1663.18
1016.56	1661.37
1016.851	1641.26
1017.143	1603.29
1017.435	1600.13
1017.727	1594.03
1018.018	1592.9
1018.31	1560.58
1018.602	1587.7
1018.893	1552.9
1019.185	1554.7
1019.476	1562.84
1019.767	1558.09
1020.058	1533.91
1020.35	1523.97
1020.641	1481.03
1020.932	1504.08
1021.223	1475.84
1021.514	1468.61
1021.804	1458.89
1022.095	1464.09
1022.386	1461.15
1022.677	1456.18
1022.967	1437.42
1023.258	1435.39
1023.548	1401.26
1023.839	1398.1
1024.129	1389.06
1024.419	1411.88
1024.709	1357.42
1025	1375.27
1025.29	1349.74
1025.58	1322.39
1025.87	1348.16
1026.16	1317.2
1026.449	1319.23
1026.739	1284.88
1027.029	1321.26
1027.319	1296.18
1027.608	1292.34
1027.898	1297.76
1028.187	1240.14
1028.477	1284.43
1028.766	1264.32
1029.055	1234.26
1029.344	1216.63
1029.634	1231.1
1029.923	1227.71
1030.212	1231.55
1030.501	1181.61
1030.79	1203.3
1031.078	1165.11
1031.367	1172.57
1031.656	1166.69
1031.945	1150.87
1032.233	1168.73
1032.522	1168.73
1032.81	1141.16
1033.099	1144.77
1033.387	1120.37
1033.675	1129.86
1033.963	1098.45
1034.251	1109.97
1034.54	1079.24
1034.828	1068.62
1035.116	1075.62
1035.403	1089.18
1035.691	1067.94
1035.979	1047.83
1036.267	1068.62
1036.554	1025.45
1036.842	1054.61
1037.129	1044.89
1037.417	1032.23
1037.704	1029.07
1037.992	1035.4
1038.279	1000.82
1038.566	1022.06
1038.853	1022.06
1039.14	1022.06
