Data from hue_190_FLMS001491_00026.txt Node
Date: Tue Feb 07 16:45:03 GMT 2017
User: dcchb
Spectrometer: FLMS00149
Trigger mode: 0
Integration Time (sec): 2.000000E-2
Scans to average: 10
Electric dark correction enabled: true
Nonlinearity correction enabled: false
Boxcar width: 0
XAxis mode: Wavelengths
Number of Pixels in Spectrum: 2048
>>>>>Begin Spectral Data<<<<<
341.393	-11.31
341.776	-11.31
342.16	-11.31
342.543	-41.59
342.927	-74.59
343.31	-58.77
343.693	-72.1
344.077	-76.4
344.46	-44.98
344.843	-50.18
345.226	-61.48
345.61	-40.24
345.993	-29.84
346.376	-2.5
346.759	8.57
347.142	36.14
347.525	56.48
347.908	58.97
348.291	72.53
348.674	85.41
349.057	118.4
349.44	143.03
349.823	147.55
350.206	150.49
350.588	190.26
350.971	208.12
351.354	231.84
351.737	235.69
352.119	249.47
352.502	266.42
352.884	267.55
353.267	273.88
353.65	289.02
354.032	310.49
354.414	312.97
354.797	303.25
355.179	324.72
355.562	305.29
355.944	323.59
356.326	309.58
356.709	347.55
357.091	333.31
357.473	355.23
357.855	329.69
358.238	329.02
358.62	346.42
359.002	329.47
359.384	331.05
359.766	339.64
360.148	343.48
360.53	334.44
360.912	339.41
361.294	322.24
361.676	339.64
362.057	336.47
362.439	333.31
362.821	326.76
363.203	339.41
363.584	318.62
363.966	318.4
364.348	313.88
364.729	315.01
365.111	325.85
365.493	318.17
365.874	298.06
366.256	310.03
366.637	301.9
367.019	301.9
367.4	313.65
367.781	299.19
368.163	325.63
368.544	304.84
368.925	306.87
369.306	310.94
369.688	319.75
370.069	305.06
370.45	301.9
370.831	319.53
371.212	291.05
371.593	324.05
371.974	309.58
372.355	292.86
372.736	308.23
373.117	318.4
373.498	333.54
373.879	294.67
374.26	294.22
374.641	299.41
375.021	317.04
375.402	333.99
375.783	295.8
376.163	315.23
376.544	303.71
376.925	312.29
377.305	314.33
377.686	319.98
378.066	290.83
378.447	329.69
378.827	322.92
379.208	310.94
379.588	332.41
379.968	324.27
380.349	314.78
380.729	333.31
381.109	310.26
381.489	315.91
381.87	312.52
382.25	316.14
382.63	317.27
383.01	334.89
383.39	347.55
383.77	341.9
384.15	337.38
384.53	335.12
384.91	327.43
385.29	343.93
385.67	323.37
386.049	339.64
386.429	344.84
386.809	336.02
387.189	370.15
387.568	362.46
387.948	345.51
388.328	368.56
388.707	327.21
389.087	344.16
389.466	356.81
389.846	355.23
390.225	363.59
390.605	329.24
390.984	347.32
391.363	357.49
391.743	352.07
392.122	360.2
392.501	364.72
392.881	371.95
393.26	342.8
393.639	353.87
394.018	372.18
394.397	377.15
394.776	372.18
395.155	367.21
395.534	359.3
395.913	356.36
396.292	384.83
396.671	364.72
397.05	376.7
397.429	370.82
397.808	383.48
398.186	393.42
398.565	376.25
398.944	358.62
399.323	403.14
399.701	395
400.08	398.17
400.458	410.37
400.837	378.96
401.215	399.3
401.594	391.39
401.972	409.24
402.351	392.74
402.729	404.72
403.107	427.55
403.486	416.47
403.864	432.06
404.242	414.66
404.62	407.88
404.999	434.1
405.377	418.73
405.755	429.13
406.133	435.23
406.511	469.35
406.889	461.22
407.267	444.95
407.645	476.36
408.023	463.25
408.401	486.3
408.779	484.27
409.156	456.92
409.534	483.59
409.912	481.1
410.29	515.9
410.667	500.31
411.045	512.97
411.422	513.42
411.8	508
412.178	533.31
412.555	532.85
412.933	545.28
413.31	545.51
413.687	552.06
414.065	585.06
414.442	582.12
414.819	585.06
415.197	599.07
415.574	606.52
415.951	628.22
416.328	625.05
416.705	649.01
417.082	638.16
417.46	656.01
417.837	668.22
418.214	649.23
418.591	662.57
418.967	678.61
419.344	671.15
419.721	694.2
420.098	701.66
420.475	708.89
420.852	724.71
421.228	744.37
421.605	731.94
421.982	770.14
422.358	767.2
422.735	802.45
423.111	792.51
423.488	793.86
423.864	815.11
424.241	823.47
424.617	847.87
424.994	844.03
425.37	844.48
425.746	868.66
426.123	882.22
426.499	867.31
426.875	904.37
427.251	910.92
427.627	963.58
428.003	976.01
428.379	994.08
428.756	976.23
429.132	989.79
429.507	979.85
429.883	1032.05
430.259	1016.91
430.635	1038.6
431.011	1044.7
431.387	1069.34
431.763	1093.52
432.138	1101.2
432.514	1105.49
432.89	1106.4
433.265	1138.71
433.641	1175.55
434.016	1178.03
434.392	1217.13
434.767	1239.73
435.143	1240.86
435.518	1273.62
435.894	1291.48
436.269	1351.81
436.644	1350.23
437.02	1358.82
437.395	1378.93
437.77	1369.89
438.145	1422.77
438.52	1452.83
438.895	1441.53
439.271	1455.09
439.646	1540.51
440.021	1543
440.395	1546.39
440.77	1564.46
441.145	1585.03
441.52	1626.84
441.895	1623.22
442.27	1670.45
442.645	1647.85
443.019	1719.94
443.394	1689.66
443.769	1718.13
444.143	1721.07
444.518	1780.73
444.892	1759.49
445.267	1781.41
445.641	1780.5
446.016	1801.52
446.39	1837.23
446.764	1832.25
447.139	1847.17
447.513	1866.15
447.887	1908.41
448.262	1876.55
448.636	1911.57
449.01	1945.92
449.384	1931.46
449.758	1968.97
450.132	2025.02
450.506	1967.17
450.88	2034.73
451.254	2026.37
451.628	2054.17
452.002	2101.17
452.376	2064.56
452.75	2107.5
453.123	2114.28
453.497	2152.7
453.871	2193.37
454.244	2214.39
454.618	2252.13
454.992	2305.01
455.365	2285.35
455.739	2272.24
456.112	2330.77
456.486	2383.43
456.859	2394.95
457.232	2452.58
457.606	2414.39
457.979	2444.89
458.352	2557.43
458.725	2533.03
459.099	2563.08
459.472	2604.89
459.845	2643.98
460.218	2639.24
460.591	2709.07
460.964	2677.66
461.337	2763.08
461.71	2822.74
462.083	2857.09
462.456	2874.49
462.829	2830.42
463.201	2942.06
463.574	2951.55
463.947	2954.03
464.32	3076.29
464.692	3056.4
465.065	3114.48
465.438	3171.88
465.81	3226.12
466.183	3220.24
466.555	3321.71
466.928	3321.48
467.3	3334.59
467.672	3374.13
468.045	3485.09
468.417	3472.89
468.789	3526.22
469.161	3549.72
469.534	3606.44
469.906	3688.02
470.278	3695.93
470.65	3724.63
471.022	3852.31
471.394	3887.12
471.766	3929.37
472.138	3979.54
472.51	4064.74
472.882	4098.18
473.253	4112.19
473.625	4226.77
473.997	4316.71
474.369	4349.02
474.74	4411.17
475.112	4478.74
475.484	4552.86
475.855	4625.17
476.227	4693.42
476.598	4818.16
476.97	4875.34
477.341	4974.54
477.713	5029.01
478.084	5025.16
478.455	5222.9
478.827	5222
479.198	5434.87
479.569	5426.51
479.94	5545.38
480.311	5593.96
480.682	5743.34
481.053	5875.54
481.424	6001.18
481.795	6027.85
482.166	6126.38
482.537	6214.29
482.908	6312.36
483.279	6410.66
483.65	6516.2
484.021	6594.61
484.391	6614.28
484.762	6698.79
485.133	6797.1
485.503	6875.06
485.874	7068.27
486.244	7111.21
486.615	7259
486.985	7381.26
487.356	7495.38
487.726	7526.57
488.097	7633.23
488.467	7703.96
488.837	7878.87
489.207	8003.84
489.578	8116.16
489.948	8113.22
490.318	8253.55
490.688	8272.31
491.058	8407
491.428	8478.63
491.798	8618.74
492.168	8712.98
492.538	8794.33
492.908	8873.2
493.278	9009.24
493.648	8952.74
494.017	9117.94
494.387	9203.59
494.757	9167.65
495.126	9327.65
495.496	9298.05
495.866	9319.29
496.235	9508.44
496.605	9553.63
496.974	9531.94
497.344	9713.85
497.713	9718.83
498.082	9755.21
498.452	9860.97
498.821	9887.18
499.19	9916.79
499.559	9972.83
499.928	9953.17
500.298	10050.12
500.667	10100.06
501.036	10118.82
501.405	10194.07
501.774	10145.71
502.143	10241.52
502.512	10267.96
502.88	10335.53
503.249	10316.32
503.618	10343.44
503.987	10384.35
504.356	10428.41
504.724	10500.05
505.093	10511.8
505.462	10529.88
505.83	10609.42
506.199	10616.43
506.567	10764.9
506.936	10674.96
507.304	10720.16
507.672	10741.4
508.041	10785.46
508.409	10782.3
508.777	10884.22
509.145	10880.15
509.514	10809.65
509.882	10902.52
510.25	10941.17
510.618	10955.18
510.986	10934.16
511.354	11013.93
511.722	11042.18
512.09	10998.34
512.458	10994.27
512.826	11088.51
513.193	11083.31
513.561	11046.48
513.929	11132.12
514.297	11208.28
514.664	11167.38
515.032	11212.57
515.4	11295.96
515.767	11208.96
516.135	11221.39
516.502	11076.76
516.869	11223.42
517.237	11225
517.604	11179.35
517.972	11261.16
518.339	11251.44
518.706	11253.7
519.073	11255.51
519.44	11247.37
519.808	11338.44
520.175	11194.49
520.542	11318.11
520.909	11242.63
521.276	11232.46
521.643	11336.64
522.009	11332.57
522.376	11312.68
522.743	11336.18
523.11	11413.25
523.477	11369.86
523.843	11384.32
524.21	11452.79
524.577	11374.83
524.943	11416.86
525.31	11451.21
525.676	11398.33
526.043	11489.85
526.409	11445.56
526.776	11488.5
527.142	11369.18
527.508	11364.43
527.874	11341.61
528.241	11386.58
528.607	11311.33
528.973	11378.9
529.339	11225.68
529.705	11291.21
530.071	11282.63
530.437	11258.45
530.803	11266.81
531.169	11252.57
531.535	11140.94
531.901	11145.46
532.267	11116.08
532.632	11128.51
532.998	11069.3
533.364	11107.49
533.73	11056.19
534.095	10989.08
534.461	10891
534.826	10888.29
535.192	10832.02
535.557	10895.52
535.923	10735.75
536.288	10724.22
536.653	10680.83
537.019	10629.31
537.384	10587.05
537.749	10563.32
538.114	10470.45
538.479	10444.91
538.845	10420.73
539.21	10368.98
539.575	10358.36
539.94	10258.7
540.305	10258.02
540.67	10153.39
541.034	10114.97
541.399	10157.23
541.764	10058.25
542.129	10010.12
542.494	9940.29
542.858	9904.81
543.223	9801.31
543.587	9789.78
543.952	9747.07
544.316	9704.59
544.681	9627.98
545.045	9617.81
545.41	9595.21
545.774	9475.67
546.138	9444.71
546.503	9490.81
546.867	9300.08
547.231	9310.93
547.595	9203.81
547.959	9218.27
548.324	9165.39
548.688	9155
549.052	9077.49
549.416	8988.45
549.779	9045.17
550.143	8938.73
550.507	8941.9
550.871	8822.35
551.235	8761.56
551.599	8795.01
551.962	8755.24
552.326	8631.4
552.689	8635.92
553.053	8546.88
553.417	8536.94
553.78	8577.61
554.143	8477.28
554.507	8416.26
554.87	8384.85
555.234	8424.85
555.597	8368.81
555.96	8309.15
556.323	8212.88
556.686	8149.15
557.05	8223.5
557.413	8128.59
557.776	8097.17
558.139	8049.72
558.502	8087.68
558.865	8086.78
559.228	8095.82
559.59	8003.17
559.953	7972.66
560.316	7998.19
560.679	7991.87
561.041	7939.89
561.404	7936.73
561.767	7881.13
562.129	7889.27
562.492	7879.78
562.854	7833.9
563.217	7845.88
563.579	7822.83
563.941	7777.41
564.304	7769.05
564.666	7836.84
565.028	7760.69
565.39	7713.23
565.753	7801.59
566.115	7802.27
566.477	7760.23
566.839	7725.66
567.201	7694.02
567.563	7666
567.925	7698.77
568.287	7668.71
568.648	7689.05
569.01	7689.28
569.372	7676.39
569.734	7698.09
570.095	7659.67
570.457	7632.1
570.819	7648.6
571.18	7628.03
571.542	7622.61
571.903	7565.21
572.265	7633.91
572.626	7628.03
572.987	7611.31
573.349	7618.32
573.71	7644.76
574.071	7557.53
574.432	7622.16
574.794	7666
575.155	7588.49
575.516	7570.41
575.877	7540.58
576.238	7512.33
576.599	7653.34
576.96	7568.83
577.32	7565.66
577.681	7592.33
578.042	7656.73
578.403	7533.57
578.763	7584.87
579.124	7496.96
579.485	7570.18
579.845	7553.23
580.206	7476.63
580.566	7514.14
580.927	7534.03
581.287	7568.15
581.648	7505.1
582.008	7496.51
582.368	7490.86
582.728	7412.45
583.089	7454.71
583.449	7366.12
583.809	7469.17
584.169	7466
584.529	7355.72
584.889	7386.46
585.249	7391.2
585.609	7323.86
585.969	7352.56
586.329	7352.79
586.688	7385.55
587.048	7362.5
587.408	7356.4
587.768	7296.74
588.127	7288.61
588.487	7241.6
588.846	7267.59
589.206	7227.37
589.565	7289.06
589.925	7237.08
590.284	7228.5
590.643	7236.18
591.003	7234.15
591.362	7224.43
591.721	7215.16
592.08	7240.25
592.44	7223.52
592.799	7178.78
593.158	7221.49
593.517	7224.65
593.876	7239.8
594.235	7155.73
594.593	7134.71
594.952	7166.13
595.311	7145.33
595.67	7077.77
596.029	7142.85
596.387	7152.11
596.746	7174.03
597.104	7125.67
597.463	7072.57
597.822	7087.71
598.18	7118.44
598.538	7048.61
598.897	7075.96
599.255	7024.21
599.613	7097.65
599.972	7101.27
600.33	7084.32
600.688	7088.61
601.046	7051.1
601.404	7103.53
601.762	7053.13
602.12	7108.5
602.478	7035.96
602.836	7085.22
603.194	7062.63
603.552	7003.42
603.91	7000.03
604.268	7066.24
604.625	7002.51
604.983	7029.63
605.341	7004.77
605.698	7013.81
606.056	7076.18
606.413	7039.12
606.771	7034.15
607.128	7024.43
607.485	7020.37
607.843	6983.08
608.2	7031.89
608.557	7018.78
608.914	7026.92
609.272	7067.37
609.629	7056.52
609.986	7085.22
610.343	7018.56
610.7	7026.92
611.057	7031.67
611.414	7026.92
611.771	7052
612.127	7035.51
612.484	7067.6
612.841	7074.6
613.198	7038.22
613.554	7079.8
613.911	7054.04
614.267	7052.23
614.624	7017.88
614.98	7071.44
615.337	7087.26
615.693	7030.08
616.05	7025.34
616.406	7147.37
616.762	7054.49
617.118	7082.29
617.475	7072.34
617.831	7134.94
618.187	7058.11
618.543	7094.49
618.899	7141.94
619.255	7153.24
619.611	7082.74
619.967	7085
620.323	7147.14
620.678	7111.44
621.034	7097.88
621.39	7039.57
621.746	7127.93
622.101	7142.62
622.457	7102.85
622.812	7157.76
623.168	7113.02
623.523	7098.78
623.879	7082.51
624.234	7089.74
624.589	7110.53
624.945	7084.77
625.3	7141.27
625.655	7107.82
626.01	7159.57
626.365	7106.47
626.72	7033.47
627.075	7037.99
627.43	7030.54
627.785	7068.95
628.14	7050.65
628.495	7153.7
628.85	7146.46
629.205	7038.22
629.559	7122.96
629.914	6979.92
630.269	7011.55
630.623	6976.75
630.978	7095.39
631.332	7052.68
631.687	7001.38
632.041	7019.91
632.396	7059.91
632.75	6942.4
633.104	6991.67
633.459	6975.85
633.813	6956.19
634.167	6995.73
634.521	6981.95
634.875	6972.23
635.229	6901.73
635.583	6894.72
635.937	6885.91
636.291	6922.29
636.645	6935.4
636.999	6871.67
637.352	6879.13
637.706	6836.42
638.06	6945.57
638.413	6849.98
638.767	6836.42
639.121	6839.35
639.474	6807.94
639.828	6826.25
640.181	6822.63
640.534	6840.03
640.888	6826.02
641.241	6806.36
641.594	6798.9
641.947	6822.63
642.301	6757.32
642.654	6775.85
643.007	6763.88
643.36	6798.68
643.713	6728.62
644.066	6738.34
644.419	6710.54
644.771	6777.21
645.124	6686.82
645.477	6639.59
645.83	6621.73
646.182	6640.26
646.535	6583.54
646.888	6589.42
647.24	6584.45
647.593	6563.43
647.945	6591.22
648.298	6529.31
648.65	6551.68
649.002	6506.71
649.355	6565.01
649.707	6553.49
650.059	6567.04
650.411	6660.83
650.763	6685.69
651.115	6702.63
651.467	6676.87
651.819	6726.14
652.171	6743.54
652.523	6702.63
652.875	6685.23
653.227	6652.69
653.578	6786.93
653.93	6662.64
654.282	6654.05
654.633	6661.05
654.985	6721.17
655.337	6717.1
655.688	6761.62
656.039	6716.87
656.391	6730.43
656.742	6711.45
657.094	6705.12
657.445	6754.84
657.796	6768.62
658.147	6756.64
658.498	6732.92
658.849	6749.41
659.2	6752.8
659.551	6793.93
659.902	6809.75
660.253	6755.74
660.604	6758.23
660.955	6739.92
661.306	6779.92
661.656	6774.27
662.007	6759.36
662.358	6771.79
662.708	6802.97
663.059	6811.11
663.409	6777.21
663.76	6824.67
664.11	6789.41
664.461	6860.6
664.811	6793.71
665.161	6854.72
665.511	6753.71
665.862	6875.51
666.212	6816.98
666.562	6849.07
666.912	6851.78
667.262	6880.93
667.612	6820.15
667.962	6809.3
668.312	6876.42
668.662	6903.76
669.011	6867.15
669.361	6803.87
669.711	6828.05
670.06	6840.26
670.41	6795.74
670.76	6819.24
671.109	6792.8
671.459	6825.34
671.808	6778.34
672.157	6801.16
672.507	6795.74
672.856	6807.04
673.205	6743.31
673.554	6813.14
673.904	6769.07
674.253	6783.76
674.602	6740.15
674.951	6670.09
675.3	6672.13
675.649	6745.35
675.998	6696.08
676.346	6707.83
676.695	6728.17
677.044	6747.83
677.393	6703.09
677.741	6696.31
678.09	6756.64
678.438	6693.6
678.787	6666.7
679.135	6727.94
679.484	6696.31
679.832	6661.51
680.181	6589.19
680.529	6642.52
680.877	6607.04
681.225	6591
681.573	6654.5
681.922	6556.2
682.27	6502.87
682.618	6568.17
682.966	6517.55
683.314	6542.19
683.661	6505.58
684.009	6454.73
684.357	6489.98
684.705	6441.85
685.053	6434.17
685.4	6469.42
685.748	6440.95
686.095	6450.66
686.443	6361.85
686.79	6371.8
687.138	6433.49
687.485	6400.72
687.832	6374.28
688.18	6338.12
688.527	6326.15
688.874	6278.46
689.221	6299.03
689.568	6256.09
689.915	6239.6
690.262	6195.3
690.609	6200.5
690.956	6159.15
691.303	6177.45
691.65	6179.48
691.997	6112.37
692.344	6118.02
692.69	6129.54
693.037	6072.59
693.383	6070.11
693.73	6035.08
694.077	5992.37
694.423	5981.52
694.769	5936.33
695.116	5927.29
695.462	5946.04
695.808	5917.34
696.155	5926.84
696.501	5815.2
696.847	5812.26
697.193	5770.91
697.539	5778.14
697.885	5760.74
698.231	5741.53
698.577	5719.38
698.923	5718.25
699.269	5676.67
699.614	5624.24
699.96	5621.08
700.306	5611.14
700.651	5590.12
700.997	5610.91
701.342	5536.79
701.688	5555.55
702.033	5564.36
702.379	5479.62
702.724	5417.92
703.069	5479.62
703.415	5398.04
703.76	5410.24
704.105	5392.84
704.45	5359.39
704.795	5362.33
705.14	5319.39
705.485	5337.47
705.83	5266.97
706.175	5276.01
706.52	5258.38
706.865	5267.64
707.209	5288.43
707.554	5225.39
707.899	5177.48
708.243	5192.17
708.588	5205.72
708.932	5171.38
709.277	5122.11
709.621	5105.61
709.966	5087.76
710.31	5085.5
710.654	5036.24
710.998	5067.42
711.342	5104.71
711.687	5007.99
712.031	5050.25
712.375	5009.35
712.719	5009.12
713.063	4998.27
713.407	4961.44
713.75	4962.79
714.094	4922.12
714.438	4944.94
714.782	4934.55
715.125	4944.26
715.469	4887.09
715.812	4933.87
716.156	4904.26
716.499	4888.44
716.843	4910.37
717.186	4883.02
717.53	4858.84
717.873	4896.81
718.216	4900.65
718.559	4854.77
718.902	4898.84
719.246	4833.76
719.589	4835.34
719.932	4824.94
720.275	4814.32
720.617	4827.2
720.96	4826.3
721.303	4837.37
721.646	4837.82
721.989	4791.72
722.331	4847.32
722.674	4831.27
723.016	4753.08
723.359	4787.2
723.701	4814.77
724.044	4775.23
724.386	4736.36
724.729	4742.23
725.071	4790.82
725.413	4814.1
725.755	4792.4
726.097	4716.92
726.439	4779.07
726.782	4718.28
727.124	4752.18
727.465	4742.46
727.807	4715.12
728.149	4720.09
728.491	4734.55
728.833	4729.58
729.175	4728.9
729.516	4741.1
729.858	4754.89
730.199	4736.13
730.541	4720.77
730.882	4775.23
731.224	4740.2
731.565	4758.5
731.906	4771.84
732.248	4756.47
732.589	4791.27
732.93	4735
733.271	4759.41
733.612	4730.71
733.953	4803.93
734.294	4711.05
734.635	4752.63
734.976	4804.15
735.317	4778.84
735.658	4755.34
735.999	4785.4
736.339	4820.42
736.68	4812.06
737.021	4840.08
737.361	4794.66
737.702	4832.18
738.042	4838.5
738.383	4857.03
738.723	4821.33
739.063	4863.13
739.404	4893.87
739.744	4894.09
740.084	4866.75
740.424	4891.61
740.764	4925.05
741.104	4963.7
741.444	4948.56
741.784	4945.17
742.124	4975.67
742.464	5037.59
742.804	5017.48
743.143	5029.68
743.483	5038.95
743.823	5063.58
744.162	5104.94
744.502	5156.69
744.841	5156.69
745.181	5196.23
745.52	5226.06
745.86	5291.82
746.199	5322.11
746.538	5298.38
746.877	5375.66
747.216	5456.79
747.556	5462.67
747.895	5516.9
748.234	5582.66
748.573	5618.37
748.911	5647.07
749.25	5714.19
749.589	5734.07
749.928	5807.97
750.267	5909.21
750.605	5984.91
750.944	6086.38
751.283	6120.73
751.621	6225.81
751.96	6293.61
752.298	6338.58
752.636	6465.13
752.975	6492.47
753.313	6619.7
753.651	6761.39
753.989	6788.73
754.327	6957.54
754.666	7024.21
755.004	7227.82
755.342	7333.13
755.679	7444.76
756.017	7608.37
756.355	7764.08
756.693	7815.15
757.031	8036.16
757.368	8099.43
757.706	8259.66
758.044	8456.94
758.381	8642.24
758.719	8741.22
759.056	8942.8
759.394	9081.33
759.731	9221.66
760.068	9364.26
760.405	9506.4
760.743	9820.97
761.08	9975.77
761.417	10104.58
761.754	10285.37
762.091	10516.32
762.428	10625.7
762.765	10761.51
763.102	10973.26
763.438	11195.4
763.775	11285.56
764.112	11519.23
764.449	11704.99
764.785	11880.13
765.122	11987.47
765.458	12151.76
765.795	12305.43
766.131	12554.23
766.467	12691.86
766.804	12854.34
767.14	12924.62
767.476	13175.23
767.812	13354.66
768.148	13504.94
768.485	13573.19
768.821	13690.02
769.157	13874.42
769.492	13940.18
769.828	14167.97
770.164	14225.15
770.5	14395.77
770.836	14544.69
771.171	14617.91
771.507	14666.94
771.842	14748.07
772.178	15045.01
772.513	15015.86
772.849	15090.21
773.184	15119.81
773.519	15323.65
773.855	15374.27
774.19	15420.6
774.525	15502.86
774.86	15643.87
775.195	15721.38
775.53	15778.78
775.865	15743.75
776.2	15823.52
776.535	15904.65
776.87	15973.13
777.205	15973.8
777.539	16056.29
777.874	16184.19
778.209	16089.05
778.543	16157.98
778.878	16098.32
779.212	16248.37
779.547	16313
779.881	16449.5
780.215	16289.95
780.55	16429.84
780.884	16311.65
781.218	16415.37
781.552	16511.19
781.886	16525.65
782.22	16438.88
782.554	16527.91
782.888	16362.49
783.222	16427.35
783.556	16400.23
783.889	16498.99
784.223	16287.47
784.557	16404.53
784.89	16449.72
785.224	16347.8
785.557	16405.2
785.891	16407.01
786.224	16354.13
786.558	16446.11
786.891	16351.42
787.224	16341.93
787.557	16287.69
787.891	16393.68
788.224	16331.08
788.557	16417.18
788.89	16357.3
789.223	16333.12
789.556	16272.78
789.888	16204.98
790.221	16201.82
790.554	16139.67
790.887	16202.5
791.219	16197.3
791.552	16136.51
791.884	16077.76
792.217	16110.07
792.549	16137.87
792.882	15994.59
793.214	15931.32
793.546	16005.67
793.879	15886.12
794.211	15907.59
794.543	15977.64
794.875	15930.41
795.207	15989.17
795.539	15851.09
795.871	15877.08
796.203	15741.94
796.535	15692.68
796.867	15644.32
797.198	15609.29
797.53	15722.96
797.862	15664.66
798.193	15642.96
798.525	15566.36
798.856	15580.82
799.188	15466.02
799.519	15393.25
799.85	15350.77
800.182	15274.39
800.513	15366.81
800.844	15385.34
801.175	15410.88
801.506	15357.77
801.837	15288.4
802.168	15175.86
802.499	15139.02
802.83	15170.43
803.161	15074.62
803.491	15072.81
803.822	15027.39
804.153	15050.21
804.483	14861.97
804.814	14914.17
805.145	14782.65
805.475	14864.23
805.805	14776.09
806.136	14762.54
806.466	14781.07
806.796	14793.95
807.126	14614.52
807.457	14692.71
807.787	14652.26
808.117	14566.83
808.447	14603.67
808.777	14628.53
809.107	14557.34
809.436	14478.02
809.766	14407.52
810.096	14431.02
810.426	14328.87
810.755	14364.81
811.085	14378.82
811.414	14264.7
811.744	14238.26
812.073	14190.8
812.403	14204.58
812.732	14257.46
813.061	14147.86
813.39	14200.74
813.719	14102.89
814.049	14141.99
814.378	14102.21
814.707	14006.4
815.036	14122.1
815.365	13981.09
815.693	13858.83
816.022	13904.71
816.351	13925.27
816.68	13774.76
817.008	13863.35
817.337	13751.94
817.665	13652.73
817.994	13697.25
818.322	13693.64
818.651	13664.49
818.979	13633.3
819.307	13736.35
819.636	13659.97
819.964	13553.98
820.292	13707.87
820.62	13555.34
820.948	13574.54
821.276	13671.26
821.604	13516.69
821.932	13613.64
822.259	13584.94
822.587	13629.68
822.915	13699.06
823.243	13530.25
823.57	13487.54
823.898	13547.43
824.225	13484.38
824.553	13581.55
824.88	13593.53
825.207	13624.94
825.535	13466.52
825.862	13577.71
826.189	13534.55
826.516	13514.66
826.843	13589.46
827.17	13578.84
827.497	13680.76
827.824	13685.05
828.151	13643.92
828.478	13609.8
828.805	13648.44
829.131	13553.08
829.458	13600.31
829.785	13593.07
830.111	13582.23
830.438	13642.34
830.764	13654.32
831.09	13617.71
831.417	13560.76
831.743	13574.54
832.069	13660.42
832.395	13590.81
832.722	13631.27
833.048	13524.83
833.374	13618.38
833.7	13509.24
834.026	13490.48
834.351	13580.87
834.677	13507.43
835.003	13506.52
835.329	13462.46
835.654	13522.57
835.98	13439.41
836.306	13492.74
836.631	13496.35
836.956	13557.14
837.282	13436.92
837.607	13390.14
837.932	13389.92
838.258	13341.1
838.583	13329.35
838.908	13285.06
839.233	13326.19
839.558	13232.63
839.883	13157.61
840.208	13221.56
840.533	13172.75
840.858	13185.4
841.182	13123.48
841.507	13144.72
841.832	13028.57
842.156	13066.76
842.481	13076.03
842.805	13055.91
843.13	13046.42
843.454	12974.79
843.778	12905.18
844.103	12942.47
844.427	12922.13
844.751	12830.16
845.075	12889.82
845.399	12794.9
845.723	12724.17
846.047	12702.25
846.371	12629.03
846.695	12602.82
847.019	12524.63
847.343	12485.99
847.666	12436.72
847.99	12416.38
848.313	12396.72
848.637	12332.09
848.96	12365.99
849.284	12237.4
849.607	12137.29
849.931	12075.6
850.254	12093
850.577	12033.79
850.9	11915.6
851.223	11897.3
851.546	11895.72
851.869	11826.34
852.192	11847.81
852.515	11723.07
852.838	11638.55
853.161	11697.53
853.483	11653.69
853.806	11627.7
854.129	11559.23
854.451	11468.16
854.774	11464.09
855.096	11385
855.419	11386.81
855.741	11373.7
856.063	11233.14
856.385	11306.36
856.708	11197.66
857.03	11182.06
857.352	11218.67
857.674	11181.39
857.996	11125.8
858.318	11037.21
858.64	11060.94
858.961	11059.58
859.283	10966.48
859.605	10969.41
859.926	10889.19
860.248	11003.09
860.57	10859.36
860.891	10870.89
861.212	10770.1
861.534	10811.9
861.855	10741.62
862.176	10765.8
862.498	10772.81
862.819	10755.18
863.14	10746.6
863.461	10622.76
863.782	10617.56
864.103	10679.25
864.424	10617.79
864.745	10659.37
865.065	10558.8
865.386	10493.72
865.707	10485.59
866.027	10464.34
866.348	10569.2
866.668	10492.82
866.989	10413.5
867.309	10385.93
867.63	10410.11
867.95	10387.51
868.27	10353.61
868.59	10432.93
868.91	10413.5
869.23	10335.08
869.55	10270.45
869.87	10336.66
870.19	10236.55
870.51	10316.78
870.83	10253.28
871.15	10267.06
871.469	10291.01
871.789	10295.76
872.109	10210.79
872.428	10132.6
872.748	10220.28
873.067	10212.37
873.386	10121.08
873.706	10093.51
874.025	10127.18
874.344	10041.3
874.663	10140.51
874.982	10053.96
875.301	10018.71
875.62	9945.94
875.939	10026.84
876.258	9978.71
876.577	9914.3
876.896	9951.59
877.214	9965.15
877.533	9882.66
877.852	9855.09
878.17	9916.11
878.489	9955.2
878.807	9863.91
879.125	9919.27
879.444	9892.16
879.762	9801.08
880.08	9874.53
880.398	9789.56
880.716	9713.63
881.034	9706.85
881.352	9756.11
881.67	9701.2
881.988	9691.71
882.306	9627.98
882.624	9668.43
882.941	9528.55
883.259	9572.16
883.577	9600.41
883.894	9507.08
884.212	9491.94
884.529	9557.47
884.846	9449.68
885.164	9437.03
885.481	9451.49
885.798	9451.49
886.115	9365.84
886.432	9382.34
886.75	9387.08
887.067	9344.15
887.383	9344.15
887.7	9405.39
888.017	9260.99
888.334	9262.79
888.651	9222.79
888.967	9220.99
889.284	9150.48
889.6	9095.79
889.917	9141.21
890.233	9115.68
890.55	8987.77
890.866	9065.51
891.182	8983.7
891.498	8983.03
891.815	8935.12
892.131	8908.68
892.447	8922.69
892.763	8865.06
893.079	8830.04
893.395	8828
893.71	8808.34
894.026	8753.43
894.342	8752.75
894.657	8743.26
894.973	8686.09
895.289	8683.83
895.604	8663.49
895.92	8580.1
896.235	8547.11
896.55	8569.93
896.865	8560.21
897.181	8474.57
897.496	8498.52
897.811	8446.32
898.126	8444.28
898.441	8355.92
898.756	8288.58
899.071	8298.75
899.386	8322.03
899.7	8266.21
900.015	8170.39
900.33	8123.61
900.644	8131.3
900.959	8155.25
901.273	8090.17
901.588	8103.05
901.902	8005.88
902.216	8037.29
902.531	7982.15
902.845	7931.53
903.159	7934.24
903.473	7843.62
903.787	7810.18
904.101	7826.22
904.415	7856.73
904.729	7738.77
905.042	7735.15
905.356	7679.33
905.67	7604.08
905.984	7727.47
906.297	7666.9
906.611	7644.98
906.924	7578.32
907.237	7537.64
907.551	7497.64
907.864	7437.08
908.177	7404.31
908.491	7423.52
908.804	7357.53
909.117	7298.1
909.43	7318.21
909.743	7229.63
910.056	7240.25
910.368	7231.43
910.681	7224.65
910.994	7145.79
911.307	7162.51
911.619	7101.04
911.932	7105.34
912.244	7027.6
912.557	7050.87
912.869	6966.81
913.181	6983.76
913.494	6936.3
913.806	6878.68
914.118	6874.16
914.43	6849.3
914.742	6861.27
915.054	6752.12
915.366	6773.37
915.678	6751.22
915.99	6738.11
916.302	6628.29
916.613	6603.88
916.925	6647.27
917.236	6614.28
917.548	6603.88
917.859	6579.93
918.171	6487.95
918.482	6562.98
918.794	6511
919.105	6477.56
919.416	6409.53
919.727	6392.13
920.038	6424.9
920.349	6382.64
920.66	6380.16
920.971	6355.98
921.282	6314.85
921.593	6222.65
921.903	6185.81
922.214	6182.65
922.525	6187.39
922.835	6141.97
923.146	6095.42
923.456	6143.78
923.767	6047.06
924.077	6066.04
924.387	6057.91
924.697	5989.66
925.008	6004.35
925.318	5955.99
925.628	5955.54
925.938	5921.41
926.248	5869.21
926.558	5854.07
926.867	5846.61
927.177	5795.54
927.487	5738.59
927.796	5697.01
928.106	5757.35
928.416	5699.72
928.725	5747.63
929.034	5700.17
929.344	5575.66
929.653	5606.84
929.962	5597.8
930.271	5536.11
930.581	5507.86
930.89	5499.28
931.199	5483.01
931.508	5467.64
931.817	5494.08
932.125	5440.29
932.434	5444.81
932.743	5420.86
933.051	5369.11
933.36	5361.2
933.669	5315.55
933.977	5271.94
934.286	5341.77
934.594	5298.6
934.902	5255.44
935.21	5227.19
935.519	5196.01
935.827	5222.9
936.135	5151.94
936.443	5098.16
936.751	5098.16
937.059	5094.99
937.367	5069.01
937.674	5090.7
937.982	5052.06
938.29	4967.31
938.597	5002.79
938.905	4936.35
939.213	4928.22
939.52	4907.65
939.827	4957.6
940.135	4850.71
940.442	4883.7
940.749	4856.13
941.056	4913.08
941.363	4760.09
941.67	4794.44
941.977	4726.19
942.284	4718.28
942.591	4725.51
942.898	4710.37
943.205	4669.69
943.511	4672.63
943.818	4651.39
944.125	4619.07
944.431	4610.03
944.738	4597.61
945.044	4624.72
945.35	4583.82
945.657	4510.38
945.963	4475.8
946.269	4432.41
946.575	4447.1
946.881	4401.23
947.187	4450.26
947.493	4421.11
947.799	4380.21
948.105	4371.4
948.41	4350.15
948.716	4361
949.022	4290.95
949.327	4299.08
949.633	4261.79
949.938	4309.03
950.244	4269.48
950.549	4242.13
950.854	4221.12
951.16	4193.77
951.465	4175.92
951.77	4163.49
952.075	4146.54
952.38	4104.51
952.685	4114.68
952.99	4015.02
953.294	4034.91
953.599	4063.38
953.904	4033.78
954.209	3999.88
954.513	3995.81
954.818	3972.31
955.122	3992.42
955.426	3957.4
955.731	3947.23
956.035	3968.47
956.339	3923.5
956.643	3945.87
956.948	3827.23
957.252	3846.66
957.556	3854.35
957.86	3811.86
958.163	3817.74
958.467	3793.78
958.771	3814.12
959.075	3778.64
959.378	3721.24
959.682	3721.7
959.985	3645.77
960.289	3683.05
960.592	3659.55
960.896	3700.23
961.199	3675.37
961.502	3653.9
961.805	3602.15
962.108	3601.47
962.411	3611.19
962.714	3558.99
963.017	3510.18
963.32	3558.08
963.623	3500.01
963.926	3438.31
964.228	3446.22
964.531	3434.7
964.833	3461.36
965.136	3446
965.438	3376.39
965.741	3399.22
966.043	3377.52
966.345	3377.98
966.648	3380.01
966.95	3376.62
967.252	3360.35
967.554	3331.42
967.856	3328.03
968.158	3316.06
968.46	3262.95
968.761	3317.41
969.063	3245.1
969.365	3231.99
969.666	3251.2
969.968	3182.28
970.269	3223.4
970.571	3196.06
970.872	3175.04
971.174	3159.68
971.475	3153.58
971.776	3119
972.077	3085.78
972.378	3085.1
972.679	3101.37
972.98	3076.97
973.281	3091.43
973.582	3078.1
973.883	3068.61
974.183	3045.33
974.484	3025.44
974.785	3016.18
975.085	2994.71
975.386	3001.04
975.686	2980.47
975.986	2921.49
976.287	2921.04
976.587	2902.73
976.887	2907.71
977.187	2955.16
977.487	2862.06
977.787	2885.56
978.087	2828.16
978.387	2828.61
978.687	2826.58
978.987	2869.97
979.286	2756.75
979.586	2830.65
979.885	2797.88
980.185	2772.34
980.484	2747.03
980.784	2736.41
981.083	2705.9
981.382	2749.52
981.682	2714.72
981.981	2705.23
982.28	2675.4
982.579	2665
982.878	2651.44
983.177	2666.81
983.475	2658.45
983.774	2615.51
984.073	2613.93
984.372	2605.34
984.67	2608.05
984.969	2549.75
985.267	2598.34
985.566	2565.34
985.864	2580.48
986.162	2540.71
986.461	2507.94
986.759	2516.53
987.057	2488.28
987.355	2486.93
987.653	2513.59
987.951	2449.19
988.249	2468.85
988.547	2458.68
988.844	2439.92
989.142	2422.3
989.44	2442.18
989.737	2395.63
990.035	2371
990.332	2408.96
990.63	2382.07
990.927	2340.72
991.224	2373.71
991.521	2335.52
991.819	2340.72
992.116	2291.9
992.413	2322.86
992.71	2301.85
993.006	2290.32
993.303	2271.11
993.6	2279.47
993.897	2262.07
994.193	2271.11
994.49	2231.79
994.787	2200.83
995.083	2219.59
995.379	2216.88
995.676	2216.65
995.972	2178.46
996.268	2158.8
996.565	2168.06
996.861	2134.17
997.157	2147.05
997.453	2122.64
997.749	2128.07
998.044	2064.34
998.34	2058.46
998.636	2088.74
998.932	2063.89
999.227	2082.42
999.523	2064.11
999.818	2037.45
1000.114	2020.27
1000.409	2000.84
1000.704	1991.12
1001	2006.26
1001.295	2015.75
1001.59	1969.88
1001.885	1968.52
1002.18	1973.04
1002.475	1960.84
1002.77	1924
1003.065	1920.39
1003.359	1930.1
1003.654	1901.18
1003.949	1889.65
1004.243	1907.73
1004.538	1891.24
1004.832	1860.5
1005.127	1858.24
1005.421	1810.79
1005.715	1855.08
1006.009	1824.57
1006.304	1813.27
1006.598	1817.34
1006.892	1775.08
1007.186	1780.73
1007.48	1761.52
1007.773	1759.26
1008.067	1744.8
1008.361	1720.62
1008.655	1726.49
1008.948	1746.61
1009.242	1721.07
1009.535	1726.95
1009.829	1703.67
1010.122	1689.43
1010.415	1667.06
1010.708	1688.98
1011.001	1642.65
1011.295	1658.25
1011.588	1665.48
1011.881	1634.52
1012.173	1610.11
1012.466	1594.07
1012.759	1585.48
1013.052	1592.26
1013.344	1579.61
1013.637	1551.81
1013.93	1571.47
1014.222	1564.46
1014.514	1564.24
1014.807	1536.67
1015.099	1531.25
1015.391	1517.91
1015.683	1517.01
1015.976	1525.6
1016.268	1471.36
1016.56	1491.7
1016.851	1493.28
1017.143	1459.38
1017.435	1454.86
1017.727	1458.48
1018.018	1451.47
1018.31	1456.9
1018.602	1431.81
1018.893	1409.89
1019.185	1407.86
1019.476	1400.18
1019.767	1412.15
1020.058	1371.25
1020.35	1362.44
1020.641	1352.72
1020.932	1340.52
1021.223	1342.1
1021.514	1323.34
1021.804	1304.36
1022.095	1312.49
1022.386	1303.91
1022.677	1298.71
1022.967	1273.85
1023.258	1297.13
1023.548	1266.39
1023.839	1279.5
1024.129	1263
1024.419	1254.19
1024.709	1229.33
1025	1247.18
1025.29	1227.3
1025.58	1193.17
1025.87	1212.38
1026.16	1213.74
1026.449	1213.29
1026.739	1187.3
1027.029	1175.1
1027.319	1155.44
1027.608	1150.92
1027.898	1140.52
1028.187	1151.37
1028.477	1139.39
1028.766	1155.89
1029.055	1143.01
1029.344	1119.96
1029.634	1141.88
1029.923	1118.15
1030.212	1099.17
1030.501	1121.76
1030.79	1093.06
1031.078	1084.03
1031.367	1066.85
1031.656	1067.53
1031.945	1037.92
1032.233	1079.96
1032.522	1057.36
1032.81	1015.55
1033.099	1016.91
1033.387	1039.05
1033.675	1009
1033.963	1016
1034.251	1014.65
1034.54	967.42
1034.828	993.41
1035.116	988.21
1035.403	1017.81
1035.691	983.69
1035.979	967.42
1036.267	953.41
1036.554	956.57
1036.842	952.28
1037.129	964.48
1037.417	939.62
1037.704	940.98
1037.992	934.2
1038.279	942.11
1038.566	925.39
1038.853	925.39
1039.14	925.39
