Data from hue_350_FLMS001491_37.txt Node
Date: Mon Feb 06 15:37:57 GMT 2017
User: dcchb
Spectrometer: FLMS00149
Trigger mode: 0
Integration Time (sec): 2.000000E-2
Scans to average: 10
Electric dark correction enabled: true
Nonlinearity correction enabled: false
Boxcar width: 0
XAxis mode: Wavelengths
Number of Pixels in Spectrum: 2048
>>>>>Begin Spectral Data<<<<<
341.393	-14.07
341.776	-14.07
342.16	-14.07
342.543	-80.96
342.927	-65.14
343.31	-97.23
343.693	-64.24
344.077	-72.6
344.46	-56.55
344.843	-53.84
345.226	-49.32
345.61	-26.04
345.993	4.24
346.376	-2.54
346.759	22.32
347.142	14.41
347.525	54.63
347.908	55.31
348.291	57.34
348.674	93.95
349.057	120.17
349.44	130.11
349.823	147.74
350.206	152.26
350.588	205.14
350.971	217.56
351.354	209.88
351.737	232.93
352.119	232.03
352.502	253.04
352.884	278.13
353.267	280.84
353.65	276.09
354.032	283.78
354.414	290.11
354.797	309.09
355.179	320.61
355.562	325.36
355.944	327.17
356.326	316.09
356.709	317.9
357.091	318.81
357.473	308.18
357.855	289.88
358.238	320.16
358.62	305.7
359.002	325.58
359.384	321.74
359.766	325.81
360.148	343.44
360.53	334.17
360.912	314.96
361.294	338.69
361.676	334.17
362.057	319.26
362.439	322.65
362.821	333.04
363.203	326.49
363.584	321.29
363.966	310.67
364.348	323.32
364.729	314.29
365.111	315.87
365.493	325.36
365.874	305.02
366.256	307.05
366.637	295.75
367.019	292.82
367.4	296.66
367.781	299.14
368.163	307.28
368.544	303.66
368.925	306.38
369.306	312.03
369.688	302.31
370.069	321.07
370.45	332.59
370.831	306.83
371.212	298.24
371.593	294.4
371.974	321.97
372.355	317.22
372.736	301.63
373.117	291.91
373.498	292.37
373.879	311.8
374.26	319.94
374.641	326.71
375.021	300.5
375.402	312.93
375.783	303.89
376.163	313.61
376.544	323.32
376.925	311.8
377.305	326.04
377.686	306.38
378.066	305.25
378.447	314.06
378.827	300.95
379.208	304.34
379.588	305.92
379.968	311.35
380.349	314.06
380.729	300.27
381.109	315.64
381.489	320.84
381.87	347.28
382.25	312.7
382.63	313.83
383.01	319.26
383.39	323.78
383.77	320.84
384.15	335.3
384.53	333.27
384.91	337.79
385.29	326.71
385.67	333.95
386.049	348.41
386.429	326.71
386.809	338.92
387.189	323.32
387.568	338.69
387.948	324.23
388.328	345.02
388.707	332.14
389.087	332.59
389.466	352.48
389.846	349.09
390.225	361.29
390.605	337.11
390.984	339.37
391.363	319.71
391.743	340.73
392.122	331.69
392.501	357
392.881	332.36
393.26	341.63
393.639	368.97
394.018	348.41
394.397	365.13
394.776	355.87
395.155	344.12
395.534	354.74
395.913	366.04
396.292	354.74
396.671	358.13
397.05	362.42
397.429	380.95
397.808	356.54
398.186	379.59
398.565	360.16
398.944	355.87
399.323	365.13
399.701	381.63
400.08	367.17
400.458	365.36
400.837	394.06
401.215	375.98
401.594	391.57
401.972	393.15
402.351	352.48
402.729	384.79
403.107	396.09
403.486	389.99
403.864	371.69
404.242	417.11
404.62	385.02
404.999	393.61
405.377	411.01
405.755	391.57
406.133	394.06
406.511	410.1
406.889	382.53
407.267	375.98
407.645	388.41
408.023	402.64
408.401	397.45
408.779	410.33
409.156	417.56
409.534	418.01
409.912	410.55
410.29	425.92
410.667	419.14
411.045	432.25
411.422	421.63
411.8	433.15
412.178	422.76
412.555	422.98
412.933	409.2
413.31	455.98
413.687	440.16
414.065	442.87
414.442	449.88
414.819	463.43
415.197	461.63
415.574	460.27
415.951	465.24
416.328	482.19
416.705	462.76
417.082	469.08
417.46	460.72
417.837	469.08
418.214	477.67
418.591	483.09
418.967	481.29
419.344	501.4
419.721	496.65
420.098	497.33
420.475	500.5
420.852	517.22
421.228	511.79
421.605	497.11
421.982	514.96
422.358	511.57
422.735	522.42
423.111	519.7
423.488	530.1
423.864	528.52
424.241	531.68
424.617	538.69
424.994	545.01
425.37	543.66
425.746	539.59
426.123	538.91
426.499	556.99
426.875	560.83
427.251	553.38
427.627	551.79
428.003	565.13
428.379	567.16
428.756	589.98
429.132	567.61
429.507	580.95
429.883	590.66
430.259	610.77
430.635	610.1
431.011	597.67
431.387	594.28
431.763	613.94
432.138	634.5
432.514	632.7
432.89	625.24
433.265	607.39
433.641	638.57
434.016	600.83
434.392	652.13
434.767	659.36
435.143	658.68
435.518	650.55
435.894	662.07
436.269	684.22
436.644	668.85
437.02	670.21
437.395	700.94
437.77	686.93
438.145	676.08
438.52	695.97
438.895	689.19
439.271	674.28
439.646	688.29
440.021	715.86
440.395	724.44
440.77	712.02
441.145	733.71
441.52	731.45
441.895	719.25
442.27	725.57
442.645	724.67
443.019	730.55
443.394	730.09
443.769	724.44
444.143	740.04
444.518	735.29
444.892	751.11
445.267	749.53
445.641	760.83
446.016	759.47
446.39	766.25
446.764	760.38
447.139	778.91
447.513	780.71
447.887	763.09
448.262	782.07
448.636	791.56
449.01	770.09
449.384	797.21
449.758	779.13
450.132	820.49
450.506	798.34
450.88	801.05
451.254	825.46
451.628	814.16
452.002	819.36
452.376	845.8
452.75	841.96
453.123	809.64
453.497	833.14
453.871	850.54
454.244	847.38
454.618	860.26
454.992	880.15
455.365	872.91
455.739	885.57
456.112	881.05
456.486	916.3
456.859	911.78
457.232	912.46
457.606	914.72
457.979	924.66
458.352	930.99
458.725	942.29
459.099	940.03
459.472	930.31
459.845	981.84
460.218	1001.95
460.591	1003.98
460.964	971.22
461.337	1010.09
461.71	1002.63
462.083	1024.32
462.456	1020.03
462.829	1017.54
463.201	1043.08
463.574	1005.57
463.947	1055.96
464.32	1066.81
464.692	1102.51
465.065	1073.59
465.438	1095.51
465.81	1094.15
466.183	1100.03
466.555	1128.73
466.928	1139.57
467.3	1136.86
467.672	1170.99
468.045	1178.67
468.417	1152.23
468.789	1139.57
469.161	1195.39
469.534	1197.88
469.906	1255.73
470.278	1260.02
470.65	1281.49
471.022	1298.21
471.394	1294.37
471.766	1310.42
472.138	1331.66
472.51	1333.24
472.882	1384.77
473.253	1390.42
473.625	1398.78
473.997	1420.92
474.369	1457.53
474.74	1432.67
475.112	1476.06
475.484	1491.43
475.855	1525.33
476.227	1550.19
476.598	1572.56
476.97	1589.05
477.341	1622.73
477.713	1662.5
478.084	1652.1
478.455	1674.7
478.827	1711.76
479.198	1751.08
479.569	1783.17
479.94	1788.6
480.311	1858.2
480.682	1879.89
481.053	1954.69
481.424	1918.76
481.795	1977.07
482.166	1983.39
482.537	2002.15
482.908	2092.77
483.279	2080.57
483.65	2119.89
484.021	2130.73
484.391	2180
484.762	2196.95
485.133	2229.72
485.503	2248.92
485.874	2297.06
486.244	2379.09
486.615	2369.37
486.985	2429.48
487.356	2446.21
487.726	2481.91
488.097	2478.75
488.467	2539.76
488.837	2599.42
489.207	2660.21
489.578	2654.56
489.948	2680.33
490.318	2751.96
490.688	2734.33
491.058	2791.51
491.428	2845.74
491.798	2853.2
492.168	2921.67
492.538	2920.32
492.908	2944.5
493.278	2968.68
493.648	2995.12
494.017	3045.29
494.387	3033.08
494.757	3091.84
495.126	3144.95
495.496	3168.67
495.866	3206.41
496.235	3199.18
496.605	3268.78
496.974	3230.82
497.344	3284.83
497.713	3302.23
498.082	3324.83
498.452	3376.8
498.821	3392.85
499.19	3418.38
499.559	3449.34
499.928	3458.16
500.298	3501.55
500.667	3483.47
501.036	3497.93
501.405	3537.25
501.774	3528.89
502.143	3579.28
502.512	3576.8
502.88	3612.73
503.249	3627.87
503.618	3691.37
503.987	3690.24
504.356	3701.32
504.724	3695.21
505.093	3710.81
505.462	3692.5
505.83	3710.81
506.199	3815.66
506.567	3809.56
506.936	3819.96
507.304	3830.58
507.672	3849.33
508.041	3847.53
508.409	3925.94
508.777	3885.94
509.145	3916.9
509.514	3923.23
509.882	3931.59
510.25	3966.62
510.618	4003.45
510.986	4013.85
511.354	4035.54
511.722	4045.94
512.09	4062.66
512.458	4059.5
512.826	4083.9
513.193	4163
513.561	4161.19
513.929	4158.48
514.297	4191.7
514.664	4146.5
515.032	4180.17
515.4	4232.37
515.767	4244.13
516.135	4269.44
516.502	4253.62
516.869	4263.11
517.237	4283.22
517.604	4297.01
517.972	4294.29
518.339	4297.01
518.706	4299.94
519.073	4374.29
519.44	4313.5
519.808	4378.36
520.175	4366.61
520.542	4440.73
520.909	4430.34
521.276	4413.61
521.643	4456.1
522.009	4476.89
522.376	4513.72
522.743	4554.4
523.11	4577.22
523.477	4602.99
523.843	4621.06
524.21	4615.87
524.577	4662.65
524.943	4659.48
525.31	4708.52
525.676	4735.86
526.043	4718.69
526.409	4754.62
526.776	4802.98
527.142	4818.12
527.508	4798.01
527.874	4882.53
528.241	4905.35
528.607	4896.09
528.973	4930.21
529.339	4884.11
529.705	4959.14
530.071	5032.35
530.437	5047.04
530.803	5064.67
531.169	5060.83
531.535	5059.7
531.901	5139.24
532.267	5137.44
532.632	5157.55
532.998	5135.4
533.364	5190.09
533.73	5186.47
534.095	5221.28
534.461	5244.33
534.826	5242.74
535.192	5282.74
535.557	5345.57
535.923	5309.41
536.288	5373.59
536.653	5396.19
537.019	5395.06
537.384	5437.77
537.749	5463.75
538.114	5479.35
538.479	5445.68
538.845	5519.8
539.21	5522.28
539.575	5543.53
539.94	5524.09
540.305	5570.42
540.67	5557.76
541.034	5628.72
541.399	5612
541.764	5686.35
542.129	5681.38
542.494	5705.78
542.858	5741.26
543.223	5784.42
543.587	5816.97
543.952	5793.24
544.316	5822.84
544.681	5816.06
545.045	5883.63
545.41	5868.94
545.774	5941.93
546.138	5902.16
546.503	5913.01
546.867	5960.24
547.231	5980.13
547.595	6008.83
547.959	6049.05
548.324	6050.86
548.688	6083.4
549.052	6138.54
549.416	6094.92
549.779	6171.53
550.143	6165.21
550.507	6215.37
550.871	6214.02
551.235	6272.09
551.599	6271.19
551.962	6319.55
552.326	6282.04
552.689	6317.29
553.053	6298.31
553.417	6331.3
553.78	6409.27
554.143	6381.02
554.507	6413.33
554.87	6441.81
555.234	6498.3
555.597	6439.32
555.96	6472.09
556.323	6484.29
556.686	6533.33
557.05	6618.3
557.413	6541.69
557.776	6610.17
558.139	6604.74
558.502	6642.03
558.865	6636.38
559.228	6662.37
559.59	6694.46
559.953	6726.09
560.316	6767
560.679	6758.86
561.041	6774.23
561.404	6840.67
561.767	6894.23
562.129	6838.86
562.492	6914.11
562.854	6898.52
563.217	6848.58
563.579	6924.51
563.941	6932.42
564.304	7011.06
564.666	7060.77
565.028	7069.59
565.39	7055.35
565.753	7096.03
566.115	7113.65
566.477	7163.37
566.839	7187.78
567.201	7242.69
567.563	7230.26
567.925	7304.61
568.287	7295.57
568.648	7263.03
569.01	7347.55
569.372	7388.9
569.734	7380.54
570.095	7442.69
570.457	7455.11
570.819	7468.22
571.18	7493.08
571.542	7503.25
571.903	7578.73
572.265	7564.49
572.626	7620.99
572.987	7706.86
573.349	7737.37
573.71	7786.18
574.071	7816.69
574.432	7837.25
574.794	7957.93
575.155	8000.19
575.516	8039.73
575.877	8097.81
576.238	8096.68
576.599	8239.27
576.96	8248.99
577.32	8313.85
577.681	8385.03
578.042	8516.33
578.403	8503.22
578.763	8603.79
579.124	8653.28
579.485	8745.93
579.845	8878.35
580.206	8961.29
580.566	8987.28
580.927	9129.65
581.287	9305.01
581.648	9362.86
582.008	9511.78
582.368	9685.79
582.728	9757.65
583.089	9892.79
583.449	10100.69
583.809	10209.84
584.169	10342.72
584.529	10415.04
584.889	10736.84
585.249	10781.13
585.609	10968.24
585.969	11167.11
586.329	11381.11
586.688	11601.22
587.048	11807.77
587.408	11930.25
587.768	12153.3
588.127	12415.44
588.487	12590.57
588.846	12896.55
589.206	13043.22
589.565	13335.41
589.925	13583.32
590.284	13728.4
590.643	14023.53
591.003	14370.87
591.362	14636.62
591.721	14886.33
592.08	15103.28
592.44	15416.94
592.799	15633.2
593.158	15878.17
593.517	16218.05
593.876	16509.57
594.235	16653.06
594.593	17037.69
594.952	17414.17
595.311	17530.56
595.67	17920.83
596.029	18353.36
596.387	18491.43
596.746	18873.12
597.104	18987.24
597.463	19345.65
597.822	19652.76
598.18	19826.54
598.538	20108.79
598.897	20535.45
599.255	20572.96
599.613	21163
599.972	21305.15
600.33	21643.22
600.688	21879.59
601.046	22265.57
601.404	22532.23
601.762	22812.23
602.12	23206.56
602.478	23430.29
602.836	23672.09
603.194	23825.76
603.552	24075.92
603.91	24222.81
604.268	24633.65
604.625	24705.96
604.983	25238.6
605.341	25375.77
605.698	25729.66
606.056	26101.63
606.413	26194.06
606.771	26394.96
607.128	26641.5
607.485	26810.54
607.843	27049.4
608.2	27406.91
608.557	27624.98
608.914	27750.85
609.272	28159.43
609.629	28316.94
609.986	28731.17
610.343	28669.25
610.7	29132.28
611.057	29264.03
611.414	29495.21
611.771	29536.79
612.127	29746.51
612.484	29994.41
612.841	30248.19
613.198	30283.67
613.554	30461.29
613.911	30813.14
614.267	30927.49
614.624	31106.24
614.98	31268.27
615.337	31648.15
615.693	31621.48
616.05	31860.8
616.406	32081.13
616.762	32058.54
617.118	32225.31
617.475	32410.62
617.831	32566.09
618.187	32859.87
618.543	32885.63
618.899	33098.51
619.255	33094.67
619.611	33278.39
619.967	33436.35
620.323	33717.93
620.678	33678.83
621.034	33704.82
621.39	33863.69
621.746	33841.09
622.101	34399.94
622.457	34181.87
622.812	34274.97
623.168	34548.19
623.523	34688.07
623.879	34716.09
624.234	34651.46
624.589	34814.17
624.945	35017.78
625.3	34930.32
625.655	34986.37
626.01	35251.67
626.365	35287.38
626.72	35407.15
627.075	35333.25
627.43	35389.07
627.785	35446.24
628.14	35487.6
628.495	35555.84
628.85	35608.27
629.205	35669.51
629.559	35863.18
629.914	35629.52
630.269	35920.58
630.623	35836.97
630.978	35788.16
631.332	35933.24
631.687	36060.69
632.041	35944.76
632.396	36152.89
632.75	36033.8
633.104	36125.77
633.459	35973.46
633.813	36097.53
634.167	35984.76
634.521	36083.74
634.875	36095.27
635.229	36031.76
635.583	35925.33
635.937	36041.93
636.291	35999.22
636.645	36084.87
636.999	36050.97
637.352	36099.11
637.706	35963.97
638.06	36046
638.413	36062.05
638.767	36094.59
639.121	36083.74
639.474	35973.91
639.828	35926.23
640.181	36024.08
640.534	36102.5
640.888	36028.83
641.241	35897.08
641.594	35995.61
641.947	35999.22
642.301	36009.17
642.654	35864.54
643.007	35971.2
643.36	36041.93
643.713	35975.72
644.066	36133
644.419	35878.1
644.771	35717.2
645.124	35313.14
645.477	35431.78
645.83	35030.66
646.182	34938.91
646.535	34834.51
646.888	34885.81
647.24	34868.86
647.593	35050.77
647.945	34905.01
648.298	34766.49
648.65	34718.35
649.002	34772.14
649.355	34902.08
649.707	34780.05
650.059	34933.49
650.411	35358.34
650.763	35370.09
651.115	35655.96
651.467	35619.12
651.819	35709.97
652.171	35566.92
652.523	35565.34
652.875	35411.67
653.227	35396.53
653.578	35586.13
653.93	35628.16
654.282	35431.33
654.633	35237.89
654.985	35407.6
655.337	35404.66
655.688	35443.98
656.039	35570.08
656.391	35275.85
656.742	35156.31
657.094	35338.9
657.445	35382.52
657.796	35266.13
658.147	35278.56
658.498	35089.19
658.849	35337.32
659.2	35267.04
659.551	35129.64
659.902	35265.68
660.253	35207.38
660.604	35363.31
660.955	35045.12
661.306	35175.74
661.656	35162.18
662.007	35201.5
662.358	35203.54
662.708	35086.7
663.059	35183.43
663.409	34906.82
663.76	35236.08
664.11	35210.09
664.461	35259.13
664.811	35142.52
665.161	35309.52
665.511	35148.62
665.862	35207.61
666.212	35152.24
666.562	35170.09
666.912	35157.89
667.262	35150.21
667.612	35039.93
667.962	35073.6
668.312	35035.63
668.662	35197.44
669.011	35058.23
669.361	34921.29
669.711	35052.81
670.06	35020.49
670.41	34856.65
670.76	34941.62
671.109	35006.93
671.459	35000.15
671.808	34938.01
672.157	34966.26
672.507	34793.38
672.856	34872.92
673.205	34964
673.554	35036.99
673.904	34859.37
674.253	34995.63
674.602	34894.62
674.951	34427.96
675.3	34241.53
675.649	34816.2
675.998	34747.5
676.346	34738.01
676.695	34881.06
677.044	34528.98
677.393	34720.61
677.741	34780.05
678.09	34516.32
678.438	34573.27
678.787	34677.22
679.135	34494.4
679.484	34402.88
679.832	34471.13
680.181	34396.33
680.529	34504.57
680.877	34524.91
681.225	34361.3
681.573	34721.52
681.922	34209.89
682.27	34099.16
682.618	34254.86
682.966	34212.38
683.314	34225.48
683.661	34090.57
684.009	34055.09
684.357	33833.63
684.705	33900.07
685.053	33983.68
685.4	33910.46
685.748	33761.54
686.095	33589.79
686.443	33482.9
686.79	33496.92
687.138	33625.5
687.485	33426.64
687.832	33363.36
688.18	33455.56
688.527	33201.1
688.874	33176.02
689.221	33074.55
689.568	33156.81
689.915	32962.92
690.262	32817.16
690.609	32884.05
690.956	32814.45
691.303	32792.75
691.65	32519.09
691.997	32568.8
692.344	32377.85
692.69	32419.2
693.037	32395.25
693.383	32144.18
693.73	32288.81
694.077	32105.54
694.423	32162.71
694.769	31974.92
695.116	31958.88
695.462	31927.24
695.808	31891.76
696.155	31726.34
696.501	31602.28
696.847	31507.59
697.193	31305.56
697.539	31449.51
697.885	31290.87
698.231	31231.66
698.577	31209.97
698.923	31076.41
699.269	30933.82
699.614	30938.79
699.96	30793.48
700.306	30777.21
700.651	30683.66
700.997	30611.79
701.342	30741.28
701.688	30531.8
702.033	30502.42
702.379	30296.1
702.724	30207.06
703.069	30336.1
703.415	30037.35
703.76	30117.57
704.105	30079.83
704.45	30043.67
704.795	29701.54
705.14	29690.24
705.485	29632.61
705.83	29485.72
706.175	29556.45
706.52	29480.75
706.865	29395.55
707.209	29428.1
707.554	29338.61
707.899	29332.05
708.243	29119.63
708.588	29226.52
708.932	28979.52
709.277	28928.22
709.621	29016.36
709.966	28796.25
710.31	28763.93
710.654	28596.03
710.998	28621.56
711.342	28622.69
711.687	28561.68
712.031	28485.3
712.375	28287.56
712.719	28371.85
713.063	28251.4
713.407	28397.84
713.75	28170.73
714.094	28307.22
714.438	28138.41
714.782	28159.43
715.125	27885.31
715.469	27949.94
715.812	27858.19
716.156	27688.93
716.499	27759.44
716.843	27772.32
717.186	27601.25
717.53	27776.39
717.873	27569.39
718.216	27636.05
718.559	27527.81
718.902	27205.56
719.246	27402.39
719.589	27221.37
719.932	27116.97
720.275	27193.13
720.617	27106.12
720.96	27012.79
721.303	27123.52
721.646	27005.79
721.989	26948.16
722.331	26951.78
722.674	26828.16
723.016	26940.48
723.359	26894.15
723.701	26839.46
724.044	26593.14
724.386	26581.62
724.729	26624.55
725.071	26628.85
725.413	26535.97
725.755	26605.57
726.097	26411.23
726.439	26274.73
726.782	26356.54
727.124	26474.95
727.465	26310.44
727.807	26323.55
728.149	26243.1
728.491	26227.5
728.833	26259.37
729.175	26019.37
729.516	26040.16
729.858	25998.13
730.199	25985.02
730.541	26017.11
730.882	25927.4
731.224	26015.3
731.565	25772.37
731.906	25813.05
732.248	25851.02
732.589	25669.1
732.93	25652.38
733.271	25625.71
733.612	25602.89
733.953	25688.99
734.294	25541.64
734.635	25434.98
734.976	25572.83
735.317	25384.81
735.658	25375.77
735.999	25397.24
736.339	25245.16
736.68	25380.75
737.021	25224.59
737.361	25124.93
737.702	25139.4
738.042	25145.27
738.383	25124.25
738.723	25096.01
739.063	24990.02
739.404	25087.42
739.744	24955.67
740.084	24863.92
740.424	24924.94
740.764	24918.61
741.104	24851.72
741.444	24752.96
741.784	24678.39
742.124	24759.97
742.464	24589.81
742.804	24635.45
743.143	24634.55
743.483	24528.56
743.823	24523.37
744.162	24466.87
744.502	24500.32
744.841	24448.79
745.181	24512.07
745.52	24357.72
745.86	24513.2
746.199	24269.36
746.538	24222.58
746.877	24326.99
747.216	24317.5
747.556	24338.51
747.895	24232.98
748.234	24099.42
748.573	24130.16
748.911	24178.29
749.25	24058.52
749.589	23997.28
749.928	23929.03
750.267	23985.53
750.605	23884.97
750.944	23790.5
751.283	23872.08
751.621	23903.72
751.96	23685.65
752.298	23670.51
752.636	23746.89
752.975	23527.91
753.313	23447.91
753.651	23651.98
753.989	23505.09
754.327	23459.89
754.666	23290.63
755.004	23269.39
755.342	23381.7
755.679	23290.18
756.017	23150.3
756.355	23133.12
756.693	23094.48
757.031	23044.99
757.368	22941.71
757.706	22910.53
758.044	22870.3
758.381	22937.19
758.719	22763.86
759.056	22750.08
759.394	22628.28
759.731	22567.71
760.068	22521.16
760.405	22539.24
760.743	22305.35
761.08	22421.73
761.417	22350.09
761.754	22350.54
762.091	22124.56
762.428	22129.53
762.765	22048.86
763.102	22049.76
763.438	21836.66
763.775	21828.75
764.112	21955.75
764.449	21812.48
764.785	21776.55
765.122	21530.45
765.458	21558.25
765.795	21389.44
766.131	21541.98
766.467	21353.28
766.804	21327.29
767.14	21189.67
767.476	21115.77
767.812	21111.48
768.148	21061.54
768.485	21040.07
768.821	20886.17
769.157	20830.36
769.492	20760.98
769.828	20761.66
770.164	20635.79
770.5	20525.05
770.836	20526.64
771.171	20392.4
771.507	20359.41
771.842	20149.02
772.178	20170.71
772.513	20069.25
772.849	20015.24
773.184	20056.37
773.519	19990.38
773.855	19897.73
774.19	19701.57
774.525	19711.06
774.86	19809.59
775.195	19657.28
775.53	19561.92
775.865	19545.19
776.2	19328.7
776.535	19192.66
776.87	19226.1
777.205	19086.9
777.539	19040.8
777.874	19108.37
778.209	18837.64
778.543	18921.93
778.878	18760.58
779.212	18791.77
779.547	18696.4
779.881	18698.89
780.215	18546.57
780.55	18561.49
780.884	18466.35
781.218	18486.92
781.552	18497.76
781.886	18300.71
782.22	18178.67
782.554	18211.22
782.888	18073.37
783.222	17886.7
783.556	17916.08
783.889	17848.74
784.223	17652.59
784.557	17699.14
784.89	17609.65
785.224	17595.87
785.557	17491.01
785.891	17462.76
786.224	17378.47
786.558	17406.94
786.891	17246.27
787.224	17098.25
787.557	17074.3
787.891	17145.26
788.224	17105.03
788.557	17060.06
788.89	16921.76
789.223	16972.6
789.556	16729.22
789.888	16790.69
790.221	16697.13
790.554	16510.47
790.887	16579.62
791.219	16467.08
791.552	16511.83
791.884	16437.7
792.217	16331.49
792.549	16356.58
792.882	16173.98
793.214	16116.36
793.546	16123.59
793.879	16036.36
794.211	15971.27
794.543	15917.49
794.875	15905.74
795.207	15920.43
795.539	15805.4
795.871	15872.97
796.203	15630.72
796.535	15583.94
796.867	15565.86
797.198	15492.64
797.53	15589.14
797.862	15381.91
798.193	15409.93
798.525	15414.91
798.856	15381.46
799.188	15169.49
799.519	15157.74
799.85	15038.19
800.182	15177.85
800.513	15093.11
800.844	14935.6
801.175	14917.52
801.506	15009.04
801.837	14882.94
802.168	14868.48
802.499	14805.88
802.83	14692.21
803.161	14710.07
803.491	14703.51
803.822	14717.52
804.153	14547.36
804.483	14482.73
804.814	14444.76
805.145	14497.87
805.475	14443.63
805.805	14297.87
806.136	14254.71
806.466	14252
806.796	14305.78
807.126	14198.44
807.457	14143.3
807.787	14145.79
808.117	13998.45
808.447	14021.04
808.777	14042.29
809.107	13943.53
809.436	13976.07
809.766	13884.78
810.096	13954.6
810.426	13858.11
810.755	13840.48
811.085	13807.72
811.414	13707.83
811.744	13605.91
812.073	13621.28
812.403	13581.51
812.732	13518.23
813.061	13527.95
813.39	13459.7
813.719	13422.19
814.049	13470.32
814.378	13321.18
814.707	13339.25
815.036	13275.3
815.365	13195.53
815.693	13167.51
816.022	13126.15
816.351	13143.55
816.68	13085.25
817.008	13076.66
817.337	12951.92
817.665	12966.16
817.994	12983.33
818.322	12918.7
818.651	12862.88
818.979	12796.67
819.307	12909.43
819.636	12891.81
819.964	12714.86
820.292	12805.03
820.62	12794.64
820.948	12701.08
821.276	12751.7
821.604	12729.1
821.932	12767.97
822.259	12773.84
822.587	12733.39
822.915	12741.98
823.243	12681.87
823.57	12652.04
823.898	12747.4
824.225	12640.52
824.553	12643.9
824.88	12728.2
825.207	12604.81
825.535	12597.58
825.862	12640.52
826.189	12587.86
826.516	12643.68
826.843	12672.38
827.17	12724.35
827.497	12627.18
827.824	12674.19
828.151	12590.8
828.478	12631.25
828.805	12614.53
829.131	12581.08
829.458	12640.74
829.785	12533.4
830.111	12598.48
830.438	12676.67
830.764	12708.08
831.09	12606.39
831.417	12578.14
831.743	12616.79
832.069	12630.57
832.395	12463.12
832.722	12565.04
833.048	12570.23
833.374	12496.79
833.7	12420.63
834.026	12452.5
834.351	12637.58
834.677	12513.96
835.003	12640.74
835.329	12423.57
835.654	12491.59
835.98	12439.16
836.306	12343.12
836.631	12323.91
836.956	12371.6
837.282	12329.11
837.607	12287.98
837.932	12306.06
838.258	12260.86
838.583	12247.98
838.908	12281.88
839.233	12217.02
839.558	12222.45
839.883	12144.71
840.208	12212.05
840.533	12082.34
840.858	12062.9
841.182	12079.17
841.507	12083.24
841.832	12007.76
842.156	12015.9
842.481	11995.56
842.805	11981.1
843.13	11897.71
843.454	11883.25
843.778	11857.03
844.103	11869.46
844.427	11793.31
844.751	11722.12
845.075	11748.11
845.399	11710.14
845.723	11724.83
846.047	11715.34
846.371	11557.83
846.695	11615.91
847.019	11512.86
847.343	11484.16
847.666	11422.24
847.99	11288.91
848.313	11325.52
848.637	11190.38
848.96	11219.76
849.284	11244.17
849.607	11198.52
849.931	11172.31
850.254	11055.92
850.577	11028.35
850.9	10922.59
851.223	10941.12
851.546	10910.62
851.869	10840.34
852.192	10820.45
852.515	10773.67
852.838	10733.45
853.161	10709.72
853.483	10679.66
853.806	10581.59
854.129	10582.04
854.451	10605.09
854.774	10530.74
855.096	10500.91
855.419	10474.92
855.741	10418.88
856.063	10299.11
856.385	10329.39
856.708	10331.2
857.03	10266.57
857.352	10273.12
857.674	10140.24
857.996	10231.09
858.318	10140.02
858.64	10088.27
858.961	10049.62
859.283	10064.99
859.605	10012.11
859.926	10077.42
860.248	10001.71
860.57	9968.27
860.891	9924.43
861.212	9916.07
861.534	9839.46
861.855	9845.11
862.176	9867.71
862.498	9788.84
862.819	9859.57
863.14	9789.52
863.461	9751.33
863.782	9718.78
864.103	9693.93
864.424	9686.02
864.745	9704.1
865.065	9661.16
865.386	9628.62
865.707	9645.11
866.027	9571.67
866.348	9590.43
866.668	9556.3
866.989	9625
867.309	9447.15
867.63	9526.25
867.95	9492.58
868.27	9445.12
868.59	9496.42
868.91	9512.01
869.23	9412.35
869.55	9360.38
869.87	9404.22
870.19	9398.34
870.51	9396.98
870.83	9408.51
871.15	9293.26
871.469	9314.95
871.789	9331.22
872.109	9264.33
872.428	9298.46
872.748	9344.33
873.067	9298.91
873.386	9331.22
873.706	9243.99
874.025	9178.69
874.344	9216.2
874.663	9187.5
874.982	9181.85
875.301	9167.16
875.62	9112.7
875.939	9083.32
876.258	9080.38
876.577	9078.8
876.896	9117.44
877.214	9025.92
877.533	9023.66
877.852	8995.41
878.17	8963.78
878.489	9068.18
878.807	9039.03
879.125	8947.28
879.444	8920.84
879.762	8929.2
880.08	8939.37
880.398	8893.27
880.716	8862.76
881.034	8822.08
881.352	8821.41
881.67	8793.61
881.988	8871.8
882.306	8755.87
882.624	8775.31
882.941	8795.87
883.259	8743.44
883.577	8711.35
883.894	8662.31
884.212	8626.61
884.529	8638.13
884.846	8587.06
885.164	8660.96
885.481	8587.29
885.798	8651.02
886.115	8622.99
886.432	8549.1
886.75	8572.15
887.067	8506.84
887.383	8429.33
887.7	8541.41
888.017	8421.87
888.334	8429.78
888.651	8381.42
888.967	8369.67
889.284	8375.09
889.6	8278.6
889.917	8277.92
890.233	8290.35
890.55	8181.42
890.866	8187.3
891.182	8182.33
891.498	8204.7
891.815	8170.12
892.131	8137.81
892.447	8123.57
892.763	8020.98
893.079	8018.94
893.395	8010.58
893.71	8023.69
894.026	7964.71
894.342	8003.12
894.657	7877.02
894.973	7936.68
895.289	7909.57
895.604	7899.17
895.92	7826.63
896.235	7821.43
896.55	7765.62
896.865	7723.81
897.181	7719.97
897.496	7755.45
897.811	7758.38
898.126	7725.16
898.441	7679.74
898.756	7562.46
899.071	7625.51
899.386	7597.03
899.7	7519.52
900.015	7500.99
900.33	7406.08
900.644	7441.78
900.959	7459.86
901.273	7393.65
901.588	7369.69
901.902	7319.75
902.216	7231.62
902.531	7255.57
902.845	7294.21
903.159	7226.65
903.473	7251.73
903.787	7207.44
904.101	7197.95
904.415	7149.13
904.729	7107.1
905.042	7103.94
905.356	7032.53
905.67	7035.24
905.984	6978.29
906.297	6944.17
906.611	6950.04
906.924	6958.4
907.237	6876.6
907.551	6888.58
907.864	6824.85
908.177	6838.63
908.491	6792.08
908.804	6781.91
909.117	6727.45
909.43	6703.04
909.743	6712.99
910.056	6661.69
910.368	6621.69
910.681	6654.46
910.994	6563.39
911.307	6566.78
911.619	6541.47
911.932	6521.58
912.244	6463.28
912.557	6509.38
912.869	6401.81
913.181	6419.66
913.494	6354.13
913.806	6348.93
914.118	6336.05
914.43	6235.94
914.742	6301.7
915.054	6280.68
915.366	6222.6
915.678	6268.48
915.99	6191.19
916.302	6125.66
916.613	6057.19
916.925	6180.57
917.236	6133.79
917.548	6067.58
917.859	6053.12
918.171	5982.61
918.482	5966.57
918.794	5960.01
919.105	5957.08
919.416	5940.35
919.727	5917.75
920.038	5859.68
920.349	5811.77
920.66	5821.94
920.971	5780.81
921.282	5729.96
921.593	5710.08
921.903	5683.41
922.214	5650.42
922.525	5674.82
922.835	5680.47
923.146	5616.97
923.456	5596.18
923.767	5550.98
924.077	5505.11
924.387	5553.92
924.697	5520.48
925.008	5472.79
925.318	5447.03
925.628	5434.6
925.938	5395.51
926.248	5337.43
926.558	5375.62
926.867	5330.88
927.177	5317.77
927.487	5344.66
927.796	5304.21
928.106	5261.95
928.416	5204.78
928.725	5208.39
929.034	5191.45
929.344	5161.62
929.653	5156.87
929.962	5135.4
930.271	5134.95
930.581	5075.97
930.89	5032.58
931.199	5029.42
931.508	4986.93
931.817	4996.87
932.125	4997.78
932.434	4949.19
932.743	4937.89
933.051	4903.32
933.36	4854.96
933.669	4827.16
933.977	4844.56
934.286	4846.37
934.594	4865.58
934.902	4741.51
935.21	4758.24
935.519	4758.91
935.827	4705.13
936.135	4680.95
936.443	4650.44
936.751	4635.08
937.059	4685.24
937.367	4593.5
937.674	4625.36
937.982	4631.23
938.29	4549.65
938.597	4548.3
938.905	4510.33
939.213	4512.37
939.52	4517.79
939.827	4464.68
940.135	4460.39
940.442	4436.66
940.749	4397.34
941.056	4388.75
941.363	4364.35
941.67	4372.94
941.977	4368.87
942.284	4318.25
942.591	4277.35
942.898	4279.38
943.205	4255.88
943.511	4246.39
943.818	4229.44
944.125	4245.93
944.431	4164.81
944.738	4158.93
945.044	4123.9
945.35	4153.96
945.657	4086.16
945.963	4083.45
946.269	4096.11
946.575	4049.33
946.881	4030.8
947.187	4019.72
947.493	4010.46
947.799	3994.87
948.105	3971.14
948.41	3957.58
948.716	3931.82
949.022	3902.89
949.327	3924.36
949.633	3854.08
949.938	3863.12
950.244	3894.53
950.549	3831.26
950.854	3831.03
951.16	3804.14
951.465	3800.3
951.77	3814.31
952.075	3766.4
952.38	3747.87
952.685	3769.79
952.99	3694.08
953.294	3716.46
953.599	3692.95
953.904	3658.83
954.209	3666.06
954.513	3666.74
954.818	3643.69
955.122	3627.19
955.426	3574.09
955.731	3541.77
956.035	3575.89
956.339	3528.21
956.643	3533.64
956.948	3453.19
957.252	3506.74
957.556	3485.28
957.86	3462.68
958.163	3474.65
958.467	3459.51
958.771	3415.45
959.075	3420.64
959.378	3402.34
959.682	3388.1
959.985	3375.22
960.289	3317.14
960.592	3312.17
960.896	3355.79
961.199	3284.6
961.502	3304.72
961.805	3295
962.108	3230.82
962.411	3247.32
962.714	3191.27
963.017	3216.58
963.32	3224.94
963.623	3195.79
963.926	3161.89
964.228	3158.5
964.531	3174.78
964.833	3159.86
965.136	3129.58
965.438	3114.44
965.741	3094.1
966.043	3104.95
966.345	3071.05
966.648	3058.85
966.95	3032.18
967.252	3025.63
967.554	3034.67
967.856	3030.15
968.158	2982.46
968.46	2965.74
968.761	2961.45
969.063	2981.79
969.365	2944.5
969.666	2949.92
969.968	2904.27
970.269	2892.3
970.571	2914.9
970.872	2896.36
971.174	2838.74
971.475	2864.05
971.776	2829.93
972.077	2864.05
972.378	2855.01
972.679	2816.14
972.98	2807.78
973.281	2780.21
973.582	2806.42
973.883	2789.47
974.183	2755.13
974.484	2716.26
974.785	2714.45
975.085	2747.89
975.386	2729.59
975.686	2689.59
975.986	2699.31
976.287	2646.65
976.587	2640.78
976.887	2613.66
977.187	2631.74
977.487	2643.94
977.787	2630.38
978.087	2596.94
978.387	2585.41
978.687	2601.68
978.987	2594.9
979.286	2546.77
979.586	2566.66
979.885	2526.88
980.185	2535.02
980.484	2510.16
980.784	2478.52
981.083	2483.95
981.382	2472.42
981.682	2466.09
981.981	2429.71
982.28	2454.34
982.579	2444.17
982.878	2436.04
983.177	2426.32
983.475	2422.93
983.774	2410.95
984.073	2386.55
984.372	2371.18
984.67	2381.12
984.969	2357.4
985.267	2350.62
985.566	2302.71
985.864	2322.59
986.162	2313.55
986.461	2318.07
986.759	2282.6
987.057	2280.79
987.355	2300.22
987.653	2254.12
987.951	2235.82
988.249	2263.84
988.547	2238.75
988.844	2251.86
989.142	2220.45
989.44	2231.52
989.737	2199.89
990.035	2180.45
990.332	2178.87
990.63	2172.77
990.927	2177.51
991.224	2151.53
991.521	2117.4
991.819	2113.79
992.116	2105.2
992.413	2089.61
992.71	2088.25
993.006	2093.67
993.303	2032.88
993.6	2067.23
993.897	2048.25
994.193	2068.82
994.49	2037.4
994.787	2048.7
995.083	1993.79
995.379	2031.98
995.676	1965.77
995.972	1989.72
996.268	2005.54
996.565	2002.15
996.861	1962.38
997.157	1955.82
997.453	1938.88
997.749	1948.82
998.044	1933.45
998.34	1920.57
998.636	1870.18
998.932	1891.87
999.227	1879.67
999.523	1883.74
999.818	1869.27
1000.114	1852.1
1000.409	1843.51
1000.704	1834.02
1001	1831.08
1001.295	1818.43
1001.59	1806.22
1001.885	1810.29
1002.18	1790.18
1002.475	1753.8
1002.77	1787.92
1003.065	1765.77
1003.359	1775.72
1003.654	1740.24
1003.949	1737.52
1004.243	1723.51
1004.538	1727.36
1004.832	1704.31
1005.127	1688.71
1005.421	1703.18
1005.715	1683.97
1006.009	1686
1006.304	1652.1
1006.598	1619.56
1006.892	1619.11
1007.186	1646.68
1007.48	1638.77
1007.773	1635.15
1008.067	1632.44
1008.361	1576.17
1008.655	1593.12
1008.948	1573.91
1009.242	1558.77
1009.535	1570.75
1009.829	1551.99
1010.122	1566.46
1010.415	1554.25
1010.708	1504.99
1011.001	1514.93
1011.295	1512.67
1011.588	1507.93
1011.881	1482.39
1012.173	1503.41
1012.466	1506.57
1012.759	1485.78
1013.052	1441.71
1013.344	1470.87
1013.637	1466.35
1013.93	1412.79
1014.222	1443.52
1014.514	1422.73
1014.807	1424.54
1015.099	1413.47
1015.391	1400.58
1015.683	1409.62
1015.976	1391.55
1016.268	1376.18
1016.56	1352.45
1016.851	1385.22
1017.143	1342.06
1017.435	1333.92
1017.727	1328.95
1018.018	1359.46
1018.31	1360.59
1018.602	1313.36
1018.893	1286.92
1019.185	1291.21
1019.476	1298.44
1019.767	1283.75
1020.058	1278.78
1020.35	1272.45
1020.641	1254.6
1020.932	1264.54
1021.223	1237.65
1021.514	1249.63
1021.804	1237.65
1022.095	1236.3
1022.386	1221.61
1022.677	1195.62
1022.967	1199.46
1023.258	1182.06
1023.548	1201.72
1023.839	1184.77
1024.129	1189.97
1024.419	1164.66
1024.709	1161.27
1025	1169.18
1025.29	1142.06
1025.58	1120.37
1025.87	1114.26
1026.16	1112
1026.449	1115.85
1026.739	1122.17
1027.029	1096.86
1027.319	1075.62
1027.608	1116.07
1027.898	1075.4
1028.187	1072.46
1028.477	1073.59
1028.766	1038.33
1029.055	1059.12
1029.344	1056.19
1029.634	1038.56
1029.923	1047.15
1030.212	1034.04
1030.501	1023.19
1030.79	987.26
1031.078	1027.04
1031.367	1013.48
1031.656	996.75
1031.945	983.42
1032.233	976.64
1032.522	999.69
1032.81	968.28
1033.099	974.83
1033.387	954.95
1033.675	973.7
1033.963	934.16
1034.251	945.91
1034.54	935.74
1034.828	923.08
1035.116	952.46
1035.403	939.13
1035.691	921.95
1035.979	899.35
1036.267	934.16
1036.554	897.77
1036.842	875.17
1037.129	883.08
1037.417	897.55
1037.704	873.14
1037.992	865.68
1038.279	884.89
1038.566	861.84
1038.853	861.84
1039.14	861.84
