Data from hue_270_FLMS001491_00053.txt Node
Date: Tue Feb 07 15:57:23 GMT 2017
User: dcchb
Spectrometer: FLMS00149
Trigger mode: 0
Integration Time (sec): 2.000000E-2
Scans to average: 10
Electric dark correction enabled: true
Nonlinearity correction enabled: false
Boxcar width: 0
XAxis mode: Wavelengths
Number of Pixels in Spectrum: 2048
>>>>>Begin Spectral Data<<<<<
341.393	3.98
341.776	3.98
342.16	3.98
342.543	-65.62
342.927	-48.22
343.31	-59.07
343.693	-63.81
344.077	-65.85
344.46	-67.43
344.843	-43.93
345.226	-30.59
345.61	-35.34
345.993	-17.71
346.376	-14.55
346.759	1.05
347.142	12.34
347.525	52.8
347.908	68.39
348.291	83.08
348.674	69.74
349.057	110.87
349.44	130.53
349.823	145.45
350.206	141.83
350.588	166.92
350.971	210.53
351.354	200.14
351.737	243.52
352.119	248.04
352.502	263.41
352.884	277.65
353.267	286.01
353.65	286.01
354.032	315.84
354.414	286.01
354.797	298.44
355.179	330.98
355.562	339.12
355.944	314.48
356.326	323.07
356.709	323.3
357.091	322.39
357.473	327.14
357.855	333.47
358.238	317.42
358.62	336.4
359.002	330.98
359.384	346.12
359.766	334.37
360.148	328.72
360.53	346.57
360.912	358.78
361.294	349.96
361.676	348.83
362.057	323.07
362.439	328.27
362.821	310.87
363.203	330.08
363.584	344.99
363.966	323.75
364.348	330.53
364.729	331.43
365.111	324.88
365.493	327.36
365.874	318.1
366.256	339.57
366.637	317.2
367.019	304.31
367.4	327.82
367.781	313.81
368.163	313.35
368.544	278.33
368.925	321.71
369.306	291.88
369.688	300.47
370.069	314.03
370.45	312.68
370.831	314.94
371.212	293.69
371.593	329.62
371.974	305.9
372.355	310.64
372.736	323.52
373.117	313.13
373.498	317.87
373.879	324.88
374.26	345.44
374.641	324.65
375.021	310.19
375.402	316.52
375.783	322.17
376.163	340.47
376.544	329.85
376.925	336.4
377.305	339.57
377.686	317.87
378.066	321.71
378.447	325.33
378.827	328.95
379.208	314.48
379.588	347.93
379.968	320.58
380.349	329.4
380.729	338.66
381.109	324.2
381.489	332.11
381.87	347.02
382.25	340.25
382.63	350.87
383.01	331.21
383.39	368.04
383.77	346.57
384.15	335.5
384.53	327.14
384.91	316.97
385.29	330.08
385.67	353.35
386.049	343.64
386.429	372.56
386.809	363.07
387.189	350.87
387.568	339.79
387.948	345.67
388.328	364.43
388.707	357.42
389.087	378.44
389.466	376.4
389.846	380.92
390.225	376.18
390.605	401.49
390.984	358.55
391.363	365.1
391.743	369.85
392.122	380.24
392.501	361.71
392.881	396.06
393.26	396.97
393.639	378.21
394.018	389.06
394.397	394.48
394.776	408.04
395.155	385.22
395.534	400.36
395.913	386.57
396.292	406.46
396.671	409.4
397.05	389.96
397.429	396.97
397.808	386.12
398.186	416.18
398.565	416.63
398.944	389.74
399.323	381.15
399.701	401.49
400.08	394.03
400.458	402.16
400.837	443.52
401.215	442.39
401.594	422.05
401.972	429.06
402.351	443.97
402.729	450.75
403.107	436.97
403.486	434.93
403.864	445.1
404.242	465.21
404.62	450.98
404.999	455.04
405.377	447.59
405.755	452.78
406.133	439.9
406.511	465.44
406.889	482.39
407.267	488.04
407.645	469.73
408.023	487.81
408.401	492.78
408.779	510.41
409.156	501.15
409.534	510.18
409.912	510.64
410.29	517.87
410.667	536.17
411.045	534.36
411.422	534.36
411.8	549.96
412.178	559.67
412.555	566
412.933	570.52
413.31	570.75
413.687	566.68
414.065	569.84
414.442	606.23
414.819	597.64
415.197	607.58
415.574	627.47
415.951	623.4
416.328	615.04
416.705	635.6
417.082	626.34
417.46	659.11
417.837	657.75
418.214	658.65
418.591	636.73
418.967	672.21
419.344	685.77
419.721	695.26
420.098	701.14
420.475	704.53
420.852	718.99
421.228	704.76
421.605	725.55
421.982	735.49
422.358	758.99
422.735	746.79
423.111	758.09
423.488	773.91
423.864	805.32
424.241	806.22
424.617	814.58
424.994	822.94
425.37	812.78
425.746	838.54
426.123	854.13
426.499	824.07
426.875	874.69
427.251	877.18
427.627	910.17
428.003	886.45
428.379	918.76
428.756	924.41
429.132	925.77
429.507	948.14
429.883	963.28
430.259	978.65
430.635	965.31
431.011	991.08
431.387	1029.49
431.763	1014.13
432.138	1031.07
432.514	1040.11
432.89	1034.46
433.265	1059.77
433.641	1066.78
434.016	1113.56
434.392	1103.62
434.767	1123.05
435.143	1175.48
435.518	1189.94
435.894	1170.73
436.269	1211.63
436.644	1233.78
437.02	1240.33
437.395	1264.97
437.77	1255.48
438.145	1254.57
438.52	1305.19
438.895	1328.24
439.271	1315.81
439.646	1338.41
440.021	1355.81
440.395	1374.12
440.77	1365.98
441.145	1412.31
441.52	1425.19
441.895	1448.92
442.27	1451.63
442.645	1419.54
443.019	1470.39
443.394	1479.65
443.769	1470.61
444.143	1490.72
444.518	1521.68
444.892	1509.03
445.267	1543.38
445.641	1561
446.016	1541.57
446.39	1566.2
446.764	1572.3
447.139	1561.46
447.513	1558.97
447.887	1568.01
448.262	1628.35
448.636	1586.77
449.01	1618.86
449.384	1627.44
449.758	1618.4
450.132	1680.1
450.506	1678.52
450.88	1688.23
451.254	1672.41
451.628	1695.69
452.002	1717.84
452.376	1707.89
452.75	1735.01
453.123	1747.67
453.497	1785.41
453.871	1796.93
454.244	1822.69
454.618	1807.55
454.992	1871.05
455.365	1812.75
455.739	1891.39
456.112	1910.6
456.486	1929.81
456.859	1938.17
457.232	1965.74
457.606	1958.28
457.979	2016.59
458.352	2016.81
458.725	2043.25
459.099	2073.31
459.472	2103.81
459.845	2104.72
460.218	2099.97
460.591	2136.58
460.964	2093.42
461.337	2164.38
461.71	2229.24
462.083	2232.62
462.456	2221.33
462.829	2254.32
463.201	2270.59
463.574	2284.15
463.947	2297.93
464.32	2359.4
464.692	2356.92
465.065	2365.73
465.438	2407.99
465.81	2442.79
466.183	2443.47
466.555	2501.54
466.928	2514.2
467.3	2532.5
467.672	2494.99
468.045	2577.93
468.417	2597.81
468.789	2565.5
469.161	2624.03
469.534	2706.06
469.906	2707.64
470.278	2693.63
470.65	2760.97
471.022	2816.34
471.394	2906.05
471.766	2879.39
472.138	2918.93
472.51	2958.26
472.882	2999.16
473.253	2986.5
473.625	3036.9
473.997	3107.18
474.369	3134.3
474.74	3165.48
475.112	3184.92
475.484	3212.49
475.855	3233.05
476.227	3262.2
476.598	3372.71
476.97	3379.26
477.341	3396.89
477.713	3505.59
478.084	3499.26
478.455	3569.09
478.827	3590.56
479.198	3659.25
479.569	3672.59
479.94	3750.33
480.311	3796.43
480.682	3845.92
481.053	3923.43
481.424	3936.31
481.795	3973.14
482.166	4060.37
482.537	4078.9
482.908	4169.52
483.279	4195.51
483.65	4234.38
484.021	4330.42
484.391	4358.67
484.762	4372.46
485.133	4394.15
485.503	4494.71
485.874	4555.28
486.244	4580.36
486.615	4651.54
486.985	4697.64
487.356	4747.81
487.726	4790.3
488.097	4838.88
488.467	4874.14
488.837	4946.45
489.207	5033.91
489.578	5058.99
489.948	5110.52
490.318	5156.39
490.688	5139.89
491.058	5235.26
491.428	5295.6
491.798	5339.44
492.168	5403.61
492.538	5421.69
492.908	5483.84
493.278	5494.91
493.648	5547.34
494.017	5625.3
494.387	5595.7
494.757	5654.91
495.126	5709.6
495.496	5740.1
495.866	5762.93
496.235	5820.55
496.605	5828.24
496.974	5863.04
497.344	5897.39
497.713	5948.69
498.082	5942.81
498.452	5955.92
498.821	6004.73
499.19	5973.54
499.559	6054.9
499.928	6138.28
500.298	6110.26
500.667	6125.86
501.036	6199.75
501.405	6207.66
501.774	6189.13
502.143	6282.24
502.512	6311.61
502.88	6277.26
503.249	6320.88
503.618	6295.12
503.987	6329.69
504.356	6400.88
504.724	6373.08
505.093	6394.55
505.462	6431.84
505.83	6493.53
506.199	6503.93
506.567	6597.93
506.936	6586.41
507.304	6617.59
507.672	6647.42
508.041	6610.14
508.409	6701.43
508.777	6731.94
509.145	6737.82
509.514	6767.42
509.882	6717.93
510.25	6773.3
510.618	6727.87
510.986	6758.16
511.354	6830.7
511.722	6868.21
512.09	6904.14
512.458	6907.3
512.826	6964.93
513.193	6963.12
513.561	6961.77
513.929	6980.75
514.297	7019.84
514.664	7073.4
515.032	7058.03
515.4	7117.24
515.767	7063.01
516.135	7133.96
516.502	7056.23
516.869	7117.92
517.237	7168.31
517.604	7162.66
517.972	7190.23
518.339	7253.28
518.706	7211.7
519.073	7218.71
519.44	7228.65
519.808	7286.73
520.175	7317.69
520.542	7389.78
520.909	7341.19
521.276	7312.04
521.643	7434.07
522.009	7463.67
522.376	7519.04
522.743	7511.13
523.11	7561.3
523.477	7590
523.843	7597.46
524.21	7584.8
524.577	7637.23
524.943	7685.81
525.31	7724.01
525.676	7696.21
526.043	7751.58
526.409	7784.57
526.776	7846.26
527.142	7810.33
527.508	7829.99
527.874	7879.93
528.241	7898.01
528.607	7852.59
528.973	7990.89
529.339	7933.04
529.705	8027.73
530.071	8058.46
530.437	8061.17
530.803	8055.97
531.169	8087.84
531.535	8048.97
531.901	8055.3
532.267	8092.36
532.632	8174.84
532.998	8180.72
533.364	8199.02
533.73	8234.5
534.095	8177.55
534.461	8230.21
534.826	8213.94
535.192	8287.61
535.557	8289.64
535.923	8256.2
536.288	8318.79
536.653	8334.16
537.019	8320.83
537.384	8314.5
537.749	8360.15
538.114	8344.78
538.479	8325.35
538.845	8367.38
539.21	8339.13
539.575	8358.11
539.94	8374.16
540.305	8382.07
540.67	8385.91
541.034	8431.11
541.399	8454.38
541.764	8386.59
542.129	8424.55
542.494	8447.6
542.858	8487.15
543.223	8483.99
543.587	8516.98
543.952	8442.86
544.316	8520.82
544.681	8493.03
545.045	8515.4
545.41	8526.92
545.774	8593.81
546.138	8556.07
546.503	8623.42
546.867	8621.16
547.231	8615.51
547.595	8578.45
547.959	8657.77
548.324	8658.22
548.688	8601.5
549.052	8711.1
549.416	8656.86
549.779	8617.32
550.143	8616.41
550.507	8693.92
550.871	8704.09
551.235	8708.61
551.599	8774.6
551.962	8746.35
552.326	8836.07
552.689	8765.33
553.053	8745.67
553.417	8730.31
553.78	8917.19
554.143	8744.54
554.507	8827.03
554.87	8868.61
555.234	8855.05
555.597	8850.53
555.96	8887.82
556.323	8910.19
556.686	8933.47
557.05	8945.67
557.413	8956.06
557.776	9008.04
558.139	9001.49
558.502	9032.45
558.865	9061.37
559.228	9065.89
559.59	9100.01
559.953	9070.19
560.316	9142.73
560.679	9175.95
561.041	9208.94
561.404	9202.84
561.767	9362.38
562.129	9280.35
562.492	9336.62
562.854	9374.36
563.217	9264.98
563.579	9350.63
563.941	9443.96
564.304	9455.03
564.666	9493.68
565.028	9474.47
565.39	9547.01
565.753	9504.75
566.115	9608.48
566.477	9583.39
566.839	9587.46
567.201	9669.49
567.563	9683.05
567.925	9740.45
568.287	9757.4
568.648	9789.04
569.01	9824.74
569.372	9846.89
569.734	9836.27
570.095	9832.88
570.457	9957.17
570.819	9981.8
571.18	9987
571.542	10063.38
571.903	10043.04
572.265	10027.45
572.626	10061.35
572.987	10153.09
573.349	10196.03
573.71	10212.75
574.071	10222.7
574.432	10288.23
574.794	10335.01
575.155	10277.16
575.516	10368.68
575.877	10329.81
576.238	10377.72
576.599	10433.31
576.96	10485.29
577.32	10544.72
577.681	10505.63
578.042	10519.86
578.403	10572.29
578.763	10580.43
579.124	10601.67
579.485	10710.59
579.845	10697.71
580.206	10768.22
580.566	10801.21
580.927	10749.24
581.287	10780.2
581.648	10815
582.008	10892.74
582.368	10935.22
582.728	11041.66
583.089	10943.13
583.449	10965.05
583.809	10990.13
584.169	11060.19
584.529	11038.27
584.889	11198.26
585.249	11153.29
585.609	11038.27
585.969	11159.17
586.329	11243.01
586.688	11261.31
587.048	11257.92
587.408	11328.43
587.768	11260.86
588.127	11255.89
588.487	11268.09
588.846	11366.4
589.206	11404.14
589.565	11389.22
589.925	11432.61
590.284	11414.76
590.643	11530.69
591.003	11537.92
591.362	11646.16
591.721	11553.51
592.08	11595.09
592.44	11702.66
592.799	11666.73
593.158	11630.8
593.517	11701.3
593.876	11718.25
594.235	11739.95
594.593	11786.5
594.952	11801.41
595.311	11754.63
595.67	11768.19
596.029	11834.86
596.387	11957.79
596.746	11860.17
597.104	11947.17
597.463	11941.3
597.822	11905.36
598.18	11846.61
598.538	11944.46
598.897	12090.9
599.255	11936.32
599.613	12207.73
599.972	12062.65
600.33	12076.43
600.688	12072.14
601.046	12132.48
601.404	12158.24
601.762	12195.3
602.12	12237.56
602.478	12158.01
602.836	12155.53
603.194	12140.39
603.552	12195.53
603.91	12152.36
604.268	12281.85
604.625	12222.64
604.983	12234.4
605.341	12130.44
605.698	12347.16
606.056	12324.34
606.413	12296.09
606.771	12349.2
607.128	12346.03
607.485	12315.3
607.843	12359.59
608.2	12462.86
608.557	12422.19
608.914	12389.42
609.272	12442.07
609.629	12467.16
609.986	12530.43
610.343	12422.41
610.7	12552.35
611.057	12506.25
611.414	12547.83
611.771	12481.85
612.127	12639.13
612.484	12581.73
612.841	12682.75
613.198	12608.85
613.554	12652.01
613.911	12684.78
614.267	12718.45
614.624	12589.19
614.98	12642.29
615.337	12778.11
615.693	12653.14
616.05	12656.08
616.406	12798.9
616.762	12632.8
617.118	12714.16
617.475	12710.77
617.831	12795.06
618.187	12688.17
618.543	12832.8
618.899	12805.68
619.255	12823.31
619.611	12864.66
619.967	12828.05
620.323	12856.07
620.678	12844.1
621.034	12798.22
621.39	12759.58
621.746	12832.35
622.101	12942.17
622.457	12902.17
622.812	12898.11
623.168	12892.68
623.523	12890.2
623.879	12971.55
624.234	12852.91
624.589	12936.07
624.945	12849.97
625.3	12908.05
625.655	12918.9
626.01	12946.69
626.365	12832.57
626.72	12895.17
627.075	12903.08
627.43	12845.91
627.785	12849.97
628.14	12963.87
628.495	12859.01
628.85	12874.15
629.205	12712.58
629.559	12940.14
629.914	12836.87
630.269	12867.15
630.623	12808.84
630.978	12734.27
631.332	12799.35
631.687	12823.76
632.041	12775.62
632.396	12764.1
632.75	12742.18
633.104	12776.98
633.459	12693.82
633.813	12692.01
634.167	12709.19
634.521	12647.94
634.875	12669.19
635.229	12601.84
635.583	12648.17
635.937	12604.56
636.291	12648.62
636.645	12630.77
636.999	12601.62
637.352	12608.17
637.706	12513.71
638.06	12545.57
638.413	12483.43
638.767	12499.02
639.121	12478.68
639.474	12391
639.828	12471.68
640.181	12506.25
640.534	12425.58
640.888	12461.51
641.241	12322.53
641.594	12385.58
641.947	12391.91
642.301	12312.13
642.654	12367.73
643.007	12411.11
643.36	12341.06
643.713	12346.26
644.066	12349.65
644.419	12340.61
644.771	12317.56
645.124	12150.78
645.477	12112.59
645.83	12115.3
646.182	11973.39
646.535	11946.04
646.888	11932.71
647.24	11835.31
647.593	11922.99
647.945	11978.36
648.298	11839.83
648.65	11819.04
649.002	11803.22
649.355	11972.71
649.707	11927.74
650.059	11938.58
650.411	12091.57
650.763	12091.12
651.115	12203.89
651.467	12159.82
651.819	12196.2
652.171	12179.03
652.523	12138.58
652.875	12107.62
653.227	12095.19
653.578	12155.3
653.93	12100.61
654.282	12060.84
654.633	12054.74
654.985	12052.71
655.337	12074.63
655.688	12106.72
656.039	12166.83
656.391	11974.29
656.742	12052.71
657.094	12040.73
657.445	12145.36
657.796	12058.13
658.147	12128.86
658.498	12093.38
658.849	12173.61
659.2	12107.17
659.551	12098.35
659.902	12130.22
660.253	12109.88
660.604	12073.27
660.955	12102.42
661.306	12087.73
661.656	12105.13
662.007	12087.73
662.358	12154.85
662.708	12122.99
663.059	12056.32
663.409	12040.73
663.76	12187.84
664.11	12085.93
664.461	12160.73
664.811	12192.14
665.161	12177.9
665.511	12084.12
665.862	12099.03
666.212	12217.45
666.562	12067.17
666.912	12128.41
667.262	12104
667.612	12104.91
667.962	12139.71
668.312	12075.3
668.662	12107.85
669.011	12134.29
669.361	12026.04
669.711	12017.9
670.06	12059.49
670.41	11981.75
670.76	12015.19
671.109	12084.34
671.459	12106.49
671.808	12068.98
672.157	12101.07
672.507	11941.97
672.856	12037.79
673.205	12059.49
673.554	12095.42
673.904	11933.39
674.253	12030.11
674.602	11995.53
674.951	11793.5
675.3	11786.05
675.649	11990.11
675.998	11941.97
676.346	11965.02
676.695	11990.56
677.044	11848.19
677.393	11910.56
677.741	11872.37
678.09	11864.01
678.438	11765.03
678.787	11845.48
679.135	11827.85
679.484	11769.1
679.832	11817.01
680.181	11706.27
680.529	11685.48
680.877	11759.61
681.225	11672.15
681.573	11716.22
681.922	11650.68
682.27	11569.78
682.618	11629.67
682.966	11585.15
683.314	11566.16
683.661	11562.78
684.009	11510.57
684.357	11397.13
684.705	11471.93
685.053	11463.34
685.4	11437.58
685.748	11350.13
686.095	11444.13
686.443	11391.48
686.79	11277.81
687.138	11407.98
687.485	11296.79
687.832	11271.48
688.18	11295.89
688.527	11183.8
688.874	11153.29
689.221	11156.23
689.568	11107.42
689.915	11096.8
690.262	11100.87
690.609	11120.07
690.956	11055.44
691.303	10986.75
691.65	11004.37
691.997	10942
692.344	10871.04
692.69	10899.29
693.037	10883.47
693.383	10752.85
693.73	10835.56
694.077	10748.56
694.423	10683.02
694.769	10667.66
695.116	10648.45
695.462	10658.62
695.808	10586.3
696.155	10562.35
696.501	10555.8
696.847	10478.74
697.193	10410.94
697.539	10400.09
697.885	10285.52
698.231	10318.74
698.577	10285.97
698.923	10324.84
699.269	10187.22
699.614	10150.61
699.96	10125.3
700.306	10150.83
700.651	10133.21
700.997	10088.46
701.342	10024.51
701.688	9956.49
702.033	9988.58
702.379	9869.26
702.724	9939.31
703.069	9905.64
703.415	9827.91
703.76	9778.87
704.105	9817.28
704.45	9763.73
704.795	9702.71
705.14	9697.06
705.485	9669.49
705.83	9617.29
706.175	9640.11
706.52	9577.52
706.865	9480.8
707.209	9563.28
707.554	9516.28
707.899	9575.93
708.243	9490.51
708.588	9424.98
708.932	9375.26
709.277	9376.39
709.621	9426.56
709.966	9340.01
710.31	9298.2
710.654	9278.09
710.998	9281.25
711.342	9216.85
711.687	9234.25
712.031	9276.06
712.375	9160.13
712.719	9104.76
713.063	9118.55
713.407	9144.08
713.75	9133.23
714.094	9103.63
714.438	9074.03
714.782	9008.04
715.125	9039.9
715.469	9040.81
715.812	9047.36
716.156	8951.09
716.499	9008.49
716.843	8963.97
717.186	8911.55
717.53	8921.71
717.873	8970.98
718.216	8922.39
718.559	8846.69
718.902	8881.94
719.246	8904.54
719.589	8848.27
719.932	8802.62
720.275	8780.48
720.617	8795.84
720.96	8772.79
721.303	8795.62
721.646	8738.22
721.989	8763.53
722.331	8721.95
722.674	8682.17
723.016	8767.82
723.359	8707.93
723.701	8722.62
724.044	8644.43
724.386	8631.78
724.729	8693.25
725.071	8658.22
725.413	8599.69
725.755	8634.72
726.097	8617.99
726.439	8521.27
726.782	8559.46
727.124	8631.78
727.465	8559.01
727.807	8574.38
728.149	8556.07
728.491	8556.07
728.833	8475.4
729.175	8508.39
729.516	8515.62
729.858	8499.58
730.199	8490.99
730.541	8496.19
730.882	8497.77
731.224	8534.61
731.565	8433.59
731.906	8461.39
732.248	8443.54
732.589	8447.83
732.93	8394.27
733.271	8421.16
733.612	8510.43
733.953	8469.52
734.294	8399.47
734.635	8381.84
734.976	8420.71
735.317	8385.23
735.658	8450.09
735.999	8444.66
736.339	8427.72
736.68	8433.82
737.021	8431.56
737.361	8413.03
737.702	8531.44
738.042	8500.03
738.383	8471.56
738.723	8504.32
739.063	8471.78
739.404	8485.34
739.744	8480.82
740.084	8417.55
740.424	8510.65
740.764	8493.03
741.104	8500.71
741.444	8508.84
741.784	8477.88
742.124	8480.37
742.464	8468.39
742.804	8523.31
743.143	8499.13
743.483	8607.6
743.823	8578.22
744.162	8521.27
744.502	8605.79
744.841	8610.54
745.181	8708.84
745.52	8606.02
745.86	8707.71
746.199	8668.61
746.538	8710.42
746.877	8812.11
747.216	8793.36
747.556	8892.34
747.895	8798.33
748.234	8964.2
748.573	8936.63
748.911	9031.99
749.25	9022.28
749.589	9051.43
749.928	9166.45
750.267	9256.85
750.605	9261.37
750.944	9282.38
751.283	9318.77
751.621	9522.83
751.96	9503.39
752.298	9580.91
752.636	9663.84
752.975	9734.12
753.313	9703.16
753.651	9949.03
753.989	9937.28
754.327	10106.77
754.666	10062.02
755.004	10298.63
755.342	10366.42
755.679	10464.72
756.017	10574.1
756.355	10652.29
756.693	10709.92
757.031	10911.27
757.368	11007.31
757.706	11158.04
758.044	11269.45
758.381	11466.96
758.719	11474.87
759.056	11704.69
759.394	11858.59
759.731	11944.46
760.068	12091.35
760.405	12200.5
760.743	12387.16
761.08	12511.22
761.417	12667.38
761.754	12805.91
762.091	12883.64
762.428	13074.6
762.765	13170.87
763.102	13414.25
763.438	13538.32
763.775	13649.5
764.112	13922.04
764.449	14045.65
764.785	14078.87
765.122	14232.99
765.458	14327
765.795	14500.78
766.131	14645.41
766.467	14726.31
766.804	14859.86
767.14	15070.71
767.476	15106.18
767.812	15227.31
768.148	15336.69
768.485	15486.51
768.821	15547.98
769.157	15789.56
769.492	15916.33
769.828	16067.29
770.164	16014.18
770.5	16245.82
770.836	16359.26
771.171	16385.47
771.507	16491.91
771.842	16499.14
772.178	16606.03
772.513	16779.14
772.849	16801.06
773.184	16897.78
773.519	16915.4
773.855	16994.04
774.19	17013.48
774.525	17086.02
774.86	17240.82
775.195	17286.69
775.53	17342.51
775.865	17375.5
776.2	17344.32
776.535	17411.43
776.87	17493.69
777.205	17515.84
777.539	17584.99
777.874	17640.13
778.209	17570.98
778.543	17551.32
778.878	17633.12
779.212	17709.51
779.547	17630.64
779.881	17760.13
780.215	17682.16
780.55	17835.6
780.884	17770.07
781.218	17815.49
781.552	17886.9
781.886	17850.07
782.22	17892.78
782.554	17830.18
782.888	17723.97
783.222	17714.7
783.556	17766.91
783.889	17797.19
784.223	17727.13
784.557	17722.16
784.89	17882.83
785.224	17808.71
785.557	17743.63
785.891	17788.6
786.224	17736.17
786.558	17700.01
786.891	17692.78
787.224	17563.3
787.557	17617.31
787.891	17633.12
788.224	17679.45
788.557	17696.17
788.89	17671.54
789.223	17606.23
789.556	17459.34
789.888	17479.91
790.221	17472.9
790.554	17429.51
790.887	17397.42
791.219	17406.46
791.552	17425.67
791.884	17351.78
792.217	17299.12
792.549	17368.72
792.882	17174.83
793.214	17165.34
793.546	17168.05
793.879	17136.41
794.211	17102.74
794.543	17100.26
794.875	17032.69
795.207	17124.89
795.539	16964.89
795.871	17067.26
796.203	16982.97
796.535	16876.31
796.867	16768.74
797.198	16805.8
797.53	16808.06
797.862	16684.67
798.193	16735.52
798.525	16677.89
798.856	16651.45
799.188	16546.37
799.519	16547.95
799.85	16455.08
800.182	16476.09
800.513	16465.92
800.844	16362.87
801.175	16507.05
801.506	16445.81
801.837	16395.87
802.168	16266.38
802.499	16275.65
802.83	16138.93
803.161	16148.87
803.491	16121.07
803.822	16172.6
804.153	16129.89
804.483	15971.92
804.814	15968.76
805.145	15992.72
805.475	15957.24
805.805	15884.24
806.136	15802.21
806.466	15856
806.796	15818.93
807.126	15708.2
807.457	15691.93
807.787	15698.71
808.117	15565.61
808.447	15553.18
808.777	15613.74
809.107	15516.8
809.436	15564.93
809.766	15450.58
810.096	15436.12
810.426	15413.3
810.755	15490.58
811.085	15413.97
811.414	15354.99
811.744	15218.95
812.073	15235.22
812.403	15296.01
812.732	15111.61
813.061	15171.49
813.39	15042.91
813.719	15167.43
814.049	15134.66
814.378	15095.56
814.707	15007.88
815.036	15025.51
815.365	15014.44
815.693	14899.41
816.022	14847.89
816.351	14805.85
816.68	14784.16
817.008	14897.6
817.337	14720.21
817.665	14635.24
817.994	14710.71
818.322	14645.41
818.651	14659.42
818.979	14587.1
819.307	14625.29
819.636	14558.85
819.964	14530.83
820.292	14603.37
820.62	14551.85
820.948	14508.23
821.276	14548.91
821.604	14522.25
821.932	14496.26
822.259	14503.71
822.587	14493.77
822.915	14420.33
823.243	14559.53
823.57	14442.7
823.898	14484.05
824.225	14371.51
824.553	14426.88
824.88	14500.1
825.207	14605.41
825.535	14434.56
825.862	14558.4
826.189	14501.45
826.516	14533.09
826.843	14550.72
827.17	14527.22
827.497	14518.18
827.824	14584.16
828.151	14592.98
828.478	14579.19
828.805	14591.85
829.131	14520.44
829.458	14592.53
829.785	14436.15
830.111	14463.26
830.438	14561.11
830.764	14570.83
831.09	14508.46
831.417	14485.41
831.743	14581.23
832.069	14557.05
832.395	14465.75
832.722	14533.77
833.048	14441.12
833.374	14494.45
833.7	14419.42
834.026	14509.36
834.351	14531.51
834.677	14420.78
835.003	14428.46
835.329	14392.08
835.654	14451.51
835.98	14284.29
836.306	14392.53
836.631	14331.06
836.956	14339.65
837.282	14350.05
837.607	14280.44
837.932	14242.7
838.258	14229.15
838.583	14218.07
838.908	14100.34
839.233	14136.72
839.558	14120.45
839.883	14115.25
840.208	14031.86
840.533	14018.3
840.858	14091.3
841.182	14104.86
841.507	14061.01
841.832	13877.06
842.156	13935.37
842.481	13916.61
842.805	13900.11
843.13	13872.54
843.454	13813.79
843.778	13778.31
844.103	13760.68
844.427	13656.96
844.751	13729.27
845.075	13658.09
845.399	13604.3
845.723	13480.69
846.047	13614.47
846.371	13428.49
846.695	13520.46
847.019	13301.26
847.343	13300.36
847.666	13247.02
847.99	13205.9
848.313	13164.99
848.637	13087.25
848.96	13080.25
849.284	12937.43
849.607	12979.69
849.931	12856.98
850.254	12824.44
850.577	12769.52
850.9	12746.02
851.223	12724.33
851.546	12590.32
851.869	12609.08
852.192	12595.29
852.515	12492.47
852.838	12440.72
853.161	12528.17
853.483	12331.79
853.806	12343.09
854.129	12288.41
854.451	12273.26
854.774	12240.5
855.096	12179.93
855.419	12131.8
855.741	12063.55
856.063	12044.34
856.385	11991.69
856.708	11977.45
857.03	11979.71
857.352	11914.63
857.674	11881.18
857.996	11883.22
858.318	11750.34
858.64	11850.23
858.961	11675.99
859.283	11653.17
859.605	11682.09
859.926	11666.73
860.248	11588.99
860.57	11601.19
860.891	11600.97
861.212	11475.55
861.534	11534.3
861.855	11435.55
862.176	11502.89
862.498	11445.49
862.819	11475.55
863.14	11358.26
863.461	11401.2
863.782	11356.68
864.103	11306.74
864.424	11378.37
864.745	11372.27
865.065	11177.7
865.386	11228.77
865.707	11218.83
866.027	11197.13
866.348	11231.26
866.668	11204.14
866.989	11156.91
867.309	11105.16
867.63	11208.21
867.95	11091.38
868.27	11006.63
868.59	11000.3
868.91	11058.61
869.23	10996.46
869.55	10969.34
869.87	11010.02
870.19	10979.51
870.51	10978.16
870.83	10961.43
871.15	10836.24
871.469	10889.35
871.789	10882.11
872.109	10875.79
872.428	10795.11
872.748	10832.85
873.067	10871.49
873.386	10769.58
873.706	10766.86
874.025	10699.29
874.344	10734.55
874.663	10759.41
874.982	10757.15
875.301	10693.42
875.62	10663.14
875.939	10704.04
876.258	10625.85
876.577	10600.99
876.896	10636.7
877.214	10596.92
877.533	10557.6
877.852	10563.93
878.17	10561.9
878.489	10538.62
878.807	10568
879.125	10566.64
879.444	10568.9
879.762	10424.95
880.08	10529.13
880.398	10371.85
880.716	10469.24
881.034	10370.72
881.352	10404.84
881.67	10383.6
881.988	10387.44
882.306	10247.78
882.624	10284.84
882.941	10223.15
883.259	10197.39
883.577	10168.46
883.894	10126.65
884.212	10194.45
884.529	10152.87
884.846	10090.5
885.164	10085.75
885.481	10019.54
885.798	10038.52
886.115	9941.12
886.432	9879.43
886.75	9890.5
887.067	9972.08
887.383	9857.28
887.7	9897.51
888.017	9834.01
888.334	9852.31
888.651	9805.99
888.967	9759.66
889.284	9763.5
889.6	9652.77
889.917	9646.44
890.233	9619.78
890.55	9539.78
890.866	9554.24
891.182	9592.21
891.498	9550.62
891.815	9495.71
892.131	9378.88
892.447	9502.04
892.763	9393.57
893.079	9449.61
893.395	9369.16
893.71	9400.12
894.026	9326
894.342	9372.32
894.657	9259.56
894.973	9199.9
895.289	9214.59
895.604	9199.9
895.92	9063.86
896.235	9036.74
896.55	9052.78
896.865	9047.59
897.181	9050.07
897.496	9013.46
897.811	9005.33
898.126	8931.66
898.441	8893.24
898.756	8828.38
899.071	8795.16
899.386	8808.95
899.7	8806.01
900.015	8674.26
900.33	8641.04
900.644	8678.78
900.959	8652.57
901.273	8613.02
901.588	8547.94
901.902	8521.73
902.216	8446.25
902.531	8460.71
902.845	8480.6
903.159	8422.07
903.473	8350.2
903.787	8298
904.101	8308.62
904.415	8275.86
904.729	8207.38
905.042	8251
905.356	8176.42
905.67	8147.72
905.984	8242.41
906.297	8072.7
906.611	8108.4
906.924	8067.27
907.237	7936.2
907.551	7953.83
907.864	7869.09
908.177	8000.16
908.491	7881.06
908.804	7852.14
909.117	7842.42
909.43	7771.01
909.743	7749.77
910.056	7755.87
910.368	7658.7
910.681	7601.98
910.994	7628.64
911.307	7581.86
911.619	7624.35
911.932	7580.96
912.244	7477.68
912.557	7470.45
912.869	7450.11
913.181	7428.65
913.494	7344.35
913.806	7274.07
914.118	7238.14
914.43	7214.64
914.742	7285.83
915.054	7199.95
915.366	7107.98
915.678	7150.24
915.99	7107.52
916.302	7030.01
916.613	7007.87
916.925	7053.06
917.236	7032.27
917.548	6947.98
917.859	6940.98
918.171	6866.63
918.482	6838.38
918.794	6811.26
919.105	6806.29
919.416	6802.67
919.727	6805.39
920.038	6731.26
920.349	6746.4
920.66	6703.24
920.971	6668.89
921.282	6648.33
921.593	6613.53
921.903	6591.15
922.214	6587.31
922.525	6512.29
922.835	6470.03
923.146	6435.23
923.456	6382.57
923.767	6441.55
924.077	6381.22
924.387	6383.25
924.697	6372.63
925.008	6337.6
925.318	6330.37
925.628	6253.31
925.938	6267.55
926.248	6259.64
926.558	6140.32
926.867	6191.84
927.177	6202.92
927.487	6099.19
927.796	6048.57
928.106	6066.65
928.416	6108
928.725	5995.69
929.034	6006.99
929.344	6003.83
929.653	5985.75
929.962	5949.36
930.271	5917.95
930.581	5914.34
930.89	5905.07
931.199	5791.18
931.508	5807.45
931.817	5815.58
932.125	5814
932.434	5741.23
932.743	5680.67
933.051	5651.97
933.36	5672.08
933.669	5650.61
933.977	5618.52
934.286	5585.76
934.594	5534.23
934.902	5557.06
935.21	5513.22
935.519	5503.05
935.827	5515.7
936.135	5452.2
936.443	5383.28
936.751	5421.02
937.059	5416.72
937.367	5315.03
937.674	5374.69
937.982	5377.63
938.29	5310.74
938.597	5268.48
938.905	5262.38
939.213	5206.33
939.52	5213.11
939.827	5198.65
940.135	5193.9
940.442	5134.02
940.749	5119.78
941.056	5096.28
941.363	5040.91
941.67	5066.9
941.977	5035.04
942.284	4989.16
942.591	4993.91
942.898	5000.91
943.205	4979.22
943.511	4903.06
943.818	4902.61
944.125	4898.77
944.431	4833.01
944.738	4852.44
945.044	4807.25
945.35	4790.3
945.657	4723.41
945.963	4774.48
946.269	4724.54
946.575	4693.58
946.881	4673.01
947.187	4708.49
947.493	4680.7
947.799	4639.79
948.105	4644.76
948.41	4679.57
948.716	4601.6
949.022	4587.59
949.327	4563.19
949.633	4520.7
949.938	4474.37
950.244	4499.23
950.549	4456.07
950.854	4462.17
951.16	4422.4
951.465	4435.05
951.77	4369.74
952.075	4396.41
952.38	4394.6
952.685	4362.51
952.99	4316.86
953.294	4311.21
953.599	4273.93
953.904	4273.02
954.209	4220.14
954.513	4259.46
954.818	4241.16
955.122	4199.35
955.426	4179.92
955.731	4191.67
956.035	4118.9
956.339	4125.46
956.643	4133.37
956.948	4054.72
957.252	4038.68
957.556	4043.65
957.86	4071.22
958.163	4014.95
958.467	3996.42
958.771	3983.77
959.075	3967.95
959.378	3948.74
959.682	3997.55
959.985	3922.75
960.289	3916.2
960.592	3875.52
960.896	3856.31
961.199	3857.44
961.502	3807.95
961.805	3778.35
962.108	3807.72
962.411	3799.82
962.714	3757.56
963.017	3754.17
963.32	3777.44
963.623	3728.18
963.926	3747.16
964.228	3700.83
964.531	3671.46
964.833	3656.99
965.136	3617.22
965.438	3614.96
965.741	3639.59
966.043	3620.84
966.345	3624.45
966.648	3584.91
966.95	3569.99
967.252	3522.99
967.554	3503.55
967.856	3489.99
968.158	3468.07
968.46	3468.07
968.761	3452.48
969.063	3455.19
969.365	3419.03
969.666	3398.47
969.968	3368.64
970.269	3376.55
970.571	3356.44
970.872	3395.31
971.174	3319.38
971.475	3374.52
971.776	3332.71
972.077	3296.55
972.378	3237.12
972.679	3239.6
972.98	3235.99
973.281	3227.4
973.582	3240.28
973.883	3198.7
974.183	3205.25
974.484	3196.22
974.785	3139.49
975.085	3167.97
975.386	3157.8
975.686	3098.36
975.986	3064.02
976.287	3144.47
976.587	3092.04
976.887	3088.65
977.187	3057.01
977.487	3074.64
977.787	3055.43
978.087	3024.02
978.387	2972.72
978.687	2990.8
978.987	2988.31
979.286	2959.84
979.586	2950.8
979.885	2913.96
980.185	2911.25
980.484	2874.19
980.784	2873.96
981.083	2871.93
981.382	2868.54
981.682	2879.61
981.981	2832.38
982.28	2836.45
982.579	2809.78
982.878	2800.07
983.177	2748.32
983.475	2781.09
983.774	2740.41
984.073	2766.17
984.372	2754.87
984.67	2719.84
984.969	2702.9
985.267	2717.13
985.566	2688.66
985.864	2668.09
986.162	2707.41
986.461	2635.55
986.759	2615.67
987.057	2568.21
987.355	2622.9
987.653	2582.45
987.951	2600.3
988.249	2593.52
988.547	2555.55
988.844	2598.72
989.142	2549.23
989.44	2518.49
989.737	2538.61
990.035	2536.57
990.332	2519.62
990.63	2483.69
990.927	2457.7
991.224	2450.7
991.521	2456.35
991.819	2484.14
992.116	2457.7
992.413	2446.86
992.71	2395.56
993.006	2390.13
993.303	2346.97
993.6	2373.19
993.897	2377.71
994.193	2368.44
994.49	2329.8
994.787	2312.17
995.083	2310.14
995.379	2316.01
995.676	2304.49
995.972	2289.12
996.268	2277.37
996.565	2262.45
996.861	2255
997.157	2236.92
997.453	2219.74
997.749	2209.8
998.044	2182.23
998.34	2186.3
998.636	2200.76
998.932	2156.24
999.227	2149.92
999.523	2121.22
999.818	2116.92
1000.114	2147.88
1000.409	2125.74
1000.704	2108.56
1001	2088.9
1001.295	2090.71
1001.59	2082.12
1001.885	2072.4
1002.18	2036.92
1002.475	2032.18
1002.77	1999.18
1003.065	2044.61
1003.359	1992.41
1003.654	1979.3
1003.949	1971.61
1004.243	1948.79
1004.538	1952.41
1004.832	1971.84
1005.127	1931.62
1005.421	1925.97
1005.715	1909.24
1006.009	1908.11
1006.304	1896.36
1006.598	1884.39
1006.892	1885.52
1007.186	1831.05
1007.48	1831.05
1007.773	1839.64
1008.067	1805.29
1008.361	1794.44
1008.655	1822.24
1008.948	1789.02
1009.242	1772.98
1009.535	1773.43
1009.829	1789.7
1010.122	1739.08
1010.415	1732.53
1010.708	1723.94
1011.001	1729.81
1011.295	1694.11
1011.588	1716.03
1011.881	1679.19
1012.173	1715.35
1012.466	1672.64
1012.759	1636.26
1013.052	1688.91
1013.344	1652.75
1013.637	1636.71
1013.93	1626.99
1014.222	1652.08
1014.514	1602.13
1014.807	1572.76
1015.099	1599.65
1015.391	1604.84
1015.683	1554.9
1015.976	1585.41
1016.268	1539.54
1016.56	1540.21
1016.851	1513.77
1017.143	1526.43
1017.435	1522.36
1017.727	1504.96
1018.018	1511.51
1018.31	1484.62
1018.602	1495.92
1018.893	1439.88
1019.185	1454.34
1019.476	1449.14
1019.767	1463.83
1020.058	1422.7
1020.35	1425.87
1020.641	1424.28
1020.932	1416.6
1021.223	1397.39
1021.514	1388.81
1021.804	1378.86
1022.095	1332.99
1022.386	1366.88
1022.677	1382.25
1022.967	1324.4
1023.258	1303.16
1023.548	1313.33
1023.839	1293.67
1024.129	1308.13
1024.419	1305.19
1024.709	1277.4
1025	1265.87
1025.29	1253.44
1025.58	1254.57
1025.87	1248.47
1026.16	1261.8
1026.449	1228.36
1026.739	1238.53
1027.029	1219.54
1027.319	1210.5
1027.608	1232.88
1027.898	1219.09
1028.187	1185.65
1028.477	1180.68
1028.766	1177.51
1029.055	1170.28
1029.344	1165.08
1029.634	1166.89
1029.923	1144.07
1030.212	1149.72
1030.501	1118.98
1030.79	1117.17
1031.078	1116.72
1031.367	1121.02
1031.656	1096.16
1031.945	1071.3
1032.233	1097.51
1032.522	1090.28
1032.81	1062.94
1033.099	1079.21
1033.387	1118.3
1033.675	1089.38
1033.963	1058.19
1034.251	1025.43
1034.54	1032.66
1034.828	1018.87
1035.116	1011.87
1035.403	1014.58
1035.691	1028.81
1035.979	1000.79
1036.267	983.84
1036.554	994.24
1036.842	986.1
1037.129	997.63
1037.417	989.27
1037.704	948.36
1037.992	965.54
1038.279	965.54
1038.566	938.2
1038.853	938.2
1039.14	938.2
