Data from hue_60_FLMS001491_66.txt Node
Date: Mon Feb 06 15:17:44 GMT 2017
User: dcchb
Spectrometer: FLMS00149
Trigger mode: 0
Integration Time (sec): 2.000000E-2
Scans to average: 10
Electric dark correction enabled: true
Nonlinearity correction enabled: false
Boxcar width: 0
XAxis mode: Wavelengths
Number of Pixels in Spectrum: 2048
>>>>>Begin Spectral Data<<<<<
341.393	-16.36
341.776	-16.36
342.16	-16.36
342.543	-63.81
342.927	-76.69
343.31	-71.04
343.693	-74.89
344.077	-70.14
344.46	-62
344.843	-41.67
345.226	-50.7
345.61	-48.22
345.993	-21.33
346.376	-7.99
346.759	22.06
347.142	30.2
347.525	44.43
347.908	51.89
348.291	91.21
348.674	93.02
349.057	115.17
349.44	119.91
349.823	136.41
350.206	166.24
350.588	200.14
350.971	223.64
351.354	221.83
351.737	246.69
352.119	262.73
352.502	255.95
352.884	280.13
353.267	282.17
353.65	257.54
354.032	279.91
354.414	297.76
354.797	302.96
355.179	308.83
355.562	320.36
355.944	322.62
356.326	323.97
356.709	351.54
357.091	328.27
357.473	334.37
357.855	330.53
358.238	335.73
358.62	350.64
359.002	344.54
359.384	330.3
359.766	334.37
360.148	347.93
360.53	343.18
360.912	363.52
361.294	325.78
361.676	332.56
362.057	335.95
362.439	348.15
362.821	315.16
363.203	309.74
363.584	324.43
363.966	330.75
364.348	309.74
364.729	310.64
365.111	312.68
365.493	327.82
365.874	303.64
366.256	304.77
366.637	314.71
367.019	314.94
367.4	306.8
367.781	320.36
368.163	310.87
368.544	312.45
368.925	305.67
369.306	319.68
369.688	307.25
370.069	314.71
370.45	320.81
370.831	328.72
371.212	316.97
371.593	325.78
371.974	308.38
372.355	329.17
372.736	314.03
373.117	308.38
373.498	308.16
373.879	309.51
374.26	290.3
374.641	318.78
375.021	307.7
375.402	316.29
375.783	301.15
376.163	316.97
376.544	324.43
376.925	334.14
377.305	324.65
377.686	317.87
378.066	317.42
378.447	320.36
378.827	314.26
379.208	340.92
379.588	320.81
379.968	324.43
380.349	348.38
380.729	332.56
381.109	353.8
381.489	343.41
381.87	334.6
382.25	326.23
382.63	332.56
383.01	342.28
383.39	340.25
383.77	327.36
384.15	342.96
384.53	361.26
384.91	342.51
385.29	350.19
385.67	340.25
386.049	349.96
386.429	333.01
386.809	344.99
387.189	337.53
387.568	358.32
387.948	370.98
388.328	345.89
388.707	352.67
389.087	361.49
389.466	347.93
389.846	359.23
390.225	356.74
390.605	360.13
390.984	341.15
391.363	344.76
391.743	350.19
392.122	365.78
392.501	343.18
392.881	355.84
393.26	383.86
393.639	368.27
394.018	355.84
394.397	366.23
394.776	351.54
395.155	362.17
395.534	369.85
395.913	403.52
396.292	359.45
396.671	374.82
397.05	382.05
397.429	387.7
397.808	396.97
398.186	362.62
398.565	370.75
398.944	394.48
399.323	388.61
399.701	397.87
400.08	394.03
400.458	392.9
400.837	389.74
401.215	375.27
401.594	398.55
401.972	376.63
402.351	385.89
402.729	405.33
403.107	396.74
403.486	405.33
403.864	372.33
404.242	393.13
404.62	372.33
404.999	405.78
405.377	396.97
405.755	398.77
406.133	409.85
406.511	397.19
406.889	402.39
407.267	396.51
407.645	401.94
408.023	426.12
408.401	419.79
408.779	390.64
409.156	422.05
409.534	406.46
409.912	432.22
410.29	432.9
410.667	434.48
411.045	463.18
411.422	425.44
411.8	441.49
412.178	433.35
412.555	436.97
412.933	427.47
413.31	466.34
413.687	444.42
414.065	457.53
414.442	467.7
414.819	454.37
415.197	473.58
415.574	461.6
415.951	452.11
416.328	474.25
416.705	473.35
417.082	475.38
417.46	492.56
417.837	467.47
418.214	483.97
418.591	467.7
418.967	485.78
419.344	507.7
419.721	507.7
420.098	503.63
420.475	494.82
420.852	490.52
421.228	502.05
421.605	495.27
421.982	516.74
422.358	513.57
422.735	501.6
423.111	508.38
423.488	494.59
423.864	502.73
424.241	522.39
424.617	519
424.994	534.59
425.37	527.13
425.746	509.51
426.123	517.42
426.499	545.89
426.875	543.63
427.251	555.15
427.627	541.14
428.003	555.61
428.379	558.77
428.756	566
429.132	573.91
429.507	587.7
429.883	583.4
430.259	537.75
430.635	573.69
431.011	598.32
431.387	582.27
431.763	604.65
432.138	594.48
432.514	608.71
432.89	608.26
433.265	613.91
433.641	618.88
434.016	632.22
434.392	609.16
434.767	653.68
435.143	631.09
435.518	645.55
435.894	637.41
436.269	676.28
436.644	660.24
437.02	657.07
437.395	658.2
437.77	672.44
438.145	660.46
438.52	691.42
438.895	705.89
439.271	669.73
439.646	669.05
440.021	698.43
440.395	709.73
440.77	674.02
441.145	683.29
441.52	720.8
441.895	687.13
442.27	723.51
442.645	710.63
443.019	716.73
443.394	728.71
443.769	718.31
444.143	734.81
444.518	744.75
444.892	726.45
445.267	747.24
445.641	735.72
446.016	726.68
446.39	730.52
446.764	761.25
447.139	726.22
447.513	761.25
447.887	771.65
448.262	764.87
448.636	794.7
449.01	784.53
449.384	792.44
449.758	806.45
450.132	798.54
450.506	814.81
450.88	814.58
451.254	824.53
451.628	813.23
452.002	806.22
452.376	824.75
452.75	829.5
453.123	837.41
453.497	865.2
453.871	855.94
454.244	883.28
454.618	863.17
454.992	870.17
455.365	886.22
455.739	902.94
456.112	898.42
456.486	900.46
456.859	918.31
457.232	963.73
457.606	964.86
457.979	944.98
458.352	979.32
458.725	983.17
459.099	964.41
459.472	999.89
459.845	1010.74
460.218	990.4
460.591	1011.64
460.964	1019.1
461.337	1021.36
461.71	1055.93
462.083	1077.18
462.456	1070.85
462.829	1085.76
463.201	1083.5
463.574	1110.17
463.947	1118.08
464.32	1124.18
464.692	1179.77
465.065	1165.53
465.438	1182.48
465.81	1199.66
466.183	1246.89
466.555	1242.14
466.928	1252.54
467.3	1264.51
467.672	1274.68
468.045	1329.15
468.417	1318.52
468.789	1349.48
469.161	1357.85
469.534	1375.02
469.906	1410.95
470.278	1450.05
470.65	1478.52
471.022	1487.33
471.394	1520.78
471.766	1554.22
472.138	1582.47
472.51	1594.9
472.882	1615.69
473.253	1697.95
473.625	1711.96
473.997	1727.33
474.369	1750.38
474.74	1813.2
475.112	1840.32
475.484	1909.47
475.855	1939.3
476.227	1979.75
476.598	2041.67
476.97	2049.35
477.341	2128.45
477.713	2194.21
478.084	2246.64
478.455	2326.18
478.827	2395.33
479.198	2447.76
479.569	2469.68
479.94	2583.12
480.311	2636
480.682	2745.61
481.053	2827.41
481.424	2907.64
481.795	2955.32
482.166	3027.18
482.537	3152.83
482.908	3247.29
483.279	3321.86
483.65	3445.7
484.021	3565.02
484.391	3676.43
484.762	3728.86
485.133	3782.64
485.503	3954.61
485.874	4044.78
486.244	4160.03
486.615	4290.2
486.985	4390.31
487.356	4529.06
487.726	4638.66
488.097	4805.44
488.467	4879.56
488.837	5046.79
489.207	5150.74
489.578	5311.87
489.948	5460.56
490.318	5570.39
490.688	5712.53
491.058	5869.59
491.428	6037.27
491.798	6190.03
492.168	6329.69
492.538	6443.81
492.908	6651.27
493.278	6766.52
493.648	6894.42
494.017	6994.99
494.387	7235.88
494.757	7368.54
495.126	7486.95
495.496	7613.05
495.866	7797.68
496.235	7922.64
496.605	8091.23
496.974	8167.38
497.344	8416.87
497.713	8539.58
498.082	8668.84
498.452	8843.75
498.821	8916.06
499.19	9120.13
499.559	9281.03
499.928	9482.38
500.298	9587.01
500.667	9708.36
501.036	9759.88
501.405	10008.92
501.774	10043.49
502.143	10144.06
502.512	10413.88
502.88	10539.75
503.249	10581.11
503.618	10691.84
503.987	10882.11
504.356	11045.5
504.724	11149.9
505.093	11366.4
505.462	11476.45
505.83	11552.61
506.199	11704.24
506.567	11971.8
506.936	11973.39
507.304	12241.63
507.672	12277.78
508.041	12431.68
508.409	12558.23
508.777	12724.78
509.145	12833.02
509.514	12906.47
509.882	13113.47
510.25	13219
510.618	13339.68
510.986	13414.25
511.354	13621.7
511.722	13735.15
512.09	13945.54
512.458	13961.81
512.826	14181.92
513.193	14282.7
513.561	14341.46
513.929	14593.88
514.297	14666.42
514.664	14780.09
515.032	14938.28
515.4	15096.02
515.767	15204.49
516.135	15399.28
516.502	15306.41
516.869	15555.21
517.237	15708.88
517.604	15700.52
517.972	15941.64
518.339	16117.01
518.706	16115.88
519.073	16251.92
519.44	16426.6
519.808	16620.04
520.175	16538.01
520.542	16929.41
520.909	16971.45
521.276	17007.38
521.643	17199.01
522.009	17367.37
522.376	17434.03
522.743	17625.44
523.11	17765.32
523.477	18006
523.843	18095.26
524.21	18361.47
524.577	18374.8
524.943	18519.2
525.31	18675.58
525.676	18906.08
526.043	19065.63
526.409	19081
526.776	19355.79
527.142	19343.81
527.508	19446.64
527.874	19662.45
528.241	19722.79
528.607	19817.02
528.973	20085.94
529.339	20023.12
529.705	20302.88
530.071	20480.73
530.437	20452.26
530.803	20636.89
531.169	20777
531.535	20718.24
531.901	20876.88
532.267	21026.26
532.632	21166.82
532.998	21344.89
533.364	21414.95
533.73	21432.8
534.095	21614.26
534.461	21741.26
534.826	21831.21
535.192	21932.22
535.557	22131.31
535.923	22059.22
536.288	22141.93
536.653	22219.22
537.019	22244.75
537.384	22409.04
537.749	22475.26
538.114	22555.93
538.479	22564.97
538.845	22715.7
539.21	22768.81
539.575	22861.01
539.94	22980.1
540.305	23076.6
540.67	23026.88
541.034	23211.28
541.399	23360.66
541.764	23233.43
542.129	23390.03
542.494	23442.01
542.858	23500.99
543.223	23576.92
543.587	23761.1
543.952	23725.17
544.316	23872.28
544.681	23844.49
545.045	24078.15
545.41	24105.04
545.774	24157.7
546.138	24145.5
546.503	24258.71
546.867	24238.37
547.231	24524.47
547.595	24399.27
547.959	24646.05
548.324	24703.9
548.688	24729.66
549.052	24771.02
549.416	25005.59
549.779	24931.24
550.143	24997.45
550.507	25205.58
550.871	25253.94
551.235	25327.38
551.599	25478.57
551.962	25417.55
552.326	25592.69
552.689	25676.75
553.053	25647.6
553.417	25795.85
553.78	26074.26
554.143	25893.02
554.507	26117.65
554.87	26149.06
555.234	26466.79
555.597	26312.44
555.96	26442.61
556.323	26453.46
556.686	26703.85
557.05	26676.05
557.413	27010.96
557.776	26983.16
558.139	27152.2
558.502	27170.05
558.865	27150.39
559.228	27465.41
559.59	27618.62
559.953	27535.91
560.316	27829.24
560.679	27948.33
561.041	28045.73
561.404	28167.99
561.767	28353.75
562.129	28272.62
562.492	28680.74
562.854	28572.05
563.217	28571.14
563.579	28817.69
563.941	28978.81
564.304	29104.46
564.666	29172.48
565.028	29280.28
565.39	29470.55
565.753	29584.22
566.115	29603.88
566.477	29666.93
566.839	29846.36
567.201	29906.02
567.563	30020.14
567.925	30275.28
568.287	30348.04
568.648	30378.55
569.01	30572.22
569.372	30756.85
569.734	30642.73
570.095	30847.47
570.457	31032.55
570.819	31081.58
571.18	31071.41
571.542	31225.31
571.903	31419.65
572.265	31396.15
572.626	31597.28
572.987	31586.88
573.349	31648.35
573.71	31927.21
574.071	31874.78
574.432	32073.87
574.794	32316.81
575.155	32263.25
575.516	32169.69
575.877	32204.72
576.238	32408.55
576.599	32505.73
576.96	32493.07
577.32	32522.68
577.681	32663.24
578.042	32706.4
578.403	32751.14
578.763	32770.13
579.124	32874.31
579.485	33031.14
579.845	33075.2
580.206	33082.21
580.566	33160.63
580.927	33175.09
581.287	33259.15
581.648	33187.29
582.008	33412.37
582.368	33366.95
582.728	33337.34
583.089	33302.77
583.449	33441.75
583.809	33329.66
584.169	33580.73
584.529	33371.92
584.889	33619.37
585.249	33452.37
585.609	33514.29
585.969	33535.76
586.329	33568.07
586.688	33715.41
587.048	33441.52
587.408	33490.33
587.768	33557
588.127	33617.11
588.487	33508.41
588.846	33788.86
589.206	33575.3
589.565	33649.65
589.925	33742.3
590.284	33575.76
590.643	33734.62
591.003	33903.88
591.362	33957.21
591.721	33839.48
592.08	33780.72
592.44	33944.11
592.799	33942.07
593.158	33924
593.517	33971.45
593.876	34039.25
594.235	33985.46
594.593	34041.05
594.952	34061.17
595.311	33972.36
595.67	34101.39
596.029	34290.77
596.387	34325.79
596.746	34281.5
597.104	34122.63
597.463	34249.18
597.822	34395.85
598.18	34269.75
598.538	34348.39
598.897	34568.27
599.255	34288.73
599.613	34801.26
599.972	34566.46
600.33	34643.07
600.688	34478.1
601.046	34610.98
601.404	34810.98
601.762	34771.43
602.12	34877.64
602.478	34823.41
602.836	34918.55
603.194	34762.84
603.552	34860.24
603.91	34862.73
604.268	35022.72
604.625	34842.16
604.983	35256.39
605.341	34972.78
605.698	35148.37
606.056	35215.49
606.413	35197.86
606.771	35456.38
607.128	35401.47
607.485	35254.58
607.843	35260.91
608.2	35456.16
608.557	35706.1
608.914	35590.17
609.272	35643.5
609.629	35698.41
609.986	35924.39
610.343	35785.87
610.7	36035.35
611.057	35857.5
611.414	36044.84
611.771	36095.92
612.127	36161.22
612.484	36234.89
612.841	36344.72
613.198	36284.84
613.554	36255.46
613.911	36514.44
614.267	36459.97
614.624	36475.11
614.98	36495.45
615.337	36733.19
615.693	36685.28
616.05	36644.83
616.406	36874.43
616.762	36751.72
617.118	36847.53
617.475	36883.01
617.831	36974.54
618.187	36926.4
618.543	37029.68
618.899	37234.19
619.255	37231.93
619.611	37224.25
619.967	37394.64
620.323	37379.5
620.678	37298.6
621.034	37390.34
621.39	37320.74
621.746	37320.74
622.101	37764.12
622.457	37513.96
622.812	37457.01
623.168	37536.33
623.523	37524.35
623.879	37770.9
624.234	37421.08
624.589	37746.72
624.945	37620.39
625.3	37773.84
625.655	37741.75
626.01	37743.33
626.365	37881.18
626.72	37755.08
627.075	37772.93
627.43	37875.76
627.785	37801.86
628.14	37851.8
628.495	37912.82
628.85	37878.92
629.205	37690.68
629.559	37886.38
629.914	37810.45
630.269	37896.55
630.623	37644.8
630.978	37631.47
631.332	37922.99
631.687	37947.62
632.041	37728.64
632.396	37910.78
632.75	37648.64
633.104	37846.38
633.459	37622.43
633.813	37642.32
634.167	37662.43
634.521	37658.36
634.875	37714.86
635.229	37579.04
635.583	37438.25
635.937	37551.24
636.291	37519.83
636.645	37487.52
636.999	37487.97
637.352	37502.88
637.706	37253.85
638.06	37429.67
638.413	37288.65
638.767	37362.55
639.121	37406.16
639.474	37111.71
639.828	37127.07
640.181	37289.78
640.534	37168.88
640.888	37194.19
641.241	36867.65
641.594	37129.33
641.947	37235.09
642.301	37024.7
642.654	37080.3
643.007	37059.05
643.36	37053.4
643.713	37046.62
644.066	37111.26
644.419	36892.05
644.771	36697.26
645.124	36455.68
645.477	36157.61
645.83	36131.85
646.182	36050.94
646.535	35831.97
646.888	35919.87
647.24	35747.45
647.593	35877.84
647.945	35762.82
648.298	35732.08
648.65	35642.14
649.002	35507.23
649.355	35845.98
649.707	35550.39
650.059	35745.19
650.411	36189.47
650.763	36193.99
651.115	36610.25
651.467	36391.95
651.819	36593.98
652.171	36307.21
652.523	36312.18
652.875	36294.78
653.227	36158.06
653.578	36465.85
653.93	36431.73
654.282	36189.92
654.633	36192.41
654.985	36330.94
655.337	36203.03
655.688	36228.79
656.039	36298.17
656.391	35841.01
656.742	36022.24
657.094	36101.11
657.445	36174.33
657.796	36087.33
658.147	36143.6
658.498	36002.13
658.849	36019.76
659.2	35944.28
659.551	35923.94
659.902	35946.77
660.253	35941.8
660.604	35984.96
660.955	35855.7
661.306	36047.78
661.656	35864.73
662.007	35924.62
662.358	36018.4
662.708	35863.83
663.059	35908.12
663.409	35639.43
663.76	36038.97
664.11	35937.05
664.461	35941.12
664.811	35889.59
665.161	35849.59
665.511	35871.97
665.862	35843.49
666.212	35752.65
666.562	35945.41
666.912	35764.85
667.262	35749.94
667.612	35751.97
667.962	35871.74
668.312	35692.54
668.662	35808.47
669.011	35753.78
669.361	35678.53
669.711	35789.03
670.06	35594.91
670.41	35517.17
670.76	35529.6
671.109	35748.81
671.459	35632.2
671.808	35498.19
672.157	35619.54
672.507	35414.35
672.856	35470.85
673.205	35598.53
673.554	35596.27
673.904	35497.06
674.253	35635.81
674.602	35504.97
674.951	35017.75
675.3	34844.2
675.649	35318.99
675.998	35245.54
676.346	35321.02
676.695	35399.66
677.044	35200.8
677.393	35278.08
677.741	35360.12
678.09	35248.71
678.438	35218.88
678.787	35250.74
679.135	35300.46
679.484	34947.47
679.832	35180.46
680.181	34895.72
680.529	35077.64
680.877	34983.18
681.225	34830.41
681.573	35070.63
681.922	34931.2
682.27	34731.21
682.618	34804.2
682.966	34669.51
683.314	34668.61
683.661	34503.41
684.009	34474.04
684.357	34367.6
684.705	34357.43
685.053	34356.07
685.4	34355.4
685.748	34131.9
686.095	34180.26
686.443	34169.86
686.79	33991.56
687.138	34224.78
687.485	34044.9
687.832	34001.06
688.18	33889.19
688.527	33856.88
688.874	33621.4
689.221	33775.07
689.568	33561.97
689.915	33606.04
690.262	33637.67
690.609	33437.68
690.956	33304.58
691.303	33351.13
691.65	33194.3
691.997	33238.82
692.344	33015.09
692.69	32927.86
693.037	33005.6
693.383	32715.89
693.73	32783.23
694.077	32666.85
694.423	32682.67
694.769	32607.65
695.116	32528.55
695.462	32310.93
695.808	32349.57
696.155	32463.24
696.501	32184.38
696.847	32065.29
697.193	31803.6
697.539	32016.25
697.885	31840.89
698.231	31689.03
698.577	31705.75
698.923	31583.72
699.269	31497.17
699.614	31352.99
699.96	31263.95
700.306	31384.63
700.651	31266.44
700.997	31049.95
701.342	31063.05
701.688	31032.55
702.033	30864.41
702.379	30771.31
702.724	30722.72
703.069	30598.21
703.415	30398.66
703.76	30421.04
704.105	30355.28
704.45	30508.04
704.795	30163.87
705.14	30150.99
705.485	30046.81
705.83	29980.37
706.175	30017.66
706.52	29939.92
706.865	29851.11
707.209	29884.1
707.554	29627.38
707.899	29733.37
708.243	29626.48
708.588	29613.83
708.932	29354.85
709.277	29387.39
709.621	29431.68
709.966	29184.46
710.31	29231.91
710.654	28975.88
710.998	29102.2
711.342	28991.47
711.687	29031.24
712.031	28913.51
712.375	28920.74
712.719	28876.44
713.063	28643.91
713.407	28748.99
713.75	28650.01
714.094	28549
714.438	28530.69
714.782	28631.25
715.125	28455.44
715.469	28502.89
715.812	28311.94
716.156	28178.61
716.499	28056.35
716.843	28179.51
717.186	28014.09
717.53	28095.9
717.873	28147.88
718.216	28027.43
718.559	27773.2
718.902	27697.27
719.246	27736.36
719.589	27702.92
719.932	27544.28
720.275	27584.05
720.617	27574.56
720.96	27364.62
721.303	27490.27
721.646	27508.34
721.989	27317.62
722.331	27500.44
722.674	27371.85
723.016	27277.62
723.359	27193.1
723.701	27185.42
724.044	27078.53
724.386	26935.25
724.729	27171.63
725.071	26999.66
725.413	26917.17
725.755	26991.97
726.097	26851.64
726.439	26681.7
726.782	26752.66
727.124	26837.85
727.465	26610.51
727.807	26493.23
728.149	26616.16
728.491	26493.91
728.833	26519.22
729.175	26445.1
729.516	26365.78
729.858	26387.7
730.199	26446.68
730.541	26234.48
730.882	26237.42
731.224	26324.42
731.565	26188.38
731.906	26174.82
732.248	26145.89
732.589	26017.99
732.93	25945
733.271	25909.52
733.612	25944.32
733.953	25939.12
734.294	25890.99
734.635	25767.6
734.976	25907.26
735.317	25817.99
735.658	25732.35
735.999	25750.65
736.339	25628.39
736.68	25768.96
737.021	25646.92
737.361	25545.91
737.702	25576.42
738.042	25505.91
738.383	25381.62
738.723	25588.62
739.063	25441.51
739.404	25394.73
739.744	25442.86
740.084	25166.26
740.424	25265.01
740.764	25184.79
741.104	25308.63
741.444	25122.42
741.784	25020.73
742.124	25070.44
742.464	24930.56
742.804	25008.3
743.143	24923.55
743.483	24965.81
743.823	24874.97
744.162	24862.99
744.502	24841.52
744.841	24813.5
745.181	24918.58
745.52	24686.72
745.86	24692.83
746.199	24637.91
746.538	24586.16
746.877	24629.32
747.216	24640.85
747.556	24523.56
747.895	24492.83
748.234	24403.79
748.573	24442.66
748.911	24324.47
749.25	24341.87
749.589	24195.89
749.928	24311.37
750.267	24335.32
750.605	24116.34
750.944	24024.59
751.283	24001.54
751.621	24110.47
751.96	23846.97
752.298	23888.55
752.636	23916.57
752.975	23806.07
753.313	23651.72
753.651	23757.03
753.989	23673.19
754.327	23656.02
754.666	23512.74
755.004	23608.11
755.342	23608.33
755.679	23501.9
756.017	23315.46
756.355	23485.63
756.693	23329.92
757.031	23282.47
757.368	23243.6
757.706	23139.87
758.044	23034.79
758.381	23043.15
758.719	22912.53
759.056	23009.93
759.394	22843.16
759.731	22741.92
760.068	22712.54
760.405	22663.05
760.743	22609.94
761.08	22613.11
761.417	22496.5
761.754	22434.35
762.091	22369.72
762.428	22347.8
762.765	22212.44
763.102	22256.51
763.438	21985.55
763.775	21941.26
764.112	21998.66
764.449	22054.48
764.785	21840.47
765.122	21753.69
765.458	21623.75
765.795	21781.72
766.131	21622.85
766.467	21619.23
766.804	21423.31
767.14	21303.08
767.476	21275.74
767.812	21244.33
768.148	21370.65
768.485	21012.24
768.821	21047.72
769.157	21042.75
769.492	20965.92
769.828	20952.13
770.164	20767.73
770.5	20662.2
770.836	20739.03
771.171	20594.18
771.507	20560.96
771.842	20321.87
772.178	20401.64
772.513	20417.91
772.849	20287.29
773.184	20285.48
773.519	20071.48
773.855	20107.41
774.19	20021.08
774.525	19842.78
774.86	19901.31
775.195	19777.93
775.53	19774.99
775.865	19550.59
776.2	19527.99
776.535	19352.85
776.87	19398.5
777.205	19297.26
777.539	19276.92
777.874	19219.75
778.209	19074.44
778.543	18949.02
778.878	18845.07
779.212	18929.14
779.547	18760.1
779.881	18877.38
780.215	18689.82
780.55	18742.47
780.884	18475.59
781.218	18551.29
781.552	18513.33
781.886	18395.82
782.22	18233.11
782.554	18242.15
782.888	18149.49
783.222	18047.35
783.556	17899.11
783.889	17899.11
784.223	17841.93
784.557	17846
784.89	17718.32
785.224	17680.13
785.557	17559.23
785.891	17573.46
786.224	17468.38
786.558	17463.64
786.891	17318.33
787.224	17235.85
787.557	17244.43
787.891	17214.83
788.224	17272.23
788.557	17119.24
788.89	17022.74
789.223	17053.7
789.556	16944.55
789.888	16936.87
790.221	16818.46
790.554	16663.43
790.887	16680.61
791.219	16564.45
791.552	16639.25
791.884	16469.76
792.217	16434.29
792.549	16391.8
792.882	16308.41
793.214	16200.39
793.546	16254.18
793.879	16087.85
794.211	16017.8
794.543	16105.03
794.875	16030.23
795.207	15994.07
795.539	16010.57
795.871	15977.35
796.203	15797.01
796.535	15695.1
796.867	15688.77
797.198	15650.58
797.53	15678.37
797.862	15486.97
798.193	15527.64
798.525	15403.8
798.856	15473.63
799.188	15283.81
799.519	15333.75
799.85	15188.44
800.182	15135.34
800.513	15284.26
800.844	15083.59
801.175	15110.48
801.506	15103.7
801.837	14961.33
802.168	14892.86
802.499	14862.58
802.83	14818.51
803.161	14829.36
803.491	14795.01
803.822	14740.77
804.153	14637.5
804.483	14565.41
804.814	14556.82
805.145	14509.14
805.475	14445.19
805.805	14481.12
806.136	14452.19
806.466	14369.03
806.796	14350.27
807.126	14281.12
807.457	14185.53
807.787	14205.87
808.117	14160.9
808.447	14117.06
808.777	14070.73
809.107	14009.72
809.436	14004.74
809.766	13960.45
810.096	13971.53
810.426	13882.26
810.755	13887.23
811.085	13862.15
811.414	13836.16
811.744	13708.03
812.073	13703.51
812.403	13698.54
812.732	13564.76
813.061	13532.89
813.39	13549.39
813.719	13460.58
814.049	13547.81
814.378	13488.15
814.707	13293.58
815.036	13415.83
815.365	13321.6
815.693	13145.11
816.022	13266.91
816.351	13216.06
816.68	13180.36
817.008	13096.52
817.337	13011.78
817.665	13033.7
817.994	12992.57
818.322	13103.75
818.651	12976.75
818.979	12979.23
819.307	12978.11
819.636	12926.81
819.964	12856.53
820.292	12888.39
820.62	12839.8
820.948	12770.88
821.276	12833.48
821.604	12751.9
821.932	12808.39
822.259	12789.18
822.587	12738.79
822.915	12770.43
823.243	12746.02
823.57	12763.2
823.898	12749.86
824.225	12699.24
824.553	12663.54
824.88	12708.96
825.207	12723.2
825.535	12748.28
825.862	12785.12
826.189	12729.3
826.516	12762.52
826.843	12807.04
827.17	12760.94
827.497	12735.17
827.824	12703.99
828.151	12761.39
828.478	12689.07
828.805	12768.17
829.131	12674.84
829.458	12620.6
829.785	12594.39
830.111	12620.15
830.438	12732.46
830.764	12654.95
831.09	12713.48
831.417	12635.74
831.743	12638.45
832.069	12667.83
832.395	12661.28
832.722	12578.34
833.048	12520.04
833.374	12584.22
833.7	12524.11
834.026	12623.54
834.351	12524.78
834.677	12583.77
835.003	12574.95
835.329	12510.32
835.654	12513.94
835.98	12495.86
836.306	12490.21
836.631	12399.82
836.956	12435.07
837.282	12480.94
837.607	12444.11
837.932	12344.45
838.258	12391.23
838.583	12382.87
838.908	12270.1
839.233	12353.04
839.558	12294.06
839.883	12240.5
840.208	12281.17
840.533	12181.97
840.858	12211.12
841.182	12200.27
841.507	12203.21
841.832	12090.9
842.156	12067.17
842.481	12104.46
842.805	12059.03
843.13	11979.71
843.454	12030.56
843.778	11960.5
844.103	11806.84
844.427	11847.51
844.751	11906.49
845.075	11789.66
845.399	11881.86
845.723	11762.54
846.047	11753.5
846.371	11627.41
846.695	11647.74
847.019	11528.43
847.343	11513.28
847.666	11428.77
847.99	11429.22
848.313	11350.13
848.637	11333.4
848.96	11248.89
849.284	11192.16
849.607	11239.17
849.931	11171.37
850.254	11059.29
850.577	11000.98
850.9	11014.31
851.223	10866.75
851.546	10946.52
851.869	10805.28
852.192	10824.49
852.515	10739.97
852.838	10750.14
853.161	10722.35
853.483	10697.04
853.806	10637.38
854.129	10590.37
854.451	10600.09
854.774	10574.33
855.096	10424.27
855.419	10496.36
855.741	10432.64
856.063	10408.23
856.385	10297.72
856.708	10280.55
857.03	10273.32
857.352	10245.52
857.674	10242.81
857.996	10164.85
858.318	10151.96
858.64	10187.9
858.961	10159.42
859.283	10155.81
859.605	10095.47
859.926	10065.64
860.248	10015.47
860.57	9980.22
860.891	9946.09
861.212	9946.77
861.534	9918.07
861.855	9914.46
862.176	9832.65
862.498	9952.42
862.819	9833.1
863.14	9821.8
863.461	9843.5
863.782	9764.86
864.103	9788.36
864.424	9695.25
864.745	9722.82
865.065	9647.57
865.386	9660.23
865.707	9660
866.027	9711.3
866.348	9692.09
866.668	9608.02
866.989	9644.18
867.309	9493.68
867.63	9531.42
867.95	9543.85
868.27	9505.2
868.59	9529.38
868.91	9528.25
869.23	9470.63
869.55	9497.97
869.87	9479.89
870.19	9389.05
870.51	9451.87
870.83	9443.28
871.15	9373.68
871.469	9419.33
871.789	9354.25
872.109	9378.88
872.428	9312.44
872.748	9373.23
873.067	9301.82
873.386	9300.69
873.706	9279.67
874.025	9235.6
874.344	9196.06
874.663	9244.64
874.982	9196.96
875.301	9189.5
875.62	9139.34
875.939	9180.01
876.258	9189.96
876.577	9101.37
876.896	9083.07
877.214	9124.87
877.533	9119.22
877.852	9061.82
878.17	9111.99
878.489	9083.52
878.807	9002.62
879.125	9069.28
879.444	9008.27
879.762	8937.53
880.08	8985.22
880.398	8902.28
880.716	8982.28
881.034	8913.81
881.352	8930.98
881.67	8879.46
881.988	8930.53
882.306	8828.84
882.624	8834.94
882.941	8792.23
883.259	8798.78
883.577	8786.12
883.894	8727.14
884.212	8715.17
884.529	8705
884.846	8695.28
885.164	8644.43
885.481	8639.69
885.798	8613.02
886.115	8580.25
886.432	8564.44
886.75	8564.66
887.067	8588.62
887.383	8521.05
887.7	8525.79
888.017	8542.52
888.334	8510.65
888.651	8467.26
888.967	8363.09
889.284	8345.46
889.6	8303.65
889.917	8292.13
890.233	8284.22
890.55	8290.32
890.866	8301.17
891.182	8227.5
891.498	8176.2
891.815	8193.37
892.131	8178.46
892.447	8143.2
892.763	8139.36
893.079	8091.91
893.395	8022.98
893.71	8013.26
894.026	8011.68
894.342	7965.81
894.657	7987.05
894.973	7973.49
895.289	7886.71
895.604	7921.29
895.92	7916.09
896.235	7882.87
896.55	7792.7
896.865	7848.3
897.181	7774.85
897.496	7722.88
897.811	7682.43
898.126	7708.87
898.441	7695.31
898.756	7631.13
899.071	7583.67
899.386	7611.92
899.7	7511.81
900.015	7529.89
900.33	7471.81
900.644	7524.24
900.959	7472.49
901.273	7423.67
901.588	7381.87
901.902	7379.83
902.216	7309.55
902.531	7343.22
902.845	7321.76
903.159	7245.15
903.473	7266.39
903.787	7174.87
904.101	7179.84
904.415	7150.24
904.729	7131.03
905.042	7050.58
905.356	7105.27
905.67	7058.49
905.984	7017.58
906.297	7013.74
906.611	6911.37
906.924	6967.87
907.237	6951.14
907.551	6885.84
907.864	6863.92
908.177	6826.63
908.491	6817.36
908.804	6780.75
909.117	6794.54
909.43	6753.41
909.743	6725.84
910.056	6623.24
910.368	6645.62
910.681	6607.65
910.994	6642.68
911.307	6576.47
911.619	6484.26
911.932	6510.03
912.244	6507.54
912.557	6554.55
912.869	6470.71
913.181	6432.97
913.494	6429.35
913.806	6362.23
914.118	6371.5
914.43	6354.32
914.742	6335.12
915.054	6262.12
915.366	6247.66
915.678	6223.48
915.99	6219.86
916.302	6130.15
916.613	6087.66
916.925	6148.91
917.236	6103.48
917.548	6084.95
917.859	6094.22
918.171	5998.4
918.482	5968.12
918.794	6000.44
919.105	5995.01
919.416	5871.17
919.727	5936.93
920.038	5906.2
920.349	5822.59
920.66	5825.75
920.971	5777.84
921.282	5787.33
921.593	5760.67
921.903	5722.7
922.214	5677.51
922.525	5658.98
922.835	5641.12
923.146	5640.9
923.456	5612.2
923.767	5578.07
924.077	5594.34
924.387	5517.96
924.697	5511.63
925.008	5468.47
925.318	5462.6
925.628	5515.93
925.938	5468.47
926.248	5360.45
926.558	5392.99
926.867	5362.71
927.177	5397.06
927.487	5278.42
927.796	5280.23
928.106	5258.53
928.416	5225.54
928.725	5230.06
929.034	5259.89
929.344	5175.37
929.653	5159.78
929.962	5151.87
930.271	5141.7
930.581	5073
930.89	5047.47
931.199	5054.02
931.508	5056.05
931.817	5017.86
932.125	5000.24
932.434	5018.31
932.743	4931.31
933.051	4867.13
933.36	4888.83
933.669	4870.75
933.977	4818.77
934.286	4837.53
934.594	4825.33
934.902	4765.67
935.21	4737.42
935.519	4799.79
935.827	4723.86
936.135	4713.92
936.443	4626.91
936.751	4608.61
937.059	4669.85
937.367	4635.27
937.674	4607.25
937.982	4621.26
938.29	4538.78
938.597	4590.3
938.905	4543.98
939.213	4515.28
939.52	4476.86
939.827	4466.92
940.135	4432.12
940.442	4435.05
940.749	4428.27
941.056	4436.63
941.363	4424.43
941.67	4405.9
941.977	4353.02
942.284	4347.6
942.591	4333.13
942.898	4350.08
943.205	4285.68
943.511	4241.16
943.818	4253.59
944.125	4258.11
944.431	4201.39
944.738	4180.37
945.044	4148.73
945.35	4114.38
945.657	4100.15
945.963	4134.5
946.269	4089.3
946.575	4084.1
946.881	4040.94
947.187	4069.64
947.493	4039.36
947.799	4023.76
948.105	4021.73
948.41	3960.72
948.716	3960.04
949.022	3981.73
949.327	3891.79
949.633	3928.63
949.938	3919.81
950.244	3906.48
950.549	3859.93
950.854	3810.89
951.16	3823.09
951.465	3818.12
951.77	3791
952.075	3732.02
952.38	3728.4
952.685	3732.02
952.99	3702.19
953.294	3707.61
953.599	3734.96
953.904	3633.04
954.209	3667.62
954.513	3642.31
954.818	3626.49
955.122	3635.07
955.426	3616.09
955.731	3585.58
956.035	3581.97
956.339	3554.4
956.643	3522.53
956.948	3521.86
957.252	3517.11
957.556	3519.82
957.86	3474.85
958.163	3486.6
958.467	3444.34
958.771	3490.22
959.075	3422.88
959.378	3404.35
959.682	3413.16
959.985	3373.84
960.289	3370
960.592	3330.9
960.896	3359.15
961.199	3335.87
961.502	3299.49
961.805	3291.58
962.108	3231.92
962.411	3244.8
962.714	3235.31
963.017	3241.19
963.32	3255.2
963.623	3196.22
963.926	3233.95
964.228	3140.17
964.531	3162.77
964.833	3167.52
965.136	3120.29
965.438	3121.19
965.741	3115.77
966.043	3148.08
966.345	3118.7
966.648	3114.64
966.95	3038.48
967.252	3037.12
967.554	3045.94
967.856	3005.26
968.158	3005.71
968.46	2989.89
968.761	2963.91
969.063	2985.6
969.365	2952.38
969.666	2984.92
969.968	2913.74
970.269	2918.93
970.571	2903.34
970.872	2892.72
971.174	2890.23
971.475	2883
971.776	2852.72
972.077	2820.18
972.378	2804.59
972.679	2826.28
972.98	2825.83
973.281	2805.94
973.582	2828.09
973.883	2798.26
974.183	2752.39
974.484	2722.33
974.785	2704.7
975.085	2743.35
975.386	2744.02
975.686	2697.47
975.986	2665.16
976.287	2683.91
976.587	2672.84
976.887	2636.68
977.187	2626.96
977.487	2626.06
977.787	2620.64
978.087	2586.51
978.387	2573.63
978.687	2617.25
978.987	2568.66
979.286	2533.41
979.586	2576.8
979.885	2544.48
980.185	2519.62
980.484	2539.51
980.784	2534.31
981.083	2517.36
981.382	2500.19
981.682	2459.06
981.981	2463.13
982.28	2459.96
982.579	2447.31
982.878	2439.63
983.177	2399.17
983.475	2421.09
983.774	2387.65
984.073	2382.9
984.372	2392.39
984.67	2374.77
984.969	2365.95
985.267	2363.47
985.566	2353.98
985.864	2326.63
986.162	2317.37
986.461	2314.66
986.759	2314.66
987.057	2269.01
987.355	2249.57
987.653	2268.78
987.951	2291.38
988.249	2250.03
988.547	2266.52
988.844	2231.27
989.142	2215.45
989.44	2220.87
989.737	2210.25
990.035	2180.2
990.332	2191.95
990.63	2166.19
990.927	2182.68
991.224	2146.98
991.521	2133.42
991.819	2116.02
992.116	2101.1
992.413	2113.76
992.71	2102.01
993.006	2073.08
993.303	2085.96
993.6	2067.21
993.897	2080.31
994.193	2057.94
994.49	2077.37
994.787	2074.89
995.083	2039.64
995.379	2009.35
995.676	2033.08
995.972	2000.77
996.268	1985.63
996.565	1971.39
996.861	1995.34
997.157	1956.7
997.453	1970.71
997.749	1953.08
998.044	1925.97
998.34	1955.34
998.636	1927.77
998.932	1890.71
999.227	1883.26
999.523	1905.85
999.818	1898.4
1000.114	1847.1
1000.409	1875.12
1000.704	1858.4
1001	1842.35
1001.295	1806.87
1001.59	1833.31
1001.885	1817.04
1002.18	1789.47
1002.475	1825.86
1002.77	1789.92
1003.065	1801.68
1003.359	1762.58
1003.654	1742.24
1003.949	1731.62
1004.243	1723.94
1004.538	1696.14
1004.832	1722.81
1005.127	1719.19
1005.421	1716.48
1005.715	1688.68
1006.009	1680.55
1006.304	1674
1006.598	1679.42
1006.892	1659.98
1007.186	1667.89
1007.48	1621.79
1007.773	1601.23
1008.067	1613.66
1008.361	1594.45
1008.655	1598.29
1008.948	1594.22
1009.242	1569.14
1009.535	1586.31
1009.829	1548.8
1010.122	1558.97
1010.415	1578.18
1010.708	1578.86
1011.001	1515.81
1011.295	1529.59
1011.588	1518.75
1011.881	1506.77
1012.173	1514.68
1012.466	1494.34
1012.759	1458.41
1013.052	1469.48
1013.344	1456.37
1013.637	1462.7
1013.93	1434.23
1014.222	1454.79
1014.514	1425.87
1014.807	1412.08
1015.099	1405.75
1015.391	1414.12
1015.683	1405.98
1015.976	1425.19
1016.268	1386.77
1016.56	1380.44
1016.851	1371.63
1017.143	1359.65
1017.435	1368.69
1017.727	1343.83
1018.018	1326.43
1018.31	1344.96
1018.602	1340.44
1018.893	1309.71
1019.185	1310.62
1019.476	1291.63
1019.767	1305.19
1020.058	1291.86
1020.35	1277.62
1020.641	1276.04
1020.932	1242.14
1021.223	1247.79
1021.514	1245.31
1021.804	1225.19
1022.095	1224.52
1022.386	1200.79
1022.677	1210.5
1022.967	1216.38
1023.258	1216.83
1023.548	1175.03
1023.839	1179.09
1024.129	1194.69
1024.419	1163.5
1024.709	1169.83
1025	1143.61
1025.29	1128.93
1025.58	1114.01
1025.87	1128.02
1026.16	1121.24
1026.449	1126.89
1026.739	1121.69
1027.029	1095.25
1027.319	1101.36
1027.608	1089.15
1027.898	1094.12
1028.187	1058.19
1028.477	1069.04
1028.766	1072.2
1029.055	1050.06
1029.344	1037.63
1029.634	1064.07
1029.923	1017.06
1030.212	1038.76
1030.501	1019.55
1030.79	989.95
1031.078	998.99
1031.367	1022.26
1031.656	990.85
1031.945	996.73
1032.233	984.52
1032.522	952.21
1032.81	979.55
1033.099	993.79
1033.387	946.11
1033.675	950.62
1033.963	957.18
1034.251	935.26
1034.54	931.64
1034.828	925.31
1035.116	923.96
1035.403	903.85
1035.691	926.22
1035.979	937.74
1036.267	918.31
1036.554	905.88
1036.842	876.05
1037.129	893.9
1037.417	869.04
1037.704	855.49
1037.992	871.3
1038.279	878.99
1038.566	874.69
1038.853	874.69
1039.14	874.69
