Data from hue_180_FLMS001491_00010.txt Node
Date: Tue Feb 07 16:46:30 GMT 2017
User: dcchb
Spectrometer: FLMS00149
Trigger mode: 0
Integration Time (sec): 2.000000E-2
Scans to average: 10
Electric dark correction enabled: true
Nonlinearity correction enabled: false
Boxcar width: 0
XAxis mode: Wavelengths
Number of Pixels in Spectrum: 2048
>>>>>Begin Spectral Data<<<<<
341.393	-25.39
341.776	-25.39
342.16	-25.39
342.543	-51.16
342.927	-62
343.31	-54.77
343.693	-80.53
344.077	-78.5
344.46	-68.56
344.843	-43.02
345.226	-27.65
345.61	-20.42
345.993	-27.65
346.376	-22.68
346.759	10.54
347.142	32.91
347.525	47.37
347.908	69.29
348.291	68.84
348.674	74.72
349.057	120.14
349.44	113.58
349.823	130.31
350.206	156.75
350.588	164.2
350.971	222.06
351.354	223.64
351.737	216.41
352.119	251.43
352.502	250.76
352.884	280.59
353.267	285.78
353.65	260.25
354.032	302.73
354.414	314.26
354.797	329.17
355.179	304.09
355.562	321.94
355.944	329.62
356.326	312
356.709	329.4
357.091	335.73
357.473	352.9
357.855	339.12
358.238	351.32
358.62	348.15
359.002	352.67
359.384	332.79
359.766	349.96
360.148	348.83
360.53	358.55
360.912	335.05
361.294	338.66
361.676	344.54
362.057	339.12
362.439	316.07
362.821	329.17
363.203	314.03
363.584	334.6
363.966	316.97
364.348	316.52
364.729	325.78
365.111	328.04
365.493	309.96
365.874	331.66
366.256	315.39
366.637	313.13
367.019	320.36
367.4	314.71
367.781	316.52
368.163	307.48
368.544	310.42
368.925	322.84
369.306	336.4
369.688	324.88
370.069	319.23
370.45	319.23
370.831	307.03
371.212	316.97
371.593	302.73
371.974	315.16
372.355	293.92
372.736	311.32
373.117	320.81
373.498	329.85
373.879	296.4
374.26	307.93
374.641	320.13
375.021	330.98
375.402	310.19
375.783	333.47
376.163	339.34
376.544	338.89
376.925	342.51
377.305	329.62
377.686	317.42
378.066	316.07
378.447	310.19
378.827	330.53
379.208	337.08
379.588	312
379.968	353.35
380.349	351.77
380.729	343.64
381.109	330.08
381.489	336.63
381.87	323.97
382.25	334.14
382.63	353.35
383.01	341.15
383.39	351.54
383.77	334.14
384.15	332.11
384.53	341.6
384.91	354.26
385.29	359
385.67	353.35
386.049	367.36
386.429	357.87
386.809	343.18
387.189	345.44
387.568	336.18
387.948	360.36
388.328	363.3
388.707	339.79
389.087	369.85
389.466	367.36
389.846	358.32
390.225	373.24
390.605	379.79
390.984	358.1
391.363	377.08
391.743	364.65
392.122	366.91
392.501	390.64
392.881	404.2
393.26	379.57
393.639	373.69
394.018	379.34
394.397	395.16
394.776	384.54
395.155	381.37
395.534	381.83
395.913	398.77
396.292	389.74
396.671	404.88
397.05	404.2
397.429	407.81
397.808	394.71
398.186	433.12
398.565	408.04
398.944	417.53
399.323	387.25
399.701	428.38
400.08	405.78
400.458	433.8
400.837	410.98
401.215	422.5
401.594	408.27
401.972	427.47
402.351	429.96
402.729	435.16
403.107	448.49
403.486	424.76
403.864	437.42
404.242	450.07
404.62	467.7
404.999	434.48
405.377	455.72
405.755	465.67
406.133	468.15
406.511	455.27
406.889	477.19
407.267	489.39
407.645	478.09
408.023	494.14
408.401	482.39
408.779	482.39
409.156	496.63
409.534	502.27
409.912	511.99
410.29	524.2
410.667	536.85
411.045	540.01
411.422	566.68
411.8	563.97
412.178	539.79
412.555	572.56
412.933	556.06
413.31	551.77
413.687	586.11
414.065	600.13
414.442	606
414.819	617.53
415.197	606
415.574	625.66
415.951	624.53
416.328	667.02
416.705	672.44
417.082	668.82
417.46	664.76
417.837	686.68
418.214	686
418.591	698.43
418.967	723.96
419.344	707.92
419.721	728.71
420.098	730.52
420.475	740.23
420.852	740.46
421.228	741.14
421.605	760.12
421.982	790.18
422.358	802.15
422.735	806.9
423.111	811.65
423.488	845.77
423.864	847.35
424.241	850.06
424.617	847.12
424.994	875.37
425.37	891.87
425.746	893.68
426.123	911.53
426.499	905.43
426.875	930.06
427.251	969.38
427.627	987.46
428.003	980.45
428.379	971.19
428.756	1005.09
429.132	1029.72
429.507	1030.4
429.883	1019.78
430.259	1051.86
430.635	1037.4
431.011	1038.08
431.387	1066.1
431.763	1102.71
432.138	1109.04
432.514	1152.2
432.89	1141.81
433.265	1169.83
433.641	1184.52
434.016	1191.97
434.392	1214.12
434.767	1257.96
435.143	1258.19
435.518	1277.85
435.894	1322.82
436.269	1324.63
436.644	1352.87
437.02	1366.88
437.395	1374.12
437.77	1389.03
438.145	1417.73
438.52	1425.64
438.895	1448.01
439.271	1452.53
439.646	1493.66
440.021	1532.08
440.395	1525.98
440.77	1546.09
441.145	1539.76
441.52	1577.27
441.895	1590.83
442.27	1620.89
442.645	1614.56
443.019	1641.91
443.394	1649.14
443.769	1689.59
444.143	1676.71
444.518	1720.77
444.892	1697.72
445.267	1721.9
445.641	1785.18
446.016	1788.12
446.39	1798.29
446.764	1793.09
447.139	1804.61
447.513	1823.82
447.887	1854.78
448.262	1811.62
448.636	1872.41
449.01	1872.18
449.384	1919.64
449.758	1896.81
450.132	1941.33
450.506	1928.45
450.88	1988.56
451.254	1978.85
451.628	2010.71
452.002	2041.22
452.376	2062.01
452.75	2048.67
453.123	2066.53
453.497	2118.5
453.871	2164.83
454.244	2201.67
454.618	2174.55
454.992	2219.97
455.365	2186.98
455.739	2267.43
456.112	2304.94
456.486	2332.51
456.859	2334.32
457.232	2384.49
457.606	2373.86
457.979	2421.32
458.352	2468.78
458.725	2487.53
459.099	2482.34
459.472	2559.17
459.845	2604.82
460.218	2627.19
460.591	2640.98
460.964	2636.46
461.337	2715.55
461.71	2777.92
462.083	2790.12
462.456	2823.12
462.829	2833.06
463.201	2872.38
463.574	2885.72
463.947	2917.8
464.32	3017.91
464.692	3038.25
465.065	3051.81
465.438	3087.52
465.81	3152.37
466.183	3188.53
466.555	3242.32
466.928	3288.42
467.3	3335.19
467.672	3361.86
468.045	3453.84
468.417	3466.49
468.789	3536.77
469.161	3561.18
469.534	3650.89
469.906	3701.29
470.278	3709.42
470.65	3734.73
471.022	3824.67
471.394	3939.47
471.766	3951.9
472.138	4070.32
472.51	4099.47
472.882	4189.64
473.253	4246.13
473.625	4306.47
473.997	4458.56
474.369	4477.54
474.74	4500.59
475.112	4582.62
475.484	4737.87
475.855	4801.14
476.227	4873.69
476.598	4948.49
476.97	4992.55
477.341	5133.79
477.713	5240.23
478.084	5283.62
478.455	5450.85
478.827	5527.91
479.198	5697.62
479.569	5665.98
479.94	5843.38
480.311	5937.39
480.682	6075.91
481.053	6225.51
481.424	6304.16
481.795	6421.22
482.166	6527.88
482.537	6644.49
482.908	6842.22
483.279	6853.07
483.65	7030.46
484.021	7148.88
484.391	7204.02
484.762	7307.97
485.133	7450.57
485.503	7545.93
485.874	7697.79
486.244	7904.11
486.615	8025.01
486.985	8093.26
487.356	8243.09
487.726	8371.9
488.097	8516.08
488.467	8587.26
488.837	8761.04
489.207	8883.3
489.578	8977.31
489.948	9151.54
490.318	9255.94
490.688	9254.59
491.058	9432.44
491.428	9625.42
491.798	9772.09
492.168	9907.9
492.538	9911.07
492.908	10085.3
493.278	10212.53
493.648	10248.23
494.017	10340.89
494.387	10498.17
494.757	10634.44
495.126	10639.41
495.496	10709.46
495.866	10794.21
496.235	10891.83
496.605	10976.8
496.974	11050.25
497.344	11251.6
497.713	11226.06
498.082	11269.45
498.452	11390.8
498.821	11396.23
499.19	11459.5
499.559	11628.54
499.928	11630.57
500.298	11739.95
500.667	11814.07
501.036	11766.16
501.405	11850.68
501.774	11893.16
502.143	12064.23
502.512	12025.14
502.88	12125.7
503.249	12115.75
503.618	12133.38
503.987	12212.02
504.356	12292.02
504.724	12333.15
505.093	12357.1
505.462	12427.39
505.83	12395.97
506.199	12555.29
506.567	12716.64
506.936	12618.34
507.304	12737.66
507.672	12758.22
508.041	12746.7
508.409	12781.95
508.777	12900.82
509.145	13000.48
509.514	12949.41
509.882	13017.2
510.25	13052.68
510.618	12983.75
510.986	13049.06
511.354	13153.24
511.722	13211.77
512.09	13268.04
512.458	13253.58
512.826	13320.02
513.193	13320.92
513.561	13350.98
513.929	13388.72
514.297	13459.9
514.664	13434.82
515.032	13452.89
515.4	13487.02
515.767	13488.6
516.135	13480.92
516.502	13414.48
516.869	13562.95
517.237	13527.7
517.604	13550.29
517.972	13631.2
518.339	13653.34
518.706	13563.17
519.073	13635.26
519.44	13688.59
519.808	13696.73
520.175	13651.08
520.542	13781.93
520.909	13786.67
521.276	13745.77
521.643	13841.81
522.009	13791.42
522.376	13869.38
522.743	13869.38
523.11	13932.43
523.477	13936.5
523.843	13952.77
524.21	14007.46
524.577	14030.28
524.943	13937.63
525.31	13994.12
525.676	14064.63
526.043	14026.89
526.409	14025.99
526.776	14136.04
527.142	14047.68
527.508	14085.65
527.874	14123.39
528.241	14058.98
528.607	14074.57
528.973	14152.99
529.339	14122.03
529.705	14109.83
530.071	14126.55
530.437	14018.98
530.803	14127.23
531.169	13995.25
531.535	13917.29
531.901	13934.92
532.267	13912.54
532.632	13958.42
532.998	13901.47
533.364	13846.78
533.73	13747.58
534.095	13905.09
534.461	13771.3
534.826	13752.55
535.192	13801.36
535.557	13811.76
535.923	13738.99
536.288	13739.44
536.653	13685.88
537.019	13521.82
537.384	13516.85
537.749	13565.89
538.114	13421.94
538.479	13380.58
538.845	13403.86
539.21	13289.51
539.575	13243.63
539.94	13211.32
540.305	13215.61
540.67	13116.18
541.034	13055.17
541.399	13079.8
541.764	12986.24
542.129	12911.44
542.494	12783.08
542.858	12852.68
543.223	12904.89
543.587	12788.73
543.952	12718.9
544.316	12615.4
544.681	12573.6
545.045	12555.97
545.41	12508.96
545.774	12530.21
546.138	12366.37
546.503	12409.98
546.867	12235.53
547.231	12268.75
547.595	12177.45
547.959	12237.56
548.324	12077.34
548.688	12008.41
549.052	12066.94
549.416	11915.53
549.779	11913.73
550.143	11852.03
550.507	11816.1
550.871	11766.39
551.235	11631.25
551.599	11766.39
551.962	11711.02
552.326	11620.4
552.689	11556.45
553.053	11491.59
553.417	11450.01
553.78	11569.55
554.143	11391.25
554.507	11389.67
554.87	11411.37
555.234	11457.92
555.597	11276.91
555.96	11311.26
556.323	11228.09
556.686	11236.46
557.05	11217.25
557.413	11119.4
557.776	11168.89
558.139	11036.01
558.502	11090.47
558.865	11047.53
559.228	11122.79
559.59	10977.93
559.953	11022
560.316	11026.74
560.679	10965.5
561.041	10969.57
561.404	11012.73
561.767	11061.55
562.129	10931.83
562.492	11053.64
562.854	10932.28
563.217	10923.47
563.579	10897.26
563.941	10843.47
564.304	10950.14
564.666	10973.19
565.028	10954.88
565.39	10866.52
565.753	10950.14
566.115	10911.49
566.477	10937.71
566.839	10925.28
567.201	10875.79
567.563	10960.31
567.925	10932.06
568.287	10999.4
568.648	10979.06
569.01	10904.26
569.372	10882.57
569.734	10879.18
570.095	10927.54
570.457	10953.75
570.819	10954.88
571.18	10942.45
571.542	10966.18
571.903	10940.19
572.265	10939.51
572.626	10906.52
572.987	10913.98
573.349	10958.95
573.71	10897.48
574.071	10952.17
574.432	10990.81
574.794	11064.71
575.155	10914.66
575.516	10919.18
575.877	11002.34
576.238	10995.33
576.599	11026.52
576.96	11049.57
577.32	10930.25
577.681	11024.48
578.042	10956.01
578.403	10943.36
578.763	10944.71
579.124	10898.84
579.485	10930.7
579.845	10948.33
580.206	10890.48
580.566	10906.52
580.927	10870.36
581.287	10934.09
581.648	10893.41
582.008	10855.68
582.368	10861.1
582.728	10878.5
583.089	10876.24
583.449	10840.31
583.809	10894.32
584.169	10862
584.529	10842.57
584.889	10882.34
585.249	10852.29
585.609	10757.6
585.969	10756.92
586.329	10766.86
586.688	10702.01
587.048	10706.07
587.408	10756.02
587.768	10658.39
588.127	10743.14
588.487	10731.84
588.846	10725.96
589.206	10638.28
589.565	10640.77
589.925	10772.51
590.284	10634.21
590.643	10690.03
591.003	10704.27
591.362	10708.56
591.721	10657.94
592.08	10672.18
592.44	10659.75
592.799	10605.74
593.158	10654.1
593.517	10512.86
593.876	10669.47
594.235	10546.76
594.593	10550.37
594.952	10567.32
595.311	10458.62
595.67	10581.33
596.029	10626.3
596.387	10538.85
596.746	10523.48
597.104	10543.14
597.463	10478.28
597.822	10574.33
598.18	10483.03
598.538	10474.89
598.897	10527.77
599.255	10476.93
599.613	10587.43
599.972	10432.86
600.33	10492.52
600.688	10474.22
601.046	10506.98
601.404	10470.37
601.762	10436.93
602.12	10499.98
602.478	10571.16
602.836	10508.34
603.194	10449.58
603.552	10490.94
603.91	10406.42
604.268	10417.72
604.625	10403.03
604.983	10451.39
605.341	10378.17
605.698	10458.85
606.056	10456.82
606.413	10436.25
606.771	10474.89
607.128	10471.5
607.485	10427.44
607.843	10500.2
608.2	10415.46
608.557	10560.09
608.914	10434.67
609.272	10500.66
609.629	10418.62
609.986	10548.34
610.343	10470.83
610.7	10514.67
611.057	10490.94
611.414	10504.5
611.771	10565.06
612.127	10525.29
612.484	10566.87
612.841	10527.1
613.198	10549.69
613.554	10599.86
613.911	10614.55
614.267	10545.63
614.624	10644.16
614.98	10603.93
615.337	10610.71
615.693	10622.23
616.05	10621.33
616.406	10635.12
616.762	10563.48
617.118	10561.9
617.475	10608.22
617.831	10626.98
618.187	10612.74
618.543	10610.26
618.899	10625.85
619.255	10721.44
619.611	10719.18
619.967	10657.49
620.323	10738.84
620.678	10680.09
621.034	10675.11
621.39	10595.57
621.746	10615.23
622.101	10702.68
622.457	10699.07
622.812	10661.78
623.168	10644.83
623.523	10701.1
623.879	10701.55
624.234	10668.34
624.589	10708.11
624.945	10657.26
625.3	10653.65
625.655	10641.44
626.01	10688.9
626.365	10695.68
626.72	10645.51
627.075	10608.45
627.43	10592.41
627.785	10626.75
628.14	10669.01
628.495	10664.04
628.85	10632.63
629.205	10555.34
629.559	10623.82
629.914	10550.37
630.269	10614.1
630.623	10525.51
630.978	10509.24
631.332	10601.67
631.687	10568
632.041	10501.56
632.396	10430.83
632.75	10483.03
633.104	10567.77
633.459	10448
633.813	10459.08
634.167	10491.62
634.521	10470.83
634.875	10487.1
635.229	10386.08
635.583	10391.96
635.937	10377.27
636.291	10372.52
636.645	10361.45
636.999	10345.86
637.352	10436.03
637.706	10261.57
638.06	10288.68
638.413	10275.35
638.767	10272.41
639.121	10287.55
639.474	10263.83
639.828	10235.35
640.181	10250.27
640.534	10298.63
640.888	10289.36
641.241	10211.85
641.594	10170.72
641.947	10223.83
642.301	10221.12
642.654	10271.06
643.007	10189.48
643.36	10211.17
643.713	10193.32
644.066	10234.9
644.419	10177.73
644.771	10083.72
645.124	9977.05
645.477	9990.84
645.83	9897.06
646.182	9911.07
646.535	9846.21
646.888	9892.99
647.24	9851.41
647.593	9829.49
647.945	9803.95
648.298	9862.48
648.65	9856.38
649.002	9792.43
649.355	9839.43
649.707	9801.47
650.059	9825.19
650.411	10008.01
650.763	9995.36
651.115	10087.56
651.467	10104.28
651.819	10098.63
652.171	10046.43
652.523	10021.8
652.875	10071.06
653.227	10011.86
653.578	10093.89
653.93	10062.7
654.282	10024.74
654.633	9985.87
654.985	10027.9
655.337	10088.46
655.688	10064.51
656.039	10090.5
656.391	10015.47
656.742	9977.51
657.094	10014.34
657.445	10067.9
657.796	10084.62
658.147	10031.52
658.498	10070.84
658.849	10090.95
659.2	10162.59
659.551	10081.46
659.902	10081.23
660.253	10089.59
660.604	10118.29
660.955	10062.48
661.306	10110.84
661.656	10085.98
662.007	10122.13
662.358	10114.68
662.708	10102.47
663.059	10125.52
663.409	10071.74
663.76	10151.96
664.11	10157.39
664.461	10135.24
664.811	10162.36
665.161	10242.58
665.511	10137.73
665.862	10129.14
666.212	10147.9
666.562	10181.12
666.912	10182.47
667.262	10139.31
667.612	10201.68
667.962	10137.05
668.312	10183.6
668.662	10179.53
669.011	10162.59
669.361	10190.83
669.711	10117.39
670.06	10141.12
670.41	10086.88
670.76	10083.27
671.109	10139.08
671.459	10155.13
671.808	10077.84
672.157	10172.3
672.507	10057.73
672.856	10135.69
673.205	10082.36
673.554	10097.73
673.904	10128.46
674.253	10108.8
674.602	10094.34
674.951	9976.83
675.3	9907.9
675.649	10052.98
675.998	9943.83
676.346	10152.19
676.695	10088.24
677.044	9947.9
677.393	9979.77
677.741	9993.78
678.09	9927.56
678.438	9979.77
678.787	9922.37
679.135	9899.54
679.484	9837.17
679.832	9840.11
680.181	9820.22
680.529	9880.11
680.877	9864.74
681.225	9828.36
681.573	9838.53
681.922	9798.98
682.27	9763.73
682.618	9711.75
682.966	9693.67
683.314	9711.75
683.661	9668.14
684.009	9573.45
684.357	9649.15
684.705	9624.75
685.053	9589.72
685.4	9588.59
685.748	9514.92
686.095	9537.52
686.443	9449.84
686.79	9493.68
687.138	9549.49
687.485	9526.67
687.832	9448.25
688.18	9479.21
688.527	9414.36
688.874	9383.85
689.221	9378.43
689.568	9295.49
689.915	9331.87
690.262	9311.76
690.609	9247.81
690.956	9182.72
691.303	9140.92
691.65	9134.82
691.997	9090.3
692.344	9099.11
692.69	9002.84
693.037	9080.58
693.383	8993.35
693.73	8965.56
694.077	8933.24
694.423	8930.08
694.769	8884.2
695.116	8805.79
695.462	8803.3
695.808	8737.31
696.155	8751.78
696.501	8634.72
696.847	8719.91
697.193	8612.8
697.539	8610.99
697.885	8636.52
698.231	8437.66
698.577	8539.13
698.923	8513.36
699.269	8469.98
699.614	8453.93
699.96	8447.6
700.306	8395.4
700.651	8381.62
700.997	8325.8
701.342	8334.16
701.688	8255.29
702.033	8168.06
702.379	8189.3
702.724	8247.16
703.069	8203.54
703.415	8089.42
703.76	8081.96
704.105	8067.73
704.45	8079.7
704.795	8034.96
705.14	8016.43
705.485	7918.35
705.83	7957.67
706.175	7907.73
706.52	7876.32
706.865	7955.86
707.209	7836.55
707.554	7818.47
707.899	7792.03
708.243	7721.97
708.588	7748.86
708.932	7724.46
709.277	7728.07
709.621	7692.59
709.966	7633.16
710.31	7606.27
710.654	7567.17
710.998	7571.47
711.342	7627.29
711.687	7558.59
712.031	7497.57
712.375	7465.71
712.719	7521.53
713.063	7474.75
713.407	7489.21
713.75	7488.98
714.094	7414.64
714.438	7363.56
714.782	7400.85
715.125	7374.41
715.469	7375.99
715.812	7425.26
716.156	7306.16
716.499	7347.52
716.843	7346.61
717.186	7273.4
717.53	7305.26
717.873	7271.59
718.216	7319.5
718.559	7253.96
718.902	7259.84
719.246	7194.08
719.589	7202.44
719.932	7206.96
720.275	7226.17
720.617	7251.7
720.96	7209.44
721.303	7213.51
721.646	7220.29
721.989	7152.95
722.331	7206.73
722.674	7149.78
723.016	7171.7
723.359	7141.2
723.701	7186.39
724.044	7118.6
724.386	7112.72
724.729	7166.28
725.071	7176.22
725.413	7110.91
725.755	7080.63
726.097	7107.52
726.439	7087.41
726.782	7076.34
727.124	7119.95
727.465	7090.12
727.807	7089.22
728.149	7092.84
728.491	7005.83
728.833	7059.84
729.175	7000.86
729.516	7055.32
729.858	7088.77
730.199	7086.06
730.541	7062.33
730.882	6999.28
731.224	7079.73
731.565	7093.51
731.906	7047.19
732.248	7074.98
732.589	7022.56
732.93	7018.26
733.271	6993.63
733.612	7061.2
733.953	7033.63
734.294	7043.8
734.635	7074.08
734.976	7021.43
735.317	7027.98
735.658	7101.42
735.999	7027.08
736.339	7068.88
736.68	7103.01
737.021	7099.84
737.361	7094.64
737.702	7114.3
738.042	7105.27
738.383	7096.45
738.723	7178.71
739.063	7119.5
739.404	7141.65
739.744	7145.04
740.084	7186.84
740.424	7197.69
740.764	7138.03
741.104	7232.72
741.444	7264.58
741.784	7240.18
742.124	7212.83
742.464	7223.91
742.804	7297.58
743.143	7308.65
743.483	7321.3
743.823	7296.9
744.162	7342.1
744.502	7427.74
744.841	7354.52
745.181	7501.86
745.52	7519.94
745.86	7538.02
746.199	7535.54
746.538	7638.58
746.877	7674.06
747.216	7697.34
747.556	7782.08
747.895	7814.63
748.234	7860.95
748.573	7948.63
748.911	7916.77
749.25	8067.27
749.589	8149.08
749.928	8197.44
750.267	8251.22
750.605	8271.11
750.944	8393.37
751.283	8427.72
751.621	8583.42
751.96	8627.94
752.298	8808.27
752.636	8951.09
752.975	9014.14
753.313	9030.41
753.651	9229.5
753.989	9271.08
754.327	9372.55
754.666	9542.49
755.004	9664.75
755.342	9888.24
755.679	9970.05
756.017	10103.15
756.355	10304.96
756.693	10368.46
757.031	10589.02
757.368	10742.01
757.706	10809.35
758.044	11036.69
758.381	11237.59
758.719	11412.04
759.056	11621.98
759.394	11790.57
759.731	11895.87
760.068	12188.52
760.405	12245.92
760.743	12435.75
761.08	12660.6
761.417	12880.48
761.754	13054.26
762.091	13215.39
762.428	13458.77
762.765	13575.38
763.102	13851.53
763.438	13970.4
763.775	14091.07
764.112	14390.95
764.449	14636.14
764.785	14775.8
765.122	14954.55
765.458	15068.9
765.795	15203.13
766.131	15505.04
766.467	15614.19
766.804	15761.76
767.14	15876.56
767.476	16122.88
767.812	16319.03
768.148	16472.7
768.485	16557.67
768.821	16696.2
769.157	16887.61
769.492	17001.95
769.828	17203.98
770.164	17154.49
770.5	17389.74
770.836	17620.47
771.171	17659.79
771.507	17801.93
771.842	17931.87
772.178	17954.02
772.513	18108.59
772.849	18248.93
773.184	18272.43
773.519	18508.13
773.855	18569.82
774.19	18458.41
774.525	18714.23
774.86	18755.58
775.195	18869.7
775.53	18933.88
775.865	18933.88
776.2	18888.01
776.535	19018.4
776.87	19095.23
777.205	19138.85
777.539	19162.35
777.874	19276.47
778.209	19249.13
778.543	19363.25
778.878	19289.13
779.212	19345.62
779.547	19428.33
779.881	19530.7
780.215	19556.92
780.55	19617.93
780.884	19595.11
781.218	19562.11
781.552	19582.23
781.886	19586.07
782.22	19489.8
782.554	19565.28
782.888	19508.78
783.222	19626.52
783.556	19462.91
783.889	19553.53
784.223	19412.51
784.557	19529.12
784.89	19588.1
785.224	19496.58
785.557	19423.36
785.891	19512.17
786.224	19521.44
786.558	19523.02
786.891	19394.43
787.224	19477.82
787.557	19363.47
787.891	19402.79
788.224	19410.93
788.557	19405.05
788.89	19412.96
789.223	19512.4
789.556	19351.04
789.888	19376.13
790.221	19332.06
790.554	19163.25
790.887	19257.71
791.219	19211.84
791.552	19225.62
791.884	19105.4
792.217	19082.8
792.549	19152.63
792.882	18970.94
793.214	18826.31
793.546	18895.46
793.879	18928.68
794.211	18832.41
794.543	18906.99
794.875	18905.86
795.207	18893.88
795.539	18689.37
795.871	18752.64
796.203	18659.31
796.535	18511.97
796.867	18582.93
797.198	18521.46
797.53	18519.43
797.862	18403.95
798.193	18446.66
798.525	18390.17
798.856	18427.68
799.188	18199.44
799.519	18233.56
799.85	18102.94
800.182	18202.37
800.513	18201.02
800.844	17991.98
801.175	18125.09
801.506	18156.27
801.837	17989.95
802.168	18050.06
802.499	17891.65
802.83	17886.45
803.161	17766
803.491	17913.34
803.822	17817.3
804.153	17739.11
804.483	17674.25
804.814	17627.93
805.145	17612.33
805.475	17559.23
805.805	17507.48
806.136	17596.29
806.466	17547.25
806.796	17459.8
807.126	17331.89
807.457	17365.79
807.787	17277.88
808.117	17219.35
808.447	17177.09
808.777	17234.04
809.107	17126.7
809.436	17129.18
809.766	17138
810.096	17105.68
810.426	16992.01
810.755	16931.67
811.085	16966.02
811.414	17030.43
811.744	16895.52
812.073	16861.62
812.403	16836.99
812.732	16731.68
813.061	16807.61
813.39	16688.29
813.719	16605.58
814.049	16689.19
814.378	16599.48
814.707	16597.9
815.036	16590.67
815.365	16528.07
815.693	16371.91
816.022	16279.49
816.351	16375.76
816.68	16305.25
817.008	16397.68
817.337	16272.48
817.665	16244.01
817.994	16242.65
818.322	16158.81
818.651	16228.87
818.979	16154.29
819.307	16290.79
819.636	16070.68
819.964	16043.79
820.292	16056.89
820.62	16077.01
820.948	15946.39
821.276	16118.14
821.604	15975.54
821.932	16130.79
822.259	16112.26
822.587	15943.68
822.915	16000.17
823.243	16070
823.57	15965.82
823.898	15977.8
824.225	15921.3
824.553	15951.13
824.88	16003.56
825.207	16019.61
825.535	16010.79
825.862	16084.01
826.189	16004.01
826.516	16097.35
826.843	16105.03
827.17	16065.48
827.497	16162.2
827.824	16110
828.151	16122.88
828.478	16112.49
828.805	16089.89
829.131	16008.76
829.458	15982.55
829.785	15981.42
830.111	15949.55
830.438	16053.28
830.764	16001.08
831.09	16018.93
831.417	16022.32
831.743	16054.18
832.069	15946.84
832.395	15954.3
832.722	16015.99
833.048	15957.69
833.374	15971.47
833.7	15848.54
834.026	15931.25
834.351	15898.48
834.677	15905.94
835.003	15987.07
835.329	15901.19
835.654	15783.68
835.98	15855.32
836.306	15819.16
836.631	15738.71
836.956	15818.48
837.282	15836.56
837.607	15677.7
837.932	15754.08
838.258	15870.23
838.583	15764.47
838.908	15684.93
839.233	15625.27
839.558	15626.62
839.883	15588.66
840.208	15542.33
840.533	15587.53
840.858	15499.17
841.182	15546.17
841.507	15428.21
841.832	15420.3
842.156	15358.16
842.481	15380.08
842.805	15339.17
843.13	15337.37
843.454	15262.34
843.778	15222.57
844.103	15145.28
844.427	15095.56
844.751	15167.2
845.075	14983.02
845.399	14956.81
845.723	15006.3
846.047	15023.02
846.371	14891.05
846.695	14961.1
847.019	14763.59
847.343	14699.64
847.666	14647.21
847.99	14548.91
848.313	14610.15
848.637	14480.44
848.96	14400.44
849.284	14419.2
849.607	14304.17
849.931	14272.99
850.254	14185.08
850.577	14172.2
850.9	14058.98
851.223	14082.48
851.546	13960.9
851.869	13842.26
852.192	13895.37
852.515	13757.97
852.838	13686.56
853.161	13709.39
853.483	13646.56
853.806	13624.64
854.129	13661.7
854.451	13481.14
854.774	13485.66
855.096	13447.47
855.419	13337.64
855.741	13400.01
856.063	13245.67
856.385	13214.03
856.708	13214.71
857.03	13188.04
857.352	13158.67
857.674	13108.95
857.996	13075.28
858.318	13028.05
858.64	13033.24
858.961	12951.89
859.283	12941.27
859.605	12870.76
859.926	12887.71
860.248	12844.78
860.57	12750.77
860.891	12857.66
861.212	12703.76
861.534	12692.69
861.855	12640.49
862.176	12680.49
862.498	12613.82
862.819	12619.24
863.14	12531.11
863.461	12552.35
863.782	12555.74
864.103	12551
864.424	12496.76
864.745	12488.4
865.065	12359.82
865.386	12349.2
865.707	12343.55
866.027	12416.99
866.348	12280.5
866.668	12403.2
866.989	12303.55
867.309	12174.51
867.63	12274.39
867.95	12238.24
868.27	12236.66
868.59	12169.09
868.91	12135.64
869.23	12160.95
869.55	12094.96
869.87	12170.67
870.19	12139.26
870.51	12130.44
870.83	12113.5
871.15	12058.58
871.469	12030.56
871.789	12021.52
872.109	11992.14
872.428	11834.18
872.748	11946.27
873.067	11924.12
873.386	11891.35
873.706	11889.55
874.025	11817.23
874.344	11772.26
874.663	11851.13
874.982	11738.36
875.301	11770.45
875.62	11791.47
875.939	11719.61
876.258	11762.32
876.577	11719.16
876.896	11652.04
877.214	11642.32
877.533	11671.47
877.852	11585.6
878.17	11670.57
878.489	11607.97
878.807	11503.34
879.125	11514.41
879.444	11528.2
879.762	11487.07
880.08	11528.65
880.398	11412.95
880.716	11404.36
881.034	11433.29
881.352	11403.91
881.67	11340.86
881.988	11324.82
882.306	11381.54
882.624	11260.41
882.941	11224.03
883.259	11156.91
883.577	11170.92
883.894	11205.04
884.212	11097.93
884.529	11145.84
884.846	11095.89
885.164	11051.38
885.481	11132.73
885.798	11057.48
886.115	11005.28
886.432	10958.72
886.75	10981.55
887.067	10973.64
887.383	10894.77
887.7	10875.34
888.017	10825.62
888.334	10859.52
888.651	10849.8
888.967	10733.42
889.284	10722.8
889.6	10704.49
889.917	10657.94
890.233	10678.28
890.55	10554.44
890.866	10601.44
891.182	10536.14
891.498	10541.11
891.815	10507.66
892.131	10483.93
892.447	10450.04
892.763	10381.34
893.079	10293.2
893.395	10349.25
893.71	10303.15
894.026	10259.76
894.342	10218.4
894.657	10114.23
894.973	10165.98
895.289	10130.95
895.604	10155.13
895.92	10065.41
896.235	9998.3
896.55	10079.65
896.865	9989.03
897.181	9965.75
897.496	9913.55
897.811	9848.47
898.126	9807.57
898.441	9780.45
898.756	9747.91
899.071	9701.81
899.386	9766.44
899.7	9608.7
900.015	9534.35
900.33	9500
900.644	9534.81
900.959	9535.26
901.273	9442.83
901.588	9496.39
901.902	9385.88
902.216	9369.16
902.531	9371.42
902.845	9319.44
903.159	9307.69
903.473	9233.8
903.787	9208.94
904.101	9147.47
904.415	9090.75
904.729	9137.08
905.042	9062.05
905.356	9005.33
905.67	9059.11
905.984	8976.63
906.297	8879.46
906.611	8831.1
906.924	8855.28
907.237	8904.09
907.551	8793.81
907.864	8743.87
908.177	8693.92
908.491	8682.4
908.804	8697.09
909.117	8601.05
909.43	8541.16
909.743	8458.22
910.056	8518.79
910.368	8480.6
910.681	8429.52
910.994	8359.47
911.307	8335.97
911.619	8298.68
911.932	8312.24
912.244	8326.25
912.557	8215.74
912.869	8135.97
913.181	8178.23
913.494	8138.91
913.806	8025.47
914.118	8020.04
914.43	8008.29
914.742	7971.23
915.054	7980.04
915.366	7888.97
915.678	7896.2
915.99	7874.96
916.302	7814.85
916.613	7795.42
916.925	7745.47
917.236	7717.9
917.548	7712.25
917.859	7724.46
918.171	7606.27
918.482	7591.58
918.794	7573.05
919.105	7554.97
919.416	7527.85
919.727	7466.16
920.038	7451.47
920.349	7432.71
920.66	7368.76
920.971	7367.63
921.282	7303
921.593	7269.55
921.903	7254.87
922.214	7248.76
922.525	7190.46
922.835	7178.03
923.146	7103.68
923.456	7102.33
923.767	6993.63
924.077	7076.34
924.387	6976.68
924.697	7031.14
925.008	6963.12
925.318	6953.63
925.628	6917.93
925.938	6876.12
926.248	6888.55
926.558	6810.13
926.867	6824.82
927.177	6753.18
927.487	6748.66
927.796	6717.48
928.106	6613.3
928.416	6704.82
928.725	6659.18
929.034	6629.12
929.344	6645.39
929.653	6564.04
929.962	6523.36
930.271	6456.47
930.581	6458.28
930.89	6430.03
931.199	6366.98
931.508	6359.75
931.817	6334.21
932.125	6329.92
932.434	6346.87
932.743	6266.87
933.051	6276.13
933.36	6246.98
933.669	6209.92
933.977	6215.8
934.286	6150.94
934.594	6193.2
934.902	6110.04
935.21	6111.62
935.519	6056.03
935.827	6007.67
936.135	5973.54
936.443	5941.91
936.751	5949.82
937.059	5923.6
937.367	5902.36
937.674	5926.99
937.982	5906.88
938.29	5806.54
938.597	5858.52
938.905	5747.33
939.213	5750.72
939.52	5696.71
939.827	5715.25
940.135	5622.59
940.442	5643.83
940.749	5648.13
941.056	5636.83
941.363	5534.46
941.67	5557.51
941.977	5552.99
942.284	5470.05
942.591	5493.56
942.898	5475.48
943.205	5434.8
943.511	5411.52
943.818	5426.67
944.125	5329.49
944.431	5346.67
944.738	5318.87
945.044	5313.9
945.35	5280.68
945.657	5217.63
945.963	5216.05
946.269	5216.28
946.575	5189.16
946.881	5120.68
947.187	5124.07
947.493	5029.39
947.799	5107.58
948.105	5028.71
948.41	5043.85
948.716	5011.31
949.022	5029.39
949.327	4947.13
949.633	4927.7
949.938	4902.61
950.244	4982.38
950.549	4896.28
950.854	4890.86
951.16	4889.28
951.465	4864.42
951.77	4786.68
952.075	4795.04
952.38	4766.57
952.685	4800.69
952.99	4756.85
953.294	4695.16
953.599	4720.92
953.904	4664.43
954.209	4615.84
954.513	4647.7
954.818	4592.56
955.122	4616.07
955.426	4588.04
955.731	4559.8
956.035	4544.65
956.339	4530.19
956.643	4515.05
956.948	4502.17
957.252	4425.11
957.556	4438.44
957.86	4442.96
958.163	4415.17
958.467	4389.86
958.771	4373.13
959.075	4338.33
959.378	4315.96
959.682	4325.68
959.985	4301.95
960.289	4261.5
960.592	4260.14
960.896	4213.59
961.199	4222.86
961.502	4184.89
961.805	4217.66
962.108	4165.46
962.411	4155.29
962.714	4118.9
963.017	4141.95
963.32	4109.86
963.623	4047.04
963.926	4093.37
964.228	4001.62
964.531	4031.67
964.833	4009.98
965.136	3944.67
965.438	3969.53
965.741	3933.6
966.043	3931.11
966.345	3904.22
966.648	3918
966.95	3855.63
967.252	3882.07
967.554	3854.28
967.856	3809.53
968.158	3798.23
968.46	3808.4
968.761	3785.35
969.063	3781.06
969.365	3774.28
969.666	3755.52
969.968	3686.15
970.269	3696.32
970.571	3686.6
970.872	3673.49
971.174	3640.72
971.475	3610.67
971.776	3647.05
972.077	3616.54
972.378	3603.66
972.679	3612.25
972.98	3557.79
973.281	3499.94
973.582	3527.73
973.883	3494.29
974.183	3527.28
974.484	3527.73
974.785	3437.11
975.085	3450.67
975.386	3449.77
975.686	3449.09
975.986	3389.66
976.287	3396.66
976.587	3363.22
976.887	3363.89
977.187	3335.42
977.487	3324.35
977.787	3369.09
978.087	3271.47
978.387	3245.48
978.687	3264.91
978.987	3252.26
979.286	3195.09
979.586	3201.86
979.885	3212.03
980.185	3211.36
980.484	3175.88
980.784	3165.93
981.083	3149.89
981.382	3129.78
981.682	3090.91
981.981	3118.93
982.28	3091.81
982.579	3078.93
982.878	3106.73
983.177	3039.61
983.475	3017.46
983.774	2975.66
984.073	3014.75
984.372	2996.9
984.67	2992.83
984.969	2977.92
985.267	2953.06
985.566	2948.54
985.864	2903.34
986.162	2915.09
986.461	2880.52
986.759	2901.76
987.057	2883.91
987.355	2823.12
987.653	2847.52
987.951	2848.43
988.249	2842.55
988.547	2830.12
988.844	2807.75
989.142	2760.97
989.44	2757.58
989.737	2765.04
990.035	2747.64
990.332	2751.26
990.63	2710.13
990.927	2727.53
991.224	2704.25
991.521	2715.32
991.819	2667.64
992.116	2672.61
992.413	2668.55
992.71	2637.81
993.006	2568.89
993.303	2596.91
993.6	2607.98
993.897	2591.71
994.193	2579.96
994.49	2572.95
994.787	2550.13
995.083	2513.75
995.379	2536.57
995.676	2510.13
995.972	2512.39
996.268	2466.74
996.565	2450.92
996.861	2433.07
997.157	2448.66
997.453	2445.5
997.749	2445.73
998.044	2400.76
998.34	2410.25
998.636	2381.1
998.932	2349.23
999.227	2356.69
999.523	2352.85
999.818	2326.18
1000.114	2307.43
1000.409	2313.53
1000.704	2294.54
1001	2285.96
1001.295	2285.73
1001.59	2245.73
1001.885	2246.18
1002.18	2247.09
1002.475	2252.29
1002.77	2201.89
1003.065	2189.91
1003.359	2187.88
1003.654	2198.95
1003.949	2168.22
1004.243	2142.91
1004.538	2160.08
1004.832	2109.92
1005.127	2123.48
1005.421	2083.25
1005.715	2077.15
1006.009	2029.24
1006.304	2036.25
1006.598	2063.82
1006.892	2023.59
1007.186	2028.11
1007.48	2018.39
1007.773	2002.57
1008.067	2005.51
1008.361	1951.73
1008.655	1971.39
1008.948	1951.5
1009.242	1926.87
1009.535	1943.82
1009.829	1951.05
1010.122	1921.22
1010.415	1923.25
1010.708	1897.72
1011.001	1870.37
1011.295	1856.82
1011.588	1839.64
1011.881	1850.49
1012.173	1802.35
1012.466	1826.31
1012.759	1812.52
1013.052	1808.68
1013.344	1815.46
1013.637	1777.27
1013.93	1786.53
1014.222	1757.61
1014.514	1767.33
1014.807	1729.59
1015.099	1743.37
1015.391	1717.84
1015.683	1706.31
1015.976	1687.33
1016.268	1676.93
1016.56	1683.49
1016.851	1678.06
1017.143	1654.34
1017.435	1656.37
1017.727	1629.02
1018.018	1607.1
1018.31	1610.49
1018.602	1597.16
1018.893	1582.25
1019.185	1610.49
1019.476	1605.07
1019.767	1548.12
1020.058	1571.17
1020.35	1518.29
1020.641	1544.06
1020.932	1524.17
1021.223	1516.03
1021.514	1493.21
1021.804	1494.11
1022.095	1452.53
1022.386	1503.83
1022.677	1456.15
1022.967	1469.26
1023.258	1438.07
1023.548	1436.04
1023.839	1426.54
1024.129	1405.08
1024.419	1404.17
1024.709	1400.56
1025	1413.21
1025.29	1394.91
1025.58	1382.7
1025.87	1353.1
1026.16	1368.92
1026.449	1366.43
1026.739	1360.11
1027.029	1358.75
1027.319	1304.51
1027.608	1318.07
1027.898	1292.08
1028.187	1304.29
1028.477	1273.1
1028.766	1269.94
1029.055	1261.13
1029.344	1252.09
1029.634	1237.85
1029.923	1250.5
1030.212	1246.44
1030.501	1252.09
1030.79	1201.24
1031.078	1208.02
1031.367	1222.26
1031.656	1199.43
1031.945	1187.23
1032.233	1166.66
1032.522	1167.79
1032.81	1179.32
1033.099	1142.94
1033.387	1154.69
1033.675	1149.94
1033.963	1111.07
1034.251	1130.28
1034.54	1100.45
1034.828	1134.8
1035.116	1124.18
1035.403	1109.04
1035.691	1085.54
1035.979	1075.82
1036.267	1085.99
1036.554	1057.97
1036.842	1047.12
1037.129	1058.64
1037.417	1045.09
1037.704	1040.57
1037.992	1042.83
1038.279	1021.58
1038.566	1009.38
1038.853	1009.38
1039.14	1009.38
