Data from hue_26_FLMS001491_00047.txt Node
Date: Tue Feb 07 17:14:04 GMT 2017
User: dcchb
Spectrometer: FLMS00149
Trigger mode: 0
Integration Time (sec): 2.000000E-2
Scans to average: 10
Electric dark correction enabled: true
Nonlinearity correction enabled: false
Boxcar width: 0
XAxis mode: Wavelengths
Number of Pixels in Spectrum: 2048
>>>>>Begin Spectral Data<<<<<
341.393	-8.93
341.776	-8.93
342.16	-8.93
342.543	-53.44
342.927	-81.92
343.31	-77.85
343.693	-76.95
344.077	-71.3
344.46	-50.51
344.843	-41.24
345.226	-36.95
345.61	-45.76
345.993	-15.25
346.376	-30.17
346.759	15.48
347.142	24.52
347.525	42.37
347.908	65.42
348.291	90.28
348.674	97.96
349.057	109.94
349.44	128.02
349.823	137.74
350.206	173.44
350.588	204.4
350.971	208.47
351.354	230.84
351.737	241.24
352.119	250.73
352.502	254.12
352.884	268.58
353.267	295.02
353.65	292.76
354.032	318.3
354.414	319.2
354.797	294.57
355.179	297.51
355.562	318.52
355.944	368.92
356.326	316.04
356.709	323.72
357.091	332.53
357.473	350.84
357.855	321.91
358.238	348.35
358.62	352.19
359.002	322.14
359.384	359.43
359.766	318.97
360.148	316.94
360.53	335.92
360.912	348.58
361.294	323.27
361.676	330.73
362.057	334.12
362.439	326.66
362.821	314.23
363.203	312.2
363.584	323.04
363.966	317.84
364.348	338.18
364.729	335.25
365.111	329.6
365.493	307.45
365.874	331.63
366.256	325.75
366.637	314
367.019	311.29
367.4	300.67
367.781	328.24
368.163	325.53
368.544	319.2
368.925	316.26
369.306	319.2
369.688	324.4
370.069	316.49
370.45	317.62
370.831	317.39
371.212	309.71
371.593	317.39
371.974	302.25
372.355	329.37
372.736	321.91
373.117	294.57
373.498	299.99
373.879	319.43
374.26	315.81
374.641	303.38
375.021	315.13
375.402	319.88
375.783	312.42
376.163	316.04
376.544	327.79
376.925	338.41
377.305	311.52
377.686	329.82
378.066	329.6
378.447	330.5
378.827	331.4
379.208	351.74
379.588	321.23
379.968	355.81
380.349	333.21
380.729	346.32
381.109	335.7
381.489	338.86
381.87	328.01
382.25	339.54
382.63	336.15
383.01	358.52
383.39	349.03
383.77	337.51
384.15	336.6
384.53	348.8
384.91	333.66
385.29	350.39
385.67	333.89
386.049	344.96
386.429	353.55
386.809	365.53
387.189	353.55
387.568	348.35
387.948	360.33
388.328	370.95
388.707	370.95
389.087	362.59
389.466	366.21
389.846	362.59
390.225	352.65
390.605	370.27
390.984	378.18
391.363	364.85
391.743	371.85
392.122	349.71
392.501	366.21
392.881	372.53
393.26	382.02
393.639	376.15
394.018	389.48
394.397	399.88
394.776	361.46
395.155	375.02
395.534	378.63
395.913	362.14
396.292	388.35
396.671	374.34
397.05	379.54
397.429	369.59
397.808	415.02
398.186	373.89
398.565	376.83
398.944	403.94
399.323	395.58
399.701	407.11
400.08	423.6
400.458	408.46
400.837	378.18
401.215	403.72
401.594	380.67
401.972	398.52
402.351	407.33
402.729	402.81
403.107	406.88
403.486	376.83
403.864	411.63
404.242	410.5
404.62	411.4
404.999	416.83
405.377	415.02
405.755	410.5
406.133	412.08
406.511	405.98
406.889	421.57
407.267	438.97
407.645	436.94
408.023	442.36
408.401	418.18
408.779	431.74
409.156	427.45
409.534	433.77
409.912	420.89
410.29	432.42
410.667	429.25
411.045	463.6
411.422	476.03
411.8	484.62
412.178	457.5
412.555	474.9
412.933	465.64
413.31	452.08
413.687	484.39
414.065	454.56
414.442	471.96
414.819	474.45
415.197	474.22
415.574	467.45
415.951	462.47
416.328	488.46
416.705	489.82
417.082	485.52
417.46	485.75
417.837	506.77
418.214	477.61
418.591	478.07
418.967	503.83
419.344	532.08
419.721	509.03
420.098	493.21
420.475	506.77
420.852	521.68
421.228	517.39
421.605	538.18
421.982	526.88
422.358	536.6
422.735	539.08
423.111	540.89
423.488	536.14
423.864	540.44
424.241	561.91
424.617	561.45
424.994	535.69
425.37	544.05
425.746	549.93
426.123	584.05
426.499	546.99
426.875	574.79
427.251	561.45
427.627	572.75
428.003	574.11
428.379	585.86
428.756	576.14
429.132	598.74
429.507	565.07
429.883	598.52
430.259	608.91
430.635	603.49
431.011	591.96
431.387	621.34
431.763	604.16
432.138	633.99
432.514	631.51
432.89	650.27
433.265	645.97
433.641	641.45
434.016	676.25
434.392	661.11
434.767	672.64
435.143	660.21
435.518	650.27
435.894	636.71
436.269	678.06
436.644	696.37
437.02	694.33
437.395	697.04
437.77	707.21
438.145	696.59
438.52	697.5
438.895	707.67
439.271	709.25
439.646	744.05
440.021	712.41
440.395	735.23
440.77	721.9
441.145	737.95
441.52	757.61
441.895	750.6
442.27	749.02
442.645	756.25
443.019	747.44
443.394	749.92
443.769	764.16
444.143	782.01
444.518	761.22
444.892	788.11
445.267	789.7
445.641	781.79
446.016	771.84
446.39	778.17
446.764	798.06
447.139	789.02
447.513	794.44
447.887	802.13
448.262	792.41
448.636	797.83
449.01	812.97
449.384	844.38
449.758	813.2
450.132	819.07
450.506	828.11
450.88	851.39
451.254	856.36
451.628	874.44
452.002	853.88
452.376	852.52
452.75	864.5
453.123	894.78
453.497	867.66
453.871	892.74
454.244	896.59
454.618	920.31
454.992	921.44
455.365	914.21
455.739	941.78
456.112	954.89
456.486	941.56
456.859	921.67
457.232	983.36
457.606	965.74
457.979	967.55
458.352	1010.71
458.725	1003.25
459.099	1002.12
459.472	1042.35
459.845	1035.57
460.218	1034.66
460.591	1051.84
460.964	1058.84
461.337	1084.83
461.71	1073.98
462.083	1082.12
462.456	1111.72
462.829	1100.65
463.201	1114.66
463.574	1110.82
463.947	1120.99
464.32	1165.51
464.692	1165.28
465.065	1186.97
465.438	1196.69
465.81	1215.45
466.183	1205.51
466.555	1254.32
466.928	1238.72
467.3	1264.71
467.672	1272.17
468.045	1293.64
468.417	1306.07
468.789	1311.94
469.161	1334.32
469.534	1339.51
469.906	1369.34
470.278	1394.43
470.65	1393.52
471.022	1416.35
471.394	1450.24
471.766	1435.33
472.138	1473.29
472.51	1526.4
472.882	1496.57
473.253	1553.29
473.625	1556
473.997	1596.23
474.369	1642.78
474.74	1600.97
475.112	1657.02
475.484	1715.55
475.855	1719.39
476.227	1732.5
476.598	1778.15
476.97	1827.64
477.341	1818.6
477.713	1880.97
478.084	1905.37
478.455	1970.91
478.827	2000.96
479.198	2050
479.569	2051.13
479.94	2074.18
480.311	2091.13
480.682	2155.99
481.053	2176.78
481.424	2240.28
481.795	2279.83
482.166	2312.82
482.537	2340.62
482.908	2400.95
483.279	2439.37
483.65	2497.45
484.021	2534.96
484.391	2599.14
484.762	2615.64
485.133	2643.66
485.503	2691.12
485.874	2754.84
486.244	2803.88
486.615	2843.2
486.985	2905.8
487.356	2956.19
487.726	2978.11
488.097	3066.02
488.467	3115.29
488.837	3155.06
489.207	3209.29
489.578	3240.03
489.948	3286.13
490.318	3347.6
490.688	3361.61
491.058	3470.53
491.428	3484.09
491.798	3544.2
492.168	3600.47
492.538	3609.51
492.908	3659.23
493.278	3768.15
493.648	3703.52
494.017	3760.69
494.387	3837.3
494.757	3818.77
495.126	3885.43
495.496	3914.36
495.866	3995.49
496.235	4040.23
496.605	4067.12
496.974	4092.21
497.344	4164.3
497.713	4138.08
498.082	4209.04
498.452	4268.25
498.821	4250.17
499.19	4293.11
499.559	4342.82
499.928	4312.99
500.298	4385.99
500.667	4446.55
501.036	4428.47
501.405	4491.97
501.774	4498.3
502.143	4571.74
502.512	4582.82
502.88	4644.28
503.249	4618.97
503.618	4654
503.987	4649.71
504.356	4721.34
504.724	4742.36
505.093	4797.5
505.462	4846.09
505.83	4837.27
506.199	4874.11
506.567	4924.5
506.936	4884.73
507.304	4911.85
507.672	4971.96
508.041	5034.78
508.409	5075.23
508.777	4999.3
509.145	5056.25
509.514	5095.12
509.882	5151.62
510.25	5131.96
510.618	5130.6
510.986	5199.3
511.354	5201.78
511.722	5269.58
512.09	5264.83
512.458	5265.51
512.826	5387.09
513.193	5326.3
513.561	5369.24
513.929	5389.12
514.297	5396.58
514.664	5438.61
515.032	5442.91
515.4	5482.91
515.767	5501.21
516.135	5505.28
516.502	5479.74
516.869	5568.78
517.237	5607.65
517.604	5592.96
517.972	5690.13
518.339	5646.97
518.706	5640.19
519.073	5702.56
519.44	5741.88
519.808	5744.59
520.175	5753.41
520.542	5871.37
520.909	5824.37
521.276	5848.77
521.643	5865.27
522.009	5889.68
522.376	5936.23
522.743	5953.4
523.11	6011.48
523.477	6039.95
523.843	6046.96
524.21	6093.74
524.577	6177.35
524.943	6163.11
525.31	6178.48
525.676	6274.75
526.043	6281.53
526.409	6281.3
526.776	6385.03
527.142	6367.4
527.508	6420.96
527.874	6465.71
528.241	6417.12
528.607	6479.04
528.973	6508.87
529.339	6509.09
529.705	6587.96
530.071	6585.25
530.437	6666.15
530.803	6735.08
531.169	6716.32
531.535	6717.22
531.901	6796.09
532.267	6820.05
532.632	6875.19
532.998	6844
533.364	6912.93
533.73	6970.78
534.095	6999.48
534.461	7017.78
534.826	7064.56
535.192	7013.94
535.557	7088.97
535.923	7148.85
536.288	7098.91
536.653	7176.87
537.019	7124.9
537.384	7203.99
537.749	7229.98
538.114	7244.89
538.479	7259.58
538.845	7319.24
539.21	7245.8
539.575	7326.7
539.94	7399.47
540.305	7455.74
540.67	7406.02
541.034	7435.17
541.399	7528.05
541.764	7576.41
542.129	7592
542.494	7634.49
542.858	7632
543.223	7644.88
543.587	7760.81
543.952	7729.63
544.316	7733.92
544.681	7786.57
545.045	7840.13
545.41	7859.79
545.774	7871.09
546.138	7956.97
546.503	7893.92
546.867	7903.63
547.231	8033.57
547.595	8092.1
547.959	8074.93
548.324	8132.78
548.688	8116.51
549.052	8124.87
549.416	8072.44
549.779	8195.38
550.143	8181.37
550.507	8233.57
550.871	8354.92
551.235	8260.91
551.599	8359.22
551.962	8330.52
552.326	8350.85
552.689	8476.05
553.053	8489.83
553.417	8467.69
553.78	8614.35
554.143	8500.68
554.507	8566.67
554.87	8590.85
555.234	8669.26
555.597	8636.72
555.96	8639.21
556.323	8739.77
556.686	8733.67
557.05	8784.06
557.413	8822.93
557.776	8859.54
558.139	8890.05
558.502	8841.01
558.865	8844.4
559.228	8912.65
559.59	8967.33
559.953	8933.89
560.316	9007.56
560.679	9055.69
561.041	9108.57
561.404	9062.93
561.767	9137.73
562.129	9163.49
562.492	9273.77
562.854	9204.16
563.217	9235.8
563.579	9269.7
563.941	9337.49
564.304	9392.63
564.666	9369.81
565.028	9405.97
565.39	9483.93
565.753	9495.46
566.115	9521.67
566.477	9526.42
566.839	9591.73
567.201	9612.29
567.563	9635.11
567.925	9704.04
568.287	9793.53
568.648	9768.44
569.01	9771.61
569.372	9862.9
569.734	9841.66
570.095	9933.86
570.457	9968.21
570.819	10020.87
571.18	10003.69
571.542	10110.36
571.903	10170.02
572.265	10200.75
572.626	10214.53
572.987	10273.74
573.349	10330.91
573.71	10371.59
574.071	10442.1
574.432	10431.25
574.794	10608.42
575.155	10609.55
575.516	10629.89
575.877	10719.83
576.238	10781.98
576.599	10893.16
576.96	10967.51
577.32	11066.04
577.681	11100.61
578.042	11235.3
578.403	11305.8
578.763	11310.55
579.124	11467.83
579.485	11574.05
579.845	11713.03
580.206	11769.07
580.566	11913.47
580.927	11947.82
581.287	12141.04
581.648	12263.75
582.008	12427.36
582.368	12575.83
582.728	12635.49
583.089	12879.77
583.449	12979.66
583.809	13182.59
584.169	13350.27
584.529	13535.58
584.889	13856.25
585.249	13909.35
585.609	14123.36
585.969	14299.4
586.329	14466.63
586.688	14775.32
587.048	14948.42
587.408	15152.26
587.768	15480.84
588.127	15648.97
588.487	15802.41
588.846	16270.42
589.206	16341.6
589.565	16543.18
589.925	16846
590.284	17148.81
590.643	17459.09
591.003	17720.55
591.362	18046.19
591.721	18254.55
592.08	18495.67
592.44	18877.58
592.799	19108.76
593.158	19278.48
593.517	19732.93
593.876	20058.34
594.235	20253.37
594.593	20499.91
594.952	20891.09
595.311	21089.5
595.67	21467.8
596.029	21879.99
596.387	22138.74
596.746	22425.51
597.104	22677.93
597.463	23002.67
597.822	23470.23
598.18	23544.13
598.538	23784.8
598.897	24291.68
599.255	24417.55
599.613	25069.51
599.972	25066.35
600.33	25487.35
600.688	25625.43
601.046	25974.8
601.404	26425.63
601.762	26627.44
602.12	27038.72
602.478	27305.84
602.836	27500.86
603.194	27645.71
603.552	27916.22
603.91	28204.8
604.268	28697.66
604.625	28807.72
604.983	29183.53
605.341	29222.85
605.698	29713.68
606.056	29939.21
606.413	30127.23
606.771	30450.84
607.128	30857.15
607.485	30782.13
607.843	31003.37
608.2	31481.09
608.557	31756.34
608.914	31883.79
609.272	32250.34
609.629	32417.11
609.986	32749.31
610.343	32798.8
610.7	33208.73
611.057	33279.01
611.414	33426.58
611.771	33657.08
612.127	33976.62
612.484	34218.87
612.841	34506.78
613.198	34468.13
613.554	34692.53
613.911	35038.06
614.267	35150.15
614.624	35262.69
614.98	35584.94
615.337	35881.43
615.693	35865.38
616.05	36004.59
616.406	36323.68
616.762	36391.25
617.118	36484.35
617.475	36669.66
617.831	36904.68
618.187	36972.25
618.543	37266.48
618.899	37464.21
619.255	37528.39
619.611	37558.67
619.967	37857.2
620.323	38110.52
620.678	38012.45
621.034	37943.52
621.39	38155.27
621.746	38116.62
622.101	38690.4
622.457	38557.29
622.812	38590.06
623.168	38726.1
623.523	38918.86
623.879	39120.89
624.234	38929.71
624.589	39179.2
624.945	39374.44
625.3	39331.96
625.655	39467.32
626.01	39458.96
626.365	39636.13
626.72	39582.12
627.075	39798.84
627.43	39763.59
627.785	39753.19
628.14	39818.05
628.495	39912.51
628.85	40001.1
629.205	39915.22
629.559	40182.56
629.914	40236.8
630.269	40304.14
630.623	40181.2
630.978	40159.28
631.332	40323.35
631.687	40426.62
632.041	40249.45
632.396	40383.01
632.75	40239.73
633.104	40478.37
633.459	40160.86
633.813	40320.63
634.167	40230.24
634.521	40349.56
634.875	40389.79
635.229	40467.52
635.583	40186.63
635.937	40326.28
636.291	40337.58
636.645	40298.71
636.999	40379.84
637.352	40450.57
637.706	40247.19
638.06	40476.34
638.413	40365.38
638.767	40361.09
639.121	40439.28
639.474	40124.03
639.828	40214.65
640.181	40287.19
640.534	40421.65
640.888	40272.95
641.241	40175.33
641.594	40314.76
641.947	40435.43
642.301	40244.03
642.654	40360.86
643.007	40276.79
643.36	40220.98
643.713	40242.22
644.066	40434.3
644.419	40103.69
644.771	39911.38
645.124	39529.7
645.477	39421.68
645.83	39257.39
646.182	39158.41
646.535	39033.89
646.888	38981.91
647.24	38885.64
647.593	39013.1
647.945	39057.62
648.298	38718.64
648.65	38882.03
649.002	38778.75
649.355	38950.95
649.707	38895.81
650.059	39060.1
650.411	39458.74
650.763	39543.71
651.115	39942.79
651.467	39764.49
651.819	40025.28
652.171	39787.99
652.523	39638.62
652.875	39677.71
653.227	39446.53
653.578	39910.7
653.93	39824.6
654.282	39573.08
654.633	39511.39
654.985	39647.43
655.337	39749.35
655.688	39651.5
656.039	39730.14
656.391	39512.52
656.742	39577.15
657.094	39508.45
657.445	39531.28
657.796	39591.39
658.147	39434.1
658.498	39615.34
658.849	39716.36
659.2	39544.84
659.551	39381.22
659.902	39650.6
660.253	39470.26
660.604	39577.6
660.955	39246.09
661.306	39445.18
661.656	39491.73
662.007	39319.08
662.358	39492.41
662.708	39371.06
663.059	39301
663.409	39268.91
663.76	39441.56
664.11	39490.37
664.461	39480.2
664.811	39425.97
665.161	39619.86
665.511	39312.53
665.862	39346.88
666.212	39466.87
666.562	39456.7
666.912	39473.65
667.262	39219.19
667.612	39406.08
667.962	39314.56
668.312	39300.77
668.662	39445.63
669.011	39465.29
669.361	39308.23
669.711	39373.54
670.06	39275.92
670.41	39257.16
670.76	39150.04
671.109	39286.31
671.459	39333.99
671.808	39156.37
672.157	39372.19
672.507	39122.7
672.856	39034.11
673.205	39123.38
673.554	39204.73
673.904	39097.39
674.253	39266.2
674.602	39104.17
674.951	38578.31
675.3	38651.53
675.649	38970.16
675.998	39047.22
676.346	38992.99
676.695	39063.49
677.044	38705.54
677.393	38869.15
677.741	39001.8
678.09	38847.23
678.438	38700.56
678.787	38876.15
679.135	38829.15
679.484	38546.67
679.832	38746.89
680.181	38541.47
680.529	38643.62
680.877	38402.72
681.225	38546.44
681.573	38647.46
681.922	38378.54
682.27	38167.25
682.618	38362.95
682.966	38318.88
683.314	38294.7
683.661	38126.57
684.009	37975.16
684.357	37967.02
684.705	37865.56
685.053	37845.67
685.4	38036.63
685.748	37816.97
686.095	37739.46
686.443	37577.66
686.79	37580.37
687.138	37660.59
687.485	37563.65
687.832	37382.63
688.18	37418.34
688.527	37309.41
688.874	37298.79
689.221	37333.37
689.568	37079.82
689.915	37068.29
690.262	36943.32
690.609	36945.36
690.956	36848.18
691.303	36791.69
691.65	36708.3
691.997	36701.29
692.344	36405.94
692.69	36365.71
693.037	36461.3
693.383	36061.54
693.73	36196.9
694.077	36098.15
694.423	36069.22
694.769	35944.93
695.116	35885.05
695.462	35746.97
695.808	35607.54
696.155	35729.79
696.501	35498.84
696.847	35428.56
697.193	35062.47
697.539	35296.13
697.885	35129.81
698.231	35008.01
698.577	35011.4
698.923	35065.41
699.269	34789.25
699.614	34643.5
699.96	34513.56
700.306	34612.76
700.651	34378.19
700.997	34207.35
701.342	34297.97
701.688	34194.02
702.033	34142.72
702.379	34125.77
702.724	34109.05
703.069	34044.64
703.415	33762.39
703.76	33784.08
704.105	33787.02
704.45	33606.69
704.795	33469.97
705.14	33419.35
705.485	33400.14
705.83	33231.78
706.175	33312.01
706.52	33211.9
706.865	33015.97
707.209	32917.89
707.554	33000.15
707.899	33018
708.243	32833.37
708.588	32709.31
708.932	32567.84
709.277	32528.52
709.621	32484.46
709.966	32298.7
710.31	32341.64
710.654	32119.27
710.998	32235.42
711.342	32175.31
711.687	32065.48
712.031	32069.33
712.375	31825.94
712.719	31863.23
713.063	31753.18
713.407	31952.49
713.75	31650.35
714.094	31603.35
714.438	31564.48
714.782	31586.4
715.125	31376.46
715.469	31441.55
715.812	31251.04
716.156	31132.85
716.499	31231.16
716.843	31110.71
717.186	31006.76
717.53	31128.79
717.873	31024.83
718.216	30967.66
718.559	30805.86
718.902	30746.65
719.246	30703.71
719.589	30557.05
719.932	30464.17
720.275	30575.13
720.617	30595.92
720.96	30354.8
721.303	30461.91
721.646	30593.66
721.989	30183.73
722.331	30359.54
722.674	30231.86
723.016	30261.69
723.359	30228.24
723.701	30239.09
724.044	30023.28
724.386	29965.43
724.729	29903.73
725.071	29931.53
725.413	29938.99
725.755	29920.23
726.097	29877.29
726.439	29643.63
726.782	29647.47
727.124	29716.39
727.465	29545.32
727.807	29619.67
728.149	29584.19
728.491	29497.87
728.833	29458.77
729.175	29277.76
729.516	29309.17
729.858	29227.37
730.199	29281.6
730.541	29130.65
730.882	29196.63
731.224	29238.44
731.565	28953.93
731.906	29007.71
732.248	29038.22
732.589	28863.76
732.93	28734.27
733.271	28838.68
733.612	28896.3
733.953	28855.4
734.294	28697.21
734.635	28696.53
734.976	28724.78
735.317	28593.71
735.658	28599.14
735.999	28760.26
736.339	28500.83
736.68	28581.73
737.021	28345.13
737.361	28331.8
737.702	28429.65
738.042	28314.62
738.383	28442.08
738.723	28261.06
739.063	28280.73
739.404	28235.53
739.744	28192.14
740.084	28103.33
740.424	28049.32
740.764	28022.43
741.104	28156.89
741.444	28004.12
741.784	27967.06
742.124	27962.54
742.464	27889.78
742.804	27732.94
743.143	27778.37
743.483	27718.25
743.823	27671.25
744.162	27514.87
744.502	27669.89
744.841	27472.16
745.181	27556.9
745.52	27490.46
745.86	27602.33
746.199	27455.89
746.538	27398.04
746.877	27444.14
747.216	27446.17
747.556	27250.92
747.895	27349.68
748.234	27248.66
748.573	27222.45
748.911	27159.4
749.25	27190.81
749.589	27010.25
749.928	27097.48
750.267	27152.62
750.605	27072.4
750.944	27029.91
751.283	26909.24
751.621	27063.13
751.96	26821.33
752.298	26884.38
752.636	26864.72
752.975	26627.89
753.313	26622.46
753.651	26659.75
753.989	26562.13
754.327	26448.91
754.666	26455.01
755.004	26437.84
755.342	26509.02
755.679	26538.85
756.017	26268.12
756.355	26361.23
756.693	26229.71
757.031	26211.85
757.368	26112.19
757.706	26052.31
758.044	25952.88
758.381	26042.82
758.719	25850.28
759.056	25908.58
759.394	25750.85
759.731	25657.52
760.068	25583.85
760.405	25518.31
760.743	25417.75
761.08	25537.52
761.417	25384.76
761.754	25302.27
762.091	25264.31
762.428	25232.22
762.765	25010.75
763.102	25128.04
763.438	25059.79
763.775	24843.08
764.112	24955.62
764.449	24855.5
764.785	24713.81
765.122	24654.38
765.458	24429.53
765.795	24540.48
766.131	24538
766.467	24385.23
766.804	24173.71
767.14	24166.26
767.476	24153.6
767.812	24037
768.148	24034.28
768.485	23869.32
768.821	23689.43
769.157	23762.2
769.492	23769.43
769.828	23594.52
770.164	23472.26
770.5	23465.71
770.836	23443.11
771.171	23200.63
771.507	23251.03
771.842	23089.45
772.178	23122.44
772.513	23063.91
772.849	22977.14
773.184	22837.93
773.519	22889.91
773.855	22688.56
774.19	22518.84
774.525	22490.82
774.86	22529.24
775.195	22398.62
775.53	22394.78
775.865	22196.37
776.2	22125.41
776.535	21902.59
776.87	22047.22
777.205	21955.92
777.539	21794.34
777.874	21825.3
778.209	21565.42
778.543	21598.87
778.878	21359.33
779.212	21444.97
779.547	21353.45
779.881	21446.1
780.215	21221.7
780.55	21171.53
780.884	21080.91
781.218	21004.76
781.552	20999.56
781.886	20920.92
782.22	20805.44
782.554	20684.09
782.888	20582.17
783.222	20499.01
783.556	20395.51
783.889	20337.88
784.223	20242.52
784.557	20201.84
784.89	20214.72
785.224	20042.3
785.557	20022.41
785.891	19934.5
786.224	19788.75
786.558	19864
786.891	19741.29
787.224	19636.43
787.557	19573.16
787.891	19544.46
788.224	19439.38
788.557	19391.92
788.89	19415.2
789.223	19315.99
789.556	19117.58
789.888	19032.15
790.221	19077.13
790.554	18963.91
790.887	18941.08
791.219	18844.36
791.552	18817.25
791.884	18734.99
792.217	18662.67
792.549	18556.24
792.882	18427.88
793.214	18417.48
793.546	18459.51
793.879	18278.05
794.211	18269.46
794.543	18227.66
794.875	18205.74
795.207	18239.63
795.539	18069.47
795.871	18135.46
796.203	17946.99
796.535	17880.09
796.867	17895.91
797.198	17779.53
797.53	17753.77
797.862	17679.42
798.193	17646.2
798.525	17499.54
798.856	17575.7
799.188	17342.71
799.519	17269.94
799.85	17247.12
800.182	17238.08
800.513	17268.81
800.844	17110.4
801.175	17232.2
801.506	17116.5
801.837	16955.83
802.168	16986.11
802.499	16992.89
802.83	16823.4
803.161	16782.04
803.491	16773.46
803.822	16680.13
804.153	16628.15
804.483	16589.51
804.814	16523.07
805.145	16540.47
805.475	16482.17
805.805	16450.3
806.136	16357.65
806.466	16286.69
806.796	16342.96
807.126	16192
807.457	16142.97
807.787	16086.02
808.117	15998.34
808.447	16062.74
808.777	16070.88
809.107	15902.75
809.436	15837.44
809.766	15878.57
810.096	15762.18
810.426	15790.43
810.755	15722.19
811.085	15721.06
811.414	15686.03
811.744	15617.1
812.073	15538.24
812.403	15489.2
812.732	15410.33
813.061	15445.36
813.39	15390.89
813.719	15343.44
814.049	15411.69
814.378	15317.68
814.707	15197.23
815.036	15262.54
815.365	15109.32
815.693	14998.59
816.022	15051.92
816.351	15010.79
816.68	14898.7
817.008	14987.74
817.337	14754.3
817.665	14658.94
817.994	14866.39
818.322	14818.48
818.651	14690.57
818.979	14665.94
819.307	14751.36
819.636	14690.8
819.964	14565.15
820.292	14633.4
820.62	14560.18
820.948	14548.66
821.276	14567.41
821.604	14517.47
821.932	14518.15
822.259	14496.23
822.587	14508.43
822.915	14437.25
823.243	14503.01
823.57	14485.38
823.898	14562.22
824.225	14423.91
824.553	14480.18
824.88	14515.89
825.207	14545.27
825.535	14460.07
825.862	14498.49
826.189	14404.71
826.516	14480.18
826.843	14497.36
827.17	14476.34
827.497	14546.85
827.824	14429.79
828.151	14499.17
828.478	14546.4
828.805	14567.41
829.131	14461.65
829.458	14438.6
829.785	14414.42
830.111	14438.38
830.438	14456.91
830.764	14432.05
831.09	14482.44
831.417	14411.26
831.743	14492.84
832.069	14457.13
832.395	14395.67
832.722	14404.25
833.048	14313.41
833.374	14295.1
833.7	14206.29
834.026	14287.65
834.351	14291.71
834.677	14315.22
835.003	14312.51
835.329	14255.11
835.654	14231.83
835.98	14188.21
836.306	14183.47
836.631	14124.94
836.956	14137.59
837.282	14141.21
837.607	14168.78
837.932	13999.97
838.258	14082.45
838.583	14042.91
838.908	13959.52
839.233	14011.27
839.558	14017.82
839.883	13872.06
840.208	13893.76
840.533	13857.38
840.858	13789.35
841.182	13889.24
841.507	13863.7
841.832	13769.47
842.156	13752.29
842.481	13696.7
842.805	13694.67
843.13	13649.25
843.454	13721.33
843.778	13604.28
844.103	13590.94
844.427	13605.18
844.751	13611.28
845.075	13547.78
845.399	13526.31
845.723	13286.09
846.047	13379.2
846.371	13250.39
846.695	13264.4
847.019	13209.71
847.343	13063.05
847.666	13010.62
847.99	13026.44
848.313	13012.43
848.637	12916.16
848.96	12907.12
849.284	12751.19
849.607	12798.87
849.931	12680.91
850.254	12626
850.577	12554.81
850.9	12461.03
851.223	12431.2
851.546	12379.67
851.869	12314.82
852.192	12421.93
852.515	12326.57
852.838	12185.56
853.161	12207.02
853.483	12233.46
853.806	12103.52
854.129	12093.58
854.451	12076.63
854.774	12041.83
855.096	11955.96
855.419	11935.84
855.741	11897.88
856.063	11786.24
856.385	11843.64
856.708	11814.94
857.03	11736.75
857.352	11701.73
857.674	11718.45
857.996	11686.59
858.318	11541.73
858.64	11547.83
858.961	11554.61
859.283	11519.81
859.605	11362.53
859.926	11462.18
860.248	11449.76
860.57	11318.91
860.891	11413.15
861.212	11274.17
861.534	11308.52
861.855	11267.16
862.176	11206.6
862.498	11329.08
862.819	11270.33
863.14	11153.27
863.461	11159.82
863.782	11141.06
864.103	11120.72
864.424	11113.72
864.745	11054.74
865.065	11078.92
865.386	11068.52
865.707	11041.63
866.027	11033.27
866.348	11002.31
866.668	10969.09
866.989	10992.37
867.309	10857
867.63	10929.54
867.95	10935.42
868.27	10820.62
868.59	10752.6
868.91	10707.85
869.23	10774.52
869.55	10705.82
869.87	10791.02
870.19	10710.11
870.51	10730.68
870.83	10727.29
871.15	10639.61
871.469	10653.62
871.789	10654.07
872.109	10654.75
872.428	10563.23
872.748	10660.4
873.067	10606.61
873.386	10551.7
873.706	10586.95
874.025	10519.16
874.344	10499.72
874.663	10515.09
874.982	10476
875.301	10517.8
875.62	10397.13
875.939	10360.97
876.258	10440.29
876.577	10354.64
876.896	10352.61
877.214	10323.46
877.533	10344.02
877.852	10343.12
878.17	10317.81
878.489	10315.77
878.807	10269.9
879.125	10268.77
879.444	10280.29
879.762	10248.21
880.08	10231.26
880.398	10157.13
880.716	10300.41
881.034	10116.01
881.352	10166.85
881.67	10071.94
881.988	10071.26
882.306	10083.69
882.624	10068.32
882.941	10040.53
883.259	9933.41
883.577	9952.62
883.894	9928.44
884.212	9920.3
884.529	9858.84
884.846	9958.95
885.164	9870.59
885.481	9764.38
885.798	9855.9
886.115	9750.82
886.432	9707.43
886.75	9730.25
887.067	9723.02
887.383	9651.84
887.7	9694.77
888.017	9613.19
888.334	9662.23
888.651	9686.64
888.967	9563.93
889.284	9555.34
889.6	9521.9
889.917	9534.55
890.233	9524.83
890.55	9434.67
890.866	9412.07
891.182	9375.01
891.498	9382.47
891.815	9318.29
892.131	9321.68
892.447	9288.68
892.763	9263.82
893.079	9198.29
893.395	9167.1
893.71	9198.74
894.026	9165.97
894.342	9055.92
894.657	9019.54
894.973	9079.87
895.289	9076.71
895.604	9034.23
895.92	8921.69
896.235	8824.29
896.55	8887.56
896.865	8860.67
897.181	8857.28
897.496	8862.93
897.811	8819.99
898.126	8788.13
898.441	8729.37
898.756	8694.57
899.071	8625.65
899.386	8644.86
899.7	8606.89
900.015	8538.42
900.33	8530.28
900.644	8498.19
900.959	8515.14
901.273	8476.95
901.588	8393.56
901.902	8355.15
902.216	8352.66
902.531	8339.78
902.845	8257.3
903.159	8309.5
903.473	8254.81
903.787	8216.62
904.101	8177.3
904.415	8178.88
904.729	8114.48
905.042	8065.66
905.356	8078.54
905.67	8018.43
905.984	8035.61
906.297	8018.21
906.611	7889.4
906.924	7913.8
907.237	7864.76
907.551	7875.61
907.864	7806.01
908.177	7821.6
908.491	7827.25
908.804	7767.82
909.117	7688.72
909.43	7616.86
909.743	7589.97
910.056	7598.11
910.368	7540.48
910.681	7553.13
910.994	7504.1
911.307	7477.66
911.619	7404.44
911.932	7440.14
912.244	7345.68
912.557	7381.16
912.869	7338.68
913.181	7311.56
913.494	7323.31
913.806	7252.35
914.118	7244.67
914.43	7152.02
914.742	7171.9
915.054	7117.21
915.366	7078.12
915.678	7092.81
915.99	7034.28
916.302	6992.92
916.613	6918.8
916.925	6968.07
917.236	6924.45
917.548	6825.24
917.859	6858.92
918.171	6819.59
918.482	6768.52
918.794	6724.91
919.105	6737.79
919.416	6723.1
919.727	6681.97
920.038	6717.68
920.349	6646.04
920.66	6585.93
920.971	6563.78
921.282	6546.16
921.593	6508.64
921.903	6462.99
922.214	6517.46
922.525	6449.43
922.835	6400.85
923.146	6368.76
923.456	6411.92
923.767	6298.7
924.077	6354.75
924.387	6241.98
924.697	6263
925.008	6233.85
925.318	6223.68
925.628	6201.08
925.938	6160.63
926.248	6129.67
926.558	6071.14
926.867	6042.44
927.177	6072.72
927.487	6021.65
927.796	5914.08
928.106	5973.52
928.416	5906.62
928.725	5930.58
929.034	5888.77
929.344	5910.69
929.653	5870.24
929.962	5846.96
930.271	5794.54
930.581	5781.88
930.89	5730.81
931.199	5707.31
931.508	5666.18
931.817	5704.37
932.125	5645.61
932.434	5637.7
932.743	5564.03
933.051	5545.05
933.36	5520.87
933.669	5526.75
933.977	5527.88
934.286	5472.96
934.594	5460.99
934.902	5427.77
935.21	5437.71
935.519	5409.69
935.827	5391.16
936.135	5373.31
936.443	5303.02
936.751	5262.35
937.059	5251.73
937.367	5249.69
937.674	5219.64
937.982	5174.89
938.29	5181.22
938.597	5171.05
938.905	5115.91
939.213	5097.61
939.52	5030.49
939.827	5108.23
940.135	5041.34
940.442	5048.57
940.749	4996.37
941.056	5012.18
941.363	4950.94
941.67	5008.79
941.977	4919.08
942.284	4876.82
942.591	4860.32
942.898	4848.8
943.205	4846.77
943.511	4842.25
943.818	4839.08
944.125	4817.84
944.431	4719.08
944.738	4750.5
945.044	4715.47
945.35	4680.22
945.657	4630.05
945.963	4663.27
946.269	4603.16
946.575	4583.27
946.881	4612.42
947.187	4584.63
947.493	4512.08
947.799	4519.77
948.105	4509.6
948.41	4444.29
948.716	4464.85
949.022	4494.68
949.327	4407.68
949.633	4414.91
949.938	4376.5
950.244	4378.08
950.549	4356.61
950.854	4364.97
951.16	4297.85
951.465	4321.58
951.77	4308.25
952.075	4272.32
952.38	4272.54
952.685	4240.91
952.99	4211.98
953.294	4228.25
953.599	4157.74
953.904	4188.25
954.209	4132.43
954.513	4133.56
954.818	4108.71
955.122	4106.9
955.426	4076.84
955.731	4063.96
956.035	4027.35
956.339	4023.96
956.643	3994.13
956.948	3991.87
957.252	3964.08
957.556	3953
957.86	3939.44
958.163	3941.7
958.467	3933.12
958.771	3856.73
959.075	3888.37
959.378	3855.15
959.682	3845.44
959.985	3810.86
960.289	3823.06
960.592	3793.01
960.896	3736.74
961.199	3735.61
961.502	3737.19
961.805	3729.73
962.108	3705.78
962.411	3682.95
962.714	3668.04
963.017	3630.07
963.32	3635.27
963.623	3624.88
963.926	3614.48
964.228	3586.69
964.531	3588.49
964.833	3585.56
965.136	3533.81
965.438	3536.97
965.741	3488.16
966.043	3487.93
966.345	3514.37
966.648	3480.25
966.95	3449.29
967.252	3447.48
967.554	3445.22
967.856	3368.61
968.158	3365
968.46	3370.87
968.761	3367.03
969.063	3369.74
969.365	3332.45
969.666	3285
969.968	3241.16
970.269	3290.87
970.571	3267.82
970.872	3259.24
971.174	3250.2
971.475	3245.9
971.776	3202.06
972.077	3184.89
972.378	3197.32
972.679	3143.08
972.98	3167.71
973.281	3140.82
973.582	3158.45
973.883	3110.77
974.183	3074.38
974.484	3099.69
974.785	3106.92
975.085	3099.24
975.386	3097.43
975.686	3048.17
975.986	3000.94
976.287	3029.19
976.587	2984.44
976.887	2969.3
977.187	2965.23
977.487	2972.92
977.787	2939.47
978.087	2934.73
978.387	2928.4
978.687	2880.04
978.987	2918
979.286	2903.99
979.586	2896.08
979.885	2844.56
980.185	2817.89
980.484	2782.19
980.784	2820.15
981.083	2811.56
981.382	2818.12
981.682	2780.38
981.981	2789.87
982.28	2761.85
982.579	2740.83
982.878	2769.53
983.177	2718.91
983.475	2699.48
983.774	2710.1
984.073	2678.91
984.372	2709.42
984.67	2648.63
984.969	2679.82
985.267	2662.64
985.566	2608.18
985.864	2624
986.162	2598.01
986.461	2627.39
986.759	2580.84
987.057	2573.83
987.355	2584.68
987.653	2533.15
987.951	2554.62
988.249	2524.57
988.547	2509.2
988.844	2522.08
989.142	2497.22
989.44	2476.66
989.737	2459.94
990.035	2493.15
990.332	2445.25
990.63	2456.55
990.927	2406.6
991.224	2407.96
991.521	2384.91
991.819	2382.88
992.116	2365.7
992.413	2369.32
992.71	2351.46
993.006	2366.15
993.303	2330.45
993.6	2326.38
993.897	2311.01
994.193	2316.89
994.49	2325.93
994.787	2269.66
995.083	2258.81
995.379	2247.06
995.676	2238.25
995.972	2253.39
996.268	2240.05
996.565	2238.92
996.861	2200.73
997.157	2176.78
997.453	2176.33
997.749	2196.21
998.044	2162.32
998.34	2166.38
998.636	2151.92
998.932	2102.66
999.227	2136.1
999.523	2114.18
999.818	2100.62
1000.114	2081.41
1000.409	2099.27
1000.704	2073.96
1001	2034.64
1001.295	2038.03
1001.59	2039.38
1001.885	2023.56
1002.18	2006.39
1002.475	2013.85
1002.77	1983.79
1003.065	1940.85
1003.359	1990.57
1003.654	1977.69
1003.949	1923.23
1004.243	1913.06
1004.538	1911.25
1004.832	1926.62
1005.127	1898.59
1005.421	1880.06
1005.715	1903.57
1006.009	1878.48
1006.304	1848.65
1006.598	1866.05
1006.892	1821.31
1007.186	1828.54
1007.48	1810.69
1007.773	1829.22
1008.067	1847.3
1008.361	1777.24
1008.655	1811.36
1008.948	1791.25
1009.242	1793.29
1009.535	1754.42
1009.829	1759.16
1010.122	1733.4
1010.415	1720.52
1010.708	1726.62
1011.001	1698.37
1011.295	1702.22
1011.588	1666.74
1011.881	1655.89
1012.173	1654.53
1012.466	1660.18
1012.759	1658.83
1013.052	1644.59
1013.344	1634.42
1013.637	1606.85
1013.93	1599.62
1014.222	1595.55
1014.514	1599.17
1014.807	1589.45
1015.099	1562.11
1015.391	1574.99
1015.683	1551.26
1015.976	1560.52
1016.268	1541.99
1016.56	1518.72
1016.851	1501.77
1017.143	1486.4
1017.435	1506.51
1017.727	1504.71
1018.018	1486.63
1018.31	1439.85
1018.602	1460.87
1018.893	1466.74
1019.185	1433.75
1019.476	1409.57
1019.767	1434.88
1020.058	1408.66
1020.35	1414.77
1020.641	1401.43
1020.932	1393.75
1021.223	1366.4
1021.514	1361.66
1021.804	1362.79
1022.095	1337.03
1022.386	1350.13
1022.677	1321.89
1022.967	1301.1
1023.258	1304.26
1023.548	1315.56
1023.839	1284.37
1024.129	1311.72
1024.419	1298.16
1024.709	1276.01
1025	1264.03
1025.29	1247.31
1025.58	1243.92
1025.87	1242.11
1026.16	1219.52
1026.449	1230.36
1026.739	1232.62
1027.029	1216.13
1027.319	1211.15
1027.608	1191.72
1027.898	1210.25
1028.187	1184.71
1028.477	1176.81
1028.766	1164.83
1029.055	1153.08
1029.344	1142.68
1029.634	1142.23
1029.923	1126.64
1030.212	1106.75
1030.501	1127.31
1030.79	1122.8
1031.078	1123.25
1031.367	1116.02
1031.656	1106.52
1031.945	1096.36
1032.233	1079.41
1032.522	1076.24
1032.81	1059.75
1033.099	1079.63
1033.387	1073.98
1033.675	1054.1
1033.963	1045.96
1034.251	1047.09
1034.54	1040.09
1034.828	996.92
1035.116	988.56
1035.403	1016.81
1035.691	1005.28
1035.979	996.47
1036.267	986.3
1036.554	978.62
1036.842	969.81
1037.129	976.36
1037.417	971.39
1037.704	967.55
1037.992	957.15
1038.279	946.98
1038.566	927.77
1038.853	927.77
1039.14	927.77
