Data from hue_340_FLMS001491_30.txt Node
Date: Mon Feb 06 15:42:42 GMT 2017
User: dcchb
Spectrometer: FLMS00149
Trigger mode: 0
Integration Time (sec): 2.000000E-2
Scans to average: 10
Electric dark correction enabled: true
Nonlinearity correction enabled: false
Boxcar width: 0
XAxis mode: Wavelengths
Number of Pixels in Spectrum: 2048
>>>>>Begin Spectral Data<<<<<
341.393	-15.66
341.776	-15.66
342.16	-15.66
342.543	-53.63
342.927	-74.64
343.31	-79.62
343.693	-75.32
344.077	-57.24
344.46	-55.44
344.843	-68.77
345.226	-36.68
345.61	-47.3
345.993	-10.47
346.376	-19.28
346.759	14.62
347.142	7.61
347.525	55.52
347.908	68.85
348.291	72.92
348.674	110.43
349.057	120.15
349.44	123.99
349.823	138.68
350.206	154.95
350.588	189.53
350.971	201.73
351.354	226.82
351.737	225.01
352.119	241.05
352.502	281.5
352.884	295.97
353.267	280.15
353.65	277.89
354.032	290.32
354.414	310.2
354.797	305.91
355.179	323.76
355.562	309.75
355.944	342.97
356.326	329.19
356.709	330.77
357.091	322.18
357.473	327.15
357.855	337.32
358.238	342.52
358.62	342.29
359.002	326.02
359.384	333.03
359.766	357.66
360.148	323.08
360.53	323.31
360.912	328.28
361.294	328.73
361.676	321.28
362.057	332.35
362.439	335.29
362.821	317.66
363.203	321.05
363.584	303.88
363.966	319.24
364.348	330.54
364.729	321.05
365.111	316.76
365.493	314.27
365.874	314.05
366.256	328.96
366.637	309.3
367.019	315.85
367.4	303.88
367.781	310.2
368.163	307.94
368.544	313.14
368.925	327.6
369.306	317.89
369.688	308.62
370.069	315.4
370.45	301.62
370.831	304.55
371.212	293.93
371.593	287.15
371.974	317.66
372.355	327.15
372.736	302.97
373.117	307.94
373.498	312.69
373.879	302.52
374.26	323.54
374.641	306.59
375.021	300.26
375.402	325.12
375.783	310.88
376.163	325.57
376.544	331.22
376.925	314.5
377.305	330.77
377.686	306.14
378.066	313.82
378.447	328.73
378.827	330.99
379.208	320.6
379.588	328.96
379.968	312.92
380.349	319.24
380.729	326.25
381.109	345.91
381.489	328.96
381.87	315.63
382.25	317.89
382.63	345.68
383.01	347.04
383.39	352.69
383.77	318.11
384.15	326.25
384.53	312.01
384.91	337.55
385.29	326.47
385.67	334.38
386.049	344.78
386.429	324.89
386.809	326.7
387.189	361.28
387.568	350.88
387.948	349.75
388.328	335.97
388.707	346.36
389.087	345.01
389.466	351.33
389.846	356.98
390.225	373.25
390.605	364.89
390.984	343.65
391.363	375.06
391.743	336.42
392.122	345.46
392.501	356.3
392.881	365.8
393.26	357.66
393.639	372.35
394.018	363.31
394.397	351.33
394.776	347.49
395.155	361.73
395.534	373.25
395.913	367.38
396.292	355.4
396.671	377.55
397.05	381.61
397.429	386.81
397.808	370.32
398.186	378.68
398.565	389.07
398.944	381.16
399.323	364.67
399.701	342.29
400.08	366.25
400.458	375.29
400.837	387.72
401.215	378.9
401.594	411.44
401.972	400.82
402.351	387.26
402.729	398.34
403.107	384.33
403.486	383.2
403.864	388.17
404.242	402.4
404.62	415.06
404.999	391.33
405.377	396.3
405.755	386.36
406.133	421.39
406.511	399.01
406.889	420.03
407.267	414.61
407.645	402.86
408.023	411.67
408.401	430.88
408.779	435.62
409.156	438.34
409.534	443.53
409.912	432.69
410.29	439.92
410.667	464.1
411.045	459.8
411.422	462.74
411.8	457.09
412.178	460.03
412.555	472.91
412.933	456.87
413.31	483.76
413.687	473.59
414.065	511.1
414.442	472.69
414.819	502.29
415.197	511.1
415.574	511.33
415.951	505.68
416.328	491.67
416.705	519.46
417.082	498.9
417.46	504.55
417.837	519.01
418.214	529.63
418.591	521.95
418.967	530.08
419.344	528.96
419.721	532.34
420.098	528.73
420.475	544.55
420.852	551.33
421.228	554.49
421.605	554.49
421.982	541.38
422.358	554.72
422.735	578.9
423.111	567.6
423.488	572.8
423.864	573.93
424.241	573.02
424.617	638.78
424.994	610.31
425.37	615.73
425.746	601.04
426.123	609.86
426.499	602.63
426.875	631.33
427.251	620.03
427.627	660.7
428.003	618.44
428.379	657.31
428.756	651.66
429.132	663.19
429.507	650.08
429.883	673.58
430.259	675.39
430.635	681.95
431.011	677.2
431.387	682.62
431.763	702.06
432.138	688.95
432.514	687.59
432.89	697.54
433.265	713.58
433.641	748.84
434.016	731.66
434.392	731.44
434.767	747.71
435.143	735.5
435.518	749.74
435.894	775.95
436.269	774.15
436.644	757.42
437.02	773.02
437.395	791.55
437.77	804.65
438.145	802.17
438.52	792.45
438.895	845.1
439.271	819.57
439.646	820.92
440.021	820.25
440.395	832.22
440.77	834.94
441.145	839.91
441.52	853.69
441.895	850.08
442.27	850.98
442.645	842.85
443.019	879.45
443.394	881.26
443.769	897.98
444.143	863.18
444.518	857.31
444.892	872.9
445.267	916.52
445.641	912
446.016	911.09
446.39	917.87
446.764	913.58
447.139	897.08
447.513	912.45
447.887	899.11
448.262	907.7
448.636	923.07
449.01	919.45
449.384	934.59
449.758	919.23
450.132	954.93
450.506	961.26
450.88	966.46
451.254	946.12
451.628	954.71
452.002	970.07
452.376	963.29
452.75	973.24
453.123	995.16
453.497	1005.33
453.871	1013.01
454.244	1020.02
454.618	1040.58
454.992	1037.64
455.365	1037.87
455.739	1042.39
456.112	1060.92
456.486	1036.29
456.859	1055.27
457.232	1079
457.606	1053.91
457.979	1089.17
458.352	1072.44
458.725	1107.92
459.099	1121.26
459.472	1135.27
459.845	1151.09
460.218	1150.86
460.591	1172.1
460.964	1162.16
461.337	1184.53
461.71	1193.34
462.083	1191.54
462.456	1210.07
462.829	1213.23
463.201	1231.99
463.574	1224.76
463.947	1243.06
464.32	1255.49
464.692	1293.91
465.065	1292.1
465.438	1258.43
465.81	1295.04
466.183	1282.38
466.555	1324.19
466.928	1317.86
467.3	1330.74
467.672	1355.15
468.045	1375.26
468.417	1382.49
468.789	1396.5
469.161	1435.82
469.534	1448.03
469.906	1457.74
470.278	1464.52
470.65	1486.44
471.022	1503.39
471.394	1529.38
471.766	1510.85
472.138	1559.89
472.51	1577.97
472.882	1587.91
473.253	1595.82
473.625	1601.24
473.997	1634.24
474.369	1655.93
474.74	1691.18
475.112	1706.55
475.484	1722.6
475.855	1741.35
476.227	1736.61
476.598	1772.54
476.97	1828.13
477.341	1845.08
477.713	1865.87
478.084	1850.73
478.455	1902.7
478.827	1925.98
479.198	1991.52
479.569	1998.97
479.94	2044.85
480.311	2048.92
480.682	2075.81
481.053	2135.47
481.424	2159.87
481.795	2160.78
482.166	2204.17
482.537	2224.73
482.908	2273.99
483.279	2247.78
483.65	2340.66
484.021	2328.23
484.391	2379.08
484.762	2412.97
485.133	2436.7
485.503	2452.07
485.874	2478.51
486.244	2516.7
486.615	2543.59
486.985	2603.93
487.356	2679.18
487.726	2694.77
488.097	2722.8
488.467	2678.05
488.837	2746.3
489.207	2792.62
489.578	2854.54
489.948	2817.71
490.318	2911.27
490.688	2893.86
491.058	2940.87
491.428	2976.12
491.798	3008.66
492.168	3054.54
492.538	3052.5
492.908	3101.99
493.278	3149.9
493.648	3190.35
494.017	3184.7
494.387	3187.42
494.757	3262.22
495.126	3255.89
495.496	3261.76
495.866	3297.02
496.235	3317.13
496.605	3330.01
496.974	3356.45
497.344	3372.04
497.713	3425.38
498.082	3462.66
498.452	3478.26
498.821	3473.06
499.19	3519.84
499.559	3544.24
499.928	3523.23
500.298	3586.28
500.667	3597.35
501.036	3588.08
501.405	3632.6
501.774	3628.99
502.143	3642.55
502.512	3693.17
502.88	3699.95
503.249	3644.58
503.618	3708.76
503.987	3733.39
504.356	3763.45
504.724	3796.21
505.093	3796.89
505.462	3822.65
505.83	3827.4
506.199	3846.83
506.567	3838.25
506.936	3871.01
507.304	3928.41
507.672	3942.2
508.041	3901.52
508.409	3940.84
508.777	4008.41
509.145	3965.93
509.514	3973.61
509.882	3993.72
510.25	4027.39
510.618	4032.14
510.986	4043.89
511.354	4061.29
511.722	4086.6
512.09	4110.78
512.458	4101.74
512.826	4056.32
513.193	4132.7
513.561	4140.61
513.929	4170.44
514.297	4227.16
514.664	4247.5
515.032	4240.27
515.4	4195.98
515.767	4274.85
516.135	4317.1
516.502	4237.11
516.869	4322.08
517.237	4338.8
517.604	4270.1
517.972	4333.37
518.339	4391
518.706	4355.07
519.073	4419.47
519.44	4370.66
519.808	4461.73
520.175	4367.5
520.542	4489.75
520.909	4447.5
521.276	4460.38
521.643	4522.97
522.009	4561.62
522.376	4560.49
522.743	4564.33
523.11	4601.39
523.477	4630.09
523.843	4680.48
524.21	4687.94
524.577	4676.64
524.943	4712.12
525.31	4725.91
525.676	4722.29
526.043	4764.78
526.409	4803.87
526.776	4849.75
527.142	4835.96
527.508	4847.49
527.874	4935.62
528.241	4937.43
528.607	4920.03
528.973	4964.32
529.339	4973.81
529.705	5027.59
530.071	5081.83
530.437	5081.38
530.803	5108.95
531.169	5133.58
531.535	5140.81
531.901	5131.32
532.267	5184.43
532.632	5169.74
532.998	5142.62
533.364	5219
533.73	5295.84
534.095	5329.05
534.461	5296.97
534.826	5304.42
535.192	5359.34
535.557	5379.67
535.923	5366.79
536.288	5395.49
536.653	5470.07
537.019	5412.67
537.384	5436.62
537.749	5492.89
538.114	5529.05
538.479	5501.93
538.845	5570.18
539.21	5568.14
539.575	5552.78
539.94	5601.14
540.305	5594.36
540.67	5641.59
541.034	5690.85
541.399	5713.23
541.764	5710.29
542.129	5725.88
542.494	5762.94
542.858	5823.28
543.223	5847.23
543.587	5882.03
543.952	5844.52
544.316	5911.41
544.681	5886.55
545.045	5956.83
545.41	5942.15
545.774	5957.29
546.138	5992.99
546.503	6051.75
546.867	5963.39
547.231	6054.46
547.595	6060.79
547.959	6077.51
548.324	6098.53
548.688	6137.62
549.052	6194.12
549.416	6147.34
549.779	6188.02
550.143	6187.34
550.507	6236.83
550.871	6255.81
551.235	6229.82
551.599	6289.03
551.962	6280.67
552.326	6341.68
552.689	6380.55
553.053	6369.93
553.417	6381.91
553.78	6461.68
554.143	6492.64
554.507	6449.93
554.87	6463.94
555.234	6531.96
555.597	6471.4
555.96	6585.52
556.323	6518.18
556.686	6579.42
557.05	6531.06
557.413	6639.53
557.776	6612.18
558.139	6652.18
558.502	6723.14
558.865	6651.73
559.228	6763.37
559.59	6716.14
559.953	6730.37
560.316	6796.59
560.679	6838.62
561.041	6861.22
561.404	6853.31
561.767	6896.02
562.129	6908.67
562.492	6931.72
562.854	6945.96
563.217	6952.29
563.579	7036.58
563.941	7058.05
564.304	7036.58
564.666	7136.24
565.028	7101.21
565.39	7045.62
565.753	7131.04
566.115	7168.33
566.477	7194.54
566.839	7268.44
567.201	7239.29
567.563	7261.66
567.925	7283.58
568.287	7311.83
568.648	7394.31
569.01	7364.71
569.372	7387.31
569.734	7404.25
570.095	7418.27
570.457	7473.63
570.819	7527.42
571.18	7526.06
571.542	7595.89
571.903	7647.86
572.265	7639.5
572.626	7708.2
572.987	7758.82
573.349	7739.16
573.71	7829.33
574.071	7762.44
574.432	7886.28
574.794	8060.96
575.155	8013.5
575.516	8013.28
575.877	8114.97
576.238	8143.9
576.599	8199.94
576.96	8248.75
577.32	8344.79
577.681	8455.53
578.042	8489.65
578.403	8596.54
578.763	8685.35
579.124	8702.98
579.485	8777.55
579.845	8928.06
580.206	9015.06
580.566	9139.12
580.927	9178.45
581.287	9326.69
581.648	9362.17
582.008	9603.52
582.368	9651.2
582.728	9799.45
583.089	9850.97
583.449	10028.37
583.809	10151.53
584.169	10378.87
584.529	10431.52
584.889	10764.17
585.249	10878.74
585.609	11029.7
585.969	11160.09
586.329	11332.74
586.688	11468.55
587.048	11707.87
587.408	11917.36
587.768	12187.41
588.127	12328.64
588.487	12477.57
588.846	12817.45
589.206	12907.16
589.565	13165.23
589.925	13428.73
590.284	13711.89
590.643	13912.78
591.003	14164.53
591.362	14428.93
591.721	14627.12
592.08	14958.86
592.44	15241.34
592.799	15473.42
593.158	15727.2
593.517	15956.12
593.876	16317.92
594.235	16470
594.593	16846.72
594.952	17115.64
595.311	17299.81
595.67	17578.22
596.029	17975.05
596.387	18302.27
596.746	18570.97
597.104	18727.35
597.463	19000.56
597.822	19299.31
598.18	19503.6
598.538	19769.13
598.897	20228.78
599.255	20299.51
599.613	20892.04
599.972	20943.11
600.33	21212.48
600.688	21442.08
601.046	21798.45
601.404	22118.67
601.762	22252.9
602.12	22647.02
602.478	22835.04
602.836	23221.69
603.194	23299.88
603.552	23587.11
603.91	23693.32
604.268	24097.6
604.625	24303.92
604.983	24656
605.341	24675.66
605.698	25032.94
606.056	25304.12
606.413	25477.68
606.771	25851
607.128	26087.61
607.485	26215.29
607.843	26382.96
608.2	26808.04
608.557	27035.38
608.914	27120.12
609.272	27318.76
609.629	27570.5
609.986	27847.33
610.343	27965.97
610.7	28406.87
611.057	28550.59
611.414	28718.95
611.771	28888.66
612.127	29053.85
612.484	29127.53
612.841	29477.35
613.198	29419.04
613.554	29689.32
613.911	29927.5
614.267	30020.83
614.624	30235.29
614.98	30394.16
615.337	30648.39
615.693	30754.15
616.05	30762.28
616.406	31164.76
616.762	31080.92
617.118	31353.91
617.475	31428.03
617.831	31585.31
618.187	31924.74
618.543	31947.56
618.899	32199.53
619.255	32204.96
619.611	32381.22
619.967	32514.33
620.323	32669.13
620.678	32694.21
621.034	32734.66
621.39	33001.77
621.746	32958.84
622.101	33351.37
622.457	33237.25
622.812	33331.03
623.168	33435.43
623.523	33562.66
623.879	33763.11
624.234	33688.54
624.589	33746.16
624.945	33887.63
625.3	34051.01
625.655	34087.39
626.01	34194.51
626.365	34279.25
626.72	34416.88
627.075	34303.89
627.43	34207.39
627.785	34356.99
628.14	34467.05
628.495	34540.94
628.85	34671.56
629.205	34518.57
629.559	34662.52
629.914	34659.81
630.269	34734.16
630.623	34649.41
630.978	34764.89
631.332	34848.96
631.687	35024.32
632.041	34783.87
632.396	34873.81
632.75	34905.68
633.104	34989.07
633.459	34877.43
633.813	34907.26
634.167	34911.78
634.521	35031.1
634.875	34932.12
635.229	35096.18
635.583	34892.12
635.937	34975.05
636.291	34995.39
636.645	35025.22
636.999	34973.25
637.352	35023.87
637.706	34801.95
638.06	35109.74
638.413	34937.09
638.767	34944.55
639.121	34946.13
639.474	34702.75
639.828	34917.66
640.181	35013.92
640.534	34933.7
640.888	34843.08
641.241	34791.1
641.594	34912.46
641.947	35006.24
642.301	34829.97
642.654	34866.13
643.007	34960.14
643.36	34858.22
643.713	34731.45
644.066	34898.22
644.419	34732.12
644.771	34458.91
645.124	34301.63
645.477	34199.48
645.83	34052.14
646.182	33856.44
646.535	33707.97
646.888	33929.21
647.24	33701.19
647.593	34009.88
647.945	33832.49
648.298	33722.66
648.65	33630.46
649.002	33621.42
649.355	33899.38
649.707	33576.67
650.059	33794.97
650.411	34249.42
650.763	34283.55
651.115	34569.87
651.467	34555.18
651.819	34458.01
652.171	34369.42
652.523	34341.4
652.875	34420.95
653.227	34257.56
653.578	34547.95
653.93	34380.72
654.282	34333.94
654.633	34136.66
654.985	34287.39
655.337	34326.94
655.688	34346.37
656.039	34405.35
656.391	34078.58
656.742	34288.07
657.094	34246.03
657.445	34194.06
657.796	34217.56
658.147	34253.04
658.498	34186.38
658.849	34366.94
659.2	34197
659.551	34090.56
659.902	34129.2
660.253	34117.22
660.604	34276.32
660.955	34131.01
661.306	34173.27
661.656	34151.12
662.007	34077
662.358	34041.29
662.708	34055.08
663.059	34070.45
663.409	33982.09
663.76	34162.87
664.11	34169.88
664.461	34198.13
664.811	34177.56
665.161	34232.7
665.511	34025.02
665.862	33996.78
666.212	34248.75
666.562	34171.69
666.912	34130.33
667.262	33949.09
667.612	34046.72
667.962	34161.29
668.312	34055.31
668.662	34199.03
669.011	34057.11
669.361	33987.51
669.711	34068.64
670.06	33969.88
670.41	33900.96
670.76	33956.1
671.109	34109.99
671.459	33958.81
671.808	33902.99
672.157	33997.91
672.507	33749.55
672.856	33761.08
673.205	33890.34
673.554	33987.06
673.904	33862.54
674.253	33917.68
674.602	33809.21
674.951	33267.53
675.3	33220.75
675.649	33906.38
675.998	33683.34
676.346	33705.48
676.695	33818.25
677.044	33518.37
677.393	33682.66
677.741	33751.13
678.09	33586.84
678.438	33606.05
678.787	33595.2
679.135	33631.36
679.484	33484.25
679.832	33566.28
680.181	33305.95
680.529	33464.13
680.877	33380.07
681.225	33341.43
681.573	33533.06
681.922	33222.56
682.27	33232.95
682.618	33137.14
682.966	33067.76
683.314	33172.16
683.661	33072.73
684.009	32945.05
684.357	32858.95
684.705	32803.36
685.053	32843.36
685.4	32852.4
685.748	32760.2
686.095	32749.8
686.443	32502.35
686.79	32433.43
687.138	32565.85
687.485	32599.52
687.832	32451.28
688.18	32498.96
688.527	32264.17
688.874	32361.56
689.221	32211.51
689.568	32118.41
689.915	32020.1
690.262	32081.12
690.609	32086.77
690.956	31877.96
691.303	31778.98
691.65	31692.66
691.997	31625.54
692.344	31567.23
692.69	31461.93
693.037	31542.15
693.383	31308.94
693.73	31356.62
694.077	31272.78
694.423	31211.54
694.769	31061.49
695.116	31005.44
695.462	30918.89
695.808	30814.26
696.155	30948.04
696.501	30753.02
696.847	30706.69
697.193	30564.55
697.539	30617.43
697.885	30358
698.231	30245.69
698.577	30199.36
698.923	30257.21
699.269	30068.52
699.614	29936.32
699.96	30025.35
700.306	29993.27
700.651	29802.54
700.997	29567.51
701.342	29598.02
701.688	29645.93
702.033	29535.42
702.379	29376.11
702.724	29489.32
703.069	29488.87
703.415	29184.02
703.76	29206.17
704.105	29213.4
704.45	29146.51
704.795	28885.95
705.14	28877.14
705.485	28823.13
705.83	28650.02
706.175	28719.4
706.52	28693.19
706.865	28626.75
707.209	28564.83
707.554	28515.11
707.899	28477.37
708.243	28316.25
708.588	28253.42
708.932	28143.82
709.277	28128.46
709.621	28175.23
709.966	27960.1
710.31	27959.87
710.654	27755.36
710.998	27704.74
711.342	27834.68
711.687	27703.16
712.031	27581.8
712.375	27451.86
712.719	27484.63
713.063	27491.64
713.407	27654.12
713.75	27367.12
714.094	27327.57
714.438	27321.7
714.782	27284.86
715.125	27179.1
715.469	27262.49
715.812	27010.52
716.156	26949.5
716.499	27035.83
716.843	26904.53
717.186	26847.36
717.53	26928.49
717.873	26827.02
718.216	26843.74
718.559	26677.42
718.902	26490.31
719.246	26754.48
719.589	26489.4
719.932	26419.8
720.275	26420.48
720.617	26433.58
720.96	26372.12
721.303	26340.71
721.646	26419.8
721.989	26195.85
722.331	26249.41
722.674	26105.46
723.016	26266.58
723.359	25985.46
723.701	26060.94
724.044	25953.15
724.386	25724.9
724.729	25978.68
725.071	25913.82
725.413	25913.82
725.755	25820.95
726.097	25643.1
726.439	25571.01
726.782	25502.99
727.124	25643.32
727.465	25550.67
727.807	25444.91
728.149	25478.58
728.491	25416.21
728.833	25532.37
729.175	25414.4
729.516	25217.57
729.858	25315.65
730.199	25341.64
730.541	25146.39
730.882	25135.77
731.224	25376.89
731.565	25070.91
731.906	24976.45
732.248	25092.38
732.589	24987.07
732.93	24942.32
733.271	24919.73
733.612	25007.41
733.953	24906.85
734.294	24877.92
734.635	24771.26
734.976	24734.87
735.317	24812.38
735.658	24728.77
735.999	24691.26
736.339	24607.19
736.68	24583.46
737.021	24644.25
737.361	24479.74
737.702	24624.14
738.042	24412.85
738.383	24452.39
738.723	24539.62
739.063	24310.48
739.404	24408.33
739.744	24289.46
740.084	24257.37
740.424	24205.39
740.764	24225.96
741.104	24266.18
741.444	24058.51
741.784	24035.46
742.124	24101.89
742.464	24030.94
742.804	23914.1
743.143	23833.2
743.483	23878.62
743.823	23757.27
744.162	23727.67
744.502	23884.27
744.841	23699.42
745.181	23821
745.52	23726.99
745.86	23758.85
746.199	23660.1
746.538	23606.09
746.877	23689.7
747.216	23728.12
747.556	23564.06
747.895	23593.21
748.234	23559.08
748.573	23507.56
748.911	23483.38
749.25	23386.89
749.589	23312.31
749.928	23229.38
750.267	23244.52
750.605	23213.33
750.944	23110.51
751.283	23149.83
751.621	23046.1
751.96	23044.3
752.298	22998.42
752.636	22979.21
752.975	22888.14
753.313	22782.16
753.651	22941.93
753.989	22835.04
754.327	22711.42
754.666	22615.83
755.004	22586.23
755.342	22696.28
755.679	22538.32
756.017	22535.61
756.355	22499.45
756.693	22478.66
757.031	22417.19
757.368	22369.28
757.706	22320.02
758.044	22241.83
758.381	22241.38
758.719	22180.14
759.056	22125.22
759.394	22099.24
759.731	21936.75
760.068	21903.31
760.405	21834.84
760.743	21718.68
761.08	21865.57
761.417	21663.09
761.754	21646.82
762.091	21499.48
762.428	21518.01
762.765	21485.01
763.102	21550.1
763.438	21424.22
763.775	21268.97
764.112	21226.72
764.449	21304.91
764.785	21106.49
765.122	20944.24
765.458	20882.32
765.795	20942.43
766.131	20782.21
766.467	20790.12
766.804	20680.06
767.14	20628.54
767.476	20642.32
767.812	20480.52
768.148	20563.46
768.485	20405.27
768.821	20278.04
769.157	20278.49
769.492	20148.33
769.828	20151.04
770.164	20092.28
770.5	19986.52
770.836	19878.73
771.171	19902.46
771.507	19781.56
771.842	19624.05
772.178	19716.47
772.513	19556.25
772.849	19456.37
773.184	19386.76
773.519	19423.6
773.855	19294.11
774.19	19280.33
774.525	19233.1
774.86	19179.76
775.195	19170.5
775.53	19047.79
775.865	18910.62
776.2	18942.03
776.535	18751.07
776.87	18691.42
777.205	18718.31
777.539	18505.88
777.874	18610.74
778.209	18461.36
778.543	18444.87
778.878	18298.21
779.212	18263.4
779.547	18137.76
779.881	18146.8
780.215	18067.93
780.55	18099.34
780.884	17961.94
781.218	17872.68
781.552	17921.72
781.886	17730.08
782.22	17719.46
782.554	17666.13
782.888	17504.78
783.222	17448.96
783.556	17368.51
783.889	17320.6
784.223	17218.23
784.557	17183.88
784.89	17293.03
785.224	17131.23
785.557	17078.8
785.891	16990.44
786.224	16936.89
786.558	17007.17
786.891	16834.74
787.224	16741.86
787.557	16605.59
787.891	16683.11
788.224	16552.49
788.557	16549.78
788.89	16410.57
789.223	16508.65
789.556	16337.35
789.888	16316.79
790.221	16269.33
790.554	16117.92
790.887	16147.3
791.219	16027.98
791.552	16050.13
791.884	15951.6
792.217	15898.04
792.549	15858.04
792.882	15794.32
793.214	15648.78
793.546	15742.11
793.879	15623.47
794.211	15560.65
794.543	15516.81
794.875	15494.21
795.207	15405.63
795.539	15429.35
795.871	15332.41
796.203	15252.64
796.535	15192.98
796.867	15239.53
797.198	15080.66
797.53	15076.6
797.862	14941.46
798.193	15084.5
798.525	14920.44
798.856	14830.5
799.188	14803.83
799.519	14857.39
799.85	14614.91
800.182	14665.08
800.513	14598.87
800.844	14512.99
801.175	14564.29
801.506	14580.56
801.837	14509.38
802.168	14353.22
802.499	14341.02
802.83	14291.98
803.161	14293.11
803.491	14269.84
803.822	14208.6
804.153	14155.94
804.483	14105.32
804.814	14025.78
805.145	14070.07
805.475	14028.04
805.805	13962.5
806.136	13947.13
806.466	13965.89
806.796	13854.03
807.126	13819.9
807.457	13727.7
807.787	13778.78
808.117	13758.21
808.447	13604.32
808.777	13599.12
809.107	13639.12
809.436	13599.8
809.766	13539.23
810.096	13424.89
810.426	13454.26
810.755	13395.74
811.085	13362.29
811.414	13382.18
811.744	13204.33
812.073	13212.24
812.403	13272.57
812.732	13102.18
813.061	13207.94
813.39	13069.19
813.719	13054.95
814.049	13083.65
814.378	13001.17
814.707	12981.06
815.036	12941.06
815.365	12879.59
815.693	12797.11
816.022	12850.66
816.351	12738.58
816.68	12771.8
817.008	12767.96
817.337	12612.25
817.665	12595.08
817.994	12647.73
818.322	12606.15
818.651	12608.86
818.979	12516.21
819.307	12530
819.636	12484.57
819.964	12365.03
820.292	12493.16
820.62	12441.86
820.948	12360.28
821.276	12440.96
821.604	12365.71
821.932	12386.95
822.259	12424.01
822.587	12360.96
822.915	12384.46
823.243	12379.04
823.57	12384.91
823.898	12352.82
824.225	12352.82
824.553	12317.8
824.88	12306.27
825.207	12324.35
825.535	12303.79
825.862	12322.77
826.189	12288.19
826.516	12345.82
826.843	12359.6
827.17	12306.95
827.497	12318.7
827.824	12347.18
828.151	12359.83
828.478	12287.97
828.805	12341.75
829.131	12263.34
829.458	12231.92
829.785	12245.48
830.111	12289.78
830.438	12280.74
830.764	12278.7
831.09	12299.94
831.417	12172.04
831.743	12240.96
832.069	12275.54
832.395	12174.75
832.722	12210
833.048	12142.43
833.374	12220.4
833.7	12153.06
834.026	12157.35
834.351	12150.12
834.677	12187.41
835.003	12137.01
835.329	12159.38
835.654	12176.56
835.98	12013.85
836.306	12058.82
836.631	12005.26
836.956	12126.39
837.282	12052.49
837.607	11990.35
837.932	11911.48
838.258	12000.97
838.583	12023.57
838.908	11946.28
839.233	11904.93
839.558	11856.57
839.883	11864.02
840.208	11834.65
840.533	11791.48
840.858	11791.48
841.182	11796.46
841.507	11751.48
841.832	11719.62
842.156	11683.46
842.481	11642.11
842.805	11603.92
843.13	11606.4
843.454	11598.27
843.778	11601.21
844.103	11514.43
844.427	11537.93
844.751	11486.41
845.075	11432.4
845.399	11419.52
845.723	11368.67
846.047	11406.86
846.371	11271.05
846.695	11356.92
847.019	11266.3
847.343	11174.32
847.666	11091.39
847.99	11018.85
848.313	11104.72
848.637	11013.88
848.96	10937.27
849.284	10989.7
849.607	10870.38
849.931	10826.99
850.254	10711.51
850.577	10728.46
850.9	10655.24
851.223	10612.98
851.546	10583.61
851.869	10530.05
852.192	10556.04
852.515	10466.32
852.838	10377.06
853.161	10426.77
853.483	10365.31
853.806	10304.97
854.129	10314.91
854.451	10279.21
854.774	10165.09
855.096	10190.4
855.419	10172.54
855.741	10051.64
856.063	10053.9
856.385	10075.14
856.708	10002.83
857.03	9988.14
857.352	9991.53
857.674	9912.66
857.996	9947.01
858.318	9837.64
858.64	9849.61
858.961	9822.72
859.283	9788.37
859.605	9768.26
859.926	9820.24
860.248	9689.84
860.57	9693.69
860.891	9703.63
861.212	9658.43
861.534	9598.77
861.855	9531.43
862.176	9616.4
862.498	9592.22
862.819	9528.49
863.14	9585.89
863.461	9468.61
863.782	9436.74
864.103	9455.05
864.424	9473.35
864.745	9427.93
865.065	9436.74
865.386	9380.93
865.707	9369.63
866.027	9409.17
866.348	9271.78
866.668	9316.97
866.989	9291.89
867.309	9247.82
867.63	9290.76
867.95	9269.52
868.27	9248.05
868.59	9176.86
868.91	9175.06
869.23	9173.25
869.55	9187.94
869.87	9228.61
870.19	9192.91
870.51	9144.55
870.83	9211.21
871.15	9118.79
871.469	9150.42
871.789	9121.95
872.109	9089.41
872.428	9041.05
872.748	9133.02
873.067	9034.95
873.386	9017.55
873.706	8978.22
874.025	8970.09
874.344	8950.88
874.663	9002.4
874.982	8876.08
875.301	8904.55
875.62	9005.57
875.939	8911.56
876.258	8838.12
876.577	8833.14
876.896	8847.61
877.214	8843.99
877.533	8844.22
877.852	8794.73
878.17	8843.76
878.489	8785.01
878.807	8827.27
879.125	8796.31
879.444	8709.53
879.762	8766.25
880.08	8716.54
880.398	8698.68
880.716	8748.17
881.034	8606.71
881.352	8604.9
881.67	8673.15
881.988	8646.26
882.306	8608.52
882.624	8518.8
882.941	8559.25
883.259	8522.42
883.577	8528.52
883.894	8520.38
884.212	8418.47
884.529	8446.26
884.846	8439.26
885.164	8437.22
885.481	8297.79
885.798	8362.87
886.115	8357
886.432	8345.7
886.75	8314.06
887.067	8314.74
887.383	8288.3
887.7	8201.97
888.017	8231.8
888.334	8192.26
888.651	8180.28
888.967	8133.05
889.284	8111.58
889.6	8139.83
889.917	8104.58
890.233	8026.84
890.55	8126.72
890.866	8025.71
891.182	8006.72
891.498	7985.93
891.815	7931.47
892.131	7922.43
892.447	7930.57
892.763	7886.5
893.079	7842.44
893.395	7821.87
893.71	7848.54
894.026	7745.26
894.342	7770.35
894.657	7703.91
894.973	7679.28
895.289	7717.69
895.604	7685.83
895.92	7641.31
896.235	7618.26
896.55	7601.54
896.865	7542.1
897.181	7550.92
897.496	7605.83
897.811	7472.73
898.126	7456.91
898.441	7401.32
898.756	7460.52
899.071	7376.91
899.386	7374.2
899.7	7321.77
900.015	7322.9
900.33	7217.82
900.644	7263.24
900.959	7280.87
901.273	7173.75
901.588	7197.25
901.902	7135.33
902.216	7119.29
902.531	7107.77
902.845	7096.01
903.159	7067.99
903.473	7010.37
903.787	7015.34
904.101	6980.76
904.415	6892.86
904.729	6966.07
905.042	6845.17
905.356	6821.44
905.67	6887.21
905.984	6897.6
906.297	6817.15
906.611	6752.97
906.924	6770.37
907.237	6776.93
907.551	6739.64
907.864	6641.34
908.177	6658.74
908.491	6710.49
908.804	6566.76
909.117	6520.44
909.43	6513.43
909.743	6474.56
910.056	6538.06
910.368	6441.79
910.681	6477.05
910.994	6383.72
911.307	6381.46
911.619	6347.11
911.932	6361.57
912.244	6293.78
912.557	6287.22
912.869	6185.76
913.181	6220.78
913.494	6207.9
913.806	6203.16
914.118	6202.03
914.43	6175.13
914.742	6116.83
915.054	6090.16
915.366	6052.65
915.678	6041.13
915.99	5970.17
916.302	6007.68
916.613	5975.59
916.925	5984.63
917.236	5950.06
917.548	5842.04
917.859	5892.66
918.171	5845.2
918.482	5837.97
918.794	5785.77
919.105	5813.79
919.416	5721.36
919.727	5667.35
920.038	5734.02
920.349	5712.32
920.66	5663.51
920.971	5629.16
921.282	5616.5
921.593	5636.17
921.903	5558.2
922.214	5522.72
922.525	5498.54
922.835	5460.12
923.146	5481.37
923.456	5435.04
923.767	5441.82
924.077	5414.02
924.387	5404.53
924.697	5336.29
925.008	5299.45
925.318	5370.86
925.628	5328.15
925.938	5284.76
926.248	5214.48
926.558	5214.03
926.867	5196.63
927.177	5178.78
927.487	5167.7
927.796	5129.51
928.106	5120.92
928.416	5059.68
928.725	5121.83
929.034	5084.54
929.344	5028.95
929.653	5024.2
929.962	4965.67
930.271	4973.81
930.581	4986.46
930.89	4936.52
931.199	4879.8
931.508	4903.76
931.817	4849.52
932.125	4850.42
932.434	4857.88
932.743	4765.91
933.051	4778.33
933.36	4759.13
933.669	4724.1
933.977	4734.04
934.286	4712.57
934.594	4689.98
934.902	4634.61
935.21	4616.08
935.519	4625.57
935.827	4628.96
936.135	4604.33
936.443	4529.75
936.751	4552.8
937.059	4526.14
937.367	4462.64
937.674	4462.18
937.982	4460.15
938.29	4471.45
938.597	4453.15
938.905	4425.35
939.213	4404.79
939.52	4373.37
939.827	4398.46
940.135	4329.31
940.442	4315.75
940.749	4253.15
941.056	4241.85
941.363	4247.95
941.67	4291.12
941.977	4264.68
942.284	4188.75
942.591	4181.97
942.898	4156.88
943.205	4194.4
943.511	4138.58
943.818	4134.74
944.125	4085.7
944.431	4044.12
944.738	4088.64
945.044	4096.54
945.35	4033.04
945.657	3998.24
945.963	3974.51
946.269	3959.6
946.575	3969.09
946.881	3947.17
947.187	3927.96
947.493	3950.56
947.799	3941.52
948.105	3882.09
948.41	3872.14
948.716	3873.27
949.022	3821.07
949.327	3841.64
949.633	3802.32
949.938	3796.44
950.244	3784.46
950.549	3709.89
950.854	3715.99
951.16	3708.98
951.465	3702.66
951.77	3721.19
952.075	3689.32
952.38	3638.03
952.685	3651.58
952.99	3612.94
953.294	3601.64
953.599	3603
953.904	3551.25
954.209	3592.83
954.513	3537.01
954.818	3587.63
955.122	3543.79
955.426	3529.55
955.731	3498.37
956.035	3460.63
956.339	3456.79
956.643	3465.6
956.948	3435.77
957.252	3441.19
957.556	3427.41
957.86	3411.59
958.163	3374.53
958.467	3362.55
958.771	3364.36
959.075	3321.2
959.378	3329.33
959.682	3319.39
959.985	3263.57
960.289	3333.18
960.592	3275.32
960.896	3256.79
961.199	3281.43
961.502	3183.57
961.805	3217.92
962.108	3204.36
962.411	3170.47
962.714	3153.52
963.017	3150.36
963.32	3145.16
963.623	3105.16
963.926	3109.45
964.228	3069.68
964.531	3087.76
964.833	3062.9
965.136	3054.76
965.438	3060.64
965.741	3052.73
966.043	2989.68
966.345	3017.25
966.648	3010.92
966.95	2973.41
967.252	2961.21
967.554	2959.63
967.856	2942.68
968.158	2909.91
968.46	2894.54
968.761	2886.18
969.063	2899.06
969.365	2856.35
969.666	2901.55
969.968	2858.84
970.269	2845.73
970.571	2849.12
970.872	2764.83
971.174	2801.21
971.475	2789.69
971.776	2769.8
972.077	2735.45
972.378	2751.04
972.679	2730.93
972.98	2706.07
973.281	2767.77
973.582	2719.18
973.883	2724.6
974.183	2698.16
974.484	2718.28
974.785	2641.22
975.085	2637.83
975.386	2646.41
975.686	2636.47
975.986	2631.27
976.287	2607.09
976.587	2612.52
976.887	2578.39
977.187	2611.61
977.487	2551.95
977.787	2578.84
978.087	2539.98
978.387	2547.88
978.687	2506.98
978.987	2524.16
979.286	2524.38
979.586	2489.58
979.885	2497.72
980.185	2466.53
980.484	2478.28
980.784	2465.18
981.083	2424.95
981.382	2398.06
981.682	2420.2
981.981	2404.16
982.28	2426.08
982.579	2352.41
982.878	2383.37
983.177	2359.42
983.475	2340.43
983.774	2344.95
984.073	2340.88
984.372	2320.09
984.67	2323.48
984.969	2294.78
985.267	2316.03
985.566	2271.28
985.864	2262.24
986.162	2274.67
986.461	2246.2
986.759	2262.69
987.057	2227.89
987.355	2205.75
987.653	2226.09
987.951	2224.96
988.249	2190.15
988.547	2209.81
988.844	2185.41
989.142	2161
989.44	2148.35
989.737	2167.1
990.035	2153.55
990.332	2124.39
990.63	2104.96
990.927	2113.09
991.224	2124.17
991.521	2088.24
991.819	2057.95
992.116	2085.3
992.413	2070.61
992.71	2059.54
993.006	2047.33
993.303	2035.36
993.6	2028.35
993.897	2013.89
994.193	1997.39
994.49	2030.16
994.787	1994.45
995.083	1997.84
995.379	1949.26
995.676	1957.84
995.972	1928.24
996.268	1909.94
996.565	1926.21
996.861	1923.27
997.157	1904.06
997.453	1913.55
997.749	1891.41
998.044	1890.28
998.34	1892.99
998.636	1864.97
998.932	1867.22
999.227	1838.98
999.523	1858.64
999.818	1816.6
1000.114	1853.67
1000.409	1818.41
1000.704	1785.87
1001	1812.09
1001.295	1767.79
1001.59	1796.27
1001.885	1780.45
1002.18	1795.81
1002.475	1749.26
1002.77	1743.84
1003.065	1731.64
1003.359	1773.22
1003.654	1724.4
1003.949	1683.73
1004.243	1693.44
1004.538	1674.91
1004.832	1677.63
1005.127	1673.56
1005.421	1655.71
1005.715	1634.69
1006.009	1626.33
1006.304	1639.89
1006.598	1630.17
1006.892	1607.34
1007.186	1589.72
1007.48	1604.18
1007.773	1574.35
1008.067	1582.03
1008.361	1564.41
1008.655	1554.01
1008.948	1548.59
1009.242	1560.34
1009.535	1545.43
1009.829	1530.51
1010.122	1527.35
1010.415	1488.03
1010.708	1497.74
1011.001	1482.83
1011.295	1512.21
1011.588	1466.33
1011.881	1457.07
1012.173	1477.18
1012.466	1459.33
1012.759	1456.39
1013.052	1456.39
1013.344	1419.33
1013.637	1422.94
1013.93	1430.4
1014.222	1410.29
1014.514	1427.01
1014.807	1380.46
1015.099	1379.1
1015.391	1344.75
1015.683	1369.61
1015.976	1372.32
1016.268	1352.89
1016.56	1351.98
1016.851	1324.41
1017.143	1346.33
1017.435	1334.13
1017.727	1313.79
1018.018	1313.79
1018.31	1302.72
1018.602	1285.77
1018.893	1255.04
1019.185	1288.48
1019.476	1299.56
1019.767	1266.79
1020.058	1246.22
1020.35	1234.7
1020.641	1231.31
1020.932	1232.21
1021.223	1216.62
1021.514	1234.02
1021.804	1199.67
1022.095	1202.38
1022.386	1181.59
1022.677	1187.92
1022.967	1208.71
1023.258	1182.5
1023.548	1145.21
1023.839	1170.97
1024.129	1141.59
1024.419	1119.22
1024.709	1123.06
1025	1127.81
1025.29	1104.76
1025.58	1137.07
1025.87	1091.43
1026.16	1103.86
1026.449	1067.47
1026.739	1080.58
1027.029	1070.18
1027.319	1075.83
1027.608	1081.71
1027.898	1065.89
1028.187	1062.27
1028.477	1039.9
1028.766	1047.36
1029.055	1038.77
1029.344	1046.46
1029.634	1020.24
1029.923	1010.07
1030.212	999.68
1030.501	1000.58
1030.79	988.38
1031.078	999
1031.367	977.98
1031.656	951.99
1031.945	980.02
1032.233	977.98
1032.522	966.46
1032.81	961.94
1033.099	951.99
1033.387	950.86
1033.675	967.14
1033.963	945.89
1034.251	909.28
1034.54	899.11
1034.828	906.57
1035.116	904.54
1035.403	916.29
1035.691	898.44
1035.979	918.55
1036.267	893.47
1036.554	879
1036.842	883.07
1037.129	878.78
1037.417	860.92
1037.704	870.64
1037.992	843.3
1038.279	848.95
1038.566	864.31
1038.853	864.31
1039.14	864.31
