Data from hue_22_FLMS001491_00034.txt Node
Date: Tue Feb 07 17:10:01 GMT 2017
User: dcchb
Spectrometer: FLMS00149
Trigger mode: 0
Integration Time (sec): 2.000000E-2
Scans to average: 10
Electric dark correction enabled: true
Nonlinearity correction enabled: false
Boxcar width: 0
XAxis mode: Wavelengths
Number of Pixels in Spectrum: 2048
>>>>>Begin Spectral Data<<<<<
341.393	-8.14
341.776	-8.14
342.16	-8.14
342.543	-69.38
342.927	-57.17
343.31	-68.02
343.693	-75.93
344.077	-81.58
344.46	-55.14
344.843	-61.92
345.226	-48.81
345.61	-37.74
345.993	-16.95
346.376	8.36
346.759	5.65
347.142	24.86
347.525	49.26
347.908	56.27
348.291	84.52
348.674	104.18
349.057	112.99
349.44	125.42
349.823	141.92
350.206	160
350.588	187.79
350.971	209.49
351.354	211.07
351.737	227.79
352.119	261.01
352.502	251.74
352.884	290.39
353.267	280.67
353.65	275.02
354.032	287.22
354.414	316.15
354.797	314.34
355.179	315.92
355.562	312.53
355.944	338.75
356.326	312.76
356.709	348.92
357.091	338.75
357.473	329.71
357.855	353.66
358.238	331.52
358.62	375.58
359.002	344.4
359.384	330.61
359.766	343.49
360.148	336.49
360.53	319.99
360.912	340.78
361.294	335.58
361.676	354.11
362.057	337.84
362.439	344.85
362.821	321.57
363.203	330.39
363.584	320.22
363.966	322.7
364.348	317.28
364.729	321.35
365.111	352.76
365.493	330.39
365.874	305.3
366.256	320.67
366.637	301.01
367.019	307.56
367.4	309.82
367.781	318.18
368.163	312.31
368.544	306.21
368.925	316.15
369.306	317.28
369.688	320.44
370.069	315.25
370.45	318.41
370.831	332.42
371.212	309.14
371.593	309.82
371.974	292.2
372.355	320.22
372.736	333.55
373.117	330.61
373.498	333.32
373.879	323.61
374.26	347.79
374.641	330.39
375.021	325.87
375.402	314.12
375.783	334.45
376.163	326.32
376.544	330.16
376.925	324.96
377.305	322.03
377.686	332.19
378.066	333.32
378.447	350.27
378.827	340.56
379.208	325.64
379.588	319.77
379.968	325.42
380.349	339.88
380.729	336.04
381.109	348.24
381.489	338.07
381.87	354.34
382.25	328.13
382.63	338.52
383.01	346.88
383.39	357.05
383.77	331.06
384.15	352.08
384.53	353.44
384.91	357.28
385.29	359.31
385.67	345.53
386.049	346.88
386.429	359.99
386.809	348.69
387.189	345.98
387.568	353.89
387.948	355.47
388.328	382.59
388.707	357.73
389.087	369.71
389.466	385.75
389.846	357.96
390.225	350.5
390.605	376.71
390.984	363.83
391.363	359.09
391.743	371.52
392.122	379.43
392.501	390.72
392.881	384.62
393.26	373.32
393.639	376.94
394.018	384.85
394.397	367.9
394.776	380.78
395.155	388.24
395.534	384.62
395.913	387.56
396.292	382.81
396.671	394.11
397.05	380.33
397.429	397.05
397.808	405.41
398.186	397.05
398.565	402.02
398.944	399.54
399.323	396.37
399.701	415.36
400.08	395.7
400.458	402.02
400.837	415.81
401.215	388.69
401.594	422.81
401.972	408.35
402.351	414.68
402.729	411.74
403.107	404.74
403.486	430.95
403.864	397.73
404.242	399.99
404.62	409.93
404.999	399.09
405.377	422.14
405.755	445.41
406.133	421.23
406.511	459.65
406.889	453.77
407.267	430.72
407.645	440.89
408.023	436.82
408.401	451.29
408.779	446.77
409.156	457.84
409.534	446.77
409.912	468.69
410.29	460.78
410.667	477.5
411.045	457.62
411.422	472.3
411.8	455.13
412.178	468.69
412.555	480.67
412.933	491.51
413.31	489.03
413.687	487.67
414.065	500.1
414.442	502.13
414.819	505.3
415.197	501
415.574	507.11
415.951	506.88
416.328	505.52
416.705	502.36
417.082	512.98
417.46	498.29
417.837	515.24
418.214	519.53
418.591	510.5
418.967	519.31
419.344	515.47
419.721	527.22
420.098	515.92
420.475	535.35
420.852	539.87
421.228	545.3
421.605	554.11
421.982	535.35
422.358	553.66
422.735	566.76
423.111	540.1
423.488	554.56
423.864	559.53
424.241	575.13
424.617	578.06
424.994	558.86
425.37	577.39
425.746	592.07
426.123	588.23
426.499	595.46
426.875	611.96
427.251	597.05
427.627	605.18
428.003	600.21
428.379	607.22
428.756	606.09
429.132	621.9
429.507	630.49
429.883	632.07
430.259	635.92
430.635	636.14
431.011	644.05
431.387	665.52
431.763	672.98
432.138	659.42
432.514	659.64
432.89	650.83
433.265	682.69
433.641	666.65
434.016	691.06
434.392	700.09
434.767	696.93
435.143	726.76
435.518	737.38
435.894	724.73
436.269	727.66
436.644	729.7
437.02	759.3
437.395	744.39
437.77	728.34
438.145	734.22
438.52	765.63
438.895	778.06
439.271	775.35
439.646	792.97
440.021	786.19
440.395	784.16
440.77	760.21
441.145	787.78
441.52	790.71
441.895	793.43
442.27	805.85
442.645	796.59
443.019	793.2
443.394	822.13
443.769	814.22
444.143	825.52
444.518	839.3
444.892	841.56
445.267	850.37
445.641	834.33
446.016	851.5
446.39	842.69
446.764	878.62
447.139	856.02
447.513	846.08
447.887	855.34
448.262	863.71
448.636	865.74
449.01	879.75
449.384	909.58
449.758	897.38
450.132	886.53
450.506	925.17
450.88	927.43
451.254	909.13
451.628	907.55
452.002	936.92
452.376	947.55
452.75	937.83
453.123	935.79
453.497	973.99
453.871	951.39
454.244	976.25
454.618	980.31
454.992	1014.21
455.365	1006.98
455.739	1025.74
456.112	1039.29
456.486	1036.81
456.859	1042.91
457.232	1073.42
457.606	1057.37
457.979	1046.3
458.352	1073.87
458.725	1109.8
459.099	1103.93
459.472	1157.94
459.845	1133.98
460.218	1132.63
460.591	1153.87
460.964	1161.1
461.337	1181.21
461.71	1180.31
462.083	1217.14
462.456	1221.89
462.829	1245.17
463.201	1246.52
463.574	1245.16
463.947	1267.99
464.32	1277.03
464.692	1298.5
465.065	1339.63
465.438	1310.02
465.81	1314.54
466.183	1337.59
466.555	1367.2
466.928	1359.06
467.3	1406.29
467.672	1399.29
468.045	1413.97
468.417	1437.02
468.789	1467.98
469.161	1482.45
469.534	1485.84
469.906	1528.32
470.278	1550.24
470.65	1544.82
471.022	1569.9
471.394	1589.56
471.766	1620.97
472.138	1622.78
472.51	1667.98
472.882	1664.14
473.253	1724.93
473.625	1738.71
473.997	1814.87
474.369	1789.56
474.74	1812.16
475.112	1852.83
475.484	1900.52
475.855	1896.45
476.227	1940.51
476.598	1975.09
476.97	1973.28
477.341	2060.28
477.713	2100.28
478.084	2083.34
478.455	2144.12
478.827	2180.96
479.198	2252.6
479.569	2240.39
479.94	2294.4
480.311	2339.37
480.682	2399.71
481.053	2466.6
481.424	2474.96
481.795	2491.46
482.166	2532.59
482.537	2573.49
482.908	2714.73
483.279	2672.47
483.65	2746.37
484.021	2779.36
484.391	2830.21
484.762	2864.56
485.133	2886.7
485.503	2985.68
485.874	3028.62
486.244	3038.34
486.615	3142.29
486.985	3149.97
487.356	3184.78
487.726	3271.33
488.097	3295.73
488.467	3341.83
488.837	3424.77
489.207	3466.58
489.578	3495.5
489.948	3509.96
490.318	3603.07
490.688	3598.1
491.058	3683.07
491.428	3717.64
491.798	3765.1
492.168	3843.06
492.538	3858.88
492.908	3916.06
493.278	3930.07
493.648	4006.67
494.017	4077.18
494.387	4086.45
494.757	4145.2
495.126	4203.96
495.496	4214.58
495.866	4235.59
496.235	4270.85
496.605	4332.77
496.974	4368.02
497.344	4380.45
497.713	4421.13
498.082	4443.95
498.452	4546.77
498.821	4525.53
499.19	4579.31
499.559	4592.2
499.928	4625.19
500.298	4676.04
500.667	4721.91
501.036	4695.92
501.405	4712.42
501.774	4718.97
502.143	4836.26
502.512	4835.58
502.88	4877.84
503.249	4897.72
503.618	4916.71
503.987	4951.73
504.356	4977.04
504.724	4970.04
505.093	4954.9
505.462	4990.38
505.83	5102.01
506.199	5105.85
506.567	5154.67
506.936	5143.37
507.304	5169.81
507.672	5219.98
508.041	5240.77
508.409	5311.95
508.777	5325.06
509.145	5350.14
509.514	5332.97
509.882	5366.41
510.25	5432.4
510.618	5441.44
510.986	5498.84
511.354	5536.58
511.722	5540.42
512.09	5583.36
512.458	5538.61
512.826	5663.58
513.193	5617.48
513.561	5637.59
513.929	5715.1
514.297	5739.06
514.664	5770.92
515.032	5755.1
515.4	5845.95
515.767	5800.3
516.135	5842.78
516.502	5859.96
516.869	5985.15
517.237	5941.09
517.604	5955.78
517.972	6027.64
518.339	6023.34
518.706	5997.58
519.073	6053.17
519.44	6068.32
519.808	6139.5
520.175	6107.41
520.542	6184.92
520.909	6218.82
521.276	6193.51
521.643	6292.72
522.009	6266.5
522.376	6311.25
522.743	6347.4
523.11	6383.79
523.477	6436.21
523.843	6512.82
524.21	6548.08
524.577	6568.41
524.943	6622.65
525.31	6676.66
525.676	6636.66
526.043	6712.59
526.409	6752.36
526.776	6861.06
527.142	6795.98
527.508	6856.99
527.874	6868.52
528.241	6932.25
528.607	6972.47
528.973	7044.56
529.339	7035.07
529.705	7061.28
530.071	7050.89
530.437	7161.17
530.803	7161.39
531.169	7264.67
531.535	7190.55
531.901	7254.95
532.267	7270.54
532.632	7350.54
532.998	7376.53
533.364	7420.6
533.73	7465.57
534.095	7484.55
534.461	7553.02
534.826	7554.83
535.192	7543.08
535.557	7600.03
535.923	7599.57
536.288	7706.24
536.653	7659.69
537.019	7716.63
537.384	7677.31
537.749	7746.01
538.114	7808.16
538.479	7784.2
538.845	7829.17
539.21	7832.11
539.575	7878.21
539.94	7942.39
540.305	8009.28
540.67	7994.82
541.034	7977.64
541.399	8072.1
541.764	8077.75
542.129	8136.28
542.494	8117.75
542.858	8134.25
543.223	8160.46
543.587	8309.84
543.952	8263.29
544.316	8277.3
544.681	8298.54
545.045	8324.3
545.41	8413.79
545.774	8412.43
546.138	8396.39
546.503	8513
546.867	8477.52
547.231	8592.32
547.595	8617.17
547.959	8618.3
548.324	8625.76
548.688	8618.53
549.052	8684.97
549.416	8696.27
549.779	8781.46
550.143	8736.04
550.507	8782.59
550.871	8847.68
551.235	8835.7
551.599	8881.12
551.962	8889.94
552.326	9005.19
552.689	8943.49
553.053	8967.45
553.417	9026.66
553.78	9130.16
554.143	9031.4
554.507	9215.8
554.87	9164.96
555.234	9263.71
555.597	9189.14
555.96	9214.45
556.323	9309.13
556.686	9323.6
557.05	9375.35
557.413	9433.88
557.776	9447.21
558.139	9457.38
558.502	9444.27
558.865	9455.34
559.228	9500.99
559.59	9605.17
559.953	9542.12
560.316	9749.35
560.679	9667.09
561.041	9685.4
561.404	9816.92
561.767	9798.16
562.129	9771.72
562.492	9898.27
562.854	9870.47
563.217	9921.55
563.579	9928.33
563.941	9975.1
564.304	10001.77
564.666	10084.48
565.028	10053.52
565.39	10137.13
565.753	10235.89
566.115	10224.14
566.477	10214.87
566.839	10248.32
567.201	10335.32
567.563	10346.39
567.925	10451.7
568.287	10424.81
568.648	10448.54
569.01	10576.45
569.372	10528.31
569.734	10567.86
570.095	10660.51
570.457	10680.85
570.819	10675.43
571.18	10663.45
571.542	10827.51
571.903	10846.49
572.265	10921.52
572.626	10915.19
572.987	11011.46
573.349	11040.84
573.71	11121.97
574.071	11137.56
574.432	11244
574.794	11343.2
575.155	11320.38
575.516	11355.63
575.877	11389.98
576.238	11559.92
576.599	11619.58
576.96	11556.76
577.32	11723.99
577.681	11768.73
578.042	11890.31
578.403	11916.3
578.763	11919.69
579.124	12159
579.485	12154.03
579.845	12300.02
580.206	12374.36
580.566	12539.78
580.927	12667.24
581.287	12753.56
581.648	12853.22
582.008	13058.64
582.368	13139.77
582.728	13248.24
583.089	13424.05
583.449	13548.57
583.809	13689.36
584.169	13963.02
584.529	13899.3
584.889	14202.56
585.249	14332.28
585.609	14477.81
585.969	14766.17
586.329	14910.12
586.688	15198.7
587.048	15314.17
587.408	15514.17
587.768	15703.77
588.127	15931.56
588.487	16192.79
588.846	16494.71
589.206	16625.1
589.565	16914.58
589.925	17219.43
590.284	17437.96
590.643	17663.26
591.003	17896.25
591.362	18270.48
591.721	18485.84
592.08	18835.89
592.44	19120.4
592.799	19435.2
593.158	19710.67
593.517	20083.99
593.876	20343.87
594.235	20512.68
594.593	20864.54
594.952	21261.59
595.311	21318.54
595.67	21743.84
596.029	22098.4
596.387	22405.96
596.746	22670.59
597.104	22956.46
597.463	23259.05
597.822	23671.47
598.18	23885.7
598.538	24178.57
598.897	24606.58
599.255	24654.27
599.613	25319.56
599.972	25503.51
600.33	25751.87
600.688	25954.35
601.046	26415.8
601.404	26875.23
601.762	27103.69
602.12	27397.47
602.478	27752.94
602.836	28107.06
603.194	28090.56
603.552	28620.04
603.91	28739.36
604.268	29115.62
604.625	29394.26
604.983	29657.75
605.341	29850.74
605.698	30179.77
606.056	30528.01
606.413	30742.02
606.771	31124.61
607.128	31348.55
607.485	31580.41
607.843	31836.23
608.2	32254.75
608.557	32482.54
608.914	32668.29
609.272	32912.81
609.629	33116.42
609.986	33462.62
610.343	33713.92
610.7	34041.14
611.057	34193.68
611.414	34454.91
611.771	34705.08
612.127	34997.05
612.484	35081.56
612.841	35359.52
613.198	35466.41
613.554	35640.19
613.911	36107.3
614.267	36248.99
614.624	36333.73
614.98	36580.51
615.337	36865.92
615.693	37046.94
616.05	37254.16
616.406	37576.41
616.762	37436.76
617.118	37702.06
617.475	37970.3
617.831	38114.93
618.187	38189.96
618.543	38390.85
618.899	38631.53
619.255	38724.63
619.611	38963.5
619.967	39227.22
620.323	39332.98
620.678	39374.33
621.034	39470.37
621.39	39516.7
621.746	39730.71
622.101	39969.8
622.457	39834.66
622.812	40138.15
623.168	40379.05
623.523	40413.85
623.879	40570.91
624.234	40466.73
624.589	40660.85
624.945	40712.6
625.3	40894.52
625.655	40866.5
626.01	41073.5
626.365	41111.91
626.72	41053.84
627.075	41140.16
627.43	41199.82
627.785	41222.87
628.14	41233.27
628.495	41535.18
628.85	41475.52
629.205	41543.99
629.559	41784.44
629.914	41520.26
630.269	41746.92
630.623	41674.16
630.978	41765.91
631.332	41850.88
631.687	42007.71
632.041	41853.81
632.396	42010.42
632.75	41993.7
633.104	42040.25
633.459	41903.98
633.813	41831.89
634.167	42019.23
634.521	42105.33
634.875	42188.95
635.229	42074.6
635.583	41928.39
635.937	42040.02
636.291	42014.26
636.645	42160.25
636.999	42089.97
637.352	42058.33
637.706	41960.93
638.06	42129.97
638.413	41901.27
638.767	42144.65
639.121	42167.93
639.474	41928.39
639.828	41945.34
640.181	42055.84
640.534	42068.05
640.888	41988.27
641.241	41864.44
641.594	42042.74
641.947	42070.53
642.301	42092.23
642.654	42003.87
643.007	42103.98
643.36	42123.41
643.713	41966.13
644.066	42136.97
644.419	41852.46
644.771	41652.01
645.124	41372.25
645.477	41248.18
645.83	41121.4
646.182	40893.61
646.535	40861.52
646.888	40945.36
647.24	40698.14
647.593	40978.36
647.945	40998.24
648.298	40622.66
648.65	40604.58
649.002	40666.28
649.355	40732.04
649.707	40710.79
650.059	40913.73
650.411	41254.51
650.763	41275.3
651.115	41733.14
651.467	41558.46
651.819	41670.77
652.171	41600.94
652.523	41494.95
652.875	41572.24
653.227	41437.55
653.578	41637.32
653.93	41533.37
654.282	41460.38
654.633	41329.76
654.985	41604.1
655.337	41334.28
655.688	41430.78
656.039	41502.19
656.391	41202.98
656.742	41249.76
657.094	41381.96
657.445	41513.48
657.796	41393.49
658.147	41453.83
658.498	41282.53
658.849	41337.22
659.2	41309.87
659.551	41291.57
659.902	41401.17
660.253	41296.77
660.604	41385.13
660.955	41136.77
661.306	41291.57
661.656	41242.76
662.007	41355.97
662.358	41265.58
662.708	41280.95
663.059	41318.24
663.409	41047.73
663.76	41325.24
664.11	41324.79
664.461	41401.62
664.811	41346.26
665.161	41255.41
665.511	41129.31
665.862	41243.66
666.212	41329.08
666.562	41220.39
666.912	41094.29
667.262	41090.45
667.612	41070.78
667.962	41226.94
668.312	41100.84
668.662	41253.15
669.011	41136.77
669.361	41106.26
669.711	41114.85
670.06	41050.9
670.41	41013.84
670.76	40972.26
671.109	41096.32
671.459	40988.75
671.808	40958.25
672.157	41090.9
672.507	40826.27
672.856	40857.46
673.205	40877.8
673.554	41108.07
673.904	40903.33
674.253	41071.69
674.602	40902.2
674.951	40473.06
675.3	40295.44
675.649	40923.9
675.998	40744.24
676.346	40755.31
676.695	40916.21
677.044	40645.26
677.393	40835.08
677.741	40755.99
678.09	40763
678.438	40660.4
678.787	40627.86
679.135	40754.41
679.484	40388.54
679.832	40638.03
680.181	40275.78
680.529	40450.46
680.877	40372.5
681.225	40253.63
681.573	40431.25
681.922	40050.47
682.27	40181.32
682.618	40219.96
682.966	40012.28
683.314	40096.12
683.661	39979.06
684.009	39822.91
684.357	39628.34
684.705	39718.28
685.053	39727.09
685.4	39692.29
685.748	39441.9
686.095	39501.56
686.443	39448.68
686.79	39389.7
687.138	39506.98
687.485	39537.27
687.832	39321
688.18	39382.02
688.527	39084.85
688.874	39000.1
689.221	38937.06
689.568	38977.28
689.915	38738.42
690.262	38811.86
690.609	38590.85
690.956	38552.43
691.303	38562.15
691.65	38398.54
691.997	38342.04
692.344	38202.84
692.69	38163.52
693.037	38237.41
693.383	37950.41
693.73	38011.66
694.077	37737.76
694.423	37846.91
694.769	37698.9
695.116	37675.85
695.462	37552.46
695.808	37449.64
696.155	37502.74
696.501	37279.47
696.847	37359.24
697.193	37130.32
697.539	37234.28
697.885	36744.34
698.231	36865.92
698.577	36773.04
698.923	36811.01
699.269	36641.97
699.614	36358.14
699.96	36323.56
700.306	36291.02
700.651	36168.31
700.997	36035.89
701.342	35970.58
701.688	36013.29
702.033	35822.33
702.379	35919.06
702.724	35709.8
703.069	35844.71
703.415	35416.24
703.76	35519.52
704.105	35396.58
704.45	35320.2
704.795	35205.4
705.14	35053.54
705.485	35106.2
705.83	34855.58
706.175	34930.38
706.52	34913.66
706.865	34721.12
707.209	34723.61
707.554	34520.45
707.899	34680.44
708.243	34479.09
708.588	34440.9
708.932	34150.06
709.277	34160.46
709.621	34165.66
709.966	33893.8
710.31	33948.26
710.654	33717.76
710.998	33767.47
711.342	33609.06
711.687	33690.19
712.031	33491.32
712.375	33545.33
712.719	33479.8
713.063	33354.38
713.407	33587.37
713.75	33382.85
714.094	33247.49
714.438	33075.06
714.782	33256.3
715.125	33099.24
715.469	33113.25
715.812	32913.03
716.156	32826.26
716.499	32823.32
716.843	32810.89
717.186	32545.58
717.53	32861.96
717.873	32643.89
718.216	32593.04
718.559	32542.2
718.902	32374.06
719.246	32336.78
719.589	32283.44
719.932	32173.17
720.275	32179.27
720.617	32100.85
720.96	32091.81
721.303	31965.49
721.646	32134.07
721.989	31818.6
722.331	31852.72
722.674	31812.5
723.016	31832.61
723.359	31682.1
723.701	31666.96
724.044	31659.51
724.386	31459.06
724.729	31513.75
725.071	31412.73
725.413	31467.42
725.755	31551.26
726.097	31203.93
726.439	31121.89
726.782	31084.83
727.124	31255.9
727.465	31105.4
727.807	30972.52
728.149	30915.35
728.491	30937.94
728.833	30902.69
729.175	30793.54
729.516	30853.65
729.858	30807.55
730.199	30817.95
730.541	30746.31
730.882	30567.11
731.224	30770.72
731.565	30513.55
731.906	30617.73
732.248	30565.52
732.589	30298.86
732.93	30347
733.271	30343.61
733.612	30429.48
733.953	30352.87
734.294	30280.79
734.635	30082.82
734.976	30166.66
735.317	29988.59
735.658	30007.57
735.999	30175.7
736.339	29995.37
736.68	30075.37
737.021	29903.17
737.361	29810.06
737.702	29887.58
738.042	29852.55
738.383	29716.73
738.723	29829.05
739.063	29644.42
739.404	29667.92
739.744	29716.73
740.084	29533.69
740.424	29596.51
740.764	29624.98
741.104	29521.94
741.444	29365.1
741.784	29351.54
742.124	29384.09
742.464	29352.9
742.804	29291.21
743.143	29169.63
743.483	29279.68
743.823	29130.53
744.162	29105.22
744.502	29168.05
744.841	28956.98
745.181	28979.8
745.52	28989.97
745.86	29008.28
746.199	28976.64
746.538	28865.91
746.877	28941.16
747.216	28815.29
747.556	28759.92
747.895	28838.11
748.234	28666.82
748.573	28575.97
748.911	28658.23
749.25	28636.54
749.589	28456.2
749.928	28485.13
750.267	28567.61
750.605	28506.14
750.944	28273.15
751.283	28314.51
751.621	28324.9
751.96	28112.26
752.298	28113.16
752.636	28202.42
752.975	28058.47
753.313	27953.39
753.651	28148.86
753.989	27896.89
754.327	27870.68
754.666	27697.35
755.004	27847.63
755.342	27865.03
755.679	27763.56
756.017	27484.02
756.355	27693.74
756.693	27493.97
757.031	27622.78
757.368	27515.66
757.706	27276.34
758.044	27182.79
758.381	27267.08
758.719	27142.34
759.056	27199.74
759.394	27138.27
759.731	26907.99
760.068	26918.61
760.405	26794.78
760.743	26783.7
761.08	26874.55
761.417	26592.52
761.754	26610.83
762.091	26590.94
762.428	26518.62
762.765	26339.42
763.102	26344.39
763.438	26299.65
763.775	26173.32
764.112	26080.9
764.449	26129.48
764.785	26004.74
765.122	25873.44
765.458	25768.14
765.795	25711.41
766.131	25719.78
766.467	25716.61
766.804	25403.63
767.14	25290.86
767.476	25404.08
767.812	25292.89
768.148	25231.88
768.485	25017.87
768.821	24956.41
769.157	25080.7
769.492	24928.84
769.828	24921.15
770.164	24760.7
770.5	24700.14
770.836	24579.47
771.171	24462.41
771.507	24398.45
771.842	24348.06
772.178	24266.48
772.513	24214.96
772.849	24054.73
773.184	24098.8
773.519	23937
773.855	23844.34
774.19	23786.49
774.525	23666.27
774.86	23645.71
775.195	23575.43
775.53	23440.51
775.865	23330.23
776.2	23171.59
776.535	23000.3
776.87	23097.25
777.205	22991.94
777.539	22858.16
777.874	22901.09
778.209	22703.58
778.543	22728.44
778.878	22570.93
779.212	22512.85
779.547	22406.87
779.881	22582.01
780.215	22246.65
780.55	22325.74
780.884	22079.87
781.218	22078.74
781.552	22098.4
781.886	21934.34
782.22	21851.85
782.554	21898.63
782.888	21448.7
783.222	21526.21
783.556	21333.9
783.889	21418.65
784.223	21266.11
784.557	21240.8
784.89	21254.81
785.224	21076.51
785.557	20985.66
785.891	20948.6
786.224	20876.97
786.558	20831.54
786.891	20708.83
787.224	20627.93
787.557	20477.65
787.891	20431.33
788.224	20447.37
788.557	20411.89
788.89	20382.74
789.223	20389.07
789.556	20121.96
789.888	20103.88
790.221	20032.69
790.554	19944.56
790.887	19900.27
791.219	19922.41
791.552	19720.84
791.884	19703.89
792.217	19602.87
792.549	19542.31
792.882	19476.32
793.214	19318.14
793.546	19439.71
793.879	19275.43
794.211	19052.83
794.543	19269.55
794.875	19107.29
795.207	19068.43
795.539	19050.57
795.871	19048.31
796.203	18854.87
796.535	18775.1
796.867	18706.63
797.198	18704.14
797.53	18758.15
797.862	18533.52
798.193	18563.35
798.525	18435.67
798.856	18516.58
799.188	18222.57
799.519	18248.11
799.85	18023.48
800.182	18141.67
800.513	18072.29
800.844	17948.45
801.175	18099.64
801.506	17975.57
801.837	17869.13
802.168	17892.86
802.499	17834.33
802.83	17652.64
803.161	17643.6
803.491	17733.55
803.822	17597.5
804.153	17555.24
804.483	17367.45
804.814	17395.93
805.145	17327.45
805.475	17343.05
805.805	17229.6
806.136	17223.73
806.466	17205.42
806.796	17168.81
807.126	17061.7
807.457	16974.92
807.787	17128.14
808.117	16901.7
808.447	16768.82
808.777	16926.11
809.107	16743.29
809.436	16689.5
809.766	16675.95
810.096	16575.84
810.426	16543.97
810.755	16558.21
811.085	16428.49
811.414	16499.68
811.744	16291.55
812.073	16253.13
812.403	16271.66
812.732	16149.63
813.061	16187.15
813.39	16120.03
813.719	16063.98
814.049	16130.88
814.378	16129.52
814.707	16009.97
815.036	15974.72
815.365	15910.99
815.693	15817.89
816.022	15830.09
816.351	15766.14
816.68	15685.69
817.008	15699.7
817.337	15523.89
817.665	15523.21
817.994	15585.35
818.322	15488.86
818.651	15559.82
818.979	15445.92
819.307	15478.46
819.636	15450.22
819.964	15335.64
820.292	15395.75
820.62	15428.97
820.948	15275.76
821.276	15331.35
821.604	15269.2
821.932	15307.85
822.259	15333.16
822.587	15282.54
822.915	15272.82
823.243	15335.64
823.57	15198.02
823.898	15253.61
824.225	15183.56
824.553	15244.8
824.88	15259.03
825.207	15307.17
825.535	15175.87
825.862	15225.36
826.189	15193.05
826.516	15225.36
826.843	15226.04
827.17	15168.41
827.497	15228.07
827.824	15173.39
828.151	15268.98
828.478	15200.73
828.805	15198.02
829.131	15201.86
829.458	15137.68
829.785	15101.75
830.111	15110.34
830.438	15188.08
830.764	15171.13
831.09	15190.34
831.417	15083.22
831.743	15249.54
832.069	15123.67
832.395	15039.38
832.722	15117.57
833.048	15021.3
833.374	15085.03
833.7	14909.66
834.026	14946.73
834.351	14980.62
834.677	14999.38
835.003	14994.18
835.329	14948.08
835.654	14968.87
835.98	14876.22
836.306	14961.19
836.631	14812.04
836.956	14882.77
837.282	14833.28
837.607	14846.84
837.932	14830.12
838.258	14777.92
838.583	14813.17
838.908	14678.71
839.233	14677.81
839.558	14724.13
839.883	14585.38
840.208	14564.36
840.533	14610.69
840.858	14545.15
841.182	14540.63
841.507	14554.19
841.832	14391.71
842.156	14493.63
842.481	14431.26
842.805	14346.97
843.13	14355.33
843.454	14289.34
843.778	14360.75
844.103	14280.08
844.427	14243.24
844.751	14179.51
845.075	14131.38
845.399	14153.53
845.723	14090.25
846.047	14026.75
846.371	13876.47
846.695	13899.3
847.019	13958.28
847.343	13732.97
847.666	13668.79
847.99	13646.19
848.313	13628.79
848.637	13539.98
848.96	13584.5
849.284	13463.6
849.607	13433.77
849.931	13346.09
850.254	13265.64
850.577	13187.9
850.9	13113.1
851.223	13136.6
851.546	13087.57
851.869	12942.03
852.192	13014.8
852.515	12798.99
852.838	12848.25
853.161	12773.68
853.483	12788.82
853.806	12770.06
854.129	12736.16
854.451	12609.61
854.774	12625.66
855.096	12503.85
855.419	12505.66
855.741	12539.33
856.063	12481.25
856.385	12399.45
856.708	12362.61
857.03	12334.82
857.352	12329.62
857.674	12313.8
857.996	12239.9
858.318	12162.17
858.64	12163.3
858.961	12114.71
859.283	12051.89
859.605	11976.86
859.926	12084.88
860.248	11931.66
860.57	11974.15
860.891	12013.7
861.212	11892.12
861.534	11812.8
861.855	11850.76
862.176	11834.27
862.498	11756.98
862.819	11807.15
863.14	11680.6
863.461	11723.08
863.782	11726.7
864.103	11747.49
864.424	11590.43
864.745	11688.73
865.065	11501.62
865.386	11612.58
865.707	11503.43
866.027	11490.32
866.348	11553.59
866.668	11544.33
866.989	11462.3
867.309	11408.06
867.63	11453.71
867.95	11397.44
868.27	11348.63
868.59	11418.46
868.91	11405.58
869.23	11333.49
869.55	11302.53
869.87	11341.4
870.19	11241.29
870.51	11209.2
870.83	11198.35
871.15	11230.44
871.469	11152.48
871.789	11249.42
872.109	11152.7
872.428	11105.7
872.748	11081.74
873.067	11115.64
873.386	11151.12
873.706	11054.85
874.025	10963.78
874.344	10935.31
874.663	11040.39
874.982	11006.94
875.301	10960.39
875.62	10913.61
875.939	10897.34
876.258	10916.1
876.577	10933.27
876.896	10891.47
877.214	10809.66
877.533	10823.9
877.852	10839.26
878.17	10832.26
878.489	10766.04
878.807	10765.37
879.125	10760.85
879.444	10790
879.762	10751.81
880.08	10670
880.398	10698.25
880.716	10697.8
881.034	10683.56
881.352	10598.82
881.67	10617.12
881.988	10529.21
882.306	10526.5
882.624	10540.97
882.941	10532.83
883.259	10441.76
883.577	10439.27
883.894	10458.93
884.212	10451.93
884.529	10430.91
884.846	10394.08
885.164	10357.24
885.481	10295.77
885.798	10317.24
886.115	10315.66
886.432	10243.35
886.75	10194.53
887.067	10190.01
887.383	10163.35
887.7	10121.54
888.017	10139.85
888.334	10113.63
888.651	10014.43
888.967	10085.84
889.284	9964.48
889.6	9985.95
889.917	9882.68
890.233	9891.94
890.55	9852.85
890.866	9867.09
891.182	9789.35
891.498	9808.33
891.815	9728.33
892.131	9765.39
892.447	9760.65
892.763	9675.68
893.079	9674.77
893.395	9647.66
893.71	9649.69
894.026	9564.04
894.342	9537.83
894.657	9505.06
894.973	9578.51
895.289	9522.91
895.604	9437.94
895.92	9444.95
896.235	9289.25
896.55	9353.43
896.865	9318.4
897.181	9303.48
897.496	9290.38
897.811	9216.71
898.126	9219.64
898.441	9142.58
898.756	9150.49
899.071	9087.22
899.386	9100.55
899.7	9001.57
900.015	8973.1
900.33	8865.3
900.644	8932.42
900.959	8956.6
901.273	8901.91
901.588	8825.53
901.902	8816.94
902.216	8754.57
902.531	8777.85
902.845	8688.36
903.159	8626.67
903.473	8656.95
903.787	8593.22
904.101	8557.74
904.415	8491.75
904.729	8530.85
905.042	8484.97
905.356	8466.67
905.67	8461.02
905.984	8420.57
906.297	8398.88
906.611	8306.9
906.924	8305.09
907.237	8298.76
907.551	8274.13
907.864	8204.76
908.177	8180.12
908.491	8202.5
908.804	8143.97
909.117	8026
909.43	8019.45
909.743	8020.35
910.056	8018.32
910.368	7952.56
910.681	7920.47
910.994	7971.09
911.307	7798.44
911.619	7785.11
911.932	7822.62
912.244	7729.29
912.557	7706.69
912.869	7684.09
913.181	7635.51
913.494	7610.65
913.806	7552.12
914.118	7611.33
914.43	7511.89
914.742	7494.94
915.054	7443.19
915.366	7463.08
915.678	7419.24
915.99	7423.53
916.302	7341.28
916.613	7238
916.925	7307.83
917.236	7283.88
917.548	7224.22
917.859	7267.38
918.171	7198.91
918.482	7168.4
918.794	7096.99
919.105	7114.84
919.416	7034.17
919.727	7072.13
920.038	7002.53
920.349	6917.56
920.66	6884.79
920.971	6894.51
921.282	6864.23
921.593	6832.14
921.903	6774.06
922.214	6772.25
922.525	6783.78
922.835	6713.72
923.146	6611.13
923.456	6628.53
923.767	6614.52
924.077	6600.05
924.387	6531.58
924.697	6536.1
925.008	6513.28
925.318	6479.15
925.628	6452.26
925.938	6378.14
926.248	6398.93
926.558	6392.6
926.867	6303.79
927.177	6336.56
927.487	6285.26
927.796	6210.91
928.106	6209.55
928.416	6268.99
928.725	6198.03
929.034	6202.1
929.344	6171.14
929.653	6112.61
929.962	6047.52
930.271	6124.81
930.581	6003.23
930.89	5999.62
931.199	6014.98
931.508	5984.7
931.817	5956.91
932.125	5911.71
932.434	5922.33
932.743	5847.53
933.051	5821.54
933.36	5851.15
933.669	5787.64
933.977	5776.12
934.286	5729.79
934.594	5714.43
934.902	5653.64
935.21	5682.11
935.519	5655.22
935.827	5610.47
936.135	5546.29
936.443	5513.98
936.751	5537.03
937.059	5512.85
937.367	5495.45
937.674	5443.02
937.982	5446.18
938.29	5445.28
938.597	5439.18
938.905	5427.88
939.213	5370.25
939.52	5321.44
939.827	5296.81
940.135	5332.06
940.442	5284.61
940.749	5285.96
941.056	5231.27
941.363	5202.58
941.67	5181.33
941.977	5173.42
942.284	5178.62
942.591	5151.73
942.898	5076.25
943.205	5076.7
943.511	5077.61
943.818	5038.51
944.125	4990.15
944.431	4966.2
944.738	4998.51
945.044	4953.99
945.35	4869.25
945.657	4853.88
945.963	4928.68
946.269	4872.87
946.575	4836.48
946.881	4855.69
947.187	4787.9
947.493	4740.21
947.799	4781.34
948.105	4699.76
948.41	4639.2
948.716	4723.94
949.022	4664.74
949.327	4628.8
949.633	4629.03
949.938	4576.83
950.244	4604.62
950.549	4586.32
950.854	4551.97
951.16	4549.71
951.465	4505.42
951.77	4464.97
952.075	4514.46
952.38	4424.29
952.685	4442.82
952.99	4399.88
953.294	4363.05
953.599	4369.83
953.904	4321.24
954.209	4315.82
954.513	4329.15
954.818	4291.41
955.122	4275.37
955.426	4239.89
955.731	4205.77
956.035	4193.34
956.339	4232.21
956.643	4203.96
956.948	4165.99
957.252	4137.97
957.556	4150.85
957.86	4081.02
958.163	4107.01
958.467	4036.28
958.771	4089.84
959.075	4074.7
959.378	4028.37
959.682	4022.72
959.985	4016.39
960.289	3951.31
960.592	3951.99
960.896	3954.92
961.199	3920.35
961.502	3914.02
961.805	3907.92
962.108	3834.25
962.411	3868.6
962.714	3815.72
963.017	3820.92
963.32	3813.23
963.623	3778.21
963.926	3776.4
964.228	3740.24
964.531	3746.34
964.833	3696.85
965.136	3676.51
965.438	3687.81
965.741	3686
966.043	3680.58
966.345	3602.84
966.648	3648.27
966.95	3620.92
967.252	3552.22
967.554	3548.83
967.856	3541.83
968.158	3513.13
968.46	3552
968.761	3485.33
969.063	3461.38
969.365	3519.46
969.666	3517.87
969.968	3435.62
970.269	3439.01
970.571	3447.37
970.872	3417.09
971.174	3367.82
971.475	3364.43
971.776	3373.92
972.077	3356.97
972.378	3307.03
972.679	3331.89
972.98	3314.26
973.281	3271.55
973.582	3269.07
973.883	3258.67
974.183	3255.96
974.484	3227.03
974.785	3208.28
975.085	3227.03
975.386	3231.1
975.686	3168.5
975.986	3170.54
976.287	3155.62
976.587	3123.99
976.887	3116.75
977.187	3086.92
977.487	3116.3
977.787	3101.61
978.087	3077.66
978.387	3086.25
978.687	3044.89
978.987	3018.23
979.286	3001.05
979.586	3006.25
979.885	2961.96
980.185	2958.57
980.484	2962.63
980.784	2971.45
981.083	2983.42
981.382	2960.15
981.682	2934.61
981.981	2909.3
982.28	2865.01
982.579	2848.29
982.878	2866.82
983.177	2838.12
983.475	2832.47
983.774	2765.13
984.073	2810.32
984.372	2786.59
984.67	2793.82
984.969	2785.69
985.267	2745.01
985.566	2775.75
985.864	2742.3
986.162	2715.63
986.461	2709.76
986.759	2680.16
987.057	2633.38
987.355	2678.8
987.653	2668.86
987.951	2635.18
988.249	2633.38
988.547	2610.1
988.844	2603.1
989.142	2573.04
989.44	2603.32
989.737	2532.14
990.035	2568.07
990.332	2533.27
990.63	2538.92
990.927	2486.94
991.224	2494.62
991.521	2513.15
991.819	2488.07
992.116	2493.49
992.413	2492.59
992.71	2469.54
993.006	2448.3
993.303	2453.04
993.6	2411.24
993.897	2402.42
994.193	2409.43
994.49	2393.61
994.787	2390.67
995.083	2365.14
995.379	2380.5
995.676	2345.93
995.972	2375.98
996.268	2328.98
996.565	2294.63
996.861	2326.72
997.157	2293.27
997.453	2258.25
997.749	2263.67
998.044	2263.9
998.34	2237
998.636	2222.54
998.932	2243.33
999.227	2215.99
999.523	2209.66
999.818	2159.27
1000.114	2167.17
1000.409	2148.42
1000.704	2150.68
1001	2140.51
1001.295	2145.03
1001.59	2139.6
1001.885	2108.42
1002.18	2101.19
1002.475	2079.04
1002.77	2100.74
1003.065	2081.53
1003.359	2061.41
1003.654	2033.84
1003.949	2009.21
1004.243	1998.37
1004.538	2007.18
1004.832	1994.52
1005.127	2008.08
1005.421	1948.2
1005.715	1955.43
1006.009	1982.55
1006.304	1965.6
1006.598	1947.52
1006.892	1912.94
1007.186	1900.06
1007.48	1896.45
1007.773	1886.28
1008.067	1864.58
1008.361	1872.49
1008.655	1856.22
1008.948	1840.4
1009.242	1830.91
1009.535	1857.8
1009.829	1837.24
1010.122	1829.56
1010.415	1809.22
1010.708	1774.19
1011.001	1769.9
1011.295	1762.44
1011.588	1746.17
1011.881	1724.02
1012.173	1734.87
1012.466	1728.54
1012.759	1749.78
1013.052	1731.71
1013.344	1709.79
1013.637	1710.69
1013.93	1672.72
1014.222	1675.44
1014.514	1653.52
1014.807	1636.12
1015.099	1658.49
1015.391	1622.78
1015.683	1608.55
1015.976	1617.36
1016.268	1602.22
1016.56	1571.94
1016.851	1610.13
1017.143	1564.48
1017.435	1555.67
1017.727	1539.17
1018.018	1538.49
1018.31	1528.32
1018.602	1560.64
1018.893	1527.19
1019.185	1498.72
1019.476	1503.24
1019.767	1465.5
1020.058	1463.24
1020.35	1432.05
1020.641	1434.99
1020.932	1480.87
1021.223	1433.18
1021.514	1436.12
1021.804	1402.45
1022.095	1397.93
1022.386	1385.73
1022.677	1414.88
1022.967	1382.56
1023.258	1383.92
1023.548	1352.96
1023.839	1359.51
1024.129	1339.63
1024.419	1339.85
1024.709	1328.55
1025	1326.29
1025.29	1318.38
1025.58	1301.89
1025.87	1284.94
1026.16	1271.15
1026.449	1278.38
1026.739	1273.86
1027.029	1261.21
1027.319	1242.91
1027.608	1238.61
1027.898	1215.56
1028.187	1217.37
1028.477	1214.43
1028.766	1164.49
1029.055	1186.64
1029.344	1196.8
1029.634	1187.77
1029.923	1185.05
1030.212	1185.51
1030.501	1152.96
1030.79	1151.16
1031.078	1159.07
1031.367	1167.65
1031.656	1143.7
1031.945	1105.06
1032.233	1139.63
1032.522	1120.2
1032.81	1089.69
1033.099	1094.43
1033.387	1096.92
1033.675	1090.37
1033.963	1080.65
1034.251	1078.39
1034.54	1074.55
1034.828	1058.28
1035.116	1052.18
1035.403	1070.25
1035.691	1032.29
1035.979	1030.71
1036.267	1018.05
1036.554	1021.89
1036.842	992.97
1037.129	1017.37
1037.417	992.74
1037.704	983.7
1037.992	997.26
1038.279	971.05
1038.566	985.28
1038.853	985.28
1039.14	985.28
