Data from hue_260_FLMS001491_00090.txt Node
Date: Tue Feb 07 15:59:43 GMT 2017
User: dcchb
Spectrometer: FLMS00149
Trigger mode: 0
Integration Time (sec): 2.000000E-2
Scans to average: 10
Electric dark correction enabled: true
Nonlinearity correction enabled: false
Boxcar width: 0
XAxis mode: Wavelengths
Number of Pixels in Spectrum: 2048
>>>>>Begin Spectral Data<<<<<
341.393	-12.26
341.776	-12.26
342.16	-12.26
342.543	-76.44
342.927	-66.04
343.31	-83.44
343.693	-56.78
344.077	-58.36
344.46	-67.17
344.843	-57.46
345.226	-39.15
345.61	-36.21
345.993	-20.17
346.376	6.72
346.759	17.57
347.142	22.54
347.525	35.87
347.908	63.67
348.291	76.33
348.674	94.4
349.057	101.64
349.44	118.36
349.823	151.35
350.206	155.65
350.588	163.33
350.971	194.97
351.354	199.26
351.737	243.1
352.119	237.23
352.502	249.65
352.884	269.54
353.267	268.86
353.65	286.94
354.032	280.61
354.414	296.88
354.797	296.88
355.179	307.05
355.562	284.68
355.944	331.69
356.326	308.41
356.709	320.61
357.091	320.84
357.473	326.04
357.855	316.09
358.238	326.49
358.62	364.68
359.002	343.44
359.384	330.78
359.766	339.37
360.148	330.78
360.53	344.79
360.912	333.04
361.294	344.34
361.676	327.39
362.057	316.77
362.439	323.55
362.821	313.38
363.203	316.55
363.584	339.82
363.966	317.45
364.348	331.91
364.729	313.83
365.111	307.28
365.493	316.55
365.874	300.27
366.256	311.12
366.637	318.13
367.019	308.18
367.4	301.86
367.781	297.79
368.163	316.09
368.544	304.34
368.925	311.57
369.306	309.77
369.688	299.82
370.069	317.68
370.45	312.48
370.831	307.05
371.212	301.18
371.593	289.65
371.974	299.82
372.355	296.66
372.736	273.16
373.117	305.92
373.498	309.09
373.879	326.04
374.26	312.93
374.641	298.24
375.021	317.68
375.402	300.05
375.783	305.47
376.163	331.91
376.544	302.31
376.925	333.95
377.305	311.8
377.686	305.25
378.066	321.52
378.447	324
378.827	333.72
379.208	303.89
379.588	344.79
379.968	347.96
380.349	321.52
380.729	334.62
381.109	334.85
381.489	348.86
381.87	309.99
382.25	335.98
382.63	340.73
383.01	337.34
383.39	348.41
383.77	313.16
384.15	347.28
384.53	328.97
384.91	336.43
385.29	341.86
385.67	334.4
386.049	342.99
386.429	344.34
386.809	353.15
387.189	360.84
387.568	348.63
387.948	328.3
388.328	358.35
388.707	354.96
389.087	363.78
389.466	359.48
389.846	372.82
390.225	356.54
390.605	354.28
390.984	351.35
391.363	371.91
391.743	371.01
392.122	377.11
392.501	379.37
392.881	349.54
393.26	359.26
393.639	400.61
394.018	371.23
394.397	385.47
394.776	394.96
395.155	379.59
395.534	379.14
395.913	371.91
396.292	388.41
396.671	401.29
397.05	392.93
397.429	389.09
397.808	375.98
398.186	381.4
398.565	378.92
398.944	407.16
399.323	410.33
399.701	411.46
400.08	417.79
400.458	423.66
400.837	407.16
401.215	415.75
401.594	418.92
401.972	420.05
402.351	410.1
402.729	430.89
403.107	431.12
403.486	422.08
403.864	445.81
404.242	445.81
404.62	455.07
404.999	426.82
405.377	418.92
405.755	451.01
406.133	451.23
406.511	456.43
406.889	476.77
407.267	453.04
407.645	437.22
408.023	460.72
408.401	469.99
408.779	494.39
409.156	482.64
409.534	509.76
409.912	504.34
410.29	501.17
410.667	495.3
411.045	524.68
411.422	511.57
411.8	533.26
412.178	546.14
412.555	554.51
412.933	570.1
413.31	557.44
413.687	568.97
414.065	565.58
414.442	563.77
414.819	583.21
415.197	584.11
415.574	572.81
415.951	604.67
416.328	612.81
416.705	607.39
417.082	615.07
417.46	639.93
417.837	627.95
418.214	632.92
418.591	657.33
418.967	657.33
419.344	665.01
419.721	680.38
420.098	672.69
420.475	707.27
420.852	700.26
421.228	709.53
421.605	726.03
421.982	711.11
422.358	728.74
422.735	774.84
423.111	746.14
423.488	785.23
423.864	787.95
424.241	806.7
424.617	815.29
424.994	818.45
425.37	806.93
425.746	807.83
426.123	823.42
426.499	819.36
426.875	845.12
427.251	900.03
427.627	886.93
428.003	892.8
428.379	900.48
428.756	889.41
429.132	905.46
429.507	938.22
429.883	928.28
430.259	963.31
430.635	964.89
431.011	1000.82
431.387	1000.14
431.763	986.36
432.138	990.88
432.514	1032.01
432.89	1034.94
433.265	1064.32
433.641	1093.25
434.016	1091.44
434.392	1126.92
434.767	1117.65
435.143	1152.91
435.518	1161.49
435.894	1188.16
436.269	1191.32
436.644	1228.16
437.02	1235.62
437.395	1218.67
437.77	1260.48
438.145	1280.14
438.52	1307.71
438.895	1270.64
439.271	1327.82
439.646	1353.13
440.021	1345.44
440.395	1396.74
440.77	1384.77
441.145	1408.27
441.52	1420.02
441.895	1434.48
442.27	1438.78
442.645	1456.18
443.019	1469.51
443.394	1477.19
443.769	1477.42
444.143	1464.09
444.518	1515.16
444.892	1532.56
445.267	1536.4
445.641	1580.92
446.016	1572.78
446.39	1592.67
446.764	1584.76
447.139	1594.93
447.513	1590.86
447.887	1629.28
448.262	1615.72
448.636	1616.62
449.01	1637.64
449.384	1644.42
449.758	1665.44
450.132	1677.41
450.506	1698.43
450.88	1709.05
451.254	1701.14
451.628	1717.19
452.002	1726.68
452.376	1743.85
452.75	1792.21
453.123	1804.87
453.497	1818.88
453.871	1804.64
454.244	1829.27
454.618	1876.05
454.992	1914.92
455.365	1899.33
455.739	1940.46
456.112	1952.43
456.486	1980.68
456.859	1947.24
457.232	2027.01
457.606	1993.11
457.979	2032.21
458.352	2074.24
458.725	2082.15
459.099	2107.46
459.472	2146.78
459.845	2197.4
460.218	2201.24
460.591	2209.6
460.964	2189.04
461.337	2260.9
461.71	2268.13
462.083	2296.83
462.456	2296.61
462.829	2331.63
463.201	2352.65
463.574	2366.66
463.947	2393.55
464.32	2436.26
464.692	2453.44
465.065	2467.9
465.438	2507.22
465.81	2519.2
466.183	2548.8
466.555	2602.81
466.928	2613.43
467.3	2624.96
467.672	2653.89
468.045	2736.82
468.417	2719.87
468.789	2722.36
469.161	2765.97
469.534	2791.06
469.906	2850.94
470.278	2902.01
470.65	2938.4
471.022	2969.81
471.394	3022.24
471.766	3010.71
472.138	3028.79
472.51	3129.58
472.882	3139.97
473.253	3180.88
473.625	3169.35
473.997	3278.5
474.369	3280.08
474.74	3297.94
475.112	3370.7
475.484	3425.84
475.855	3494.77
476.227	3497.03
476.598	3598.27
476.97	3596.23
477.341	3683.46
477.713	3726.4
478.084	3769.34
478.455	3806.62
478.827	3847.75
479.198	3977.01
479.569	3958.03
479.94	4051.14
480.311	4090.23
480.682	4161.64
481.053	4230.11
481.424	4321.19
481.795	4339.94
482.166	4361.41
482.537	4372.26
482.908	4469.88
483.279	4521.63
483.65	4573.83
484.021	4678.24
484.391	4691.8
484.762	4702.64
485.133	4773.6
485.503	4798.91
485.874	4892.47
486.244	4992.58
486.615	5011.34
486.985	5091.34
487.356	5162.75
487.726	5214.04
488.097	5310.31
488.467	5285.68
488.837	5384.66
489.207	5445
489.578	5502.4
489.948	5560.48
490.318	5600.7
490.688	5609.51
491.058	5690.19
491.428	5739.45
491.798	5787.14
492.168	5943.97
492.538	5942.84
492.908	6012.67
493.278	6022.61
493.648	6084.08
494.017	6051.54
494.387	6195.49
494.757	6203.85
495.126	6255.82
495.496	6232.55
495.866	6200.01
496.235	6312.55
496.605	6386.44
496.974	6432.77
497.344	6435.71
497.713	6502.37
498.082	6541.47
498.452	6533.11
498.821	6541.01
499.19	6609.71
499.559	6669.82
499.928	6706.43
500.298	6719.31
500.667	6753.44
501.036	6747.56
501.405	6788.24
501.774	6753.21
502.143	6851.06
502.512	6836.37
502.88	6876.82
503.249	6950.04
503.618	6943.26
503.987	6978.74
504.356	7025.75
504.724	6996.37
505.093	7012.87
505.462	7046.54
505.83	7033.88
506.199	7120.21
506.567	7197.49
506.936	7148.68
507.304	7216.25
507.672	7233.65
508.041	7251.96
508.409	7294.67
508.777	7331.05
509.145	7349.58
509.514	7376.92
509.882	7350.26
510.25	7418.28
510.618	7444.72
510.986	7428.45
511.354	7411.95
511.722	7530.14
512.09	7631.38
512.458	7560.87
512.826	7495.34
513.193	7544.15
513.561	7595.45
513.929	7616.69
514.297	7592.51
514.664	7752.28
515.032	7671.83
515.4	7751.6
515.767	7692.62
516.135	7790.93
516.502	7652.62
516.869	7829.79
517.237	7849
517.604	7792.96
517.972	7856.91
518.339	7892.84
518.706	7835.44
519.073	7842.22
519.44	7870.7
519.808	7993.18
520.175	7929
520.542	8001.54
520.909	8001.77
521.276	7993.63
521.643	7962.22
522.009	8091.93
522.376	8065.95
522.743	8105.27
523.11	8076.79
523.477	8134.64
523.843	8205.15
524.21	8174.19
524.577	8203.34
524.943	8279.05
525.31	8214.42
525.676	8308.43
526.043	8310.91
526.409	8387.75
526.776	8396.33
527.142	8392.04
527.508	8375.99
527.874	8426.16
528.241	8479.95
528.607	8467.52
528.973	8426.61
529.339	8467.74
529.705	8512.94
530.071	8482.43
530.437	8482.21
530.803	8589.1
531.169	8573.28
531.535	8554.07
531.901	8552.26
532.267	8499.61
532.632	8577.12
532.998	8534.86
533.364	8531.92
533.73	8585.93
534.095	8622.99
534.461	8616.21
534.826	8622.09
535.192	8646.5
535.557	8672.48
535.923	8636.78
536.288	8663.67
536.653	8625.25
537.019	8598.81
537.384	8655.76
537.749	8633.39
538.114	8651.02
538.479	8669.32
538.845	8623.9
539.21	8626.38
539.575	8672.03
539.94	8662.31
540.305	8650.34
540.67	8653.95
541.034	8605.82
541.399	8670.45
541.764	8638.81
542.129	8613.73
542.494	8600.4
542.858	8609.66
543.223	8582.54
543.587	8623.45
543.952	8613.95
544.316	8638.59
544.681	8583.22
545.045	8582.09
545.41	8628.87
545.774	8680.62
546.138	8622.54
546.503	8650.34
546.867	8606.04
547.231	8588.19
547.595	8578.93
547.959	8597.91
548.324	8568.53
548.688	8596.55
549.052	8619.6
549.416	8549.78
549.779	8591.81
550.143	8552.49
550.507	8639.94
550.871	8610.34
551.235	8502.54
551.599	8535.99
551.962	8581.41
552.326	8612.82
552.689	8544.13
553.053	8496.44
553.417	8551.58
553.78	8611.24
554.143	8536.67
554.507	8590
554.87	8605.14
555.234	8628.19
555.597	8604.24
555.96	8535.09
556.323	8612.6
556.686	8597.01
557.05	8663.44
557.413	8651.02
557.776	8635.2
558.139	8675.87
558.502	8624.8
558.865	8615.99
559.228	8666.38
559.59	8653.95
559.953	8703.22
560.316	8761.07
560.679	8732.6
561.041	8778.7
561.404	8808.75
561.767	8848.98
562.129	8713.61
562.492	8834.74
562.854	8836.32
563.217	8801.07
563.579	8926.26
563.941	8904.34
564.304	8946.6
564.666	8966.26
565.028	8944.12
565.39	9000.61
565.753	8973.72
566.115	9042.87
566.477	9077.44
566.839	9103.43
567.201	9115.41
567.563	9069.99
567.925	9121.74
568.287	9095.75
568.648	9171
569.01	9210.77
569.372	9192.47
569.734	9183.43
570.095	9239.7
570.457	9335.29
570.819	9260.49
571.18	9318.12
571.542	9374.61
571.903	9384.56
572.265	9354.5
572.626	9376.87
572.987	9422.75
573.349	9420.71
573.71	9487.15
574.071	9449.64
574.432	9451.22
574.794	9588.62
575.155	9616.41
575.516	9498.45
575.877	9567.6
576.238	9679.24
576.599	9676.98
576.96	9671.33
577.32	9666.81
577.681	9674.27
578.042	9761.72
578.403	9753.13
578.763	9790.42
579.124	9706.81
579.485	9777.09
579.845	9820.25
580.206	9822.06
580.566	9817.31
580.927	9891.66
581.287	9974.37
581.648	9906.35
582.008	9972.11
582.368	9892.56
582.728	9979.79
583.089	9936.63
583.449	10038.55
583.809	10080.13
584.169	9997.65
584.529	9973.24
584.889	10059.34
585.249	10036.29
585.609	10050.98
585.969	10100.69
586.329	10104.76
586.688	10081.26
587.048	10115.38
587.408	10210.97
587.768	10181.14
588.127	10101.6
588.487	10129.17
588.846	10193.35
589.206	10159
589.565	10177.98
589.925	10172.11
590.284	10210.07
590.643	10216.62
591.003	10299.33
591.362	10302.27
591.721	10243.97
592.08	10237.19
592.44	10317.86
592.799	10342.04
593.158	10319.67
593.517	10279.67
593.876	10285.77
594.235	10301.14
594.593	10322.61
594.952	10409.16
595.311	10314.02
595.67	10384.53
596.029	10394.25
596.387	10397.64
596.746	10364.64
597.104	10394.47
597.463	10394.92
597.822	10419.33
598.18	10391.31
598.538	10348.15
598.897	10457.97
599.255	10369.61
599.613	10506.33
599.972	10424.53
600.33	10430.4
600.688	10483.96
601.046	10532.55
601.404	10551.53
601.762	10537.97
602.12	10548.59
602.478	10538.2
602.836	10590.17
603.194	10548.82
603.552	10522.38
603.91	10530.06
604.268	10551.3
604.625	10568.03
604.983	10551.53
605.341	10551.76
605.698	10607.35
606.056	10616.39
606.413	10517.63
606.771	10629.27
607.128	10671.98
607.485	10571.19
607.843	10660.68
608.2	10643.73
608.557	10671.3
608.914	10624.52
609.272	10670.62
609.629	10708.36
609.986	10689.83
610.343	10651.41
610.7	10768.93
611.057	10756.72
611.414	10713.11
611.771	10760.56
612.127	10809.15
612.484	10731.19
612.841	10810.96
613.198	10822.94
613.554	10751.98
613.911	10823.16
614.267	10798.76
614.624	10776.16
614.98	10827.91
615.337	10919.88
615.693	10894.12
616.05	10883.27
616.406	10866.1
616.762	10906.1
617.118	10862.93
617.475	10889.83
617.831	10882.82
618.187	10868.36
618.543	10950.39
618.899	10924.18
619.255	10927.11
619.611	10944.29
619.967	10922.82
620.323	10993.78
620.678	10972.31
621.034	10928.02
621.39	10935.93
621.746	10935.48
622.101	11055.02
622.457	10962.82
622.812	10960.56
623.168	11031.74
623.523	11043.04
623.879	11087.11
624.234	10992.42
624.589	10968.69
624.945	10947.68
625.3	11010.73
625.655	11006.66
626.01	10985.19
626.365	10957.62
626.72	10933.44
627.075	10989.71
627.43	10998.52
627.785	10953.1
628.14	10996.72
628.495	10991.07
628.85	10942.93
629.205	10908.36
629.559	10953.33
629.914	10927.34
630.269	10930.73
630.623	10869.26
630.978	10888.7
631.332	10908.58
631.687	10867.68
632.041	10845.08
632.396	10890.05
632.75	10804.63
633.104	10796.95
633.459	10808.92
633.813	10761.92
634.167	10736.84
634.521	10758.76
634.875	10765.08
635.229	10707.01
635.583	10628.36
635.937	10639.21
636.291	10645.54
636.645	10702.49
636.999	10596.73
637.352	10641.47
637.706	10631.98
638.06	10626.56
638.413	10679.21
638.767	10638.31
639.121	10555.37
639.474	10510.4
639.828	10518.54
640.181	10578.42
640.534	10591.3
640.888	10532.55
641.241	10500.46
641.594	10496.39
641.947	10500.68
642.301	10505.2
642.654	10558.99
643.007	10576.61
643.36	10514.92
643.713	10484.19
644.066	10478.09
644.419	10408.03
644.771	10325.32
645.124	10267.92
645.477	10287.81
645.83	10308.15
646.182	10120.81
646.535	10140.02
646.888	10178.21
647.24	10077.42
647.593	10063.18
647.945	10083.52
648.298	10051.43
648.65	10038.78
649.002	10001.94
649.355	10079.45
649.707	10119.9
650.059	10147.02
650.411	10200.81
650.763	10229.51
651.115	10385.21
651.467	10300.24
651.819	10328.49
652.171	10314.25
652.523	10265.89
652.875	10253.91
653.227	10232.67
653.578	10322.16
653.93	10305.66
654.282	10264.76
654.633	10265.89
654.985	10295.04
655.337	10264.31
655.688	10268.15
656.039	10299.33
656.391	10209.17
656.742	10335.49
657.094	10215.49
657.445	10304.31
657.796	10243.52
658.147	10220.24
658.498	10260.46
658.849	10263.4
659.2	10246.68
659.551	10194.7
659.902	10287.36
660.253	10227.7
660.604	10280.58
660.955	10184.53
661.306	10300.69
661.656	10311.08
662.007	10249.39
662.358	10289.84
662.708	10303.4
663.059	10256.62
663.409	10173.01
663.76	10291.65
664.11	10286.9
664.461	10314.02
664.811	10258.2
665.161	10299.79
665.511	10253.23
665.862	10236.51
666.212	10270.18
666.562	10266.57
666.912	10315.15
667.262	10251.88
667.612	10242.16
667.962	10276.96
668.312	10255.27
668.662	10257.75
669.011	10232.44
669.361	10237.41
669.711	10140.69
670.06	10172.56
670.41	10204.19
670.76	10108.83
671.109	10198.09
671.459	10176.17
671.808	10173.46
672.157	10106.57
672.507	10136.85
672.856	10079.23
673.205	10066.12
673.554	10093.46
673.904	10073.8
674.253	10201.26
674.602	10096.63
674.951	9989.29
675.3	9957.87
675.649	10132.11
675.998	10024.54
676.346	10038.1
676.695	10105.89
677.044	10004.65
677.393	10047.36
677.741	10038.55
678.09	10065.67
678.438	9980.25
678.787	9992
679.135	9987.25
679.484	9890.53
679.832	9941.83
680.181	9879.23
680.529	9957.65
680.877	9944.09
681.225	9875.62
681.573	9931.66
681.922	9843.53
682.27	9765.79
682.618	9807.82
682.966	9800.82
683.314	9826.58
683.661	9857.09
684.009	9730.31
684.357	9676.3
684.705	9754.94
685.053	9718.11
685.4	9678.11
685.748	9668.62
686.095	9629.52
686.443	9586.36
686.79	9602.85
687.138	9648.96
687.485	9597.66
687.832	9562.86
688.18	9548.62
688.527	9474.27
688.874	9525.79
689.221	9502.97
689.568	9412.13
689.915	9427.27
690.262	9385.23
690.609	9412.58
690.956	9325.35
691.303	9253.26
691.65	9194.96
691.997	9189.31
692.344	9133.49
692.69	9192.7
693.037	9141.62
693.383	8985.24
693.73	9104.11
694.077	9031.34
694.423	9048.75
694.769	9002.87
695.116	8932.82
695.462	8961.97
695.808	8945.02
696.155	8935.98
696.501	8817.11
696.847	8893.95
697.193	8765.81
697.539	8840.16
697.885	8731.92
698.231	8718.13
698.577	8694.86
698.923	8714.06
699.269	8594.52
699.614	8568.53
699.96	8592.03
700.306	8625.48
700.651	8472.94
700.997	8517.46
701.342	8469.1
701.688	8420.29
702.033	8423.22
702.379	8379.61
702.724	8275.66
703.069	8345.26
703.415	8265.71
703.76	8305.94
704.105	8312.49
704.45	8233.63
704.795	8193.17
705.14	8198.82
705.485	8176.45
705.83	8147.98
706.175	8119.05
706.52	8077.92
706.865	7978.49
707.209	8038.15
707.554	7980.07
707.899	8056.68
708.243	7938.72
708.588	7975.55
708.932	7927.64
709.277	7899.85
709.621	7904.37
709.966	7830.47
710.31	7862.56
710.654	7796.35
710.998	7789.34
711.342	7819.62
711.687	7806.74
712.031	7697.14
712.375	7719.06
712.719	7685.62
713.063	7702.79
713.407	7653.3
713.75	7678.84
714.094	7675.45
714.438	7584.6
714.782	7679.97
715.125	7596.13
715.469	7607.2
715.812	7564.26
716.156	7563.81
716.499	7546.41
716.843	7510.93
717.186	7484.04
717.53	7532.63
717.873	7526.53
718.216	7467.09
718.559	7422.35
718.902	7376.7
719.246	7461.67
719.589	7428.67
719.932	7437.49
720.275	7474.32
720.617	7402.69
720.96	7363.82
721.303	7345.51
721.646	7387.32
721.989	7340.99
722.331	7365.63
722.674	7331.28
723.016	7268.23
723.359	7317.04
723.701	7342.58
724.044	7272.97
724.386	7262.8
724.729	7229.58
725.071	7191.17
725.413	7215.57
725.755	7231.39
726.097	7232.97
726.439	7129.25
726.782	7176.93
727.124	7213.54
727.465	7208.79
727.807	7176.03
728.149	7145.52
728.491	7174.22
728.833	7174.67
729.175	7166.53
729.516	7155.01
729.858	7123.82
730.199	7199.98
730.541	7158.4
730.882	7138.74
731.224	7160.21
731.565	7100.32
731.906	7161.11
732.248	7144.39
732.589	7154.78
732.93	7115.24
733.271	7103.71
733.612	7104.39
733.953	7115.46
734.294	7072.75
734.635	7099.19
734.976	7142.58
735.317	7121.79
735.658	7121.11
735.999	7129.25
736.339	7079.76
736.68	7110.27
737.021	7140.55
737.361	7115.69
737.702	7127.21
738.042	7181.22
738.383	7131.28
738.723	7096.03
739.063	7110.72
739.404	7155.46
739.744	7182.81
740.084	7188.91
740.424	7216.93
740.764	7156.14
741.104	7193.43
741.444	7142.35
741.784	7165.4
742.124	7220.54
742.464	7238.85
742.804	7209.7
743.143	7177.16
743.483	7193.43
743.823	7231.17
744.162	7261
744.502	7272.29
744.841	7321.33
745.181	7287.89
745.52	7305.74
745.86	7368.79
746.199	7377.15
746.538	7376.25
746.877	7471.84
747.216	7482.91
747.556	7493.31
747.895	7561.1
748.234	7512.74
748.573	7562.46
748.911	7603.59
749.25	7700.98
749.589	7652.85
749.928	7730.36
750.267	7810.59
750.605	7860.75
750.944	7936.46
751.283	7991.6
751.621	8029.11
751.96	8039.05
752.298	8150.69
752.636	8241.99
752.975	8233.17
753.313	8282.44
753.651	8438.14
753.989	8501.19
754.327	8491.7
754.666	8591.58
755.004	8691.92
755.342	8825.02
755.679	8902.99
756.017	8974.85
756.355	9139.36
756.693	9202.41
757.031	9337.33
757.368	9407.15
757.706	9525.12
758.044	9652.35
758.381	9766.69
758.719	9793.13
759.056	9963.52
759.394	10104.31
759.731	10178.88
760.068	10259.79
760.405	10419.1
760.743	10584.98
761.08	10660.68
761.417	10767.34
761.754	10902.03
762.091	11064.06
762.428	11175.02
762.765	11191.97
763.102	11384.73
763.438	11479.19
763.775	11625.85
764.112	11713.08
764.449	11936.13
764.785	12009.57
765.122	12073.07
765.458	12163.92
765.795	12376.12
766.131	12490.24
766.467	12459.73
766.804	12608.65
767.14	12683
767.476	12764.35
767.812	12946.04
768.148	13001.18
768.485	13146.49
768.821	13149.43
769.157	13284.57
769.492	13381.29
769.828	13483.66
770.164	13454.5
770.5	13588.29
770.836	13661.73
771.171	13773.82
771.507	13795.29
771.842	13844.78
772.178	13949.18
772.513	14035.73
772.849	14018.78
773.184	14072.57
773.519	14208.61
773.855	14205.22
774.19	14241.38
774.525	14267.59
774.86	14418.77
775.195	14433.01
775.53	14444.54
775.865	14423.97
776.2	14391.66
776.535	14429.17
776.87	14451.99
777.205	14447.47
777.539	14519.11
777.874	14591.88
778.209	14586
778.543	14609.28
778.878	14483.86
779.212	14641.59
779.547	14650.18
779.881	14684.08
780.215	14622.61
780.55	14688.6
780.884	14635.49
781.218	14652.21
781.552	14774.7
781.886	14657.19
782.22	14640.91
782.554	14657.41
782.888	14602.5
783.222	14599.33
783.556	14462.39
783.889	14587.81
784.223	14519.56
784.557	14590.75
784.89	14618.99
785.224	14592.1
785.557	14474.59
785.891	14500.35
786.224	14469.85
786.558	14518.21
786.891	14353.01
787.224	14384.42
787.557	14382.62
787.891	14395.27
788.224	14324.99
788.557	14424.87
788.89	14379.23
789.223	14374.48
789.556	14273.69
789.888	14324.09
790.221	14231.21
790.554	14133.13
790.887	14265.78
791.219	14120.25
791.552	14140.14
791.884	14137.2
792.217	14099.69
792.549	14153.7
792.882	14040.93
793.214	13976.98
793.546	13981.95
793.879	14019.01
794.211	13879.13
794.543	13980.82
794.875	13906.7
795.207	14003.19
795.539	13841.84
795.871	13869.86
796.203	13799.35
796.535	13708.06
796.867	13676.42
797.198	13644.1
797.53	13677.1
797.862	13609.76
798.193	13621.05
798.525	13544.9
798.856	13641.62
799.188	13409.31
799.519	13395.3
799.85	13344
800.182	13414.96
800.513	13295.87
800.844	13291.12
801.175	13414.28
801.506	13290.44
801.837	13244.34
802.168	13247.96
802.499	13250.22
802.83	13157.11
803.161	13061.75
803.491	13110.79
803.822	13106.27
804.153	12985.59
804.483	12923.45
804.814	12921.19
805.145	13005.25
805.475	12894.29
805.805	12879.6
806.136	12876.44
806.466	12826.72
806.796	12855.88
807.126	12764.35
807.457	12780.17
807.787	12688.65
808.117	12665.15
808.447	12640.06
808.777	12663.79
809.107	12598.93
809.436	12624.92
809.766	12583.79
810.096	12506.51
810.426	12453.18
810.755	12553.29
811.085	12498.6
811.414	12429
811.744	12325.04
812.073	12307.87
812.403	12360.75
812.732	12283.46
813.061	12304.93
813.39	12301.31
813.719	12206.18
814.049	12202.56
814.378	12187.42
814.707	12166.63
815.036	12147.65
815.365	12080.53
815.693	11988.1
816.022	12025.62
816.351	12021.77
816.68	11936.35
817.008	11989.46
817.337	11864.94
817.665	11832.17
817.994	11949.01
818.322	11867.2
818.651	11759.63
818.979	11780.2
819.307	11803.25
819.636	11850.71
819.964	11765.28
820.292	11774.55
820.62	11738.84
820.948	11764.38
821.276	11718.51
821.604	11665.85
821.932	11684.61
822.259	11810.25
822.587	11728.9
822.915	11686.64
823.243	11764.38
823.57	11751.72
823.898	11735.68
824.225	11640.99
824.553	11680.31
824.88	11702.23
825.207	11801.22
825.535	11668.56
825.862	11758.73
826.189	11702.23
826.516	11712.63
826.843	11713.99
827.17	11734.55
827.497	11855
827.824	11741.56
828.151	11805.06
828.478	11766.64
828.805	11794.89
829.131	11718.51
829.458	11711.5
829.785	11704.49
830.111	11704.49
830.438	11775.45
830.764	11762.8
831.09	11738.84
831.417	11716.02
831.743	11727.32
832.069	11762.57
832.395	11718.05
832.722	11695.68
833.048	11763.48
833.374	11684.38
833.7	11625.4
834.026	11600.32
834.351	11662.01
834.677	11636.47
835.003	11587.21
835.329	11572.75
835.654	11570.26
835.98	11529.36
836.306	11602.35
836.631	11504.95
836.956	11603.93
837.282	11525.74
837.607	11548.57
837.932	11419.08
838.258	11636.47
838.583	11492.97
838.908	11431.06
839.233	11476.25
839.558	11403.94
839.883	11314.22
840.208	11273.55
840.533	11342.02
840.858	11319.87
841.182	11286.65
841.507	11364.16
841.832	11252.98
842.156	11203.04
842.481	11207.33
842.805	11169.82
843.13	11164.17
843.454	11171.18
843.778	11153.1
844.103	11189.03
844.427	11155.36
844.751	11095.7
845.075	11029.94
845.399	11020.44
845.723	11007.79
846.047	10975.47
846.371	10891.86
846.695	10925.08
847.019	10796.04
847.343	10791.98
847.666	10728.02
847.99	10632.43
848.313	10665.65
848.637	10543.62
848.96	10539.55
849.284	10492.55
849.607	10477.63
849.931	10475.37
850.254	10359.22
850.577	10351.99
850.9	10245.78
851.223	10277.41
851.546	10203.74
851.869	10161.71
852.192	10167.59
852.515	10119.45
852.838	10077.42
853.161	10084.2
853.483	10018.66
853.806	9967.37
854.129	9991.32
854.451	9899.57
854.774	9880.14
855.096	9810.08
855.419	9830.65
855.741	9839.91
856.063	9719.01
856.385	9801.04
856.708	9649.63
857.03	9710.2
857.352	9684.89
857.674	9606.7
857.996	9586.36
858.318	9557.88
858.64	9529.41
858.961	9544.78
859.283	9500.48
859.605	9411.22
859.926	9493.48
860.248	9474.04
860.57	9369.41
860.891	9422.07
861.212	9363.77
861.534	9338.46
861.855	9249.64
862.176	9306.59
862.498	9302.3
862.819	9202.64
863.14	9242.19
863.461	9213.71
863.782	9205.35
864.103	9215.07
864.424	9164.22
864.745	9146.6
865.065	9118.57
865.386	9089.2
865.707	9132.13
866.027	9064.79
866.348	9036.32
866.668	9095.3
866.989	9068.18
867.309	8986.37
867.63	9013.04
867.95	8999.71
868.27	8885.36
868.59	8984.11
868.91	8991.8
869.23	8903.66
869.55	8900.73
869.87	8946.83
870.19	8915.42
870.51	8977.56
870.83	8901.63
871.15	8836.1
871.469	8833.16
871.789	8867.73
872.109	8816.43
872.428	8782.76
872.748	8775.98
873.067	8848.3
873.386	8776.44
873.706	8778.47
874.025	8783.44
874.344	8698.02
874.663	8685.59
874.982	8720.17
875.301	8678.59
875.62	8634.07
875.939	8587.74
876.258	8638.81
876.577	8563.33
876.896	8579.6
877.214	8615.54
877.533	8595.65
877.852	8609.21
878.17	8568.31
878.489	8559.27
878.807	8510.68
879.125	8509.55
879.444	8473.84
879.762	8465.48
880.08	8445.82
880.398	8465.03
880.716	8408.76
881.034	8350.91
881.352	8410.12
881.67	8334.64
881.988	8427.07
882.306	8352.94
882.624	8291.93
882.941	8324.47
883.259	8221.42
883.577	8196.79
883.894	8267.07
884.212	8204.47
884.529	8244.7
884.846	8235.21
885.164	8110.92
885.481	8133.51
885.798	8177.13
886.115	8139.62
886.432	8106.17
886.75	8078.6
887.067	8101.65
887.383	8016
887.7	8001.54
888.017	7952.05
888.334	7941.88
888.651	7972.84
888.967	7922
889.284	7903.01
889.6	7915.67
889.917	7816.01
890.233	7824.6
890.55	7875.89
890.866	7787.54
891.182	7776.01
891.498	7769.46
891.815	7727.2
892.131	7681.78
892.447	7690.36
892.763	7749.34
893.079	7713.19
893.395	7655.79
893.71	7606.3
894.026	7632.51
894.342	7559.07
894.657	7471.39
894.973	7462.12
895.289	7528.56
895.604	7510.71
895.92	7378.28
896.235	7324.27
896.55	7384.16
896.865	7319.53
897.181	7348
897.496	7333.76
897.811	7278.62
898.126	7286.08
898.441	7233.65
898.756	7209.7
899.071	7182.13
899.386	7169.7
899.7	7097.38
900.015	7112.98
900.33	7035.24
900.644	7023.94
900.959	7058.29
901.273	6981.23
901.588	6946.65
901.902	6871.85
902.216	6901.46
902.531	6898.52
902.845	6837.28
903.159	6831.18
903.473	6799.99
903.787	6803.61
904.101	6717.06
904.415	6727
904.729	6741.46
905.042	6672.54
905.356	6669.6
905.67	6675.02
905.984	6654.91
906.297	6610.39
906.611	6569.71
906.924	6564.52
907.237	6553.44
907.551	6537.62
907.864	6452.88
908.177	6469.83
908.491	6429.38
908.804	6397.06
909.117	6364.07
909.43	6331.08
909.743	6320.23
910.056	6335.14
910.368	6300.12
910.681	6291.3
910.994	6242.04
911.307	6219.89
911.619	6138.54
911.932	6153.91
912.244	6064.64
912.557	6106.22
912.869	6113.91
913.181	6068.71
913.494	6056.51
913.806	5989.62
914.118	6018.54
914.43	5945.78
914.742	5991.88
915.054	5939.45
915.366	5861.94
915.678	5815.84
915.99	5809.28
916.302	5785.1
916.613	5675.05
916.925	5775.38
917.236	5737.19
917.548	5694.94
917.859	5722.96
918.171	5673.01
918.482	5654.26
918.794	5600.93
919.105	5632.79
919.416	5582.17
919.727	5546.92
920.038	5512.79
920.349	5452.68
920.66	5470.76
920.971	5482.96
921.282	5429.63
921.593	5416.07
921.903	5403.87
922.214	5386.02
922.525	5341.72
922.835	5332.46
923.146	5332.01
923.456	5289.75
923.767	5337.88
924.077	5252.46
924.387	5228.51
924.697	5221.73
925.008	5180.15
925.318	5189.64
925.628	5159.81
925.938	5137.66
926.248	5117.1
926.558	5101.28
926.867	5071.9
927.177	5066.02
927.487	5008.17
927.796	4952.36
928.106	4962.75
928.416	4952.36
928.725	4915.75
929.034	4937.67
929.344	4933.15
929.653	4911.68
929.962	4873.94
930.271	4827.16
930.581	4788.74
930.89	4760.27
931.199	4755.98
931.508	4760.27
931.817	4742.64
932.125	4753.04
932.434	4741.74
932.743	4647.28
933.051	4676.88
933.36	4655.64
933.669	4653.38
933.977	4605.7
934.286	4564.57
934.594	4587.39
934.902	4515.98
935.21	4491.58
935.519	4528.86
935.827	4524.57
936.135	4474.85
936.443	4453.39
936.751	4422.65
937.059	4426.04
937.367	4360.28
937.674	4425.59
937.982	4341.98
938.29	4382.43
938.597	4357.12
938.905	4263.79
939.213	4297.01
939.52	4272.15
939.827	4285.48
940.135	4228.08
940.442	4250.23
940.749	4230.34
941.056	4217.69
941.363	4130.23
941.67	4145.82
941.977	4129.1
942.284	4107.86
942.591	4145.6
942.898	4108.54
943.205	4128.87
943.511	4042.32
943.818	4042.1
944.125	4010.01
944.431	3964.59
944.738	4013.17
945.044	3941.31
945.35	3958.26
945.657	3897.02
945.963	3918.71
946.269	3914.64
946.575	3860.86
946.881	3917.13
947.187	3869.22
947.493	3854.53
947.799	3852.27
948.105	3784.25
948.41	3734.31
948.716	3758.26
949.022	3758.04
949.327	3736.34
949.633	3712.39
949.938	3740.41
950.244	3739.96
950.549	3663.8
950.854	3650.69
951.16	3651.6
951.465	3599.17
951.77	3619.51
952.075	3637.59
952.38	3629
952.685	3563.47
952.99	3576.35
953.294	3522.79
953.599	3478.72
953.904	3497.7
954.209	3522.34
954.513	3495.44
954.818	3472.62
955.122	3459.06
955.426	3446.86
955.731	3423.36
956.035	3452.51
956.339	3392.4
956.643	3384.94
956.948	3378.61
957.252	3324.6
957.556	3340.42
957.86	3344.04
958.163	3364.15
958.467	3293.64
958.771	3294.09
959.075	3269.69
959.378	3232.63
959.682	3264.04
959.985	3253.87
960.289	3194.44
960.592	3172.06
960.896	3192.4
961.199	3194.66
961.502	3185.85
961.805	3184.27
962.108	3161.89
962.411	3130.03
962.714	3141.56
963.017	3115.79
963.32	3088
963.623	3092.29
963.926	3043.25
964.228	3034.44
964.531	3028.11
964.833	3047.55
965.136	2986.53
965.438	2984.72
965.741	2925.74
966.043	2933.88
966.345	2951.73
966.648	2962.35
966.95	2966.65
967.252	2912.86
967.554	2888.68
967.856	2906.53
968.158	2878.51
968.46	2879.19
968.761	2916.48
969.063	2860.43
969.365	2832.41
969.666	2812.3
969.968	2764.84
970.269	2813.2
970.571	2821.11
970.872	2799.42
971.174	2768.46
971.475	2758.29
971.776	2716.03
972.077	2735.01
972.378	2718.97
972.679	2718.52
972.98	2692.98
973.281	2641.91
973.582	2674.68
973.883	2690.27
974.183	2602.59
974.484	2655.01
974.785	2601.68
975.085	2625.19
975.386	2631.06
975.686	2617.05
975.986	2593.32
976.287	2579.31
976.587	2555.36
976.887	2528.69
977.187	2547.22
977.487	2517.39
977.787	2505.87
978.087	2533.44
978.387	2512.42
978.687	2475.58
978.987	2438.07
979.286	2445.98
979.586	2441.69
979.885	2427
980.185	2432.2
980.484	2399.2
980.784	2440.33
981.083	2408.92
981.382	2390.62
981.682	2382.03
981.981	2334.12
982.28	2345.87
982.579	2330.73
982.878	2342.48
983.177	2348.81
983.475	2336.83
983.774	2337.28
984.073	2283.5
984.372	2283.73
984.67	2259.32
984.969	2278.53
985.267	2266.78
985.566	2263.61
985.864	2255.93
986.162	2201.24
986.461	2229.94
986.759	2243.05
987.057	2153.79
987.355	2184.29
987.653	2204.18
987.951	2186.33
988.249	2168.25
988.547	2177.06
988.844	2155.14
989.142	2143.16
989.44	2140
989.737	2093.45
990.035	2073.11
990.332	2093.45
990.63	2093
990.927	2088.48
991.224	2050.06
991.521	2051.19
991.819	2037.86
992.116	2028.82
992.413	2041.7
992.71	2022.26
993.006	2029.72
993.303	1997.18
993.6	1979.78
993.897	1984.3
994.193	1998.31
994.49	1970.29
994.787	1948.82
995.083	1930.97
995.379	1919.22
995.676	1931.64
995.972	1920.12
996.268	1881.93
996.565	1864.53
996.861	1881.7
997.157	1872.66
997.453	1875.37
997.749	1861.82
998.044	1832.66
998.34	1844.19
998.636	1842.38
998.932	1817.52
999.227	1825.43
999.523	1798.99
999.818	1808.71
1000.114	1815.71
1000.409	1793.79
1000.704	1792.89
1001	1769.61
1001.295	1752.67
1001.59	1760.12
1001.885	1749.28
1002.18	1736.17
1002.475	1728.49
1002.77	1721.03
1003.065	1711.54
1003.359	1694.14
1003.654	1685.77
1003.949	1674.7
1004.243	1674.7
1004.538	1654.59
1004.832	1617.3
1005.127	1634.48
1005.421	1643.74
1005.715	1636.96
1006.009	1615.95
1006.304	1597.64
1006.598	1601.26
1006.892	1544.76
1007.186	1588.38
1007.48	1544.99
1007.773	1571.65
1008.067	1558.32
1008.361	1540.02
1008.655	1530.75
1008.948	1521.49
1009.242	1503.63
1009.535	1497.31
1009.829	1494.37
1010.122	1481.26
1010.415	1483.75
1010.708	1497.53
1011.001	1474.93
1011.295	1457.31
1011.588	1468.61
1011.881	1437.87
1012.173	1419.57
1012.466	1442.39
1012.759	1411.66
1013.052	1411.66
1013.344	1434.48
1013.637	1415.05
1013.93	1390.64
1014.222	1351.32
1014.514	1368.95
1014.807	1379.57
1015.099	1359
1015.391	1377.08
1015.683	1350.87
1015.976	1351.09
1016.268	1301.38
1016.56	1302.96
1016.851	1295.95
1017.143	1314.94
1017.435	1279.68
1017.727	1308.84
1018.018	1296.41
1018.31	1277.42
1018.602	1274.94
1018.893	1224.09
1019.185	1237.2
1019.476	1263.64
1019.767	1230.65
1020.058	1243.75
1020.35	1222.51
1020.641	1202.4
1020.932	1183.42
1021.223	1203.08
1021.514	1194.71
1021.804	1171.66
1022.095	1184.09
1022.386	1159.69
1022.677	1145.68
1022.967	1155.39
1023.258	1149.07
1023.548	1154.94
1023.839	1103.64
1024.129	1149.74
1024.419	1107.03
1024.709	1098.45
1025	1128.73
1025.29	1121.95
1025.58	1079.01
1025.87	1074.49
1026.16	1072.01
1026.449	1080.14
1026.739	1064.1
1027.029	1064.32
1027.319	1052.57
1027.608	1051.89
1027.898	1017.54
1028.187	1024.32
1028.477	1036.07
1028.766	1037.2
1029.055	1007.37
1029.344	997.43
1029.634	1004.66
1029.923	979.8
1030.212	984.78
1030.501	988.39
1030.79	974.16
1031.078	967.15
1031.367	978.9
1031.656	958.79
1031.945	926.25
1032.233	974.61
1032.522	941.84
1032.81	934.61
1033.099	936.64
1033.387	938.9
1033.675	921.73
1033.963	939.35
1034.251	909.75
1034.54	898.9
1034.828	896.87
1035.116	884.44
1035.403	887.6
1035.691	911.11
1035.979	865.68
1036.267	885.57
1036.554	882.41
1036.842	876.08
1037.129	858.23
1037.417	874.72
1037.704	850.32
1037.992	871.56
1038.279	842.41
1038.566	833.37
1038.853	833.37
1039.14	833.37
