Data from hue_340_FLMS001491_77.txt Node
Date: Mon Feb 06 15:43:35 GMT 2017
User: dcchb
Spectrometer: FLMS00149
Trigger mode: 0
Integration Time (sec): 2.000000E-2
Scans to average: 10
Electric dark correction enabled: true
Nonlinearity correction enabled: false
Boxcar width: 0
XAxis mode: Wavelengths
Number of Pixels in Spectrum: 2048
>>>>>Begin Spectral Data<<<<<
341.393	11.55
341.776	11.55
342.16	11.55
342.543	-52.4
342.927	-55.34
343.31	-74.32
343.693	-52.17
344.077	-65.05
344.46	-65.73
344.843	-54.43
345.226	-45.62
345.61	-32.74
345.993	-14.43
346.376	-2.01
346.759	-8.79
347.142	25.56
347.525	39.35
347.908	60.82
348.291	87.26
348.674	96.52
349.057	105.79
349.44	121.16
349.823	146.24
350.206	153.7
350.588	184.66
350.971	209.06
351.354	242.28
351.737	240.93
352.119	242.51
352.502	270.08
352.884	268.04
353.267	296.97
353.65	276.18
354.032	315.5
354.414	312.56
354.797	327.03
355.179	330.42
355.562	302.17
355.944	330.19
356.326	350.75
356.709	344.2
357.091	344.2
357.473	373.58
357.855	348.95
358.238	340.36
358.62	334.48
359.002	331.09
359.384	341.26
359.766	320.02
360.148	356.86
360.53	351.21
360.912	334.26
361.294	332.67
361.676	341.94
362.057	327.48
362.439	323.64
362.821	340.13
363.203	324.77
363.584	315.05
363.966	320.47
364.348	326.8
364.729	331.32
365.111	306.01
365.493	296.52
365.874	316.63
366.256	330.64
366.637	332.45
367.019	312.56
367.4	296.29
367.781	320.02
368.163	307.82
368.544	315.05
368.925	315.5
369.306	322.05
369.688	304.43
370.069	305.78
370.45	309.62
370.831	317.76
371.212	317.76
371.593	325.44
371.974	313.24
372.355	321.15
372.736	304.88
373.117	310.08
373.498	325.44
373.879	310.98
374.26	321.6
374.641	320.7
375.021	299.46
375.402	304.65
375.783	326.35
376.163	311.66
376.544	338.32
376.925	319.34
377.305	310.08
377.686	305.78
378.066	351.88
378.447	333.8
378.827	314.37
379.208	320.25
379.588	314.82
379.968	350.3
380.349	330.42
380.729	319.79
381.109	332.45
381.489	332.67
381.87	342.39
382.25	330.64
382.63	341.49
383.01	340.13
383.39	336.97
383.77	341.94
384.15	332.9
384.53	345.33
384.91	342.39
385.29	334.26
385.67	368.15
386.049	357.53
386.429	349.85
386.809	355.05
387.189	355.73
387.568	339
387.948	353.01
388.328	359.11
388.707	364.99
389.087	362.5
389.466	360.02
389.846	349.4
390.225	388.27
390.605	364.31
390.984	338.78
391.363	372
391.743	368.38
392.122	366.12
392.501	361.15
392.881	369.51
393.26	382.39
393.639	379.68
394.018	362.28
394.397	383.07
394.776	384.88
395.155	367.93
395.534	371.09
395.913	376.97
396.292	374.48
396.671	368.61
397.05	373.58
397.429	379.23
397.808	380.58
398.186	390.75
398.565	384.2
398.944	381.26
399.323	402.96
399.701	385.55
400.08	406.35
400.458	391.66
400.837	397.31
401.215	397.98
401.594	415.38
401.972	410.86
402.351	400.02
402.729	419.68
403.107	422.39
403.486	428.72
403.864	408.38
404.242	417.42
404.62	407.93
404.999	412.45
405.377	414.71
405.755	440.47
406.133	417.42
406.511	437.53
406.889	433.46
407.267	424.2
407.645	451.09
408.023	454.25
408.401	437.76
408.779	461.94
409.156	440.69
409.534	464.42
409.912	453.58
410.29	470.07
410.667	462.61
411.045	466.23
411.422	501.03
411.8	470.75
412.178	487.25
412.555	484.54
412.933	501.26
413.31	486.8
413.687	495.83
414.065	514.37
414.442	515.27
414.819	530.41
415.197	501.48
415.574	540.13
415.951	546.45
416.328	519.34
416.705	552.78
417.082	531.09
417.46	527.47
417.837	571.31
418.214	539.45
418.591	576.28
418.967	558.66
419.344	578.09
419.721	576.96
420.098	563.63
420.475	593.23
420.852	577.87
421.228	604.98
421.605	591.2
421.982	617.41
422.358	604.31
422.735	601.59
423.111	609.05
423.488	618.09
423.864	625.1
424.241	642.5
424.617	642.05
424.994	658.99
425.37	643.63
425.746	652.67
426.123	644.53
426.499	633.91
426.875	679.78
427.251	665.32
427.627	673.23
428.003	684.53
428.379	703.74
428.756	708.03
429.132	689.28
429.507	696.28
429.883	721.59
430.259	713.91
430.635	747.35
431.011	759.33
431.387	759.1
431.763	755.04
432.138	737.64
432.514	769.27
432.89	781.48
433.265	782.83
433.641	784.41
434.016	799.78
434.392	786
434.767	801.14
435.143	813.11
435.518	812.66
435.894	818.99
436.269	861.7
436.644	834.36
437.02	844.3
437.395	838.2
437.77	883.39
438.145	863.73
438.52	859.44
438.895	880.01
439.271	864.41
439.646	908.03
440.021	905.77
440.395	903.06
440.77	887.46
441.145	917.74
441.52	940.12
441.895	924.98
442.27	933.11
442.645	936.05
443.019	922.94
443.394	955.71
443.769	957.74
444.143	933.56
444.518	946.67
444.892	946.9
445.267	970.4
445.641	962.71
446.016	990.06
446.39	984.86
446.764	1004.3
447.139	997.29
447.513	1020.79
447.887	1009.49
448.262	990.74
448.636	1013.11
449.01	1053.33
449.384	1011.3
449.758	1028.7
450.132	1040
450.506	1053.56
450.88	1031.87
451.254	1032.54
451.628	1064.86
452.002	1078.42
452.376	1068.25
452.75	1086.55
453.123	1077.97
453.497	1110.28
453.871	1090.85
454.244	1132.43
454.618	1088.36
454.992	1119.09
455.365	1155.7
455.739	1161.35
456.112	1182.6
456.486	1175.36
456.859	1163.39
457.232	1199.54
457.606	1188.47
457.979	1199.32
458.352	1230.96
458.725	1223.27
459.099	1218.98
459.472	1263.5
459.845	1247.91
460.218	1289.03
460.591	1276.38
460.964	1301.69
461.337	1289.03
461.71	1306.66
462.083	1337.62
462.456	1332.2
462.829	1333.55
463.201	1357.05
463.574	1331.29
463.947	1362.03
464.32	1389.6
464.692	1404.51
465.065	1408.13
465.438	1447.9
465.81	1437.73
466.183	1456.94
466.555	1498.07
466.928	1500.55
467.3	1525.64
467.672	1523.6
468.045	1541
468.417	1534
468.789	1536.94
469.161	1572.87
469.534	1574.22
469.906	1636.14
470.278	1629.14
470.65	1672.07
471.022	1657.61
471.394	1681.79
471.766	1670.94
472.138	1726.08
472.51	1787.55
472.882	1769.02
473.253	1794.78
473.625	1802.01
473.997	1838.85
474.369	1870.26
474.74	1882.92
475.112	1894.67
475.484	1933.99
475.855	1937.38
476.227	1991.61
476.598	2023.25
476.97	2051.73
477.341	2086.98
477.713	2122.91
478.084	2158.84
478.455	2209.01
478.827	2183.7
479.198	2262.34
479.569	2234.32
479.94	2307.09
480.311	2335.56
480.682	2354.77
481.053	2417.59
481.424	2452.39
481.795	2446.52
482.166	2509.57
482.537	2520.19
482.908	2577.59
483.279	2580.53
483.65	2641.31
484.021	2688.55
484.391	2707.98
484.762	2751.82
485.133	2750.24
485.503	2790.46
485.874	2883.34
486.244	2874.08
486.615	2919.73
486.985	2979.16
487.356	3034.98
487.726	3033.17
488.097	3119.95
488.467	3108.2
488.837	3153.62
489.207	3173.96
489.578	3257.12
489.948	3237.01
490.318	3319.94
490.688	3327.4
491.058	3341.41
491.428	3406.04
491.798	3485.13
492.168	3521.52
492.538	3511.8
492.908	3535.53
493.278	3576.66
493.648	3602.42
494.017	3624.79
494.387	3652.81
494.757	3685.81
495.126	3729.2
495.496	3747.73
495.866	3776.2
496.235	3765.13
496.605	3851.68
496.974	3865.01
497.344	3930.55
497.713	3908.4
498.082	3939.13
498.452	3956.99
498.821	4037.21
499.19	4001.73
499.559	4041.28
499.928	4088.96
500.298	4089.64
500.667	4088.06
501.036	4134.38
501.405	4157.66
501.774	4154.27
502.143	4183.65
502.512	4208.05
502.88	4252.35
503.249	4258.45
503.618	4229.52
503.987	4267.03
504.356	4297.09
504.724	4358.78
505.093	4322.85
505.462	4356.07
505.83	4418.22
506.199	4373.7
506.567	4475.62
506.936	4458.22
507.304	4526.24
507.672	4543.86
508.041	4552.9
508.409	4533.47
508.777	4537.54
509.145	4606.23
509.514	4587.7
509.882	4604.88
510.25	4610.53
510.618	4613.01
510.986	4670.19
511.354	4739.11
511.722	4717.87
512.09	4752.22
512.458	4770.75
512.826	4800.81
513.193	4774.82
513.561	4789.73
513.929	4846.23
514.297	4848.94
514.664	4918.99
515.032	4916.74
515.4	4904.53
515.767	4952.21
516.135	4997.18
516.502	4948.15
516.869	5025.43
517.237	5028.14
517.604	4969.84
517.972	5009.16
518.339	5077.18
518.706	5100.01
519.073	5042.38
519.44	5065.88
519.808	5116.28
520.175	5127.35
520.542	5137.97
520.909	5174.81
521.276	5191.3
521.643	5203.96
522.009	5244.41
522.376	5238.31
522.743	5225.2
523.11	5307.91
523.477	5337.74
523.843	5371.41
524.21	5422.71
524.577	5458.19
524.943	5526.66
525.31	5533.22
525.676	5560.11
526.043	5579.54
526.409	5594.23
526.776	5685.75
527.142	5699.09
527.508	5690.73
527.874	5756.26
528.241	5753.55
528.607	5820.67
528.973	5854.11
529.339	5796.26
529.705	5859.76
530.071	5908.12
530.437	5950.15
530.803	5975.01
531.169	5989.25
531.535	5972.75
531.901	5972.07
532.267	6024.73
532.632	6009.14
532.998	6132.97
533.364	6080.55
533.73	6137.49
534.095	6177.49
534.461	6172.07
534.826	6197.38
535.192	6200.32
535.557	6292.52
535.923	6306.3
536.288	6326.87
536.653	6387.43
537.019	6342.69
537.384	6405.51
537.749	6440.76
538.114	6427.66
538.479	6440.76
538.845	6481.21
539.21	6466.98
539.575	6505.17
539.94	6576.35
540.305	6539.74
540.67	6607.54
541.034	6578.39
541.399	6664.03
541.764	6740.19
542.129	6752.62
542.494	6772.96
542.858	6749.46
543.223	6805.95
543.587	6860.19
543.952	6835.55
544.316	6866.74
544.681	6869
545.045	6940.64
545.41	6931.82
545.774	6972.95
546.138	7013.18
546.503	6967.98
546.867	7040.52
547.231	7069.22
547.595	7033.29
547.959	7120.07
548.324	7131.14
548.688	7146.28
549.052	7191.03
549.416	7183.57
549.779	7205.04
550.143	7313.96
550.507	7280.74
550.871	7263.79
551.235	7353.06
551.599	7373.85
551.962	7389.89
552.326	7355.54
552.689	7462.66
553.053	7420.62
553.417	7450.68
553.78	7510.79
554.143	7534.97
554.507	7556.89
554.87	7553.95
555.234	7637.34
555.597	7572.03
555.96	7636.44
556.323	7668.08
556.686	7681.63
557.05	7707.4
557.413	7730.45
557.776	7765.25
558.139	7857.45
558.502	7825.81
558.865	7822.2
559.228	7899.26
559.59	7917.11
559.953	7912.14
560.316	7974.28
560.679	7999.14
561.041	8045.01
561.404	8065.13
561.767	8062.42
562.129	8155.29
562.492	8167.5
562.854	8159.14
563.217	8133.83
563.579	8183.99
563.941	8266.7
564.304	8260.15
564.666	8306.48
565.028	8313.03
565.39	8376.31
565.753	8343.31
566.115	8406.59
566.477	8447.72
566.839	8453.14
567.201	8538.33
567.563	8526.36
567.925	8624.89
568.287	8592.8
568.648	8598.9
569.01	8687.26
569.372	8795.28
569.734	8690.42
570.095	8762.74
570.457	8815.39
570.819	8784.43
571.18	8796.86
571.542	8922.96
571.903	8975.16
572.265	8997.08
572.626	9055.16
572.987	9093.8
573.349	9164.53
573.71	9176.96
574.071	9231.42
574.432	9251.31
574.794	9321.82
575.155	9388.03
575.516	9461.02
575.877	9545.54
576.238	9564.75
576.599	9627.57
576.96	9680.68
577.32	9747.12
577.681	9876.6
578.042	9973.55
578.403	10061.01
578.763	10115.47
579.124	10174.45
579.485	10346.42
579.845	10422.35
580.206	10444.05
580.566	10613.76
580.927	10674.32
581.287	10886.3
581.648	10952.73
582.008	11083.35
582.368	11186.63
582.728	11322.89
583.089	11471.59
583.449	11647.18
583.809	11810.34
584.169	12012.82
584.529	12097.56
584.889	12367.61
585.249	12506.59
585.609	12647.83
585.969	12934.83
586.329	13051.66
586.688	13225.22
587.048	13474.25
587.408	13639.67
587.768	13909.72
588.127	14119.66
588.487	14254.34
588.846	14640.77
589.206	14797.61
589.565	15026.53
589.925	15290.93
590.284	15541.09
590.643	15781.31
591.003	16061.98
591.362	16391.91
591.721	16697.67
592.08	16863.09
592.44	17113.02
592.799	17412.9
593.158	17669.39
593.517	17906.22
593.876	18324.07
594.235	18457.85
594.593	18767.22
594.952	19075.91
595.311	19340.08
595.67	19658.04
596.029	20050.57
596.387	20243.56
596.746	20621.18
597.104	20822.53
597.463	21062.75
597.822	21467.26
598.18	21654.15
598.538	21886.01
598.897	22441.92
599.255	22341.81
599.613	23045.98
599.972	23116.03
600.33	23422.01
600.688	23669.24
601.046	23982.22
601.404	24358.71
601.762	24541.3
602.12	24966.83
602.478	25149.65
602.836	25374.5
603.194	25585.8
603.552	25858.33
603.91	26024.43
604.268	26428.71
604.625	26551.19
604.983	26992.76
605.341	27068.92
605.698	27268.46
606.056	27685.18
606.413	27755.91
606.771	28126.07
607.128	28539.62
607.485	28491.26
607.843	28780.06
608.2	29024.35
608.557	29475.86
608.914	29469.76
609.272	29840.83
609.629	30036.98
609.986	30312.68
610.343	30332.79
610.7	30733.91
611.057	30961.25
611.414	31088.02
611.771	31314.46
612.127	31695.47
612.484	31656.6
612.841	31976.36
613.198	32102.91
613.554	32099.98
613.911	32457.48
614.267	32608.44
614.624	32652.95
614.98	32972.04
615.337	33140.4
615.693	33124.58
616.05	33345.37
616.406	33573.16
616.762	33560.28
617.118	33780.61
617.475	33994.39
617.831	34187.6
618.187	34356.41
618.543	34423.08
618.899	34691.09
619.255	34768.83
619.611	34838.66
619.967	35136.51
620.323	35261.47
620.678	35186.67
621.034	35250.4
621.39	35435.03
621.746	35452.88
622.101	35879.99
622.457	35644.97
622.812	35896.71
623.168	36137.84
623.523	36042.7
623.879	36225.52
624.234	36065.75
624.589	36418.51
624.945	36318.62
625.3	36601.55
625.655	36569.91
626.01	36576.69
626.365	36733.3
626.72	36771.49
627.075	36809.68
627.43	36794.77
627.785	36808.78
628.14	37046.29
628.495	37193.63
628.85	37138.49
629.205	37063.91
629.559	37431.36
629.914	37243.34
630.269	37347.07
630.623	37344.13
630.978	37327.18
631.332	37510
631.687	37621.41
632.041	37451.02
632.396	37447.86
632.75	37355.88
633.104	37418.93
633.459	37405.6
633.813	37397.46
634.167	37471.81
634.521	37478.36
634.875	37644.01
635.229	37463
635.583	37368.76
635.937	37494.86
636.291	37416.67
636.645	37468.65
636.999	37374.86
637.352	37697.57
637.706	37306.17
638.06	37558.14
638.413	37436.78
638.767	37382.77
639.121	37541.41
639.474	37368.31
639.828	37359.95
640.181	37521.08
640.534	37486.73
640.888	37436.33
641.241	37138.71
641.594	37362.66
641.947	37465.71
642.301	37398.82
642.654	37421.19
643.007	37441.98
643.36	37437.46
643.713	37435.43
644.066	37424.81
644.419	37261.87
644.771	37144.14
645.124	36814.2
645.477	36768.55
645.83	36532.18
646.182	36370.6
646.535	36403.36
646.888	36386.42
647.24	36186.42
647.593	36426.87
647.945	36285.18
648.298	36191.17
648.65	36130.6
649.002	36086.76
649.355	36204.95
649.707	36165.86
650.059	36345.97
650.411	36802.9
650.763	36848.1
651.115	37106.17
651.467	36946.63
651.819	36875.89
652.171	36986.85
652.523	36898.72
652.875	36927.87
653.227	36715.22
653.578	37047.64
653.93	36886.97
654.282	36736.24
654.633	36758.61
654.985	36842.22
655.337	36900.3
655.688	36855.1
656.039	37018.04
656.391	36640.65
656.742	36807.2
657.094	36771.72
657.445	36713.64
657.796	36795.67
658.147	36663.02
658.498	36724.26
658.849	36785.05
659.2	36682
659.551	36604.04
659.902	36785.95
660.253	36620.99
660.604	36691.04
660.955	36517.94
661.306	36691.27
661.656	36583.7
662.007	36708.44
662.358	36558.84
662.708	36674.77
663.059	36811.72
663.409	36397.04
663.76	36663.47
664.11	36665.96
664.461	36663.02
664.811	36628.67
665.161	36583.25
665.511	36444.95
665.862	36660.53
666.212	36674.54
666.562	36745.5
666.912	36644.04
667.262	36495.34
667.612	36544.15
667.962	36498.96
668.312	36500.54
668.662	36603.81
669.011	36509.58
669.361	36547.54
669.711	36489.24
670.06	36465.51
670.41	36459.41
670.76	36491.05
671.109	36477.26
671.459	36396.36
671.808	36332.86
672.157	36450.82
672.507	36247.66
672.856	36286.08
673.205	36302.12
673.554	36358.62
673.904	36210.6
674.253	36366.08
674.602	36228.45
674.951	35726.77
675.3	35593.89
675.649	36137.84
675.998	36117.72
676.346	36198.4
676.695	36289.02
677.044	35981.91
677.393	36052.19
677.741	36166.08
678.09	36049.7
678.438	36059.65
678.787	35904.17
679.135	35959.08
679.484	35861.68
679.832	35950.5
680.181	35794.79
680.529	35912.53
680.877	35864.85
681.225	35781.46
681.573	35848.58
681.922	35670.73
682.27	35527.23
682.618	35672.08
682.966	35508.02
683.314	35621.01
683.661	35500.56
684.009	35285.2
684.357	35247.69
684.705	35155.49
685.053	35234.13
685.4	35182.38
685.748	34931.99
686.095	35035.27
686.443	34865.33
686.79	34840.92
687.138	34976.28
687.485	34869.85
687.832	34760.02
688.18	34853.58
688.527	34447.71
688.874	34637.99
689.221	34562.96
689.568	34409.29
689.915	34379.01
690.262	34306.7
690.609	34123.88
690.956	34256.08
691.303	34160.26
691.65	33784.9
691.997	34052.92
692.344	33760.72
692.69	33765.47
693.037	33708.75
693.383	33407.74
693.73	33704
694.077	33352.6
694.423	33319.6
694.769	33179.49
695.116	33229.89
695.462	33114.64
695.808	33112.6
696.155	33085.71
696.501	33015.66
696.847	32912.61
697.193	32663.58
697.539	32901.31
697.885	32646.85
698.231	32478.5
698.577	32514.88
698.923	32433.07
699.269	32369.8
699.614	32132.74
699.96	32138.39
700.306	32138.39
700.651	32080.77
700.997	31863.15
701.342	31865.86
701.688	31835.12
702.033	31692.3
702.379	31681.68
702.724	31527.11
703.069	31701.12
703.415	31164.86
703.76	31357.4
704.105	31277.4
704.45	31280.34
704.795	31019.33
705.14	30961.93
705.485	30939.33
705.83	30727.58
706.175	30877.41
706.52	30702.05
706.865	30631.31
707.209	30592.44
707.554	30602.16
707.899	30650.52
708.243	30416.4
708.588	30373.01
708.932	30193.58
709.277	30186.13
709.621	30123.98
709.966	29933.93
710.31	30004.89
710.654	29794.73
710.998	29839.02
711.342	29709.3
711.687	29820.49
712.031	29616.2
712.375	29672.47
712.719	29540.04
713.063	29554.28
713.407	29604.45
713.75	29546.82
714.094	29422.08
714.438	29237.68
714.782	29315.64
715.125	29055.54
715.469	29132.14
715.812	28963.11
716.156	28821.87
716.499	28899.61
716.843	28936.44
717.186	28789.33
717.53	28846.05
717.873	28885.6
718.216	28796.33
718.559	28578.71
718.902	28453.52
719.246	28487.87
719.589	28444.93
719.932	28388.21
720.275	28311.83
720.617	28460.3
720.96	28338.94
721.303	28267.76
721.646	28300.98
721.989	28029.35
722.331	28197.93
722.674	28021.89
723.016	28069.57
723.359	28016.47
723.701	27990.7
724.044	27857.6
724.386	27630.94
724.729	27860.54
725.071	27764.5
725.413	27637.49
725.755	27656.02
726.097	27635.23
726.439	27436.14
726.782	27462.13
727.124	27616.03
727.465	27428.23
727.807	27446.31
728.149	27313.21
728.491	27344.39
728.833	27350.04
729.175	27154.79
729.516	27129.71
729.858	27183.72
730.199	27154.34
730.541	27026.21
730.882	27005.65
731.224	27042.93
731.565	26868.47
731.906	27018.07
732.248	26974.23
732.589	26774.01
732.93	26710.51
733.271	26604.75
733.612	26730.17
733.953	26754.35
734.294	26724.3
734.635	26530.18
734.976	26706.9
735.317	26372.22
735.658	26439.11
735.999	26491.76
736.339	26399.79
736.68	26496.28
737.021	26425.1
737.361	26335.61
737.702	26223.07
738.042	26311.2
738.383	26208.15
738.723	26310.07
739.063	26155.27
739.404	26215.61
739.744	26153.46
740.084	25983.07
740.424	26109.85
740.764	25938.1
741.104	26005.67
741.444	25855.62
741.784	25837.77
742.124	25882.96
742.464	25758
742.804	25775.17
743.143	25672.35
743.483	25706.02
743.823	25572.69
744.162	25580.15
744.502	25565.68
744.841	25513.48
745.181	25542.18
745.52	25438.46
745.86	25506.25
746.199	25423.77
746.538	25302.87
746.877	25376.76
747.216	25365.91
747.556	25250.89
747.895	25290.21
748.234	25181.06
748.573	25235.07
748.911	25087.96
749.25	25114.4
749.589	24990.33
749.928	25085.47
750.267	25043.21
750.605	24928.64
750.944	24923.21
751.283	24719.83
751.621	24890.22
751.96	24685.25
752.298	24697.68
752.636	24803.44
752.975	24546.5
753.313	24530.46
753.651	24616.78
753.989	24383.57
754.327	24388.77
754.666	24336.56
755.004	24316.23
755.342	24329.11
755.679	24200.97
756.017	24146.74
756.355	24260.86
756.693	24033.97
757.031	24081.43
757.368	23855.45
757.706	23924.6
758.044	23875.33
758.381	23797.37
758.719	23840.08
759.056	23720.99
759.394	23700.87
759.731	23509.01
760.068	23451.62
760.405	23405.97
760.743	23315.12
761.08	23414.55
761.417	23261.11
761.754	23235.35
762.091	23095.92
762.428	23053.89
762.765	22920.56
763.102	23035.81
763.438	22823.38
763.775	22693.22
764.112	22690.28
764.449	22745.87
764.785	22699.54
765.122	22585.65
765.458	22461.81
765.795	22463.84
766.131	22402.15
766.467	22290.74
766.804	22114.48
767.14	22048.04
767.476	22209.61
767.812	21926.91
768.148	22043.29
768.485	21889.17
768.821	21801.71
769.157	21684.2
769.492	21644.66
769.828	21678.78
770.164	21372.8
770.5	21396.53
770.836	21400.14
771.171	21309.75
771.507	21258.9
771.842	21121.96
772.178	21017.33
772.513	20938.01
772.849	20880.61
773.184	20761.74
773.519	20819.37
773.855	20745.92
774.19	20591.13
774.525	20592.26
774.86	20682.2
775.195	20564.91
775.53	20378.48
775.865	20336.67
776.2	20143.23
776.535	20050.35
776.87	20037.02
777.205	19926.74
777.539	19891.48
777.874	19878.38
778.209	19653.07
778.543	19750.7
778.878	19542.34
779.212	19571.27
779.547	19422.79
779.881	19475.67
780.215	19290.82
780.55	19390.48
780.884	19170.37
781.218	19156.59
781.552	19240.43
781.886	18986.42
782.22	18915.24
782.554	18894.9
782.888	18741.23
783.222	18676.83
783.556	18555.92
783.889	18514.8
784.223	18355.7
784.557	18449.26
784.89	18441.35
785.224	18251.3
785.557	18246.55
785.891	18220.79
786.224	18096.5
786.558	18128.37
786.891	17903.96
787.224	17909.39
787.557	17822.16
787.891	17833.91
788.224	17755.72
788.557	17709.85
788.89	17622.62
789.223	17632.56
789.556	17444.99
789.888	17379.23
790.221	17443.86
790.554	17241.38
790.887	17280.03
791.219	17189.63
791.552	17187.6
791.884	17166.58
792.217	16961.16
792.549	17024.21
792.882	16841.85
793.214	16771.11
793.546	16864.44
793.879	16764.56
794.211	16576.77
794.543	16642.75
794.875	16591.46
795.207	16695.18
795.539	16498.58
795.871	16416.55
796.203	16310.79
796.535	16253.39
796.867	16250
797.198	16213.61
797.53	16194.18
797.862	16034.18
798.193	16122.32
798.525	15955.54
798.856	15995.09
799.188	15947.63
799.519	15779.27
799.85	15716.9
800.182	15711.48
800.513	15640.07
800.844	15622.44
801.175	15676.9
801.506	15659.73
801.837	15513.97
802.168	15414.76
802.499	15483.46
802.83	15354.65
803.161	15338.83
803.491	15283.02
803.822	15260.87
804.153	15190.36
804.483	15114.66
804.814	14982.69
805.145	15021.33
805.475	14978.62
805.805	14995.79
806.136	14888.45
806.466	14908.34
806.796	14845.74
807.126	14709.02
807.457	14727.1
807.787	14738.17
808.117	14602.58
808.447	14557.61
808.777	14626.31
809.107	14505.41
809.436	14462.92
809.766	14508.57
810.096	14410.72
810.426	14353.55
810.755	14360.55
811.085	14297.28
811.414	14228.13
811.744	14196.04
812.073	14229.48
812.403	14208.92
812.732	14034.01
813.061	14087.79
813.39	13992.43
813.719	14029.72
814.049	14039.89
814.378	13978.87
814.707	13874.92
815.036	13749.72
815.365	13764.86
815.693	13649.84
816.022	13671.76
816.351	13669.27
816.68	13508.15
817.008	13627.01
817.337	13566.45
817.665	13495.27
817.994	13547.92
818.322	13483.52
818.651	13350.41
818.979	13403.52
819.307	13438.32
819.636	13397.87
819.964	13330.98
820.292	13286.23
820.62	13306.35
820.948	13312.45
821.276	13291.88
821.604	13267.02
821.932	13211.21
822.259	13305.89
822.587	13184.54
822.915	13226.35
823.243	13258.66
823.57	13230.64
823.898	13272.67
824.225	13178.89
824.553	13265.44
824.88	13252.34
825.207	13240.81
825.535	13201.72
825.862	13265.44
826.189	13166.91
826.516	13262.5
826.843	13236.29
827.17	13213.92
827.497	13255.05
827.824	13168.72
828.151	13203.75
828.478	13208.04
828.805	13260.24
829.131	13127.37
829.458	13211.88
829.785	13120.81
830.111	13125.33
830.438	13217.08
830.764	13088.05
831.09	13138.44
831.417	13079.23
831.743	13155.39
832.069	13107.93
832.395	13116.07
832.722	13159
833.048	13008.95
833.374	12988.84
833.7	13008.27
834.026	13052.57
834.351	13069.97
834.677	13012.34
835.003	13044.88
835.329	13029.52
835.654	12943.42
835.98	12878.11
836.306	12942.96
836.631	12922.4
836.956	12880.37
837.282	12915.62
837.607	12806.7
837.932	12803.53
838.258	12853.93
838.583	12745
838.908	12716.08
839.233	12775.51
839.558	12632.24
839.883	12656.87
840.208	12563.77
840.533	12661.16
840.858	12544.11
841.182	12622.3
841.507	12613.71
841.832	12514.5
842.156	12514.05
842.481	12563.09
842.805	12460.49
843.13	12426.37
843.454	12480.83
843.778	12308.18
844.103	12341.4
844.427	12320.83
844.751	12282.19
845.075	12318.8
845.399	12221.4
845.723	12244
846.047	12237.67
846.371	12033.84
846.695	12064.57
847.019	12032.71
847.343	11923.1
847.666	11874.97
847.99	11871.13
848.313	11849.89
848.637	11776.89
848.96	11728.31
849.284	11675.43
849.607	11572.15
849.931	11612.6
850.254	11497.13
850.577	11435.66
850.9	11383.68
851.223	11371.48
851.546	11327.64
851.869	11257.36
852.192	11267.08
852.515	11139.17
852.838	11103.24
853.161	11126.29
853.483	11053.75
853.806	11039.74
854.129	11056.69
854.451	10945.73
854.774	10930.14
855.096	10906.63
855.419	10861.21
855.741	10801.1
856.063	10726.07
856.385	10724.72
856.708	10692.18
857.03	10695.34
857.352	10737.6
857.674	10593.2
857.996	10522.92
858.318	10526.76
858.64	10556.13
858.961	10520.2
859.283	10410.6
859.605	10397.49
859.926	10444.95
860.248	10440.21
860.57	10364.95
860.891	10385.07
861.212	10297.16
861.534	10285.86
861.855	10235.01
862.176	10350.49
862.498	10261.45
862.819	10309.14
863.14	10206.99
863.461	10119.08
863.782	10137.16
864.103	10127.67
864.424	10100.78
864.745	10148.46
865.065	10027.11
865.386	9990.05
865.707	10013.78
866.027	10031.4
866.348	10056.71
866.668	9956.38
866.989	9956.15
867.309	9944.85
867.63	9895.81
867.95	9935.36
868.27	9885.64
868.59	9896.27
868.91	9891.75
869.23	9886.32
869.55	9771.97
869.87	9890.84
870.19	9864.4
870.51	9854.23
870.83	9733.33
871.15	9755.48
871.469	9692.65
871.789	9768.36
872.109	9760.45
872.428	9671.64
872.748	9651.3
873.067	9710.28
873.386	9677.74
873.706	9626.44
874.025	9628.93
874.344	9568.36
874.663	9610.17
874.982	9557.29
875.301	9523.85
875.62	9527.01
875.939	9479.33
876.258	9503.28
876.577	9458.76
876.896	9458.76
877.214	9530.4
877.533	9342.16
877.852	9412.44
878.17	9357.52
878.489	9387.58
878.807	9368.6
879.125	9363.85
879.444	9344.19
879.762	9263.06
880.08	9324.08
880.398	9312.1
880.716	9300.12
881.034	9273.46
881.352	9266.23
881.67	9259.9
881.988	9214.02
882.306	9233.91
882.624	9124.31
882.941	9077.08
883.259	9109.17
883.577	9063.74
883.894	9056.29
884.212	9093.12
884.529	9019.45
884.846	8966.8
885.164	9033.24
885.481	8986.23
885.798	8995.95
886.115	8918.66
886.432	8892.45
886.75	8899.91
887.067	8901.04
887.383	8858.1
887.7	8882.96
888.017	8742.4
888.334	8770.65
888.651	8738.78
888.967	8753.92
889.284	8726.8
889.6	8684.09
889.917	8604.1
890.233	8635.73
890.55	8633.47
890.866	8571.1
891.182	8562.74
891.498	8568.39
891.815	8493.82
892.131	8495.85
892.447	8439.35
892.763	8420.37
893.079	8374.72
893.395	8417.21
893.71	8375.63
894.026	8355.06
894.342	8276.87
894.657	8270.32
894.973	8289.98
895.289	8249.08
895.604	8210.43
895.92	8219.7
896.235	8159.81
896.55	8166.59
896.865	8110.32
897.181	8064.22
897.496	8137.67
897.811	8007.5
898.126	7981.06
898.441	8005.69
898.756	7908.97
899.071	7893.15
899.386	7911.01
899.7	7851.8
900.015	7790.56
900.33	7797.34
900.644	7774.29
900.959	7727.96
901.273	7731.12
901.588	7634.18
901.902	7622.88
902.216	7627.17
902.531	7568.87
902.845	7593.73
903.159	7510.11
903.473	7436.22
903.787	7428.99
904.101	7420.17
904.415	7457.91
904.729	7450.91
905.042	7374.75
905.356	7400.96
905.67	7340.4
905.984	7334.3
906.297	7339.72
906.611	7256.11
906.924	7216.11
907.237	7201.42
907.551	7205.94
907.864	7142.67
908.177	7130.46
908.491	7122.1
908.804	7040.07
909.117	7080.52
909.43	6917.59
909.743	6960.98
910.056	6995.1
910.368	6908.1
910.681	6859.28
910.994	6861.32
911.307	6868.55
911.619	6749
911.932	6845.27
912.244	6718.95
912.557	6769.34
912.869	6660.42
913.181	6652.73
913.494	6682.56
913.806	6580.42
914.118	6556.24
914.43	6530.03
914.742	6521.21
915.054	6459.52
915.366	6482.34
915.678	6465.85
915.99	6443.93
916.302	6383.36
916.613	6328.9
916.925	6359.64
917.236	6359.64
917.548	6279.64
917.859	6259.3
918.171	6271.28
918.482	6212.75
918.794	6210.26
919.105	6188.34
919.416	6142.24
919.727	6117.38
920.038	6107.66
920.349	6057.72
920.66	6022.92
920.971	6043.49
921.282	5993.32
921.593	5989.93
921.903	5924.84
922.214	5918.29
922.525	5938.63
922.835	5921.91
923.146	5834.9
923.456	5765.75
923.767	5826.99
924.077	5755.58
924.387	5794.68
924.697	5750.39
925.008	5712.19
925.318	5664.96
925.628	5691.4
925.938	5654.34
926.248	5617.96
926.558	5552.2
926.867	5575.7
927.177	5589.94
927.487	5537.51
927.796	5469.26
928.106	5485.76
928.416	5404.18
928.725	5452.31
929.034	5410.96
929.344	5420.22
929.653	5363.73
929.962	5363.73
930.271	5305.88
930.581	5236.95
930.89	5300.45
931.199	5236.5
931.508	5195.6
931.817	5221.59
932.125	5193.56
932.434	5160.8
932.743	5102.27
933.051	5103.62
933.36	5044.87
933.669	5024.08
933.977	5019.11
934.286	5069.05
934.594	4970.07
934.902	4970.97
935.21	4984.76
935.519	4931.65
935.827	4928.94
936.135	4933.91
936.443	4858.21
936.751	4811.43
937.059	4859.11
937.367	4835.38
937.674	4768.72
937.982	4803.74
938.29	4784.76
938.597	4757.64
938.905	4667.93
939.213	4721.26
939.52	4662.05
939.827	4697.76
940.135	4666.8
940.442	4613.24
940.749	4615.5
941.056	4553.81
941.363	4563.3
941.67	4514.49
941.977	4521.72
942.284	4489.4
942.591	4522.4
942.898	4442.17
943.205	4478.78
943.511	4440.59
943.818	4425.9
944.125	4391.55
944.431	4368.95
944.738	4340.03
945.044	4352.46
945.35	4319.69
945.657	4349.52
945.963	4276.3
946.269	4267.71
946.575	4268.84
946.881	4194.04
947.187	4165.79
947.493	4149.98
947.799	4137.77
948.105	4136.64
948.41	4091.45
948.716	4116.98
949.022	4071.56
949.327	4097.77
949.633	4027.49
949.938	4029.53
950.244	4032.92
950.549	4001.73
950.854	3976.87
951.16	3943.2
951.465	3946.59
951.77	3887.16
952.075	3906.37
952.38	3905.01
952.685	3905.69
952.99	3854.84
953.294	3865.92
953.599	3816.43
953.904	3798.12
954.209	3771.23
954.513	3774.62
954.818	3768.29
955.122	3763.32
955.426	3745.01
955.731	3679.48
956.035	3683.55
956.339	3634.28
956.643	3658.24
956.948	3667.5
957.252	3659.59
957.556	3632.7
957.86	3596.54
958.163	3620.72
958.467	3606.49
958.771	3574.85
959.075	3585.47
959.378	3544.34
959.682	3474.74
959.985	3491.69
960.289	3522.42
960.592	3481.74
960.896	3462.31
961.199	3473.61
961.502	3428.64
961.805	3434.74
962.108	3421.18
962.411	3358.81
962.714	3381.86
963.017	3366.72
963.32	3335.53
963.623	3338.02
963.926	3317
964.228	3312.71
964.531	3278.59
964.833	3291.69
965.136	3220.28
965.438	3242.88
965.741	3229.32
966.043	3225.48
966.345	3188.87
966.648	3179.38
966.95	3153.62
967.252	3144.13
967.554	3140.74
967.856	3145.71
968.158	3130.12
968.46	3106.39
968.761	3050.34
969.063	3128.31
969.365	3091.47
969.666	3051.02
969.968	3013.06
970.269	3016.45
970.571	2989.78
970.872	2986.39
971.174	2988.2
971.475	2986.62
971.776	2956.11
972.077	2958.59
972.378	2941.42
972.679	2925.38
972.98	2958.37
973.281	2919.5
973.582	2886.73
973.883	2872.27
974.183	2861.65
974.484	2849.44
974.785	2825.26
975.085	2831.14
975.386	2836.56
975.686	2855.09
975.986	2758.83
976.287	2785.27
976.587	2744.36
976.887	2804.02
977.187	2732.39
977.487	2747.07
977.787	2743.23
978.087	2708.21
978.387	2641.77
978.687	2730.58
978.987	2666.62
979.286	2651.26
979.586	2631.6
979.885	2632.05
980.185	2617.59
980.484	2608.1
980.784	2631.82
981.083	2575.1
981.382	2560.86
981.682	2570.13
981.981	2545.72
982.28	2551.83
982.579	2518.38
982.878	2526.74
983.177	2521.09
983.475	2534.65
983.774	2480.87
984.073	2462.34
984.372	2459.85
984.67	2434.09
984.969	2453.3
985.267	2454.2
985.566	2461.88
985.864	2424.82
986.162	2417.14
986.461	2383.92
986.759	2387.08
987.057	2353.41
987.355	2328.33
987.653	2331.72
987.951	2345.5
988.249	2372.62
988.547	2340.76
988.844	2294.21
989.142	2306.63
989.44	2284.26
989.737	2268.9
990.035	2271.15
990.332	2258.27
990.63	2254.88
990.927	2255.56
991.224	2252.4
991.521	2236.35
991.819	2195
992.116	2202.23
992.413	2186.19
992.71	2178.05
993.006	2172.4
993.303	2142.57
993.6	2154.55
993.897	2131.95
994.193	2129.46
994.49	2121.33
994.787	2101.22
995.083	2082.69
995.379	2122.23
995.676	2080.43
995.972	2085.4
996.268	2073.65
996.565	2057.15
996.861	2050.37
997.157	2035.23
997.453	2015.57
997.749	2027.55
998.044	1995.91
998.34	2023.93
998.636	1998.62
998.932	2008.11
999.227	1933.31
999.523	1956.59
999.818	1935.57
1000.114	1937.15
1000.409	1908.9
1000.704	1915.91
1001	1911.16
1001.295	1882.01
1001.59	1883.14
1001.885	1898.74
1002.18	1849.47
1002.475	1844.5
1002.77	1859.19
1003.065	1860.54
1003.359	1832.07
1003.654	1807.44
1003.949	1793.88
1004.243	1819.87
1004.538	1782.58
1004.832	1764.73
1005.127	1789.36
1005.421	1789.81
1005.715	1771.96
1006.009	1747.33
1006.304	1728.12
1006.598	1724.5
1006.892	1723.6
1007.186	1710.04
1007.48	1691.51
1007.773	1695.58
1008.067	1669.36
1008.361	1655.35
1008.655	1633.43
1008.948	1652.64
1009.242	1603.38
1009.535	1616.03
1009.829	1628.23
1010.122	1622.36
1010.415	1605.18
1010.708	1589.14
1011.001	1567.44
1011.295	1588.46
1011.588	1574
1011.881	1558.86
1012.173	1547.56
1012.466	1532.64
1012.759	1508.92
1013.052	1556.15
1013.344	1507.56
1013.637	1539.42
1013.93	1504.17
1014.222	1505.53
1014.514	1472.53
1014.807	1482.02
1015.099	1466.88
1015.391	1449.03
1015.683	1456.26
1015.976	1413.1
1016.268	1445.41
1016.56	1438.63
1016.851	1412.87
1017.143	1401.35
1017.435	1417.17
1017.727	1389.37
1018.018	1373.78
1018.31	1353.21
1018.602	1342.59
1018.893	1362.93
1019.185	1372.42
1019.476	1342.82
1019.767	1313.67
1020.058	1349.37
1020.35	1302.59
1020.641	1304.17
1020.932	1288.13
1021.223	1285.87
1021.514	1275.25
1021.804	1284.06
1022.095	1275.93
1022.386	1251.97
1022.677	1272.76
1022.967	1272.31
1023.258	1254.91
1023.548	1241.35
1023.839	1230.96
1024.129	1228.02
1024.419	1209.94
1024.709	1215.14
1025	1179.88
1025.29	1181.92
1025.58	1170.84
1025.87	1151.41
1026.16	1168.81
1026.449	1184.18
1026.739	1168.81
1027.029	1146.21
1027.319	1145.08
1027.608	1124.52
1027.898	1137.63
1028.187	1143.05
1028.477	1114.58
1028.766	1083.16
1029.055	1106.44
1029.344	1062.6
1029.634	1089.04
1029.923	1103.5
1030.212	1051.53
1030.501	1032.54
1030.79	1043.39
1031.078	1038.19
1031.367	1057.4
1031.656	1051.75
1031.945	1024.18
1032.233	1013.79
1032.522	1011.08
1032.81	995.03
1033.099	1019.44
1033.387	998.42
1033.675	1016.27
1033.963	993.45
1034.251	1002.49
1034.54	963.84
1034.828	964.97
1035.116	953.9
1035.403	961.36
1035.691	960
1035.979	943.28
1036.267	928.59
1036.554	941.25
1036.842	920.23
1037.129	947.35
1037.417	900.12
1037.704	904.86
1037.992	895.15
1038.279	908.48
1038.566	894.24
1038.853	894.24
1039.14	894.24
