Data from hue_50_FLMS001491_56.txt Node
Date: Mon Feb 06 15:10:32 GMT 2017
User: dcchb
Spectrometer: FLMS00149
Trigger mode: 0
Integration Time (sec): 2.000000E-2
Scans to average: 10
Electric dark correction enabled: true
Nonlinearity correction enabled: false
Boxcar width: 0
XAxis mode: Wavelengths
Number of Pixels in Spectrum: 2048
>>>>>Begin Spectral Data<<<<<
341.393	-14.7
341.776	-14.7
342.16	-14.7
342.543	-56.06
342.927	-45.44
343.31	-58.32
343.693	-80.92
344.077	-52.67
344.46	-69.62
344.843	-63.74
345.226	-59
345.61	-32.33
345.993	-26.91
346.376	8.8
346.759	24.84
347.142	22.13
347.525	39.08
347.908	63.04
348.291	71.85
348.674	89.25
349.057	124.5
349.44	127.44
349.823	142.13
350.206	164.28
350.588	204.5
350.971	220.09
351.354	215.35
351.737	240.88
352.119	265.06
352.502	259.19
352.884	292.18
353.267	299.86
353.65	300.32
354.032	306.87
354.414	294.67
354.797	303.03
355.179	332.18
355.562	338.96
355.944	326.53
356.326	337.6
356.709	340.54
357.091	338.28
357.473	343.25
357.855	340.54
358.238	352.74
358.62	335.57
359.002	344.84
359.384	354.33
359.766	355.46
360.148	337.15
360.53	371.05
360.912	348.68
361.294	351.16
361.676	352.74
362.057	332.86
362.439	341.67
362.821	326.76
363.203	325.18
363.584	327.89
363.966	328.79
364.348	338.73
364.729	318.4
365.111	329.47
365.493	312.07
365.874	333.54
366.256	314.78
366.637	312.97
367.019	313.88
367.4	307.77
367.781	329.92
368.163	333.76
368.544	324.27
368.925	308.9
369.306	326.08
369.688	302.58
370.069	318.17
370.45	307.1
370.831	317.04
371.212	334.89
371.593	306.19
371.974	330.37
372.355	324.05
372.736	325.63
373.117	319.75
373.498	326.3
373.879	330.15
374.26	307.77
374.641	332.18
375.021	322.92
375.402	314.55
375.783	306.87
376.163	313.2
376.544	328.79
376.925	305.97
377.305	337.6
377.686	324.72
378.066	321.11
378.447	350.26
378.827	343.71
379.208	344.16
379.588	324.72
379.968	325.18
380.349	337.6
380.729	318.85
381.109	329.24
381.489	347.55
381.87	338.73
382.25	332.41
382.63	357.04
383.01	321.11
383.39	326.53
383.77	312.52
384.15	332.41
384.53	328.11
384.91	349.81
385.29	338.73
385.67	359.52
386.049	340.09
386.429	357.04
386.809	337.38
387.189	364.04
387.568	364.5
387.948	356.13
388.328	359.52
388.707	349.36
389.087	364.95
389.466	371.73
389.846	358.17
390.225	355
390.605	351.39
390.984	359.52
391.363	365.4
391.743	362.24
392.122	345.74
392.501	354.55
392.881	370.15
393.26	359.3
393.639	384.38
394.018	336.7
394.397	368.79
394.776	377.83
395.155	380.77
395.534	387.09
395.913	352.97
396.292	382.8
396.671	376.7
397.05	380.09
397.429	370.15
397.808	361.33
398.186	375.57
398.565	366.76
398.944	381.67
399.323	384.83
399.701	371.73
400.08	387.55
400.458	363.82
400.837	399.3
401.215	384.16
401.594	392.52
401.972	403.82
402.351	398.85
402.729	368.11
403.107	404.5
403.486	376.02
403.864	376.47
404.242	375.8
404.62	377.38
404.999	391.61
405.377	416.47
405.755	415.12
406.133	421.44
406.511	397.94
406.889	411.27
407.267	416.47
407.645	414.89
408.023	414.66
408.401	422.35
408.779	410.82
409.156	409.69
409.534	410.82
409.912	423.03
410.29	425.06
410.667	423.93
411.045	436.36
411.422	413.08
411.8	402.69
412.178	447.43
412.555	435.23
412.933	441.78
413.31	463.25
413.687	440.88
414.065	453.76
414.442	453.99
414.819	461.22
415.197	455.12
415.574	459.86
415.951	450.14
416.328	437.04
416.705	455.79
417.082	467.09
417.46	473.87
417.837	462.35
418.214	472.52
418.591	473.87
418.967	468
419.344	468.22
419.721	476.81
420.098	471.61
420.475	489.46
420.852	482.91
421.228	479.97
421.605	472.97
421.982	503.02
422.358	491.72
422.735	495.34
423.111	503.7
423.488	508.22
423.864	502.35
424.241	485.85
424.617	505.51
424.994	520.42
425.37	519.29
425.746	515.23
426.123	536.02
426.499	524.04
426.875	538.05
427.251	521.1
427.627	532.4
428.003	561.78
428.379	529.92
428.756	563.36
429.132	551.38
429.507	563.59
429.883	544.6
430.259	546.41
430.635	578.73
431.011	571.27
431.387	560.42
431.763	583.93
432.138	568.11
432.514	591.16
432.89	586.86
433.265	575.11
433.641	616.24
434.016	581.21
434.392	587.09
434.767	599.29
435.143	610.14
435.518	610.37
435.894	628.67
436.269	601.1
436.644	630.93
437.02	627.31
437.395	639.29
437.77	626.86
438.145	664.83
438.52	652.85
438.895	657.14
439.271	646.97
439.646	646.52
440.021	657.14
440.395	681.32
440.77	680.87
441.145	669.35
441.52	678.39
441.895	679.74
442.27	690.14
442.645	694.2
443.019	692.85
443.394	692.62
443.769	701.44
444.143	714.32
444.518	702.57
444.892	699.63
445.267	668.67
445.641	703.24
446.016	727.88
446.39	716.58
446.764	740.53
447.139	715.22
447.513	754.32
447.887	723.36
448.262	748.21
448.636	734.2
449.01	722.9
449.384	760.87
449.758	759.74
450.132	757.93
450.506	769.46
450.88	764.03
451.254	784.82
451.628	806.74
452.002	772.62
452.376	790.47
452.75	802.9
453.123	829.57
453.497	798.38
453.871	785.5
454.244	818.95
454.618	831.83
454.992	836.57
455.365	825.05
455.739	840.64
456.112	882
456.486	866.18
456.859	857.36
457.232	875.22
457.606	885.16
457.979	880.87
458.352	897.59
458.725	917.25
459.099	916.12
459.472	910.7
459.845	945.5
460.218	943.01
460.591	961.32
460.964	954.09
461.337	976.91
461.71	974.88
462.083	980.3
462.456	1011.94
462.829	1006.29
463.201	1025.72
463.574	1038.6
463.947	1048.09
464.32	1046.74
464.692	1088.54
465.065	1072.27
465.438	1098.49
465.81	1107.08
466.183	1145.49
466.555	1140.29
466.928	1136.91
467.3	1168.99
467.672	1190.69
468.045	1209.45
468.417	1208.54
468.789	1248.99
469.161	1263.46
469.534	1277.01
469.906	1317.69
470.278	1303.23
470.65	1341.42
471.022	1385.71
471.394	1412.83
471.766	1426.16
472.138	1446.28
472.51	1498.7
472.882	1491.92
473.253	1540.74
473.625	1580.96
473.997	1600.17
474.369	1597.46
474.74	1658.7
475.112	1693.27
475.484	1721.75
475.855	1777.57
476.227	1810.11
476.598	1885.13
476.97	1897.56
477.341	1958.8
477.713	1976.43
478.084	2044.9
478.455	2100.04
478.827	2153.15
479.198	2262.53
479.569	2270.66
479.94	2351.11
480.311	2398.79
480.682	2470.66
481.053	2545.46
481.424	2592.69
481.795	2678.56
482.166	2767.82
482.537	2810.76
482.908	2940.25
483.279	3003.07
483.65	3085.78
484.021	3174.37
484.391	3217.53
484.762	3302.5
485.133	3391.54
485.503	3501.14
485.874	3614.13
486.244	3721.7
486.615	3869.26
486.985	3947.23
487.356	4052.76
487.726	4120.56
488.097	4250.04
488.467	4309.93
488.837	4489.36
489.207	4565.97
489.578	4717.38
489.948	4770.71
490.318	4887.77
490.688	5020.87
491.058	5197.82
491.428	5307.87
491.798	5432.61
492.168	5558.94
492.538	5680.29
492.908	5808.65
493.278	5988.53
493.648	6035.53
494.017	6160.73
494.387	6275.98
494.757	6398.01
495.126	6532.02
495.496	6669.19
495.866	6738.11
496.235	6868.73
496.605	6953.25
496.974	7092
497.344	7206.8
497.713	7292.9
498.082	7465.1
498.452	7635.27
498.821	7720.91
499.19	7841.36
499.559	7977.18
499.928	8067.8
500.298	8213.78
500.667	8314.57
501.036	8323.16
501.405	8515.47
501.774	8555.02
502.143	8708.68
502.512	8794.1
502.88	8939.64
503.249	8983.7
503.618	9193.19
503.987	9233.19
504.356	9340.53
504.724	9470.92
505.093	9549.79
505.462	9612.16
505.83	9738.94
506.199	9847.41
506.567	9994.98
506.936	10068.65
507.304	10163.33
507.672	10270.45
508.041	10340.5
508.409	10423.44
508.777	10590.44
509.145	10737.56
509.514	10777.56
509.882	10882.64
510.25	10989.75
510.618	11115.17
510.986	11185.91
511.354	11251.22
511.722	11424.09
512.09	11484.88
512.458	11464.54
512.826	11650.3
513.193	11773.69
513.561	11834.93
513.929	11920.8
514.297	12101.81
514.664	12219.1
515.032	12281.7
515.4	12388.13
515.767	12433.11
516.135	12514.91
516.502	12537.96
516.869	12680.1
517.237	12787.9
517.604	12759.42
517.972	12962.81
518.339	13092.75
518.706	13111.28
519.073	13271.28
519.44	13305.85
519.808	13467.2
520.175	13531.38
520.542	13675.33
520.909	13783.58
521.276	13723.24
521.643	13984.7
522.009	14028.54
522.376	14177.92
522.743	14200.52
523.11	14416.78
523.477	14431.24
523.843	14595.31
524.21	14736.1
524.577	14837.11
524.943	14913.94
525.31	15007.73
525.676	15174.95
526.043	15252.47
526.409	15365.46
526.776	15497.43
527.142	15481.61
527.508	15605.9
527.874	15704.88
528.241	15785.79
528.607	15861.26
528.973	16093.35
529.339	16110.3
529.705	16277.98
530.071	16390.29
530.437	16386.22
530.803	16591.64
531.169	16626.22
531.535	16674.8
531.901	16685.65
532.267	16866.44
532.632	16957.96
532.998	17067.79
533.364	17091.74
533.73	17230.72
534.095	17313.2
534.461	17274.11
534.826	17426.42
535.192	17476.36
535.557	17625.06
535.923	17556.36
536.288	17823.02
536.653	17857.37
537.019	17712.51
537.384	17884.94
537.749	18007.87
538.114	18077.93
538.479	18051.94
538.845	18136.23
539.21	18139.85
539.575	18297.36
539.94	18285.38
540.305	18458.71
540.67	18519.72
541.034	18532.83
541.399	18545.03
541.764	18635.43
542.129	18736.44
542.494	18910.68
542.858	18848.53
543.223	18896.89
543.587	19026.83
543.952	19083.33
544.316	19172.14
544.681	19120.61
545.045	19288.52
545.41	19374.62
545.774	19383.21
546.138	19499.13
546.503	19521.73
546.867	19585.69
547.231	19678.79
547.595	19770.99
547.959	19808.05
548.324	19813.25
548.688	19962.62
549.052	19931.67
549.416	20056.63
549.779	20038.56
550.143	20144.99
550.507	20258.66
550.871	20370.52
551.235	20221.6
551.599	20468.37
551.962	20478.54
552.326	20559.67
552.689	20635.83
553.053	20542.5
553.417	20627.01
553.78	20899.55
554.143	20837.18
554.507	20950.85
554.87	20971.86
555.234	21235.13
555.597	21083.73
555.96	21255.25
556.323	21308.35
556.686	21366.88
557.05	21544.28
557.413	21607.55
557.776	21663.82
558.139	21753.31
558.502	21855
558.865	21911.27
559.228	22033.76
559.59	22126.64
559.953	22121.66
560.316	22440.3
560.679	22393.97
561.041	22459.06
561.404	22716.9
561.767	22852.27
562.129	22711.03
562.492	22926.84
562.854	22943.34
563.217	22932.72
563.579	23068.53
563.941	23142.65
564.304	23241.63
564.666	23353.04
565.028	23329.54
565.39	23572.02
565.753	23737.89
566.115	23801.39
566.477	23928.4
566.839	24018.79
567.201	24170.2
567.563	24042.97
567.925	24319.8
568.287	24249.29
568.648	24378.55
569.01	24483.41
569.372	24633.24
569.734	24516.18
570.095	24743.74
570.457	24843.17
570.819	24960.23
571.18	24967.46
571.542	25245.42
571.903	25117.29
572.265	25311.86
572.626	25416.27
572.987	25428.02
573.349	25618.97
573.71	25734
574.071	25784.84
574.432	25876.37
574.794	25959.98
575.155	25957.5
575.516	25936.93
575.877	26049.7
576.238	26273.87
576.599	26362.68
576.96	26285.17
577.32	26434.09
577.681	26571.49
578.042	26700.53
578.403	26751.82
578.763	26773.07
579.124	26965.83
579.485	27034.08
579.845	27294.64
580.206	27244.24
580.566	27354.52
580.927	27353.84
581.287	27559.94
581.648	27557.45
582.008	27783.66
582.368	27764.68
582.728	27905.01
583.089	27861.63
583.449	28056.88
583.809	28246.02
584.169	28265.23
584.529	28246.25
584.889	28563.08
585.249	28486.02
585.609	28510.65
585.969	28826.12
586.329	28703.64
586.688	28994.7
587.048	29105.44
587.408	28933.46
587.768	29124.87
588.127	29183.17
588.487	29147.47
588.846	29542.94
589.206	29366.9
589.565	29508.59
589.925	29637.85
590.284	29797.39
590.643	29866.09
591.003	29989.71
591.362	30269.02
591.721	30230.15
592.08	30255.69
592.44	30430.15
592.799	30514.44
593.158	30600.31
593.517	30605.51
593.876	30757.37
594.235	30844.82
594.593	30943.58
594.952	31100.41
595.311	31024.71
595.67	31200.75
596.029	31510.8
596.387	31582.43
596.746	31692.03
597.104	31644.35
597.463	31619.27
597.822	31894.51
598.18	31818.36
598.538	31739.49
598.897	32158.69
599.255	31748.76
599.613	32439.81
599.972	32195.3
600.33	32401.85
600.688	32327.95
601.046	32673.48
601.404	32673.25
601.762	32684.78
602.12	32937.65
602.478	32991.43
602.836	33075.5
603.194	32829.18
603.552	33029.85
603.91	32968.84
604.268	33228.72
604.625	33268.94
604.983	33284.99
605.341	33174.25
605.698	33483.17
606.056	33546.9
606.413	33702.83
606.771	33664.19
607.128	33829.38
607.485	33766.33
607.843	33766.56
608.2	33996.15
608.557	34214.68
608.914	34075.7
609.272	34320.89
609.629	34287.45
609.986	34329.48
610.343	34438.63
610.7	34726.76
611.057	34585.52
611.414	34628.91
611.771	34694.89
612.127	34898.28
612.484	34990.03
612.841	35117.25
613.198	34970.82
613.554	35000.87
613.911	35177.37
614.267	35329.68
614.624	35372.62
614.98	35437.92
615.337	35601.76
615.693	35506.4
616.05	35584.36
616.406	35810.34
616.762	35650.8
617.118	35740.52
617.475	35701.87
617.831	35938.48
618.187	35961.07
618.543	35907.06
618.899	36215.98
619.255	36112.71
619.611	36093.95
619.967	36178.24
620.323	36302.99
620.678	36118.81
621.034	36232.71
621.39	36226.6
621.746	36146.15
622.101	36602.19
622.457	36492.59
622.812	36587.05
623.168	36678.12
623.523	36564.67
623.879	36746.82
624.234	36555.86
624.589	36653.94
624.945	36680.6
625.3	36801.96
625.655	36669.76
626.01	36829.07
626.365	36865.68
626.72	36858.45
627.075	36793.14
627.43	36888.51
627.785	36802.63
628.14	36733.71
628.495	36919.47
628.85	36852.35
629.205	36828.17
629.559	37012.35
629.914	36859.13
630.269	36944.55
630.623	36872.69
630.978	36666.82
631.332	36934.16
631.687	37109.07
632.041	36814.39
632.396	36890.32
632.75	36753.82
633.104	36921.5
633.459	36731.9
633.813	36892.58
634.167	36739.58
634.521	36640.83
634.875	36864.1
635.229	36769.64
635.583	36553.15
635.937	36665.24
636.291	36591.11
636.645	36640.6
636.999	36526.71
637.352	36639.02
637.706	36540.72
638.06	36625.01
638.413	36419.59
638.767	36432.47
639.121	36492.36
639.474	36284.46
639.828	36382.31
640.181	36329.2
640.534	36463.89
640.888	36255.98
641.241	36089.43
641.594	36185.02
641.947	36262.54
642.301	36262.99
642.654	36193.61
643.007	36352.02
643.36	36157.91
643.713	36177.79
644.066	36307.51
644.419	36075.42
644.771	35881.08
645.124	35458.71
645.477	35460.97
645.83	35375.78
646.182	35158.38
646.535	35073.87
646.888	35097.82
647.24	34929.46
647.593	35269.79
647.945	35040.65
648.298	34915.9
648.65	34869.13
649.002	34746.19
649.355	34923.59
649.707	34844.27
650.059	35004.49
650.411	35386.85
650.763	35336.23
651.115	35806.5
651.467	35649.9
651.819	35539.84
652.171	35574.64
652.523	35592.72
652.875	35522.44
653.227	35263.69
653.578	35568.54
653.93	35339.62
654.282	35344.59
654.633	35314.99
654.985	35282.67
655.337	35450.35
655.688	35413.74
656.039	35572.61
656.391	35146.63
656.742	35258.72
657.094	35138.27
657.445	35419.39
657.796	35393.86
658.147	35200.64
658.498	35244.26
658.849	35328.32
659.2	35164.94
659.551	35215.78
659.902	35295.55
660.253	35238.38
660.604	35311.15
660.955	35042.45
661.306	35266.4
661.656	35126.75
662.007	35129.68
662.358	35154.99
662.708	35127.42
663.059	35110.7
663.409	34945.06
663.76	35154.32
664.11	35251.71
664.461	35100.76
664.811	34913.64
665.161	35104.6
665.511	34959.74
665.862	35106.18
666.212	35174.2
666.562	35152.28
666.912	35180.3
667.262	34891.5
667.612	35002.91
667.962	35067.99
668.312	34976.47
668.662	35024.38
669.011	34983.25
669.361	34970.14
669.711	34950.25
670.06	34908.45
670.41	34817.6
670.76	34778.05
671.109	34876.81
671.459	34942.34
671.808	34869.8
672.157	34955.45
672.507	34628.68
672.856	34738.51
673.205	34846.3
673.554	34749.58
673.904	34679.98
674.253	34911.38
674.602	34792.07
674.951	34292.42
675.3	34122.03
675.649	34515.24
675.998	34637.95
676.346	34598.85
676.695	34738.96
677.044	34432.3
677.393	34584.16
677.741	34607.44
678.09	34320.44
678.438	34356.37
678.787	34431.4
679.135	34436.82
679.484	34148.92
679.832	34276.82
680.181	34203.61
680.529	34320.44
680.877	34152.31
681.225	34087.68
681.573	34366.09
681.922	34098.3
682.27	33972.2
682.618	34053.33
682.966	33877.51
683.314	33958.87
683.661	33863.5
684.009	33677.97
684.357	33687.91
684.705	33682.94
685.053	33763.62
685.4	33603.85
685.748	33564.75
686.095	33494.02
686.443	33346
686.79	33273.24
687.138	33423.97
687.485	33404.53
687.832	33203.41
688.18	33307.58
688.527	33168.38
688.874	33105.56
689.221	33026.69
689.568	32887.71
689.915	32709.63
690.262	32915.96
690.609	32764.77
690.956	32763.87
691.303	32614.04
691.65	32450.21
691.997	32438
692.344	32282.07
692.69	32298.35
693.037	32356.42
693.383	32116.2
693.73	32160.5
694.077	32022.19
694.423	31985.81
694.769	31866.49
695.116	31752.82
695.462	31621.75
695.808	31726.61
696.155	31635.31
696.501	31326.62
696.847	31499.27
697.193	31174.53
697.539	31320.07
697.885	31069.68
698.231	31018.61
698.577	31035.78
698.923	31016.8
699.269	30818.38
699.614	30676.02
699.96	30648.67
700.306	30728.9
700.651	30520.31
700.997	30440.09
701.342	30387.21
701.688	30429.47
702.033	30241.45
702.379	30304.73
702.724	30034.22
703.069	30198.06
703.415	29794.91
703.76	29907.22
704.105	29891.86
704.45	29820.9
704.795	29684.63
705.14	29556.27
705.485	29466.78
705.83	29444.41
706.175	29423.62
706.52	29351.3
706.865	29275.83
707.209	29307.92
707.554	29028.83
707.899	29177.3
708.243	28894.14
708.588	29004.42
708.932	28791.32
709.277	28824.76
709.621	28819.12
709.966	28674.03
710.31	28660.93
710.654	28408.96
710.998	28558.11
711.342	28501.16
711.687	28473.81
712.031	28364.89
712.375	28165.12
712.719	28312.01
713.063	28175.52
713.407	28290.32
713.75	28113.6
714.094	28076.54
714.438	27935.3
714.782	27930.32
715.125	27893.49
715.469	27855.75
715.812	27677
716.156	27527.17
716.499	27608.98
716.843	27607.85
717.186	27405.14
717.53	27639.49
717.873	27629.99
718.216	27528.3
718.559	27399.49
718.902	27101.65
719.246	27288.76
719.589	27051.48
719.932	27045.6
720.275	27006.51
720.617	27026.39
720.96	26948.66
721.303	26891.26
721.646	26916.11
721.989	26767.64
722.331	26880.18
722.674	26751.15
723.016	26792.28
723.359	26676.8
723.701	26795.67
724.044	26562.68
724.386	26428.9
724.729	26545.95
725.071	26443.13
725.413	26419.86
725.755	26482.91
726.097	26302.8
726.439	26239.97
726.782	26169.47
727.124	26368.33
727.465	26082.69
727.807	26114.1
728.149	26079.3
728.491	26044.05
728.833	26026.65
729.175	25939.87
729.516	25922.02
729.858	25797.73
730.199	25982.81
730.541	25925.63
730.882	25844.05
731.224	25890.38
731.565	25689.93
731.906	25595.7
732.248	25685.19
732.589	25696.03
732.93	25435.93
733.271	25547.79
733.612	25620.56
733.953	25472.54
734.294	25512.54
734.635	25350.96
734.976	25356.83
735.317	25244.52
735.658	25282.48
735.999	25323.16
736.339	25236.38
736.68	25262.6
737.021	25152.09
737.361	24930.86
737.702	25288.13
738.042	25167.46
738.383	25003.17
738.723	25131.98
739.063	24963.85
739.404	24950.74
739.744	24834.81
740.084	24851.31
740.424	24895.6
740.764	24887.69
741.104	24799.11
741.444	24694.7
741.784	24605.67
742.124	24595.05
742.464	24597.08
742.804	24494.03
743.143	24515.5
743.483	24456.74
743.823	24380.14
744.162	24321.83
744.502	24397.99
744.841	24308.73
745.181	24277.31
745.52	24207.48
745.86	24301.49
746.199	24237.09
746.538	24184.21
746.877	24272.57
747.216	24256.98
747.556	24125.23
747.895	24186.69
748.234	23984.21
748.573	24065.34
748.911	23909.41
749.25	23926.36
749.589	23838.91
749.928	23826.48
750.267	23869.41
750.605	23697.67
750.944	23760.72
751.283	23517.79
751.621	23671.68
751.96	23550.33
752.298	23523.21
752.636	23525.69
752.975	23352.59
753.313	23381.74
753.651	23318.02
753.989	23315.53
754.327	23268.3
754.666	22989.89
755.004	23184.46
755.342	23161.18
755.679	23174.97
756.017	22948.54
756.355	22974.3
756.693	22786.05
757.031	22918.93
757.368	22812.95
757.706	22740.86
758.044	22641.2
758.381	22691.82
758.719	22605.72
759.056	22566.62
759.394	22469.9
759.731	22298.38
760.068	22276.24
760.405	22170.25
760.743	22206.63
761.08	22223.58
761.417	22075.11
761.754	21956.7
762.091	22011.84
762.428	21987.43
762.765	21749.7
763.102	21932.52
763.438	21673.77
763.775	21654.11
764.112	21642.35
764.449	21651.85
764.785	21601
765.122	21368.24
765.458	21317.84
765.795	21282.36
766.131	21228.13
766.467	21229.94
766.804	21124.18
767.14	21017.06
767.476	20936.84
767.812	20953.79
768.148	20850.74
768.485	20789.5
768.821	20701.81
769.157	20616.62
769.492	20503.85
769.828	20556.06
770.164	20352.67
770.5	20338.43
770.836	20367.59
771.171	20201.04
771.507	20288.04
771.842	19943.87
772.178	19983.19
772.513	20004.43
772.849	19909.74
773.184	19811.67
773.519	19803.08
773.855	19672.24
774.19	19554.05
774.525	19535.52
774.86	19479.25
775.195	19427.95
775.53	19363.77
775.865	19315.41
776.2	19156.09
776.535	19040.16
776.87	19049.2
777.205	18981.63
777.539	18888.3
777.874	18841.75
778.209	18723.34
778.543	18726.27
778.878	18542.32
779.212	18644.47
779.547	18455.32
779.881	18517.01
780.215	18358.37
780.55	18410.35
780.884	18255.78
781.218	18242.67
781.552	18222.56
781.886	18137.59
782.22	18041.77
782.554	17962.68
782.888	17795
783.222	17723.36
783.556	17594.55
783.889	17563.59
784.223	17638.17
784.557	17432.07
784.89	17479.98
785.224	17340.32
785.557	17348.68
785.891	17198.18
786.224	17218.52
786.558	17261.9
786.891	17023.27
787.224	16884.29
787.557	16957.96
787.891	16827.57
788.224	16844.97
788.557	16909.6
788.89	16790.05
789.223	16716.38
789.556	16632.77
789.888	16517.74
790.221	16543.05
790.554	16438.42
790.887	16432.55
791.219	16354.13
791.552	16180.35
791.884	16266.22
792.217	16194.14
792.549	16068.94
792.882	16064.2
793.214	15890.19
793.546	16004.54
793.879	15812.23
794.211	15742.62
794.543	15767.71
794.875	15683.19
795.207	15770.19
795.539	15602.51
795.871	15687.48
796.203	15560.48
796.535	15365.91
796.867	15401.16
797.198	15400.26
797.53	15352.8
797.862	15227.38
798.193	15281.84
798.525	15172.24
798.856	15279.36
799.188	14972.02
799.519	14933.15
799.85	14918.01
800.182	14981.96
800.513	14990.33
800.844	14812.25
801.175	14824
801.506	14811.8
801.837	14731.58
802.168	14657.23
802.499	14623.56
802.83	14592.6
803.161	14546.04
803.491	14567.51
803.822	14445.71
804.153	14433.05
804.483	14294.3
804.814	14363.22
805.145	14277.12
805.475	14278.71
805.805	14193.51
806.136	14149.9
806.466	14171.82
806.796	14149.44
807.126	14031.71
807.457	13985.38
807.787	13961.65
808.117	13887.76
808.447	13896.12
808.777	13915.78
809.107	13817.93
809.436	13804.59
809.766	13761.43
810.096	13712.62
810.426	13656.35
810.755	13729.12
811.085	13649.57
811.414	13554.21
811.744	13530.03
812.073	13454.1
812.403	13449.8
812.732	13359.18
813.061	13309.92
813.39	13261.11
813.719	13305.85
814.049	13305.4
814.378	13239.41
814.707	13178.4
815.036	13117.83
815.365	13064.5
815.693	12992.64
816.022	13129.13
816.351	12928.46
816.68	12917.61
817.008	12944.73
817.337	12778.18
817.665	12752.42
817.994	12868.8
818.322	12863.38
818.651	12821.12
818.979	12714.68
819.307	12674.91
819.636	12744.28
819.964	12608.24
820.292	12743.83
820.62	12578.64
820.948	12553.55
821.276	12605.53
821.604	12582.93
821.932	12563.5
822.259	12543.61
822.587	12578.86
822.915	12550.84
823.243	12575.7
823.57	12572.54
823.898	12499.32
824.225	12509.26
824.553	12478.3
824.88	12510.84
825.207	12580.67
825.535	12529.37
825.862	12545.87
826.189	12484.86
826.516	12559.88
826.843	12662.03
827.17	12592.2
827.497	12547.45
827.824	12528.92
828.151	12574.8
828.478	12476.27
828.805	12537.06
829.131	12481.24
829.458	12456.83
829.785	12390.39
830.111	12534.12
830.438	12512.88
830.764	12371.41
831.09	12507.45
831.417	12383.16
831.743	12391.52
832.069	12438.53
832.395	12458.19
832.722	12354.24
833.048	12378.42
833.374	12455.48
833.7	12396.5
834.026	12300.91
834.351	12354.01
834.677	12377.51
835.003	12340
835.329	12297.52
835.654	12289.83
835.98	12215.03
836.306	12290.06
836.631	12201.02
836.956	12283.96
837.282	12284.63
837.607	12252.55
837.932	12155.82
838.258	12195.15
838.583	12192.43
838.908	12015.94
839.233	12126.22
839.558	12027.92
839.883	12010.97
840.208	12067.69
840.533	12016.62
840.858	11954.47
841.182	11999.22
841.507	12022.72
841.832	11863.85
842.156	11841.03
842.481	11860.24
842.805	11863.85
843.13	11851.43
843.454	11859.56
843.778	11712.22
844.103	11686.01
844.427	11735.04
844.751	11659.57
845.075	11629.06
845.399	11545.67
845.723	11510.42
846.047	11532.79
846.371	11492.11
846.695	11443.53
847.019	11390.19
847.343	11342.96
847.666	11241.5
847.99	11196.75
848.313	11228.17
848.637	11122.86
848.96	11065.01
849.284	11109.98
849.607	10991.34
849.931	11000.15
850.254	10924.22
850.577	10899.59
850.9	10812.81
851.223	10857.33
851.546	10739.59
851.869	10685.35
852.192	10747.5
852.515	10533.27
852.838	10572.59
853.161	10533.27
853.483	10467.51
853.806	10504.79
854.129	10404.68
854.451	10413.95
854.774	10342.09
855.096	10351.58
855.419	10312.26
855.741	10272.71
856.063	10219.83
856.385	10251.92
856.708	10156.33
857.03	10125.37
857.352	10159.04
857.674	10098.03
857.996	10069.78
858.318	9990.46
858.64	9976.9
858.961	9963.79
859.283	9897.35
859.605	9941.42
859.926	9912.04
860.248	9818.26
860.57	9853.29
860.891	9906.84
861.212	9796.79
861.534	9776.45
861.855	9756.79
862.176	9737.58
862.498	9739.62
862.819	9747.53
863.14	9656.23
863.461	9608.77
863.782	9613.74
864.103	9604.48
864.424	9634.08
864.745	9670.47
865.065	9548.44
865.386	9520.87
865.707	9492.84
866.027	9550.92
866.348	9533.52
866.668	9521.54
866.989	9517.02
867.309	9375.78
867.63	9420.08
867.95	9409
868.27	9338.5
868.59	9384.82
868.91	9399.29
869.23	9369.01
869.55	9260.31
869.87	9364.71
870.19	9295.79
870.51	9314.54
870.83	9270.02
871.15	9282.45
871.469	9259.18
871.789	9251.72
872.109	9228.9
872.428	9154.55
872.748	9188.22
873.067	9152.29
873.386	9222.57
873.706	9179.41
874.025	9113.19
874.344	9098.28
874.663	9080.43
874.982	9111.38
875.301	9048.34
875.62	9030.03
875.939	8971.5
876.258	9018.96
876.577	8976.92
876.896	8948.9
877.214	8903.03
877.533	8985.29
877.852	8899.19
878.17	8933.54
878.489	8868.91
878.807	8930.82
879.125	8890.6
879.444	8863.93
879.762	8805.63
880.08	8816.03
880.398	8806.99
880.716	8801.11
881.034	8769.92
881.352	8776.48
881.67	8799.98
881.988	8776.03
882.306	8739.64
882.624	8670.04
882.941	8675.92
883.259	8632.3
883.577	8576.03
883.894	8588.01
884.212	8608.57
884.529	8545.3
884.846	8515.24
885.164	8516.82
885.481	8566.09
885.798	8524.73
886.115	8490.38
886.432	8474.11
886.75	8438.86
887.067	8379.65
887.383	8470.95
887.7	8356.15
888.017	8377.39
888.334	8353.66
888.651	8332.42
888.967	8318.41
889.284	8266.44
889.6	8244.29
889.917	8161.58
890.233	8225.76
890.55	8139.66
890.866	8137.63
891.182	8112.31
891.498	8102.6
891.815	8093.11
892.131	8063.28
892.447	8053.33
892.763	8043.39
893.079	7993.9
893.395	7905.31
893.71	7976.95
894.026	7901.47
894.342	7902.38
894.657	7815.15
894.973	7814.24
895.289	7836.62
895.604	7841.14
895.92	7787.8
896.235	7751.42
896.55	7713
896.865	7743.74
897.181	7634.81
897.496	7615.6
897.811	7622.61
898.126	7593.23
898.441	7565.21
898.756	7569.5
899.071	7488.15
899.386	7517.3
899.7	7444.08
900.015	7396.85
900.33	7406.8
900.644	7399.34
900.959	7423.97
901.273	7288.83
901.588	7312.11
901.902	7273.24
902.216	7240.02
902.531	7223.3
902.845	7245.9
903.159	7176.29
903.473	7158.22
903.787	7123.87
904.101	7073.02
904.415	7120.7
904.729	7070.76
905.042	7026.02
905.356	6979.69
905.67	7010.42
905.984	6958.45
906.297	6891.78
906.611	6872.12
906.924	6903.53
907.237	6863.53
907.551	6799.13
907.864	6747.61
908.177	6741.28
908.491	6757.55
908.804	6701.73
909.117	6700.6
909.43	6622.18
909.743	6642.98
910.056	6604.78
910.368	6528.85
910.681	6551
910.994	6512.36
911.307	6494.96
911.619	6459.93
911.932	6484.11
912.244	6402.76
912.557	6403.89
912.869	6339.25
913.181	6318.01
913.494	6378.8
913.806	6299.93
914.118	6276.43
914.43	6214.06
914.742	6194.4
915.054	6209.54
915.366	6195.3
915.678	6129.09
915.99	6131.12
916.302	6092.93
916.613	6046.61
916.925	6070.56
917.236	6042.31
917.548	6004.35
917.859	5997.12
918.171	5973.39
918.482	5937.46
918.794	5878.7
919.105	5886.16
919.416	5818.82
919.727	5824.92
920.038	5779.72
920.349	5748.99
920.66	5721.64
920.971	5688.2
921.282	5730.91
921.593	5626.5
921.903	5617.24
922.214	5669.44
922.525	5572.27
922.835	5579.05
923.146	5514.42
923.456	5554.64
923.767	5517.35
924.077	5491.59
924.387	5466.51
924.697	5435.78
925.008	5388.32
925.318	5404.36
925.628	5398.04
925.938	5399.84
926.248	5276.23
926.558	5308.55
926.867	5299.73
927.177	5258.15
927.487	5264.03
927.796	5239.62
928.106	5212.28
928.416	5112.17
928.725	5159.4
929.034	5134.09
929.344	5142.22
929.653	5133.41
929.962	5086.63
930.271	5036.46
930.581	5009.57
930.89	4977.03
931.199	4964.6
931.508	5001.89
931.817	4915.11
932.125	4844.15
932.434	4874.89
932.743	4863.59
933.051	4868.56
933.36	4805.06
933.669	4802.12
933.977	4754.89
934.286	4766.87
934.594	4774.78
934.902	4713.99
935.21	4683.03
935.519	4679.18
935.827	4703.82
936.135	4666.08
936.443	4626.76
936.751	4574.1
937.059	4600.77
937.367	4559.64
937.674	4578.4
937.982	4542.47
938.29	4528.45
938.597	4532.52
938.905	4490.26
939.213	4501.34
939.52	4452.98
939.827	4430.83
940.135	4423.82
940.442	4447.1
940.749	4364.16
941.056	4365.52
941.363	4326.65
941.67	4325.3
941.977	4258.86
942.284	4253.43
942.591	4285.97
942.898	4243.94
943.205	4210.27
943.511	4205.75
943.818	4187.45
944.125	4165.3
944.431	4153.55
944.738	4126.66
945.044	4082.36
945.35	4083.49
945.657	4083.95
945.963	4071.52
946.269	4034
946.575	4066.77
946.881	4012.08
947.187	3991.07
947.493	3976.83
947.799	3975.25
948.105	3929.83
948.41	3886.21
948.716	3888.47
949.022	3896.61
949.327	3890.28
949.633	3877.17
949.938	3832.65
950.244	3892.31
950.549	3814.35
950.854	3791.07
951.16	3820.9
951.465	3763.05
951.77	3728.25
952.075	3719.44
952.38	3689.38
952.685	3690.06
952.99	3668.59
953.294	3690.96
953.599	3644.18
953.904	3648.48
954.209	3602.83
954.513	3603.96
954.818	3578.2
955.122	3586.33
955.426	3521.02
955.731	3550.63
956.035	3549.95
956.339	3549.95
956.643	3499.55
956.948	3465.66
957.252	3448.71
957.556	3460.91
957.86	3439.67
958.163	3421.36
958.467	3411.65
958.771	3385.21
959.075	3397.18
959.378	3318.77
959.682	3353.12
959.985	3290.75
960.289	3336.4
960.592	3285.78
960.896	3301.37
961.199	3299.56
961.502	3241.48
961.805	3269.05
962.108	3223.86
962.411	3221.82
962.714	3227.92
963.017	3186.12
963.32	3191.09
963.623	3173.24
963.926	3194.25
964.228	3163.74
964.531	3118.1
964.833	3102.73
965.136	3108.83
965.438	3107.25
965.741	3080.13
966.043	3087.81
966.345	3044.2
966.648	3031.32
966.95	3028.38
967.252	3003.52
967.554	3014.14
967.856	2987.48
968.158	2916.75
968.46	2921.49
968.761	2946.8
969.063	2948.61
969.365	2951.55
969.666	2931.89
969.968	2859.35
970.269	2855.28
970.571	2854.83
970.872	2862.74
971.174	2862.96
971.475	2862.74
971.776	2838.33
972.077	2803.3
972.378	2804.66
972.679	2808.5
972.98	2788.61
973.281	2771.21
973.582	2730.31
973.883	2749.07
974.183	2735.96
974.484	2701.84
974.785	2735.51
975.085	2708.39
975.386	2684.44
975.686	2693.25
975.986	2669.75
976.287	2676.75
976.587	2609.63
976.887	2611.22
977.187	2612.8
977.487	2571.22
977.787	2605.34
978.087	2579.81
978.387	2562.86
978.687	2553.37
978.987	2547.72
979.286	2554.72
979.586	2520.6
979.885	2505.91
980.185	2500.03
980.484	2474.95
980.784	2480.6
981.083	2447.15
981.382	2443.09
981.682	2464.78
981.981	2459.58
982.28	2428.85
982.579	2443.76
982.878	2442.18
983.177	2392.47
983.475	2369.64
983.774	2365.12
984.073	2376.19
984.372	2369.87
984.67	2354.95
984.969	2337.1
985.267	2338.23
985.566	2326.93
985.864	2300.72
986.162	2288.29
986.461	2269.76
986.759	2251
987.057	2276.31
987.355	2239.7
987.653	2235.18
987.951	2241.73
988.249	2213.04
988.547	2246.25
988.844	2214.16
989.142	2191.57
989.44	2188.85
989.737	2189.31
990.035	2138.46
990.332	2150.44
990.63	2150.66
990.927	2125.13
991.224	2130.55
991.521	2165.8
991.819	2079.71
992.116	2074.73
992.413	2080.84
992.71	2087.16
993.006	2095.75
993.303	2056.2
993.6	2050.55
993.897	2029.31
994.193	2026.37
994.49	2013.04
994.787	2024.11
995.083	1993.15
995.379	2017.33
995.676	1994.96
995.972	1972.14
996.268	1958.58
996.565	1953.38
996.861	1926.49
997.157	1929.88
997.453	1890.11
997.749	1907.96
998.044	1900.95
998.34	1929.88
998.636	1905.02
998.932	1878.13
999.227	1889.2
999.523	1861.18
999.818	1875.19
1000.114	1847.85
1000.409	1824.34
1000.704	1792.71
1001	1822.99
1001.295	1806.04
1001.59	1814.63
1001.885	1794.29
1002.18	1756.78
1002.475	1816.89
1002.77	1745.7
1003.065	1750.22
1003.359	1738.92
1003.654	1752.71
1003.949	1713.61
1004.243	1745.25
1004.538	1721.75
1004.832	1686.04
1005.127	1702.09
1005.421	1671.81
1005.715	1658.02
1006.009	1642.2
1006.304	1654.18
1006.598	1646.95
1006.892	1675.42
1007.186	1632.03
1007.48	1625.48
1007.773	1602.2
1008.067	1623.45
1008.361	1579.61
1008.655	1590.23
1008.948	1565.37
1009.242	1571.92
1009.535	1585.93
1009.829	1561.53
1010.122	1545.26
1010.415	1519.27
1010.708	1549.55
1011.001	1525.82
1011.295	1476.33
1011.588	1521.75
1011.881	1464.81
1012.173	1479.95
1012.466	1485.14
1012.759	1481.75
1013.052	1443.11
1013.344	1474.75
1013.637	1470.46
1013.93	1437.69
1014.222	1433.85
1014.514	1438.37
1014.807	1409.21
1015.099	1416.45
1015.391	1395.66
1015.683	1415.77
1015.976	1383
1016.268	1388.42
1016.56	1331.25
1016.851	1382.55
1017.143	1356.33
1017.435	1349.78
1017.727	1325.37
1018.018	1343.68
1018.31	1295.09
1018.602	1301.42
1018.893	1301.87
1019.185	1293.51
1019.476	1290.35
1019.767	1299.16
1020.058	1269.78
1020.35	1262.1
1020.641	1248.77
1020.932	1237.69
1021.223	1248.54
1021.514	1242.89
1021.804	1228.43
1022.095	1234.76
1022.386	1199.28
1022.677	1204.25
1022.967	1191.14
1023.258	1187.98
1023.548	1190.69
1023.839	1170.8
1024.129	1184.14
1024.419	1150.46
1024.709	1145.94
1025	1139.16
1025.29	1135.78
1025.58	1146.17
1025.87	1127.19
1026.16	1133.74
1026.449	1116.34
1026.739	1134.87
1027.029	1106.85
1027.319	1098.04
1027.608	1081.77
1027.898	1084.03
1028.187	1083.35
1028.477	1046.74
1028.766	1055.78
1029.055	1030.92
1029.344	1061.65
1029.634	1056
1029.923	1013.52
1030.212	1024.82
1030.501	1019.62
1030.79	1005.84
1031.078	1007.19
1031.367	1000.19
1031.656	990.69
1031.945	983.01
1032.233	989.34
1032.522	980.3
1032.81	979.17
1033.099	940.75
1033.387	964.93
1033.675	943.24
1033.963	940.98
1034.251	952.28
1034.54	935.55
1034.828	914.76
1035.116	903.92
1035.403	906.4
1035.691	902.34
1035.979	922.45
1036.267	904.82
1036.554	888.1
1036.842	879.51
1037.129	892.39
1037.417	880.19
1037.704	891.49
1037.992	874.99
1038.279	865.5
1038.566	843.58
1038.853	843.58
1039.14	843.58
