Data from hue_180_FLMS001491_00086.txt Node
Date: Tue Feb 07 16:47:36 GMT 2017
User: dcchb
Spectrometer: FLMS00149
Trigger mode: 0
Integration Time (sec): 2.000000E-2
Scans to average: 10
Electric dark correction enabled: true
Nonlinearity correction enabled: false
Boxcar width: 0
XAxis mode: Wavelengths
Number of Pixels in Spectrum: 2048
>>>>>Begin Spectral Data<<<<<
341.393	-31.85
341.776	-31.85
342.16	-31.85
342.543	-79.76
342.927	-48.35
343.31	-72.75
343.693	-60.55
344.077	-62.13
344.46	-60.32
344.843	-54
345.226	-45.18
345.61	-41.79
345.993	-17.61
346.376	-9.25
346.759	29.84
347.142	20.13
347.525	25.1
347.908	79.79
348.291	66
348.674	96.51
349.057	106.23
349.44	121.37
349.823	160.69
350.206	141.71
350.588	179.9
350.971	206.56
351.354	226.67
351.737	242.04
352.119	240.23
352.502	259.67
352.884	249.73
353.267	270.97
353.65	286.79
354.032	300.12
354.414	303.06
354.797	283.62
355.179	294.47
355.562	325.2
355.944	335.37
356.326	346.9
356.709	331.08
357.091	341.25
357.473	337.41
357.855	335.15
358.238	341.7
358.62	349.16
359.002	334.24
359.384	347.35
359.766	352.1
360.148	319.78
360.53	331.98
360.912	319.1
361.294	328.59
361.676	315.03
362.057	326.33
362.439	326.56
362.821	324.98
363.203	297.41
363.584	317.07
363.966	334.02
364.348	314.36
364.729	303.73
365.111	320.01
365.493	324.53
365.874	306.9
366.256	290.18
366.637	306.9
367.019	306.45
367.4	312.77
367.781	290.4
368.163	301.7
368.544	308.25
368.925	312.77
369.306	310.51
369.688	309.38
370.069	327.01
370.45	291.98
370.831	312.55
371.212	318.2
371.593	311.42
371.974	305.54
372.355	323.17
372.736	322.49
373.117	325.66
373.498	299.67
373.879	308.48
374.26	311.87
374.641	329.5
375.021	306.9
375.402	288.82
375.783	292.44
376.163	288.14
376.544	303.51
376.925	310.06
377.305	308.48
377.686	304.41
378.066	305.77
378.447	336.95
378.827	313.23
379.208	333.11
379.588	307.58
379.968	340.8
380.349	311.64
380.729	329.5
381.109	326.11
381.489	352.77
381.87	345.77
382.25	321.36
382.63	345.54
383.01	326.33
383.39	349.16
383.77	328.14
384.15	351.19
384.53	343.73
384.91	342.38
385.29	342.6
385.67	357.97
386.049	340.34
386.429	340.12
386.809	339.44
387.189	348.71
387.568	338.31
387.948	340.34
388.328	342.6
388.707	331.53
389.087	340.57
389.466	356.39
389.846	357.07
390.225	365.2
390.605	363.62
390.984	334.02
391.363	350.74
391.743	374.02
392.122	363.17
392.501	383.28
392.881	365.2
393.26	380.34
393.639	389.61
394.018	364.07
394.397	375.82
394.776	373.56
395.155	376.05
395.534	366.33
395.913	366.11
396.292	371.53
396.671	377.63
397.05	389.61
397.429	364.98
397.808	380.34
398.186	399.78
398.565	386.67
398.944	386.9
399.323	393.22
399.701	391.87
400.08	397.29
400.458	398.42
400.837	402.26
401.215	394.81
401.594	425.77
401.972	408.14
402.351	399.78
402.729	404.98
403.107	421.02
403.486	408.82
403.864	414.92
404.242	421.47
404.62	429.38
404.999	433
405.377	435.26
405.755	441.81
406.133	423.51
406.511	443.62
406.889	462.37
407.267	439.55
407.645	457.63
408.023	478.87
408.401	454.69
408.779	477.52
409.156	487.23
409.534	498.76
409.912	481.13
410.29	524.75
410.667	511.19
411.045	512.99
411.422	491.98
411.8	543.73
412.178	530.17
412.555	560.45
412.933	534.01
413.31	530.62
413.687	568.81
414.065	553.9
414.442	583.05
414.819	560.23
415.197	603.16
415.574	586.44
415.951	617.4
416.328	585.99
416.705	603.61
417.082	610.17
417.46	623.05
417.837	655.14
418.214	656.72
418.591	651.3
418.967	643.84
419.344	654.69
419.721	667.79
420.098	673.44
420.475	690.17
420.852	687.23
421.228	709.37
421.605	719.09
421.982	722.48
422.358	735.36
422.735	733.1
423.111	764.29
423.488	751.63
423.864	756.38
424.241	794.34
424.617	806.32
424.994	814.91
425.37	811.74
425.746	817.62
426.123	819.88
426.499	814
426.875	851.29
427.251	871.86
427.627	877.51
428.003	887
428.379	891.06
428.756	904.62
429.132	912.53
429.507	937.16
429.883	953.21
430.259	963.15
430.635	943.94
431.011	964.06
431.387	997.28
431.763	1002.02
432.138	1005.86
432.514	988.24
432.89	1026.88
433.265	1072.3
433.641	1058.74
434.016	1077.5
434.392	1077.95
434.767	1129.93
435.143	1122.02
435.518	1139.42
435.894	1182.13
436.269	1164.73
436.644	1200.66
437.02	1209.02
437.395	1223.26
437.77	1216.25
438.145	1233.65
438.52	1313.88
438.895	1324.73
439.271	1321.56
439.646	1346.65
440.021	1359.75
440.395	1387.32
440.77	1370.37
441.145	1377.61
441.52	1423.25
441.895	1428.23
442.27	1458.05
442.645	1479.07
443.019	1470.03
443.394	1529.24
443.769	1485.62
444.143	1498.05
444.518	1536.47
444.892	1522.46
445.267	1535.12
445.641	1595.23
446.016	1576.24
446.39	1614.66
446.764	1591.16
447.139	1560.65
447.513	1604.72
447.887	1613.31
448.262	1622.34
448.636	1638.16
449.01	1668.44
449.384	1683.36
449.758	1716.81
450.132	1733.3
450.506	1722.91
450.88	1759.74
451.254	1769.69
451.628	1771.94
452.002	1786.86
452.376	1829.57
452.75	1808.78
453.123	1855.56
453.497	1873.41
453.871	1887.42
454.244	1929
454.618	1946.18
454.992	1954.31
455.365	1963.13
455.739	1997.25
456.112	2023.46
456.486	2072.05
456.859	2074.99
457.232	2114.31
457.606	2096.68
457.979	2136
458.352	2221.2
458.725	2223.46
459.099	2225.94
459.472	2271.37
459.845	2280.86
460.218	2303.23
460.591	2331.03
460.964	2361.76
461.337	2401.31
461.71	2421.19
462.083	2468.2
462.456	2454.41
462.829	2499.84
463.201	2545.94
463.574	2566.05
463.947	2606.5
464.32	2679.72
464.692	2675.2
465.065	2681.53
465.438	2742.09
465.81	2772.14
466.183	2825.25
466.555	2900.05
466.928	2887.4
467.3	2899.37
467.672	2970.33
468.045	3043.55
468.417	3066.15
468.789	3099.14
469.161	3109.54
469.534	3169.65
469.906	3269.31
470.278	3292.36
470.65	3295.07
471.022	3340.94
471.394	3503.2
471.766	3453.03
472.138	3570.99
472.51	3615.74
472.882	3677.43
473.253	3692.57
473.625	3740.48
473.997	3876.75
474.369	3914.04
474.74	3950.87
475.112	4022.96
475.484	4102.51
475.855	4180.47
476.227	4237.42
476.598	4342.05
476.97	4370.97
477.341	4510.18
477.713	4601.93
478.084	4612.1
478.455	4777.06
478.827	4844.86
479.198	4964.63
479.569	5008.02
479.94	5102.93
480.311	5167.79
480.682	5297.05
481.053	5427.44
481.424	5501.79
481.795	5621.11
482.166	5744.95
482.537	5768
482.908	5923.25
483.279	5994.66
483.65	6177.48
484.021	6265.61
484.391	6324.14
484.762	6395.78
485.133	6477.36
485.503	6537.92
485.874	6704.02
486.244	6798.25
486.615	6929.32
486.985	7046.38
487.356	7238.24
487.726	7259.03
488.097	7337.22
488.467	7457.22
488.837	7693.6
489.207	7724.1
489.578	7829.86
489.948	7965.91
490.318	8027.6
490.688	8115.51
491.058	8303.3
491.428	8370.19
491.798	8382.62
492.168	8589.84
492.538	8636.17
492.908	8717.98
493.278	8870.97
493.648	8905.99
494.017	8976.05
494.387	9108.48
494.757	9167.68
495.126	9278.19
495.496	9324.29
495.866	9367.23
496.235	9430.95
496.605	9546.2
496.974	9585.07
497.344	9729.93
497.713	9719.31
498.082	9826.87
498.452	9911.84
498.821	10018.73
499.19	9971.5
499.559	10022.8
499.928	10076.13
500.298	10127.66
500.667	10201.55
501.036	10220.76
501.405	10316.58
501.774	10307.99
502.143	10524.94
502.512	10503.01
502.88	10518.16
503.249	10483.58
503.618	10610.58
503.987	10673.41
504.356	10647.87
504.724	10799.73
505.093	10754.53
505.462	10774.65
505.83	10812.39
506.199	10911.82
506.567	11037.24
506.936	11014.19
507.304	11070.01
507.672	11031.81
508.041	11138.7
508.409	11267.29
508.777	11222.09
509.145	11327.63
509.514	11250.34
509.882	11430.9
510.25	11378.25
510.618	11374.4
510.986	11302.77
511.354	11499.6
511.722	11471.8
512.09	11549.77
512.458	11550.67
512.826	11578.69
513.193	11613.04
513.561	11627.05
513.929	11615.53
514.297	11721.29
514.664	11734.39
515.032	11734.62
515.4	11823.43
515.767	11813.04
516.135	11846.26
516.502	11787.05
516.869	11903.88
517.237	12015.52
517.604	11818.69
517.972	11909.76
518.339	11941.4
518.706	11930.32
519.073	11927.61
519.44	11961.51
519.808	12009.42
520.175	11929.42
520.542	12138
520.909	12070.88
521.276	12078.79
521.643	12189.07
522.009	12116.08
522.376	12210.99
522.743	12129.64
523.11	12237.66
523.477	12272.69
523.843	12288.5
524.21	12282.63
524.577	12319.92
524.943	12309.75
525.31	12350.2
525.676	12392.46
526.043	12385.23
526.409	12417.31
526.776	12438.56
527.142	12471.78
527.508	12466.35
527.874	12415.51
528.241	12465.22
528.607	12393.13
528.973	12492.79
529.339	12376.41
529.705	12435.39
530.071	12531.66
530.437	12415.28
530.803	12505.22
531.169	12465.68
531.535	12367.82
531.901	12342.06
532.267	12306.81
532.632	12306.36
532.998	12358.56
533.364	12254.38
533.73	12281.5
534.095	12320.14
534.461	12215.51
534.826	12215.74
535.192	12243.08
535.557	12251.22
535.923	12111.33
536.288	12127.38
536.653	12159.24
537.019	12029.08
537.384	11971
537.749	11974.61
538.114	11913.37
538.479	11845.13
538.845	11872.92
539.21	11775.07
539.575	11742.98
539.94	11764.68
540.305	11756.77
540.67	11662.53
541.034	11611.69
541.399	11555.42
541.764	11519.71
542.129	11477.23
542.494	11499.37
542.858	11481.07
543.223	11399.26
543.587	11388.19
543.952	11314.97
544.316	11359.26
544.681	11265.03
545.045	11176.67
545.41	11187.97
545.774	11180.06
546.138	11034.75
546.503	11016
546.867	10964.25
547.231	11032.94
547.595	10986.39
547.959	10967.18
548.324	10829.33
548.688	10844.93
549.052	10787.75
549.416	10722.22
549.779	10642.9
550.143	10579.85
550.507	10639.73
550.871	10598.38
551.235	10530.58
551.599	10467.08
551.962	10457.37
552.326	10437.03
552.689	10412.17
553.053	10304.83
553.417	10279.07
553.78	10326.52
554.143	10215.79
554.507	10240.42
554.87	10194.77
555.234	10259.18
555.597	10131.05
555.96	10161.78
556.323	10105.74
556.686	10019.19
557.05	10100.99
557.413	9980.32
557.776	10051.28
558.139	10036.81
558.502	10004.5
558.865	9943.03
559.228	9965.85
559.59	9864.16
559.953	9894.44
560.316	9918.85
560.679	9904.61
561.041	9850.38
561.404	9905.52
561.767	9919.08
562.129	9773.77
562.492	9865.29
562.854	9808.34
563.217	9694.67
563.579	9808.57
563.941	9793.65
564.304	9814.67
564.666	9887.89
565.028	9812.41
565.39	9809.25
565.753	9782.81
566.115	9790.49
566.477	9825.52
566.839	9795.69
567.201	9892.18
567.563	9844.95
567.925	9807.44
568.287	9762.92
568.648	9741.45
569.01	9846.31
569.372	9868.46
569.734	9855.12
570.095	9858.06
570.457	9833.43
570.819	9727.67
571.18	9732.19
571.542	9879.3
571.903	9806.99
572.265	9816.03
572.626	9818.74
572.987	9856.7
573.349	9807.67
573.71	9851.28
574.071	9798.4
574.432	9792.3
574.794	9847.66
575.155	9846.08
575.516	9795.91
575.877	9864.61
576.238	9856.03
576.599	9883.14
576.96	9801.34
577.32	9836.37
577.681	9816.93
578.042	9847.89
578.403	9843.6
578.763	9844.73
579.124	9873.43
579.485	9804.73
579.845	9851.28
580.206	9800.66
580.566	9799.08
580.927	9815.35
581.287	9893.31
581.648	9762.47
582.008	9895.35
582.368	9837.04
582.728	9766.09
583.089	9736.93
583.449	9734.45
583.809	9712.08
584.169	9738.06
584.529	9654.9
584.889	9756.14
585.249	9690.83
585.609	9637.95
585.969	9696.48
586.329	9672.53
586.688	9714.79
587.048	9643.38
587.408	9645.41
587.768	9651.06
588.127	9571.29
588.487	9625.75
588.846	9606.77
589.206	9642.25
589.565	9581.23
589.925	9607.45
590.284	9582.36
590.643	9548.24
591.003	9662.36
591.362	9586.65
591.721	9564.73
592.08	9536.26
592.44	9580.33
592.799	9627.11
593.158	9538.97
593.517	9507.79
593.876	9481.8
594.235	9458.07
594.593	9492.65
594.952	9467.11
595.311	9357.06
595.67	9497.62
596.029	9557.95
596.387	9489.26
596.746	9527.45
597.104	9414.46
597.463	9397.06
597.822	9468.01
598.18	9408.35
598.538	9392.31
598.897	9466.66
599.255	9372.65
599.613	9468.92
599.972	9379.65
600.33	9466.43
600.688	9370.16
601.046	9490.39
601.404	9482.93
601.762	9413.33
602.12	9393.67
602.478	9444.96
602.836	9432.31
603.194	9355.02
603.552	9376.94
603.91	9314.12
604.268	9392.54
604.625	9306.89
604.983	9440.9
605.341	9347.11
605.698	9367.68
606.056	9345.98
606.413	9330.62
606.771	9402.7
607.128	9366.55
607.485	9289.49
607.843	9386.66
608.2	9375.81
608.557	9446.77
608.914	9386.89
609.272	9443.16
609.629	9472.08
609.986	9437.96
610.343	9395.47
610.7	9470.95
611.057	9397.06
611.414	9431.4
611.771	9449.94
612.127	9465.08
612.484	9459.65
612.841	9477.51
613.198	9463.95
613.554	9420.56
613.911	9521.57
614.267	9470.27
614.624	9477.05
614.98	9467.56
615.337	9527.45
615.693	9509.14
616.05	9491.52
616.406	9502.59
616.762	9458.07
617.118	9484.96
617.475	9506.2
617.831	9487.67
618.187	9515.47
618.543	9532.19
618.899	9582.81
619.255	9520.44
619.611	9542.14
619.967	9540.33
620.323	9561.57
620.678	9578.52
621.034	9567.45
621.39	9517.73
621.746	9553.44
622.101	9659.42
622.457	9558.18
622.812	9594.11
623.168	9564.73
623.523	9546.88
623.879	9573.1
624.234	9555.47
624.589	9581.68
624.945	9494.68
625.3	9587.56
625.655	9560.21
626.01	9516.37
626.365	9547.11
626.72	9478.86
627.075	9502.14
627.43	9531.51
627.785	9457.39
628.14	9575.81
628.495	9523.61
628.85	9531.06
629.205	9421.24
629.559	9565.64
629.914	9419.65
630.269	9396.6
630.623	9468.24
630.978	9360.45
631.332	9371.07
631.687	9468.01
632.041	9416.04
632.396	9417.17
632.75	9401.57
633.104	9454.23
633.459	9300.33
633.813	9300.11
634.167	9311.18
634.521	9324.97
634.875	9351.41
635.229	9342.82
635.583	9319.32
635.937	9346.66
636.291	9326.1
636.645	9262.14
636.999	9245.42
637.352	9289.71
637.706	9219.43
638.06	9253.33
638.413	9179.21
638.767	9169.04
639.121	9199.55
639.474	9121.81
639.828	9178.08
640.181	9200.68
640.534	9110.74
640.888	9209.94
641.241	9080.23
641.594	9127.68
641.947	9179.66
642.301	9095.59
642.654	9114.58
643.007	9169.49
643.36	9110.96
643.713	9078.42
644.066	9120.68
644.419	9085.2
644.771	9019.44
645.124	8910.74
645.477	8952.77
645.83	8904.86
646.182	8856.05
646.535	8826.22
646.888	8833.68
647.24	8755.04
647.593	8911.42
647.945	8824.87
648.298	8763.4
648.65	8719.56
649.002	8733.12
649.355	8779.67
649.707	8849.95
650.059	8793.46
650.411	8944.41
650.763	8956.39
651.115	9072.32
651.467	9020.79
651.819	9033
652.171	9050.17
652.523	8986.22
652.875	9038.19
653.227	8935.82
653.578	8983.51
653.93	8981.92
654.282	8966.56
654.633	8915.71
654.985	8974.47
655.337	9019.66
655.688	8996.16
656.039	9073.45
656.391	8994.35
656.742	8990.96
657.094	9014.47
657.445	8984.41
657.796	8970.4
658.147	9049.49
658.498	8974.02
658.849	9070.06
659.2	9066.44
659.551	9041.36
659.902	8995.48
660.253	9024.18
660.604	9073.45
660.955	9010.85
661.306	9080.91
661.656	9018.76
662.007	9032.09
662.358	9021.25
662.708	9055.37
663.059	9027.8
663.409	9010.85
663.76	9077.29
664.11	9161.36
664.461	9109.15
664.811	9107.35
665.161	9135.59
665.511	9089.27
665.862	9091.07
666.212	9142.37
666.562	9081.13
666.912	9070.74
667.262	9097.63
667.612	9105.31
667.962	9168.36
668.312	9016.27
668.662	9088.59
669.011	9123.16
669.361	9095.82
669.711	9040.68
670.06	9094.46
670.41	9014.92
670.76	9003.85
671.109	9099.89
671.459	9073.45
671.808	9091.98
672.157	9071.64
672.507	9044.52
672.856	8948.48
673.205	8992.32
673.554	9075.48
673.904	8994.58
674.253	9011.3
674.602	9001.81
674.951	8889.27
675.3	8800.46
675.649	8949.84
675.998	8936.28
676.346	8935.82
676.695	8955.26
677.044	8901.47
677.393	8939.44
677.741	8971.3
678.09	8878.88
678.438	8902.6
678.787	8938.08
679.135	8917.97
679.484	8870.74
679.832	8829.39
680.181	8811.99
680.529	8896.73
680.877	8718.2
681.225	8760.24
681.573	8817.41
681.922	8778.54
682.27	8732.44
682.618	8739.67
682.966	8662.16
683.314	8700.35
683.661	8750.52
684.009	8705.55
684.357	8587.81
684.705	8600.47
685.053	8609.51
685.4	8620.13
685.748	8533.12
686.095	8556.85
686.443	8543.74
686.79	8468.72
687.138	8453.35
687.485	8473.24
687.832	8471.88
688.18	8470.98
688.527	8411.09
688.874	8414.48
689.221	8360.7
689.568	8354.82
689.915	8324.99
690.262	8254.71
690.609	8271.21
690.956	8222.62
691.303	8199.12
691.65	8182.85
691.997	8165.68
692.344	8091.55
692.69	8109.86
693.037	8132
693.383	8042.29
693.73	8042.06
694.077	7990.31
694.423	7940.82
694.769	7958.22
695.116	7946.02
695.462	7853.82
695.808	7890.88
696.155	7871.22
696.501	7852.01
696.847	7756.65
697.193	7734.27
697.539	7768.4
697.885	7715.74
698.231	7642.75
698.577	7684.56
698.923	7615.63
699.269	7589.65
699.614	7527.05
699.96	7499.93
700.306	7522.75
700.651	7468.07
700.997	7496.31
701.342	7416.77
701.688	7446.37
702.033	7374.06
702.379	7313.95
702.724	7379.71
703.069	7310.33
703.415	7244.57
703.76	7242.08
704.105	7265.81
704.45	7240.05
704.795	7156.89
705.14	7125.7
705.485	7130.45
705.83	7116.89
706.175	7136.78
706.52	7094.29
706.865	6998.93
707.209	7013.84
707.554	6962.99
707.899	7053.39
708.243	6944.69
708.588	6924.13
708.932	6934.75
709.277	6881.19
709.621	6885.93
709.966	6845.26
710.31	6836.67
710.654	6751.93
710.998	6761.19
711.342	6773.4
711.687	6804.13
712.031	6731.14
712.375	6721.42
712.719	6704.02
713.063	6705.15
713.407	6724.58
713.75	6627.41
714.094	6665.6
714.438	6675.09
714.782	6628.99
715.125	6573.63
715.469	6683.45
715.812	6581.54
716.156	6576.11
716.499	6562.78
716.843	6544.25
717.186	6537.47
717.53	6571.59
717.873	6537.47
718.216	6535.21
718.559	6551.71
718.902	6428.32
719.246	6471.93
719.589	6457.92
719.932	6453.18
720.275	6504.93
720.617	6433.52
720.96	6492.5
721.303	6435.33
721.646	6470.58
721.989	6389.22
722.331	6415.89
722.674	6363.46
723.016	6422.67
723.359	6401.2
723.701	6409.56
724.044	6328.44
724.386	6316.91
724.729	6423.57
725.071	6411.82
725.413	6365.04
725.755	6403.46
726.097	6355.55
726.439	6299.74
726.782	6362.33
727.124	6335.44
727.465	6316.23
727.807	6300.87
728.149	6320.3
728.491	6275.56
728.833	6318.49
729.175	6262.45
729.516	6286.63
729.858	6290.02
730.199	6282.33
730.541	6313.97
730.882	6299.28
731.224	6383.12
731.565	6329.57
731.906	6328.21
732.248	6351.49
732.589	6327.76
732.93	6294.31
733.271	6304.26
733.612	6306.06
733.953	6260.87
734.294	6285.95
734.635	6298.38
734.976	6306.97
735.317	6280.53
735.658	6326.85
735.999	6344.71
736.339	6293.18
736.68	6351.49
737.021	6348.1
737.361	6317.14
737.702	6415.66
738.042	6322.33
738.383	6347.64
738.723	6377.7
739.063	6336.34
739.404	6354.2
739.744	6424.7
740.084	6426.51
740.424	6416.57
740.764	6435.78
741.104	6410.69
741.444	6419.28
741.784	6435.33
742.124	6494.31
742.464	6505.15
742.804	6492.05
743.143	6548.09
743.483	6527.07
743.823	6581.99
744.162	6587.19
744.502	6611.14
744.841	6635.32
745.181	6684.58
745.52	6677.8
745.86	6684.81
746.199	6786.28
746.538	6777.69
746.877	6873.28
747.216	6913.73
747.556	6932.49
747.895	6911.47
748.234	7042.77
748.573	7026.72
748.911	7143.33
749.25	7143.78
749.589	7243.21
749.928	7344
750.267	7353.72
750.605	7397.33
750.944	7486.14
751.283	7598.46
751.621	7667.38
751.96	7705.12
752.298	7778.34
752.636	7934.49
752.975	8011.78
753.313	8063.3
753.651	8223.98
753.989	8288.61
754.327	8391.21
754.666	8520.02
755.004	8633.69
755.342	8749.39
755.679	8858.31
756.017	8961.81
756.355	9159.1
756.693	9240.68
757.031	9353.44
757.368	9477.73
757.706	9623.04
758.044	9771.51
758.381	9988.23
758.719	10102.12
759.056	10245.39
759.394	10396.35
759.731	10517.25
760.068	10667.3
760.405	10839.73
760.743	11036.79
761.08	11161.08
761.417	11309.77
761.754	11538.02
762.091	11652.59
762.428	11780.72
762.765	11950.66
763.102	12110.66
763.438	12321.5
763.775	12451.89
764.112	12684.43
764.449	12926.45
764.785	12992.67
765.122	13111.53
765.458	13224.98
765.795	13369.83
766.131	13557.17
766.467	13660.45
766.804	13814.34
767.14	13990.38
767.476	14107.89
767.812	14233.31
768.148	14384.04
768.485	14472.63
768.821	14627.88
769.157	14799.62
769.492	14886.63
769.828	14943.8
770.164	15024.25
770.5	15153.29
770.836	15337.69
771.171	15352.83
771.507	15490.45
771.842	15542.88
772.178	15615.2
772.513	15821.07
772.849	15889.99
773.184	15894.51
773.519	16109.87
773.855	16042.3
774.19	16096.54
774.525	16160.27
774.86	16343.54
775.195	16425.8
775.53	16442.07
775.865	16410.88
776.2	16396.42
776.535	16427.38
776.87	16536.98
777.205	16549.18
777.539	16717.77
777.874	16645.9
778.209	16638.9
778.543	16581.27
778.878	16728.16
779.212	16763.42
779.547	16774.49
779.881	16854.49
780.215	16919.8
780.55	16960.92
780.884	16878.67
781.218	16944.2
781.552	16973.13
781.886	17033.46
782.22	16896.97
782.554	16954.37
782.888	16880.7
783.222	16829.4
783.556	16902.62
783.889	16861.27
784.223	16952.79
784.557	16903.98
784.89	16891.55
785.224	16826.24
785.557	16864.88
785.891	16867.37
786.224	16861.49
786.558	16827.82
786.891	16865.79
787.224	16802.06
787.557	16833.92
787.891	16772.23
788.224	16806.58
788.557	16857.42
788.89	16730.87
789.223	16782.17
789.556	16675.51
789.888	16673.25
790.221	16726.81
790.554	16612.23
790.887	16540.37
791.219	16618.33
791.552	16573.14
791.884	16543.31
792.217	16528.39
792.549	16503.53
792.882	16383.99
793.214	16374.05
793.546	16432.58
793.879	16316.42
794.211	16191.45
794.543	16355.97
794.875	16280.04
795.207	16290.21
795.539	16272.58
795.871	16152.81
796.203	16079.37
796.535	15942.19
796.867	16033.26
797.198	16035.07
797.53	16026.49
797.862	15927.28
798.193	15906.94
798.525	15912.82
798.856	15899.48
799.188	15767.06
799.519	15771.8
799.85	15654.29
800.182	15624.69
800.513	15662.65
800.844	15520.51
801.175	15557.35
801.506	15659.72
801.837	15568.64
802.168	15534.29
802.499	15457.91
802.83	15427.63
803.161	15339.5
803.491	15350.34
803.822	15443.68
804.153	15278.48
804.483	15291.36
804.814	15216.56
805.145	15198.94
805.475	15193.06
805.805	15184.47
806.136	15150.58
806.466	15104.93
806.796	15021.54
807.126	14942.22
807.457	14953.29
807.787	14967.08
808.117	14916.68
808.447	14801.43
808.777	14897.02
809.107	14875.33
809.436	14764.37
809.766	14833.75
810.096	14763.47
810.426	14688.44
810.755	14723.69
811.085	14762.79
811.414	14624.71
811.744	14612.74
812.073	14571.61
812.403	14587.2
812.732	14507.43
813.061	14435.34
813.39	14353.99
813.719	14324.16
814.049	14439.18
814.378	14379.75
814.707	14257.04
815.036	14260.66
815.365	14276.02
815.693	14093.2
816.022	14179.53
816.351	14106.99
816.68	14076.03
817.008	14171.39
817.337	13993.09
817.665	13944.05
817.994	14063.6
818.322	13939.76
818.651	13966.2
818.979	13937.5
819.307	13991.96
819.636	13927.78
819.964	13831.06
820.292	13861.12
820.62	13918.29
820.948	13834.9
821.276	13914
821.604	13857.28
821.932	13897.28
822.259	13900.21
822.587	13795.13
822.915	13763.04
823.243	13895.92
823.57	13751.06
823.898	13840.1
824.225	13752.87
824.553	13853.21
824.88	13794.45
825.207	13828.58
825.535	13803.49
825.862	13818.86
826.189	13760.1
826.516	13858.86
826.843	13912.42
827.17	13899.08
827.497	13918.07
827.824	13813.89
828.151	13938.4
828.478	13853.66
828.805	13925.98
829.131	13892.53
829.458	13865.64
829.785	13872.42
830.111	13815.24
830.438	13805.53
830.764	13788.8
831.09	13772.53
831.417	13771.63
831.743	13921
832.069	13858.18
832.395	13710.16
832.722	13842.36
833.048	13681.91
833.374	13804.17
833.7	13785.19
834.026	13757.84
834.351	13747.68
834.677	13716.72
835.003	13735.25
835.329	13792.19
835.654	13656.83
835.98	13577.96
836.306	13694.34
836.631	13603.05
836.956	13663.61
837.282	13715.36
837.607	13681.01
837.932	13460.9
838.258	13556.04
838.583	13521.47
838.908	13500
839.233	13452.54
839.558	13495.25
839.883	13409.38
840.208	13332.54
840.533	13408.02
840.858	13370.74
841.182	13359.21
841.507	13390.85
841.832	13267.69
842.156	13228.14
842.481	13266.78
842.805	13257.74
843.13	13224.98
843.454	13163.28
843.778	13172.1
844.103	13119.44
844.427	13067.02
844.751	13158.76
845.075	13027.69
845.399	12979.33
845.723	12954.7
846.047	12920.58
846.371	12855.72
846.695	12896.85
847.019	12742.05
847.343	12759.68
847.666	12588.16
847.99	12593.81
848.313	12653.69
848.637	12529.85
848.96	12501.83
849.284	12517.2
849.607	12344.77
849.931	12284.89
850.254	12221.61
850.577	12213.48
850.9	12107.94
851.223	12135.51
851.546	12046.7
851.869	11950.21
852.192	12017.33
852.515	11903.88
852.838	11835.41
853.161	11848.29
853.483	11839.93
853.806	11724
854.129	11777.33
854.451	11662.31
854.774	11626.83
855.096	11643.55
855.419	11572.82
855.741	11583.44
856.063	11490.56
856.385	11435.19
856.708	11393.84
857.03	11357.46
857.352	11422.99
857.674	11429.54
857.996	11287.63
858.318	11227.06
858.64	11228.65
858.961	11204.69
859.283	11066.62
859.605	11162.66
859.926	11163.11
860.248	11059.61
860.57	11000.18
860.891	11046.73
861.212	11041.08
861.534	10937.13
861.855	10880.63
862.176	10885.15
862.498	10962.89
862.819	10916.79
863.14	10924.7
863.461	10886.28
863.782	10812.61
864.103	10898.94
864.424	10774.42
864.745	10801.99
865.065	10744.82
865.386	10622.33
865.707	10705.95
866.027	10679.73
866.348	10674.54
866.668	10637.02
866.989	10678.6
867.309	10537.82
867.63	10554.99
867.95	10559.06
868.27	10547.53
868.59	10542.34
868.91	10512.51
869.23	10479.74
869.55	10459.85
869.87	10495.56
870.19	10454.2
870.51	10489.91
870.83	10512.05
871.15	10397.48
871.469	10426.18
871.789	10437.03
872.109	10336.01
872.428	10291.95
872.748	10330.36
873.067	10318.39
873.386	10360.65
873.706	10210.14
874.025	10185.28
874.344	10153.19
874.663	10240.42
874.982	10175.79
875.301	10183.93
875.62	10225.28
875.939	10199.97
876.258	10176.92
876.577	10110.71
876.896	10077.72
877.214	10108
877.533	10127.43
877.852	10080.43
878.17	10028
878.489	10084.27
878.807	10059.41
879.125	10071.16
879.444	9983.48
879.762	9971.28
880.08	9935.12
880.398	9968.57
880.716	9984.84
881.034	9935.8
881.352	9915.23
881.67	9908.45
881.988	9881.79
882.306	9822.58
882.624	9824.61
882.941	9705.3
883.259	9772.19
883.577	9688.12
883.894	9707.56
884.212	9722.47
884.529	9691.51
884.846	9668.46
885.164	9713.66
885.481	9597.28
885.798	9595.92
886.115	9511.4
886.432	9499.88
886.75	9458.3
887.067	9540.55
887.383	9482.7
887.7	9507.11
888.017	9383.95
888.334	9474.12
888.651	9464.62
888.967	9392.08
889.284	9348.47
889.6	9344.18
889.917	9209.49
890.233	9194.57
890.55	9242.71
890.866	9221.01
891.182	9254.46
891.498	9107.35
891.815	9076.61
892.131	9068.48
892.447	8992.09
892.763	9032.32
893.079	8991.64
893.395	8992.09
893.71	8913
894.026	8920.23
894.342	8956.61
894.657	8867.58
894.973	8870.06
895.289	8786.22
895.604	8806.11
895.92	8651.54
896.235	8639.79
896.55	8672.1
896.865	8677.75
897.181	8580.35
897.496	8673.91
897.811	8585.78
898.126	8548.26
898.441	8520.69
898.756	8490.41
899.071	8442.05
899.386	8449.06
899.7	8428.72
900.015	8331.55
900.33	8232.57
900.644	8219.01
900.959	8289.97
901.273	8225.56
901.588	8190.31
901.902	8122.29
902.216	8095.17
902.531	8118.22
902.845	8122.96
903.159	7988.96
903.473	7981.95
903.787	8004.78
904.101	7975.62
904.415	7968.62
904.729	7883.87
905.042	7842.07
905.356	7828.51
905.67	7875.51
905.984	7833.03
906.297	7751.45
906.611	7710.77
906.924	7724.78
907.237	7728.62
907.551	7663.54
907.864	7608.4
908.177	7577.89
908.491	7496.99
908.804	7569.08
909.117	7463.09
909.43	7402.98
909.743	7366.37
910.056	7319.14
910.368	7295.42
910.681	7285.02
910.994	7233.95
911.307	7266.94
911.619	7253.38
911.932	7212.25
912.244	7133.39
912.557	7166.61
912.869	7071.01
913.181	7044.12
913.494	7005.25
913.806	7036.44
914.118	7006.61
914.43	6945.59
914.742	6942.88
915.054	6877.35
915.366	6873.73
915.678	6846.39
915.99	6852.72
916.302	6787.18
916.613	6767.52
916.925	6754.41
917.236	6770.46
917.548	6678.71
917.859	6720.52
918.171	6655.66
918.482	6577.02
918.794	6531.37
919.105	6558.26
919.416	6571.59
919.727	6514.87
920.038	6475.1
920.349	6391.71
920.66	6418.15
920.971	6427.42
921.282	6389.45
921.593	6326.63
921.903	6318.04
922.214	6295.89
922.525	6273.52
922.835	6284.37
923.146	6244.14
923.456	6202.11
923.767	6178.16
924.077	6109.68
924.387	6119.85
924.697	6114.2
925.008	6105.16
925.318	6034.66
925.628	6053.41
925.938	5997.82
926.248	5937.94
926.558	5951.27
926.867	5904.04
927.177	5940.2
927.487	5845.74
927.796	5826.98
928.106	5801.9
928.416	5769.58
928.725	5773.42
929.034	5755.34
929.344	5762.35
929.653	5738.85
929.962	5742.01
930.271	5683.48
930.581	5639.19
930.89	5592.86
931.199	5579.98
931.508	5540.89
931.817	5547.44
932.125	5531.85
932.434	5511.06
932.743	5462.7
933.051	5467.44
933.36	5445.29
933.669	5441.9
933.977	5386.09
934.286	5339.76
934.594	5394.9
934.902	5314.22
935.21	5358.74
935.519	5298.18
935.827	5261.34
936.135	5236.03
936.443	5205.98
936.751	5188.35
937.059	5182.93
937.367	5172.08
937.674	5132.99
937.982	5146.09
938.29	5066.32
938.597	5087.56
938.905	5052.76
939.213	4999.2
939.52	4957.4
939.827	4977.74
940.135	4955.14
940.442	4898.42
940.749	4949.94
941.056	4940.68
941.363	4856.38
941.67	4888.47
941.977	4820.23
942.284	4849.6
942.591	4763.73
942.898	4765.76
943.205	4750.17
943.511	4757.63
943.818	4721.02
944.125	4715.37
944.431	4631.08
944.738	4652.32
945.044	4595.6
945.35	4620.68
945.657	4577.75
945.963	4580.91
946.269	4501.14
946.575	4539.56
946.881	4504.08
947.187	4500.91
947.493	4440.8
947.799	4463.17
948.105	4477.18
948.41	4395.83
948.716	4392.89
949.022	4408.49
949.327	4384.53
949.633	4336.4
949.938	4341.59
950.244	4349.96
950.549	4279.22
950.854	4295.04
951.16	4236.29
951.465	4254.82
951.77	4223.63
952.075	4175.27
952.38	4212.33
952.685	4199
952.99	4156.97
953.294	4101.83
953.599	4135.5
953.904	4051.21
954.209	4049.85
954.513	4083.3
954.818	4044.43
955.122	4033.13
955.426	4005.56
955.731	3998.1
956.035	3969.63
956.339	3981.83
956.643	3923.53
956.948	3892.12
957.252	3918.78
957.556	3893.25
957.86	3889.86
958.163	3870.19
958.467	3840.82
958.771	3843.08
959.075	3791.1
959.378	3789.52
959.682	3773.7
959.985	3780.93
960.289	3737.09
960.592	3687.6
960.896	3700.26
961.199	3709.97
961.502	3716.98
961.805	3644.66
962.108	3657.32
962.411	3618.68
962.714	3620.48
963.017	3598.34
963.32	3608.96
963.623	3578.45
963.926	3524.67
964.228	3542.07
964.531	3529.41
964.833	3530.09
965.136	3476.53
965.438	3501.62
965.741	3491.45
966.043	3440.6
966.345	3464.1
966.648	3392.24
966.95	3414.61
967.252	3407.16
967.554	3394.05
967.856	3375.29
968.158	3349.08
968.46	3379.36
968.761	3303.2
969.063	3298.23
969.365	3262.08
969.666	3300.94
969.968	3240.38
970.269	3203.55
970.571	3229.76
970.872	3242.41
971.174	3220.49
971.475	3232.02
971.776	3181.4
972.077	3140.04
972.378	3163.55
972.679	3136.43
972.98	3154.28
973.281	3157.67
973.582	3104.79
973.883	3046.26
974.183	3078.8
974.484	3044
974.785	3073.15
975.085	3034.74
975.386	3038.35
975.686	3017.11
975.986	2985.02
976.287	2975.3
976.587	2907.51
976.887	2952.93
977.187	2961.52
977.487	2927.62
977.787	2884.68
978.087	2889.43
978.387	2873.16
978.687	2846.49
978.987	2841.3
979.286	2888.3
979.586	2865.25
979.885	2851.92
980.185	2806.27
980.484	2795.87
980.784	2766.27
981.083	2776.66
981.382	2782.54
981.682	2772.14
981.981	2744.57
982.28	2710.9
982.579	2725.82
982.878	2729.66
983.177	2685.37
983.475	2685.59
983.774	2688.98
984.073	2683.11
984.372	2661.19
984.67	2658.7
984.969	2629.78
985.267	2636.1
985.566	2604.47
985.864	2574.18
986.162	2551.13
986.461	2547.52
986.759	2582.77
987.057	2545.71
987.355	2533.96
987.653	2528.08
987.951	2500.97
988.249	2498.48
988.547	2540.96
988.844	2457.58
989.142	2469.78
989.44	2463.23
989.737	2451.7
990.035	2423.45
990.332	2405.83
990.63	2430.68
990.927	2408.09
991.224	2386.39
991.521	2370.12
991.819	2351.82
992.116	2329.9
992.413	2365.15
992.71	2335.77
993.006	2329.9
993.303	2270.69
993.6	2301.87
993.897	2314.08
994.193	2277.02
994.49	2250.35
994.787	2263.68
995.083	2246.06
995.379	2226.4
995.676	2217.58
995.972	2234.53
996.268	2190.24
996.565	2199.5
996.861	2193.4
997.157	2159.73
997.453	2183.01
997.749	2171.26
998.044	2137.36
998.34	2123.12
998.636	2132.84
998.932	2080.41
999.227	2105.04
999.523	2090.81
999.818	2074.54
1000.114	2069.11
1000.409	2046.51
1000.704	2036.12
1001	2009
1001.295	2024.14
1001.59	2002
1001.885	2038.83
1002.18	1980.98
1002.475	1980.75
1002.77	1957.93
1003.065	1984.59
1003.359	1933.52
1003.654	1943.24
1003.949	1943.69
1004.243	1920.42
1004.538	1874.99
1004.832	1882.22
1005.127	1881.09
1005.421	1900.53
1005.715	1871.15
1006.009	1852.17
1006.304	1834.99
1006.598	1802.23
1006.892	1807.88
1007.186	1784.37
1007.48	1799.74
1007.773	1790.02
1008.067	1790.02
1008.361	1739.63
1008.655	1739.4
1008.948	1737.82
1009.242	1704.38
1009.535	1745.05
1009.829	1711.38
1010.122	1685.17
1010.415	1711.83
1010.708	1673.19
1011.001	1665.96
1011.295	1659.63
1011.588	1662.8
1011.881	1663.02
1012.173	1642.23
1012.466	1636.58
1012.759	1614.43
1013.052	1619.18
1013.344	1623.02
1013.637	1577.83
1013.93	1555.45
1014.222	1588.45
1014.514	1562.68
1014.807	1538.96
1015.099	1555.68
1015.391	1545.96
1015.683	1511.39
1015.976	1544.61
1016.268	1517.94
1016.56	1500.77
1016.851	1479.98
1017.143	1459.18
1017.435	1478.17
1017.727	1461.9
1018.018	1448.11
1018.31	1429.81
1018.602	1448.79
1018.893	1415.57
1019.185	1413.08
1019.476	1425.06
1019.767	1394.78
1020.058	1393.88
1020.35	1390.71
1020.641	1351.62
1020.932	1402.24
1021.223	1365.63
1021.514	1348
1021.804	1348.68
1022.095	1324.27
1022.386	1311.84
1022.677	1350.49
1022.967	1306.42
1023.258	1270.94
1023.548	1314.78
1023.839	1275.46
1024.129	1267.78
1024.419	1261.68
1024.709	1259.64
1025	1237.95
1025.29	1274.1
1025.58	1248.34
1025.87	1231.85
1026.16	1238.4
1026.449	1232.3
1026.739	1200.89
1027.029	1198.4
1027.319	1202.02
1027.608	1180.77
1027.898	1168.8
1028.187	1177.61
1028.477	1186.2
1028.766	1159.31
1029.055	1145.75
1029.344	1130.15
1029.634	1161.34
1029.923	1130.83
1030.212	1108.46
1030.501	1106.88
1030.79	1092.19
1031.078	1079.76
1031.367	1074.79
1031.656	1077.73
1031.945	1059.87
1032.233	1056.03
1032.522	1048.12
1032.81	1062.81
1033.099	1047.44
1033.387	1068.69
1033.675	1035.02
1033.963	1023.49
1034.251	993.21
1034.54	985.75
1034.828	1010.61
1035.116	995.24
1035.403	981.01
1035.691	999.76
1035.979	995.47
1036.267	974
1036.554	974.45
1036.842	988.69
1037.129	963.83
1037.417	967.45
1037.704	948.24
1037.992	920.67
1038.279	943.72
1038.566	927.22
1038.853	927.22
1039.14	927.22
