Data from hue_260_FLMS001491_00022.txt Node
Date: Tue Feb 07 15:58:46 GMT 2017
User: dcchb
Spectrometer: FLMS00149
Trigger mode: 0
Integration Time (sec): 2.000000E-2
Scans to average: 10
Electric dark correction enabled: true
Nonlinearity correction enabled: false
Boxcar width: 0
XAxis mode: Wavelengths
Number of Pixels in Spectrum: 2048
>>>>>Begin Spectral Data<<<<<
341.393	2.33
341.776	2.33
342.16	2.33
342.543	-55.52
342.927	-66.82
343.31	-62.75
343.693	-47.16
344.077	-64.56
344.46	-60.94
344.843	-64.11
345.226	-35.41
345.61	-40.83
345.993	4.14
346.376	-5.35
346.759	-4.45
347.142	20.18
347.525	26.51
347.908	62.89
348.291	78.03
348.674	94.08
349.057	99.73
349.44	113.06
349.823	128.43
350.206	158.26
350.588	179.05
350.971	192.38
351.354	198.71
351.737	216.34
352.119	261.76
352.502	248.88
352.884	275.09
353.267	260.85
353.65	288.88
354.032	289.78
354.414	307.18
354.797	306.96
355.179	313.28
355.562	320.51
355.944	327.75
356.326	337.91
356.709	312.6
357.091	330.91
357.473	327.75
357.855	333.62
358.238	334.3
358.62	321.87
359.002	327.07
359.384	326.39
359.766	310.12
360.148	335.43
360.53	320.97
360.912	319.84
361.294	323.45
361.676	310.8
362.057	319.61
362.439	341.3
362.821	312.38
363.203	308.99
363.584	314.86
363.966	324.13
364.348	306.28
364.729	327.75
365.111	333.17
365.493	308.09
365.874	329.55
366.256	297.46
366.637	323.68
367.019	308.99
367.4	308.76
367.781	290.23
368.163	343.79
368.544	310.12
368.925	298.14
369.306	306.96
369.688	302.44
370.069	287.97
370.45	309.67
370.831	303.34
371.212	318.71
371.593	319.61
371.974	305.6
372.355	317.12
372.736	304.02
373.117	319.16
373.498	308.99
373.879	313.51
374.26	333.4
374.641	318.03
375.021	309.67
375.402	320.06
375.783	312.6
376.163	308.54
376.544	326.62
376.925	343.34
377.305	315.99
377.686	314.19
378.066	317.58
378.447	316.45
378.827	327.52
379.208	324.36
379.588	318.03
379.968	329.33
380.349	313.06
380.729	299.27
381.109	338.59
381.489	333.85
381.87	321.64
382.25	345.6
382.63	336.33
383.01	330.23
383.39	335.43
383.77	325.94
384.15	336.11
384.53	358.48
384.91	339.04
385.29	350.57
385.67	354.86
386.049	335.88
386.429	313.96
386.809	351.47
387.189	351.7
387.568	334.75
387.948	334.07
388.328	369.1
388.707	339.27
389.087	375.65
389.466	352.6
389.846	360.97
390.225	358.93
390.605	343.56
390.984	358.48
391.363	383.56
391.743	372.04
392.122	373.17
392.501	358.71
392.881	391.25
393.26	384.02
393.639	379.04
394.018	385.37
394.397	367.74
394.776	385.82
395.155	381.53
395.534	386.28
395.913	361.87
396.292	388.76
396.671	397.8
397.05	399.38
397.429	383.56
397.808	400.51
398.186	405.71
398.565	401.64
398.944	411.59
399.323	406.39
399.701	415.43
400.08	407.97
400.458	434.86
400.837	425.6
401.215	413.62
401.594	396.67
401.972	428.31
402.351	419.27
402.729	417.01
403.107	421.98
403.486	446.61
403.864	432.38
404.242	450.91
404.62	457.69
404.999	435.77
405.377	457.69
405.755	482.77
406.133	461.3
406.511	449.1
406.889	466.73
407.267	460.17
407.645	457.01
408.023	497.68
408.401	477.12
408.779	505.59
409.156	500.85
409.534	500.4
409.912	513.05
410.29	517.8
410.667	504.01
411.045	544.92
411.422	545.82
411.8	538.36
412.178	540.4
412.555	548.08
412.933	569.1
413.31	567.29
413.687	560.28
414.065	580.39
414.442	575.42
414.819	589.21
415.197	608.42
415.574	600.73
415.951	617.46
416.328	614.74
416.705	632.82
417.082	636.89
417.46	650.67
417.837	643.67
418.214	671.24
418.591	663.56
418.967	666.95
419.344	673.95
419.721	675.99
420.098	686.83
420.475	721.18
420.852	689.54
421.228	714.4
421.605	725.48
421.982	736.1
422.358	749.2
422.735	760.5
423.111	744.68
423.488	792.59
423.864	791.24
424.241	787.85
424.617	806.6
424.994	827.85
425.37	829.65
425.746	815.87
426.123	835.98
426.499	852.25
426.875	859.26
427.251	896.32
427.627	893.38
428.003	911.23
428.379	928.63
428.756	930.22
429.132	939.48
429.507	935.41
429.883	951.46
430.259	965.69
430.635	993.26
431.011	984.45
431.387	1021.29
431.763	1031.23
432.138	1022.19
432.514	1040.04
432.89	1043.88
433.265	1072.36
433.641	1088.4
434.016	1122.75
434.392	1126.59
434.767	1147.39
435.143	1146.93
435.518	1157.55
435.894	1179.02
436.269	1223.77
436.644	1240.72
437.02	1248.4
437.395	1279.58
437.77	1263.54
438.145	1298.79
438.52	1296.99
438.895	1312.35
439.271	1362.97
439.646	1391.45
440.021	1390.09
440.395	1417.43
440.77	1417.43
441.145	1438
441.52	1414.04
441.895	1426.7
442.27	1473.48
442.645	1462.41
443.019	1495.62
443.394	1495.17
443.769	1534.04
444.143	1504.89
444.518	1507.15
444.892	1536.08
445.267	1572.91
445.641	1581.95
446.016	1605
446.39	1609.97
446.764	1596.86
447.139	1602.51
447.513	1611.1
447.887	1639.58
448.262	1628.73
448.636	1630.31
449.01	1679.12
449.384	1685.22
449.758	1694.94
450.132	1711.66
450.506	1712.57
450.88	1701.04
451.254	1760.48
451.628	1769.74
452.002	1751.89
452.376	1753.24
452.75	1813.81
453.123	1835.05
453.497	1805.22
453.871	1895.16
454.244	1866.24
454.618	1913.92
454.992	1926.57
455.365	1912.34
455.739	1974.71
456.112	1998.21
456.486	1988.94
456.859	2013.13
457.232	2012.67
457.606	2050.86
457.979	2079.34
458.352	2119.56
458.725	2093.57
459.099	2147.36
459.472	2181.48
459.845	2174.48
460.218	2191.65
460.591	2245.66
460.964	2257.19
461.337	2256.06
461.71	2327.02
462.083	2322.5
462.456	2351.87
462.829	2376.96
463.201	2401.36
463.574	2392.55
463.947	2397.75
464.32	2500.8
464.692	2503.51
465.065	2521.81
465.438	2530.85
465.81	2571.53
466.183	2602.94
466.555	2649.04
466.928	2670.73
467.3	2637.29
467.672	2704.41
468.045	2765.42
468.417	2784.86
468.789	2777.17
469.161	2793.44
469.534	2852.42
469.906	2898.3
470.278	2912.54
470.65	2948.92
471.022	2993.44
471.394	3054
471.766	3063.27
472.138	3094.45
472.51	3152.76
472.882	3187.33
473.253	3209.03
473.625	3252.41
473.997	3300.77
474.369	3312.07
474.74	3387.1
475.112	3413.77
475.484	3504.84
475.855	3494.22
476.227	3567.89
476.598	3603.14
476.97	3635.91
477.341	3708.22
477.713	3788.9
478.084	3786.41
478.455	3870.25
478.827	3857.14
479.198	4012.17
479.569	4006.52
479.94	4118.61
480.311	4098.95
480.682	4212.39
481.053	4263.91
481.424	4321.76
481.795	4379.16
482.166	4382.55
482.537	4493.74
482.908	4499.16
483.279	4575.09
483.65	4657.12
484.021	4731.92
484.391	4830
484.762	4795.42
485.133	4867.74
485.503	4927.85
485.874	5010.79
486.244	5017.57
486.615	5100.05
486.985	5112.03
487.356	5265.47
487.726	5227.5
488.097	5378.46
488.467	5349.76
488.837	5479.25
489.207	5519.93
489.578	5579.36
489.948	5629.98
490.318	5646.93
490.688	5627.49
491.058	5782.52
491.428	5806.25
491.798	5853.02
492.168	5980.7
492.538	5940.48
492.908	6017.31
493.278	6119.23
493.648	6102.96
494.017	6188.83
494.387	6235.39
494.757	6246.91
495.126	6276.74
495.496	6338.44
495.866	6377.08
496.235	6415.72
496.605	6441.03
496.974	6526.23
497.344	6536.17
497.713	6542.95
498.082	6601.03
498.452	6655.49
498.821	6685.54
499.19	6673.34
499.559	6713.11
499.928	6773.45
500.298	6831.98
500.667	6884.18
501.036	6840.57
501.405	6858.65
501.774	6864.97
502.143	6962.6
502.512	6966.44
502.88	7022.71
503.249	7041.24
503.618	7032.43
503.987	7033.78
504.356	7118.53
504.724	7052.77
505.093	7082.14
505.462	7095.48
505.83	7135.7
506.199	7175.02
506.567	7285.98
506.936	7294.34
507.304	7375.47
507.672	7322.36
508.041	7325.53
508.409	7443.26
508.777	7463.38
509.145	7540.66
509.514	7447.33
509.882	7554.22
510.25	7515.58
510.618	7542.47
510.986	7504.28
511.354	7601.45
511.722	7634.45
512.09	7658.63
512.458	7614.56
512.826	7723.94
513.193	7662.92
513.561	7684.16
513.929	7819.07
514.297	7786.53
514.664	7733.2
515.032	7798.96
515.4	7838.06
515.767	7886.87
516.135	7879.86
516.502	7824.72
516.869	7861.33
517.237	7917.83
517.604	7851.84
517.972	7922.8
518.339	8026.07
518.706	7946.98
519.073	7909.47
519.44	7980.65
519.808	7990.82
520.175	8059.07
520.542	8037.6
520.909	8087.32
521.276	8057.71
521.643	8097.71
522.009	8136.35
522.376	8259.29
522.743	8166.64
523.11	8234.43
523.477	8282.56
523.843	8254.54
524.21	8368.44
524.577	8355.56
524.943	8351.04
525.31	8393.75
525.676	8398.27
526.043	8431.71
526.409	8456.35
526.776	8435.56
527.142	8462.22
527.508	8511.49
527.874	8468.32
528.241	8547.42
528.607	8555.55
528.973	8602.78
529.339	8552.84
529.705	8610.24
530.071	8601.43
530.437	8608.43
530.803	8668.32
531.169	8664.02
531.535	8644.36
531.901	8647.07
532.267	8642.1
532.632	8655.21
532.998	8691.37
533.364	8656.34
533.73	8645.27
534.095	8720.75
534.461	8779.95
534.826	8750.57
535.192	8699.5
535.557	8761.2
535.923	8670.13
536.288	8726.17
536.653	8765.04
537.019	8671.03
537.384	8723.68
537.749	8713.29
538.114	8662.67
538.479	8747.19
538.845	8683.68
539.21	8677.36
539.575	8727.52
539.94	8672.61
540.305	8680.97
540.67	8655.89
541.034	8709.67
541.399	8657.47
541.764	8720.52
542.129	8626.96
542.494	8679.16
542.858	8677.58
543.223	8698.82
543.587	8696.34
543.952	8629.22
544.316	8681.2
544.681	8624.02
545.045	8619.28
545.41	8668.32
545.774	8666.96
546.138	8642.1
546.503	8631.93
546.867	8590.58
547.231	8671.03
547.595	8629.9
547.959	8577.47
548.324	8633.74
548.688	8614.08
549.052	8627.87
549.416	8577.25
549.779	8567.3
550.143	8572.73
550.507	8633.74
550.871	8550.58
551.235	8573.18
551.599	8635.1
551.962	8614.76
552.326	8588.55
552.689	8556
553.053	8513.07
553.417	8530.02
553.78	8636.45
554.143	8547.19
554.507	8581.99
554.87	8567.75
555.234	8574.08
555.597	8558.49
555.96	8558.26
556.323	8562.56
556.686	8567.3
557.05	8580.64
557.413	8550.13
557.776	8536.34
558.139	8647.3
558.502	8604.36
558.865	8597.58
559.228	8616.12
559.59	8647.3
559.953	8714.64
560.316	8730.91
560.679	8702.89
561.041	8753.06
561.404	8758.26
561.767	8719.62
562.129	8731.14
562.492	8802.78
562.854	8765.26
563.217	8821.53
563.579	8868.31
563.941	8819.05
564.304	8920.51
564.666	8908.31
565.028	8861.31
565.39	8884.81
565.753	8922.32
566.115	8879.39
566.477	8920.74
566.839	8990.57
567.201	9007.52
567.563	8918.93
567.925	9045.03
568.287	9036.44
568.648	9110.57
569.01	9111.02
569.372	9170
569.734	9145.82
570.095	9223.78
570.457	9288.41
570.819	9200.96
571.18	9225.82
571.542	9237.12
571.903	9219.94
572.265	9276.44
572.626	9284.35
572.987	9284.35
573.349	9297.23
573.71	9366.83
574.071	9398.92
574.432	9409.54
574.794	9408.41
575.155	9451.12
575.516	9428.3
575.877	9465.13
576.238	9494.28
576.599	9512.36
576.96	9543.1
577.32	9496.77
577.681	9588.29
578.042	9590.78
578.403	9569.31
578.763	9638.01
579.124	9626.94
579.485	9673.94
579.845	9669.65
580.206	9711.23
580.566	9761.17
580.927	9736.31
581.287	9758.68
581.648	9805.46
582.008	9862.86
582.368	9868.74
582.728	9856.31
583.089	9803.2
583.449	9877.78
583.809	9937.89
584.169	9930.2
584.529	9889.75
584.889	9965.46
585.249	9899.47
585.609	9903.77
585.969	10064.44
586.329	9991.22
586.688	9996.42
587.048	10021.73
587.408	10048.62
587.768	10040.26
588.127	10036.87
588.487	10027.6
588.846	10174.72
589.206	10092.23
589.565	10057.43
589.925	10186.7
590.284	10199.12
590.643	10205.45
591.003	10148.73
591.362	10193.93
591.721	10270.08
592.08	10275.73
592.44	10248.39
592.799	10266.69
593.158	10303.75
593.517	10333.13
593.876	10325.45
594.235	10282.96
594.593	10314.15
594.952	10351.44
595.311	10299.69
595.67	10386.01
596.029	10440.02
596.387	10398.44
596.746	10487.48
597.104	10362.28
597.463	10361.61
597.822	10395.28
598.18	10393.02
598.538	10379.01
598.897	10410.87
599.255	10351.89
599.613	10532.9
599.972	10452.45
600.33	10482.96
600.688	10429.63
601.046	10428.95
601.404	10475.73
601.762	10465.11
602.12	10562.73
602.478	10648.6
602.836	10515.05
603.194	10521.15
603.552	10550.98
603.91	10498.55
604.268	10556.18
604.625	10546.69
604.983	10615.16
605.341	10506.91
605.698	10621.49
606.056	10607.48
606.413	10628.94
606.771	10626.23
607.128	10672.11
607.485	10608.61
607.843	10635.05
608.2	10710.98
608.557	10725.21
608.914	10658.1
609.272	10724.53
609.629	10684.08
609.986	10761.6
610.343	10712.56
610.7	10756.4
611.057	10753.46
611.414	10762.5
611.771	10754.14
612.127	10798.88
612.484	10844.98
612.841	10811.31
613.198	10788.71
613.554	10749.17
613.911	10883.17
614.267	10889.05
614.624	10875.72
614.98	10815.83
615.337	10940.12
615.693	10854.02
616.05	10862.84
616.406	10959.56
616.762	10925.21
617.118	10888.15
617.475	10912.55
617.831	10901.7
618.187	10936.28
618.543	10960.01
618.899	11010.63
619.255	10996.84
619.611	10925.66
619.967	10958.43
620.323	11096.73
620.678	11034.81
621.034	10991.42
621.39	10938.77
621.746	10900.35
622.101	11049.5
622.457	10997.52
622.812	11015.6
623.168	11031.42
623.523	11022.38
623.879	11100.57
624.234	10913.91
624.589	11002.27
624.945	10988.03
625.3	11037.75
625.655	10946
626.01	11015.83
626.365	11040.91
626.72	10987.13
627.075	10958.2
627.43	10939.22
627.785	10951.65
628.14	10929.73
628.495	10925.89
628.85	10964.53
629.205	10910.97
629.559	10964.3
629.914	10932.21
630.269	10960.46
630.623	10880.01
630.978	10908.94
631.332	10842.05
631.687	10878.65
632.041	10835.72
632.396	10839.56
632.75	10839.79
633.104	10896.28
633.459	10809.28
633.813	10847.69
634.167	10814.48
634.521	10761.14
634.875	10798.43
635.229	10828.94
635.583	10747.81
635.937	10692.44
636.291	10756.4
636.645	10762.73
636.999	10713.46
637.352	10697.87
637.706	10642.05
638.06	10737.87
638.413	10675.5
638.767	10664.2
639.121	10640.47
639.474	10615.16
639.828	10623.75
640.181	10671.88
640.534	10632.79
640.888	10567.25
641.241	10505.78
641.594	10573.8
641.947	10540.58
642.301	10496.52
642.654	10556.86
643.007	10445.67
643.36	10486.12
643.713	10430.98
644.066	10521.83
644.419	10538.32
644.771	10360.02
645.124	10311.21
645.477	10270.31
645.83	10218.33
646.182	10233.93
646.535	10141.95
646.888	10124.55
647.24	10125
647.593	10103.76
647.945	10117.77
648.298	10068.28
648.65	10068.28
649.002	10029.19
649.355	10143.53
649.707	10082.74
650.059	10198.67
650.411	10275.96
650.763	10298.78
651.115	10364.77
651.467	10349.18
651.819	10332.91
652.171	10427.37
652.523	10273.47
652.875	10350.31
653.227	10319.12
653.578	10335.62
653.93	10340.36
654.282	10312.34
654.633	10250.65
654.985	10307.37
655.337	10325.22
655.688	10246.35
656.039	10347.82
656.391	10227.15
656.742	10254.94
657.094	10331.1
657.445	10315.05
657.796	10355.28
658.147	10279.35
658.498	10235.06
658.849	10343.3
659.2	10338.1
659.551	10336.52
659.902	10348.27
660.253	10323.87
660.604	10339.23
660.955	10308.05
661.306	10242.51
661.656	10315.05
662.007	10371.1
662.358	10361.61
662.708	10321.83
663.059	10350.98
663.409	10265.11
663.76	10357.76
664.11	10328.61
664.461	10328.61
664.811	10370.19
665.161	10297.65
665.511	10311.89
665.862	10315.28
666.212	10360.25
666.562	10354.6
666.912	10353.02
667.262	10355.05
667.612	10392.79
667.962	10373.58
668.312	10333.13
668.662	10361.61
669.011	10329.52
669.361	10277.31
669.711	10320.7
670.06	10285.9
670.41	10259.91
670.76	10284.55
671.109	10312.57
671.459	10278.22
671.808	10270.08
672.157	10262.4
672.507	10231.21
672.856	10288.16
673.205	10321.38
673.554	10329.74
673.904	10222.17
674.253	10253.81
674.602	10237.99
674.951	10096.08
675.3	9994.84
675.649	10186.02
675.998	10188.73
676.346	10174.49
676.695	10193.7
677.044	10147.15
677.393	10158.45
677.741	10110.09
678.09	10034.61
678.438	10023.99
678.787	10066.02
679.135	10153.02
679.484	10069.64
679.832	10071.9
680.181	10020.37
680.529	9950.32
680.877	9977.66
681.225	9945.8
681.573	10023.99
681.922	10003.88
682.27	9848.63
682.618	9948.96
682.966	9882.52
683.314	9941.73
683.661	9838.23
684.009	9843.43
684.357	9774.5
684.705	9737.89
685.053	9736.76
685.4	9806.59
685.748	9719.36
686.095	9737.67
686.443	9635.07
686.79	9667.39
687.138	9645.69
687.485	9671.45
687.832	9626.03
688.18	9614.06
688.527	9551.46
688.874	9519.59
689.221	9555.75
689.568	9437.79
689.915	9473.95
690.262	9428.75
690.609	9428.52
690.956	9345.59
691.303	9399.37
691.65	9335.87
691.997	9271.92
692.344	9219.49
692.69	9288.19
693.037	9221.3
693.383	9195.54
693.73	9144.01
694.077	9094.97
694.423	9094.75
694.769	9107.63
695.116	9052.94
695.462	9049.32
695.808	9027.4
696.155	9029.44
696.501	8922.77
696.847	8946.05
697.193	8833.28
697.539	8832.15
697.885	8846.62
698.231	8800.74
698.577	8758.03
698.923	8833.96
699.269	8692.05
699.614	8594.87
699.96	8603.46
700.306	8622.67
700.651	8592.16
700.997	8618.38
701.342	8551.94
701.688	8470.81
702.033	8498.6
702.379	8469.45
702.724	8426.74
703.069	8479.85
703.415	8329.8
703.76	8328.21
704.105	8328.67
704.45	8289.8
704.795	8235.11
705.14	8154.88
705.485	8273.07
705.83	8179.06
706.175	8064.27
706.52	8121.21
706.865	8101.1
707.209	8076.92
707.554	8056.58
707.899	8036.02
708.243	7993.76
708.588	7953.08
708.932	7977.71
709.277	7906.76
709.621	7922.8
709.966	7833.08
710.31	7949.69
710.654	7792.86
710.998	7808.45
711.342	7799.87
711.687	7829.47
712.031	7789.7
712.375	7747.44
712.719	7753.99
713.063	7696.82
713.407	7704.95
713.75	7676.25
714.094	7679.64
714.438	7645.52
714.782	7704.95
715.125	7652.98
715.469	7652.52
715.812	7630.83
716.156	7539.08
716.499	7581.57
716.843	7564.62
717.186	7516.48
717.53	7543.6
717.873	7550.38
718.216	7499.99
718.559	7488.24
718.902	7455.24
719.246	7489.37
719.589	7402.36
719.932	7410.72
720.275	7396.26
720.617	7431.74
720.96	7417.05
721.303	7432.42
721.646	7469.03
721.989	7339.99
722.331	7385.19
722.674	7356.04
723.016	7395.13
723.359	7325.75
723.701	7349.26
724.044	7283.72
724.386	7300.22
724.729	7282.37
725.071	7305.42
725.413	7278.98
725.755	7249.6
726.097	7187.23
726.439	7201.69
726.782	7190.84
727.124	7259.31
727.465	7249.15
727.807	7297.73
728.149	7259.77
728.491	7271.07
728.833	7256.6
729.175	7225.19
729.516	7144.74
729.858	7184.97
730.199	7193.33
730.541	7220.9
730.882	7199.88
731.224	7233.55
731.565	7208.92
731.906	7173.67
732.248	7190.16
732.589	7166.66
732.93	7154.46
733.271	7190.39
733.612	7154.68
733.953	7123.27
734.294	7167.11
734.635	7150.17
734.976	7186.55
735.317	7132.54
735.658	7086.66
735.999	7170.5
736.339	7147.23
736.68	7150.62
737.021	7224.74
737.361	7123.5
737.702	7200.79
738.042	7177.73
738.383	7163.05
738.723	7171.18
739.063	7167.34
739.404	7192.42
739.744	7215.02
740.084	7194.46
740.424	7177.73
740.764	7187.23
741.104	7198.07
741.444	7188.81
741.784	7190.84
742.124	7237.62
742.464	7219.99
742.804	7253.21
743.143	7237.39
743.483	7285.75
743.823	7331.4
744.162	7273.55
744.502	7364.62
744.841	7338.18
745.181	7402.59
745.52	7413.44
745.86	7402.81
746.199	7476.48
746.538	7474.9
746.877	7514.68
747.216	7613.66
747.556	7554.45
747.895	7607.55
748.234	7655.46
748.573	7666.54
748.911	7735.01
749.25	7773.65
749.589	7805.06
749.928	7939.52
750.267	7983.82
750.605	8015.68
750.944	8058.16
751.283	8102.68
751.621	8170.03
751.96	8236.24
752.298	8294.32
752.636	8373.18
752.975	8463.35
753.313	8485.95
753.651	8597.81
753.989	8598.04
754.327	8753.29
754.666	8894.75
755.004	8922.55
755.342	9067.85
755.679	9090.45
756.017	9193.28
756.355	9396.66
756.693	9426.26
757.031	9582.64
757.368	9588.07
757.706	9696.76
758.044	9856.76
758.381	9961.84
758.719	10099.92
759.056	10204.55
759.394	10342.62
759.731	10406.35
760.068	10506.91
760.405	10643.86
760.743	10846.57
761.08	10965.88
761.417	11036.84
761.754	11120.23
762.091	11287.68
762.428	11448.58
762.765	11536.72
763.102	11718.86
763.438	11825.97
763.775	11985.74
764.112	12069.13
764.449	12157.94
764.785	12370.82
765.122	12363.14
765.458	12490.59
765.795	12611.49
766.131	12738.04
766.467	12866.62
766.804	12927.64
767.14	12984.36
767.476	13151.59
767.812	13181.64
768.148	13329.21
768.485	13401.75
768.821	13465.48
769.157	13656.66
769.492	13660.05
769.828	13726.49
770.164	13836.54
770.5	13839.93
770.836	13941.17
771.171	14001.96
771.507	14064.56
771.842	14076.08
772.178	14242.63
772.513	14249.19
772.849	14335.29
773.184	14345.46
773.519	14391.56
773.855	14471.33
774.19	14518.56
774.525	14483.98
774.86	14614.83
775.195	14692.34
775.53	14720.36
775.865	14721.94
776.2	14629.97
776.535	14659.57
776.87	14693.47
777.205	14792.45
777.539	14723.53
777.874	14837.87
778.209	14758.78
778.543	14766.46
778.878	14798.1
779.212	14764.88
779.547	14816.4
779.881	14917.64
780.215	14802.39
780.55	14980.02
780.884	14815.73
781.218	14879.45
781.552	14895.27
781.886	14821.83
782.22	14849.4
782.554	14917.64
782.888	14835.61
783.222	14762.85
783.556	14809.85
783.889	14805.11
784.223	14653.92
784.557	14823.64
784.89	14704.77
785.224	14752.68
785.557	14656.86
785.891	14577.99
786.224	14713.13
786.558	14682.62
786.891	14560.14
787.224	14575.05
787.557	14549.97
787.891	14537.77
788.224	14507.26
788.557	14542.51
788.89	14489.18
789.223	14474.72
789.556	14494.6
789.888	14409.18
790.221	14417.32
790.554	14313.37
790.887	14321.5
791.219	14295.74
791.552	14246.7
791.884	14243.76
792.217	14168.51
792.549	14236.98
792.882	14096.2
793.214	14001.96
793.546	14110.89
793.879	13972.81
794.211	13943.21
794.543	14048.06
794.875	14018.69
795.207	14023.66
795.539	13947.5
795.871	14114.05
796.203	13813.49
796.535	13821.85
796.867	13872.47
797.198	13843.55
797.53	13850.33
797.862	13752.7
798.193	13740.05
798.525	13673.61
798.856	13687.39
799.188	13507.74
799.519	13540.05
799.85	13547.29
800.182	13494.86
800.513	13573.5
800.844	13377.12
801.175	13493.28
801.506	13478.36
801.837	13350.45
802.168	13314.97
802.499	13263.68
802.83	13231.81
803.161	13175.09
803.491	13176.45
803.822	13255.99
804.153	13191.14
804.483	13005.38
804.814	13059.84
805.145	12950.46
805.475	12979.84
805.805	12930.58
806.136	12943.46
806.466	12917.47
806.796	12900.52
807.126	12770.13
807.457	12778.04
807.787	12862.78
808.117	12752.73
808.447	12683.13
808.777	12706.63
809.107	12634.99
809.436	12679.06
809.766	12646.74
810.096	12568.78
810.426	12539.85
810.755	12592.96
811.085	12502.34
811.414	12508.67
811.744	12394.77
812.073	12442.91
812.403	12448.56
812.732	12368.56
813.061	12455.11
813.39	12237.94
813.719	12268.45
814.049	12332.4
814.378	12297.6
814.707	12329.69
815.036	12280.43
815.365	12173.76
815.693	12057.83
816.022	12107.32
816.351	12089.24
816.68	12024.84
817.008	12109.13
817.337	11951.39
817.665	11936.25
817.994	11966.99
818.322	11979.64
818.651	11901.45
818.979	11829.36
819.307	11878.63
819.636	11895.58
819.964	11772.19
820.292	11910.94
820.62	11812.42
820.948	11823.04
821.276	11820.32
821.604	11775.81
821.932	11780.55
822.259	11829.59
822.587	11798.4
822.915	11763.83
823.243	11805.18
823.57	11757.73
823.898	11746.88
824.225	11733.32
824.553	11818.74
824.88	11793.43
825.207	11795.01
825.535	11762.02
825.862	11824.62
826.189	11784.62
826.516	11789.14
826.843	11819.19
827.17	11809.48
827.497	11777.39
827.824	11944.84
828.151	11823.04
828.478	11816.71
828.805	11815.13
829.131	11809.7
829.458	11760.21
829.785	11664.17
830.111	11794.79
830.438	11832.3
830.764	11809.25
831.09	11845.63
831.417	11780.78
831.743	11816.03
832.069	11717.05
832.395	11739.42
832.722	11779.2
833.048	11677.73
833.374	11774.9
833.7	11715.69
834.026	11752.76
834.351	11644.28
834.677	11699.88
835.003	11755.92
835.329	11714.79
835.654	11696.26
835.98	11614.91
836.306	11664.4
836.631	11533.1
836.956	11631.63
837.282	11702.14
837.607	11635.47
837.932	11538.07
838.258	11545.98
838.583	11459.88
838.908	11501.01
839.233	11544.17
839.558	11481.35
839.883	11467.34
840.208	11467.11
840.533	11393.67
840.858	11371.52
841.182	11373.1
841.507	11388.47
841.832	11345.08
842.156	11293.11
842.481	11294.01
842.805	11262.83
843.13	11265.09
843.454	11224.18
843.778	11239.78
844.103	11148.03
844.427	11126.11
844.751	11072.32
845.075	11122.26
845.399	11078.2
845.723	10965.21
846.047	11009.27
846.371	10980.8
846.695	10977.86
847.019	10935.38
847.343	10775.83
847.666	10778.77
847.99	10675.72
848.313	10662.16
848.637	10649.73
848.96	10621.26
849.284	10614.71
849.607	10574.48
849.931	10456.52
850.254	10435.28
850.577	10355.05
850.9	10354.37
851.223	10302.4
851.546	10245.9
851.869	10195.06
852.192	10246.35
852.515	10093.59
852.838	10169.52
853.161	10132.46
853.483	10097.43
853.806	10109.86
854.129	10038.68
854.451	9987.15
854.774	9959.13
855.096	9898.12
855.419	9916.19
855.741	9876.42
856.063	9802.3
856.385	9824.22
856.708	9760.72
857.03	9686.14
857.352	9692.7
857.674	9676.2
857.996	9627.61
858.318	9527.28
858.64	9607.05
858.961	9480.05
859.283	9491.12
859.605	9506.04
859.926	9515.75
860.248	9477.56
860.57	9452.93
860.891	9431.46
861.212	9344.91
861.534	9323.89
861.855	9301.07
862.176	9297.68
862.498	9314.4
862.819	9368.64
863.14	9253.39
863.461	9257.68
863.782	9201.86
864.103	9217.23
864.424	9174.29
864.745	9253.39
865.065	9112.15
865.386	9162.09
865.707	9171.13
866.027	9113.96
866.348	9106.05
866.668	9097.23
866.989	9115.99
867.309	8996.67
867.63	9069.66
867.95	9097.68
868.27	8973.85
868.59	9010
868.91	9003.68
869.23	8933.62
869.55	8899.05
869.87	8994.18
870.19	8954.19
870.51	9001.42
870.83	8947.86
871.15	8828.54
871.469	8883
871.789	8876
872.109	8856.33
872.428	8781.08
872.748	8817.69
873.067	8843.45
873.386	8878.26
873.706	8817.92
874.025	8756.9
874.344	8719.62
874.663	8724.14
874.982	8730.24
875.301	8768.2
875.62	8724.14
875.939	8689.33
876.258	8675.77
876.577	8657.02
876.896	8609.34
877.214	8634.42
877.533	8614.53
877.852	8590.58
878.17	8655.89
878.489	8639.62
878.807	8570.01
879.125	8595.1
879.444	8544.93
879.762	8456.57
880.08	8474.88
880.398	8504.93
880.716	8490.69
881.034	8443.24
881.352	8476.01
881.67	8366.86
881.988	8390.13
882.306	8382.68
882.624	8385.16
882.941	8304.94
883.259	8358.27
883.577	8285.05
883.894	8245.5
884.212	8272.4
884.529	8302
884.846	8212.74
885.164	8228.1
885.481	8153.08
885.798	8197.37
886.115	8146.75
886.432	8158.05
886.75	8135.22
887.067	8128.9
887.383	8082.12
887.7	8137.71
888.017	7998.28
888.334	8053.42
888.651	8029.92
888.967	7984.95
889.284	8000.76
889.6	7928.45
889.917	7920.31
890.233	7939.52
890.55	7863.82
890.866	7852.52
891.182	7824.72
891.498	7763.48
891.815	7721.45
892.131	7688.68
892.447	7698.4
892.763	7702.24
893.079	7666.54
893.395	7634.9
893.71	7645.52
894.026	7605.75
894.342	7560.32
894.657	7532.08
894.973	7535.01
895.289	7461.57
895.604	7537.95
895.92	7412.76
896.235	7377.96
896.55	7382.48
896.865	7334.34
897.181	7368.01
897.496	7350.16
897.811	7339.31
898.126	7293.66
898.441	7259.77
898.756	7230.84
899.071	7206.89
899.386	7226.32
899.7	7144.29
900.015	7085.76
900.33	7069.72
900.644	7101.35
900.959	7065.65
901.273	7037.85
901.588	7005.31
901.902	6955.37
902.216	6966.67
902.531	6971.41
902.845	6921.47
903.159	6864.75
903.473	6883.28
903.787	6814.81
904.101	6781.59
904.415	6753.34
904.729	6722.38
905.042	6733
905.356	6677.64
905.67	6728.26
905.984	6699.78
906.297	6654.13
906.611	6620.46
906.924	6588.6
907.237	6549.05
907.551	6481.48
907.864	6447.81
908.177	6484.42
908.491	6491.65
908.804	6410.98
909.117	6433.35
909.43	6322.84
909.743	6343.63
910.056	6385.89
910.368	6272.67
910.681	6249.62
910.994	6222.05
911.307	6206.46
911.619	6176.63
911.932	6155.39
912.244	6141.83
912.557	6198.55
912.869	6088.5
913.181	6074.71
913.494	6054.15
913.806	6059.35
914.118	6016.18
914.43	5926.24
914.742	5983.64
915.054	5936.41
915.366	5900.03
915.678	5942.06
915.99	5869.07
916.302	5785.23
916.613	5822.97
916.925	5841.05
917.236	5808.05
917.548	5745.68
917.859	5754.95
918.171	5727.38
918.482	5681.73
918.794	5667.27
919.105	5657.1
919.416	5632.92
919.727	5603.31
920.038	5570.55
920.349	5595.4
920.66	5576.87
920.971	5504.11
921.282	5488.97
921.593	5466.59
921.903	5415.52
922.214	5397.67
922.525	5428.4
922.835	5356.54
923.146	5312.7
923.456	5282.64
923.767	5295.07
924.077	5338.69
924.387	5309.99
924.697	5219.82
925.008	5225.7
925.318	5198.13
925.628	5169.43
925.938	5164.23
926.248	5101.63
926.558	5129.88
926.867	5097.79
927.177	5107.51
927.487	5042.65
927.796	4994.52
928.106	5023.22
928.416	5000.39
928.725	4965.59
929.034	4995.42
929.344	4949.09
929.653	4888.98
929.962	4881.07
930.271	4836.55
930.581	4809.21
930.89	4851.92
931.199	4793.62
931.508	4806.72
931.817	4785.71
932.125	4771.92
932.434	4731.25
932.743	4672.72
933.051	4675.65
933.36	4673.85
933.669	4690.79
933.977	4623.45
934.286	4595.88
934.594	4598.82
934.902	4563.57
935.21	4543.23
935.519	4595.43
935.827	4558.14
936.135	4522.89
936.443	4484.47
936.751	4477.92
937.059	4442.21
937.367	4420.75
937.674	4417.58
937.982	4376.23
938.29	4407.19
938.597	4389.56
938.905	4327.87
939.213	4329.22
939.52	4339.17
939.827	4265.95
940.135	4306.62
940.442	4298.49
940.749	4255.33
941.056	4211.49
941.363	4204.25
941.67	4182.56
941.977	4135.56
942.284	4136.91
942.591	4073.41
942.898	4133.97
943.205	4102.56
943.511	4077.7
943.818	4038.38
944.125	4038.16
944.431	4027.54
944.738	3999.29
945.044	3964.94
945.35	3941.44
945.657	3917.93
945.963	3947.54
946.269	3903.24
946.575	3915.22
946.881	3878.16
947.187	3846.07
947.493	3880.65
947.799	3805.62
948.105	3823.25
948.41	3808.56
948.716	3800.87
949.022	3808.11
949.327	3769.91
949.633	3745.06
949.938	3733.53
950.244	3740.54
950.549	3686.3
950.854	3674.1
951.16	3678.84
951.465	3675.91
951.77	3642.23
952.075	3600.43
952.38	3601.56
952.685	3599.98
952.99	3551.16
953.294	3545.06
953.599	3544.84
953.904	3527.66
954.209	3521.33
954.513	3507.32
954.818	3473.88
955.122	3499.19
955.426	3483.82
955.731	3459.41
956.035	3424.61
956.339	3426.42
956.643	3420.77
956.948	3395.46
957.252	3410.83
957.556	3395.69
957.86	3340.1
958.163	3329.93
958.467	3342.36
958.771	3295.8
959.075	3293.09
959.378	3282.24
959.682	3237.27
959.985	3251.74
960.289	3233.66
960.592	3195.69
960.896	3217.16
961.199	3182.59
961.502	3176.26
961.805	3163.15
962.108	3150.5
962.411	3171.74
962.714	3150.04
963.017	3108.01
963.32	3135.81
963.623	3084.74
963.926	3069.37
964.228	3047.67
964.531	3072.08
964.833	3046.09
965.136	3011.74
965.438	3034.34
965.741	3022.82
966.043	2994.57
966.345	2960.9
966.648	2967.22
966.95	2944.17
967.252	2946.21
967.554	2958.18
967.856	2913.21
968.158	2888.36
968.46	2883.16
968.761	2868.47
969.063	2846.32
969.365	2857.62
969.666	2879.32
969.968	2832.99
970.269	2795.48
970.571	2795.03
970.872	2798.42
971.174	2780.34
971.475	2781.01
971.776	2780.11
972.077	2731.3
972.378	2765.65
972.679	2733.78
972.98	2699.21
973.281	2697.63
973.582	2697.4
973.883	2683.39
974.183	2679.1
974.484	2668.93
974.785	2635.71
975.085	2665.54
975.386	2641.58
975.686	2624.86
975.986	2606.1
976.287	2600.45
976.587	2585.31
976.887	2542.83
977.187	2577.63
977.487	2574.47
977.787	2548.25
978.087	2551.64
978.387	2559.1
978.687	2466.45
978.987	2455.83
979.286	2485.43
979.586	2468.48
979.885	2451.08
980.185	2440.68
980.484	2462.15
980.784	2423.74
981.083	2415.15
981.382	2406.79
981.682	2394.81
981.981	2399.56
982.28	2391.65
982.579	2345.77
982.878	2337.86
983.177	2337.64
983.475	2356.84
983.774	2306.9
984.073	2318.43
984.372	2279.56
984.67	2272.55
984.969	2308.94
985.267	2291.31
985.566	2292.21
985.864	2253.8
986.162	2253.12
986.461	2256.73
986.759	2237.98
987.057	2208.15
987.355	2187.58
987.653	2202.5
987.951	2184.87
988.249	2173.8
988.547	2136.51
988.844	2129.28
989.142	2174.93
989.44	2110.75
989.737	2127.47
990.035	2099.9
990.332	2134.25
990.63	2057.87
990.927	2106.46
991.224	2061.71
991.521	2067.13
991.819	2073.01
992.116	2079.56
992.413	2025.55
992.71	1993.69
993.006	2035.27
993.303	2010.19
993.6	2001.83
993.897	1995.72
994.193	2002.28
994.49	1999.11
994.787	1942.62
995.083	1950.53
995.379	1926.57
995.676	1943.52
995.972	1933.35
996.268	1930.64
996.565	1909.85
996.861	1916.63
997.157	1887.7
997.453	1854.03
997.749	1878.89
998.044	1880.25
998.34	1847.03
998.636	1843.64
998.932	1852
999.227	1819.68
999.523	1828.95
999.818	1807.25
1000.114	1814.49
1000.409	1795.28
1000.704	1790.76
1001	1772
1001.295	1759.57
1001.59	1757.76
1001.885	1744.66
1002.18	1700.59
1002.475	1735.84
1002.77	1696.98
1003.065	1711.66
1003.359	1700.59
1003.654	1712.34
1003.949	1653.36
1004.243	1693.13
1004.538	1686.35
1004.832	1644.32
1005.127	1630.08
1005.421	1638.45
1005.715	1629.41
1006.009	1622.63
1006.304	1612.91
1006.598	1626.69
1006.892	1616.3
1007.186	1586.47
1007.48	1590.31
1007.773	1583.08
1008.067	1543.76
1008.361	1533.59
1008.655	1544.89
1008.948	1534.95
1009.242	1525.45
1009.535	1495.62
1009.829	1502.63
1010.122	1475.51
1010.415	1466.92
1010.708	1506.92
1011.001	1462.63
1011.295	1439.35
1011.588	1435.51
1011.881	1438.45
1012.173	1452.91
1012.466	1427.83
1012.759	1445.46
1013.052	1430.77
1013.344	1404.1
1013.637	1413.37
1013.93	1398
1014.222	1406.14
1014.514	1374.05
1014.807	1350.54
1015.099	1360.94
1015.391	1360.49
1015.683	1350.32
1015.976	1342.63
1016.268	1356.87
1016.56	1342.86
1016.851	1337.89
1017.143	1325.69
1017.435	1297.21
1017.727	1310.09
1018.018	1301.05
1018.31	1284.1
1018.602	1278
1018.893	1298.34
1019.185	1241.17
1019.476	1248.63
1019.767	1246.14
1020.058	1238.23
1020.35	1240.72
1020.641	1230.32
1020.932	1228.29
1021.223	1200.27
1021.514	1184.9
1021.804	1163.66
1022.095	1190.55
1022.386	1180.6
1022.677	1155.07
1022.967	1160.27
1023.258	1157.55
1023.548	1166.82
1023.839	1126.14
1024.129	1139.02
1024.419	1126.37
1024.709	1137.89
1025	1094.96
1025.29	1117.1
1025.58	1079.59
1025.87	1082.75
1026.16	1073.04
1026.449	1074.84
1026.739	1071.68
1027.029	1078.69
1027.319	1051.12
1027.608	1048.63
1027.898	1041.85
1028.187	1044.79
1028.477	1038.24
1028.766	1008.41
1029.055	1011.8
1029.344	988.75
1029.634	1012.7
1029.923	990.55
1030.212	981.74
1030.501	977.9
1030.79	1000.27
1031.078	969.76
1031.367	982.19
1031.656	971.8
1031.945	991.01
1032.233	933.61
1032.522	943.77
1032.81	936.09
1033.099	921.63
1033.387	947.39
1033.675	936.09
1033.963	951.68
1034.251	911.23
1034.54	918.24
1034.828	884.79
1035.116	890.22
1035.403	886.6
1035.691	879.6
1035.979	887.28
1036.267	892.48
1036.554	883.66
1036.842	862.19
1037.129	859.26
1037.417	833.04
1037.704	842.53
1037.992	855.87
1038.279	837.34
1038.566	835.3
1038.853	835.3
1039.14	835.3
