Data from hue_60_FLMS001491_64.txt Node
Date: Mon Feb 06 15:17:44 GMT 2017
User: dcchb
Spectrometer: FLMS00149
Trigger mode: 0
Integration Time (sec): 2.000000E-2
Scans to average: 10
Electric dark correction enabled: true
Nonlinearity correction enabled: false
Boxcar width: 0
XAxis mode: Wavelengths
Number of Pixels in Spectrum: 2048
>>>>>Begin Spectral Data<<<<<
341.393	-7.36
341.776	-7.36
342.16	-7.36
342.543	-60.01
342.927	-59.11
343.31	-69.28
343.693	-63.18
344.077	-86
344.46	-58.88
344.843	-49.17
345.226	-24.99
345.61	-42.39
345.993	-13.01
346.376	-19.34
346.759	15.24
347.142	28.8
347.525	40.78
347.908	59.76
348.291	94.11
348.674	81.45
349.057	106.08
349.44	124.84
349.823	127.1
350.206	158.06
350.588	205.74
350.971	201.45
351.354	238.51
351.737	257.49
352.119	250.49
352.502	264.72
352.884	298.85
353.267	273.09
353.65	288
354.032	306.76
354.414	309.24
354.797	319.86
355.179	314.89
355.562	305.85
355.944	346.3
356.326	330.26
356.709	330.71
357.091	338.62
357.473	346.98
357.855	372.97
358.238	350.37
358.62	360.77
359.002	331.84
359.384	319.41
359.766	343.14
360.148	354.21
360.53	340.65
360.912	347.21
361.294	332.07
361.676	331.84
362.057	330.71
362.439	342.01
362.821	314.67
363.203	342.91
363.584	319.64
363.966	328
364.348	328.45
364.729	330.03
365.111	324.61
365.493	346.76
365.874	330.03
366.256	333.88
366.637	299.3
367.019	303.59
367.4	322.35
367.781	315.34
368.163	310.15
368.544	297.27
368.925	315.57
369.306	329.13
369.688	311.5
370.069	299.98
370.45	306.76
370.831	333.2
371.212	327.32
371.593	318.28
371.974	317.6
372.355	311.73
372.736	303.37
373.117	295.68
373.498	316.7
373.879	323.48
374.26	285.74
374.641	310.83
375.021	312.41
375.402	327.55
375.783	311.28
376.163	325.29
376.544	335.68
376.925	332.97
377.305	283.71
377.686	323.71
378.066	316.25
378.447	316.25
378.827	346.98
379.208	316.02
379.588	334.78
379.968	335.68
380.349	323.03
380.729	342.46
381.109	352.18
381.489	348.79
381.87	351.73
382.25	334.78
382.63	354.89
383.01	351.28
383.39	355.57
383.77	328
384.15	342.24
384.53	332.52
384.91	332.75
385.29	341.33
385.67	360.32
386.049	330.71
386.429	343.59
386.809	356.25
387.189	337.49
387.568	349.24
387.948	347.66
388.328	369.81
388.707	349.69
389.087	351.73
389.466	356.47
389.846	361.22
390.225	360.99
390.605	354.21
390.984	370.94
391.363	369.81
391.743	348.11
392.122	352.86
392.501	368.9
392.881	365.74
393.26	375.91
393.639	368
394.018	356.47
394.397	358.28
394.776	358.96
395.155	358.06
395.534	377.49
395.913	382.69
396.292	380.65
396.671	385.85
397.05	383.82
397.429	377.49
397.808	375
398.186	367.32
398.565	381.78
398.944	373.42
399.323	390.37
399.701	379.07
400.08	375.91
400.458	402.35
400.837	403.25
401.215	390.15
401.594	406.42
401.972	419.97
402.351	384.5
402.729	402.8
403.107	389.24
403.486	403.48
403.864	410.26
404.242	394.89
404.62	417.26
404.999	420.65
405.377	413.42
405.755	410.03
406.133	401.44
406.511	407.55
406.889	418.39
407.267	409.81
407.645	412.74
408.023	413.2
408.401	412.07
408.779	408
409.156	419.3
409.534	436.92
409.912	437.6
410.29	426.75
410.667	442.8
411.045	429.47
411.422	423.59
411.8	424.95
412.178	450.03
412.555	416.13
412.933	456.36
413.31	443.93
413.687	457.94
414.065	463.82
414.442	450.93
414.819	468.79
415.197	461.33
415.574	481.67
415.951	465.85
416.328	471.72
416.705	481.89
417.082	465.85
417.46	469.92
417.837	485.96
418.214	486.64
418.591	481.67
418.967	486.87
419.344	498.16
419.721	480.54
420.098	489.35
420.475	512.85
420.852	490.71
421.228	497.49
421.605	520.54
421.982	525.96
422.358	515.57
422.735	497.49
423.111	518.5
423.488	523.7
423.864	535.23
424.241	528.22
424.617	523.93
424.994	521.44
425.37	507.66
425.746	537.94
426.123	505.4
426.499	552.4
426.875	539.75
427.251	551.95
427.627	544.94
428.003	558.05
428.379	564.38
428.756	567.09
429.132	563.47
429.507	570.48
429.883	590.37
430.259	571.84
430.635	590.82
431.011	613.87
431.387	585.17
431.763	593.53
432.138	586.52
432.514	624.94
432.89	609.12
433.265	632.62
433.641	640.76
434.016	614.32
434.392	624.49
434.767	628.78
435.143	657.71
435.518	658.16
435.894	630.82
436.269	655.67
436.644	642.12
437.02	664.94
437.395	658.16
437.77	667.88
438.145	683.24
438.52	668.33
438.895	673.08
439.271	685.73
439.646	689.57
440.021	701.1
440.395	716.69
440.77	697.03
441.145	669.23
441.52	697.03
441.895	700.19
442.27	716.24
442.645	702
443.019	710.81
443.394	735.45
443.769	730.7
444.143	736.58
444.518	738.38
444.892	740.19
445.267	738.84
445.641	737.93
446.016	763.92
446.39	751.04
446.764	748.78
447.139	772.28
447.513	777.71
447.887	759.4
448.262	758.95
448.636	777.71
449.01	774.99
449.384	776.8
449.758	803.02
450.132	799.63
450.506	825.84
450.88	797.37
451.254	801.66
451.628	824.26
452.002	828.33
452.376	860.64
452.75	818.83
453.123	830.81
453.497	854.77
453.871	866.06
454.244	859.96
454.618	871.49
454.992	872.39
455.365	871.71
455.739	890.02
456.112	903.8
456.486	937.25
456.859	927.08
457.232	943.12
457.606	943.58
457.979	942.9
458.352	973.86
458.725	974.31
459.099	982.9
459.472	997.81
459.845	1016.8
460.218	1015.44
460.591	999.17
460.964	1025.61
461.337	1038.94
461.71	1062.67
462.083	1058.83
462.456	1058.38
462.829	1070.81
463.201	1100.63
463.574	1111.48
463.947	1116.45
464.32	1151.48
464.692	1156.68
465.065	1137.7
465.438	1185.15
465.81	1187.41
466.183	1218.15
466.555	1230.8
466.928	1272.83
467.3	1272.61
467.672	1300.4
468.045	1317.58
468.417	1297.69
468.789	1337.46
469.161	1350.35
469.534	1392.15
469.906	1396.45
470.278	1428.08
470.65	1439.16
471.022	1456.33
471.394	1494.97
471.766	1582.66
472.138	1564.35
472.51	1611.13
472.882	1638.93
473.253	1664.24
473.625	1727.74
473.997	1724.8
474.369	1779.94
474.74	1813.84
475.112	1832.37
475.484	1897.68
475.855	1947.62
476.227	2012.25
476.598	2049.99
476.97	2076.88
477.341	2131.34
477.713	2194.39
478.084	2210.89
478.455	2307.38
478.827	2363.43
479.198	2479.81
479.569	2464.67
479.94	2594.61
480.311	2698.33
480.682	2724.55
481.053	2833.24
481.424	2921.15
481.795	3007.03
482.166	3058.55
482.537	3151.2
482.908	3260.8
483.279	3383.51
483.65	3421.25
484.021	3529.5
484.391	3611.3
484.762	3733.33
485.133	3809.72
485.503	3915.7
485.874	4075.7
486.244	4162.02
486.615	4264.17
486.985	4444.28
487.356	4549.58
487.726	4637.72
488.097	4781.22
488.467	4901.44
488.837	5069.34
489.207	5208.55
489.578	5327.42
489.948	5450.8
490.318	5636.33
490.688	5722.43
491.058	5875.88
491.428	6034.29
491.798	6152.03
492.168	6357.67
492.538	6483.09
492.908	6636.08
493.278	6792.69
493.648	6867.94
494.017	7067.26
494.387	7191.1
494.757	7352.22
495.126	7483.52
495.496	7654.81
495.866	7785.43
496.235	7964.41
496.605	8075.59
496.974	8269.26
497.344	8432.19
497.713	8581.34
498.082	8710.38
498.452	8847.1
498.821	8983.37
499.19	9106.07
499.559	9289.12
499.928	9448.21
500.298	9470.58
500.667	9720.97
501.036	9822.21
501.405	9935.88
501.774	10049.78
502.143	10272.37
502.512	10338.58
502.88	10552.82
503.249	10636.2
503.618	10759.59
503.987	10919.81
504.356	11089.52
504.724	11216.98
505.093	11253.36
505.462	11401.38
505.83	11639.57
506.199	11723.63
506.567	11975.83
506.936	12009.05
507.304	12279.78
507.672	12328.81
508.041	12407.68
508.409	12524.29
508.777	12729.93
509.145	12916.6
509.514	12964.5
509.882	13172.86
510.25	13225.97
510.618	13348.9
510.986	13374.21
511.354	13703.69
511.722	13753.64
512.09	13996.57
512.458	14013.74
512.826	14152.95
513.193	14276.79
513.561	14461.19
513.929	14693.5
514.297	14686.04
514.664	14895.98
515.032	14945.92
515.4	15051.68
515.767	15233.14
516.135	15307.27
516.502	15316.31
516.869	15684.88
517.237	15703.64
517.604	15742.51
517.972	15941.83
518.339	16077.19
518.706	16132.78
519.073	16274.25
519.44	16373.45
519.808	16580.23
520.175	16614.8
520.542	16976.38
520.909	16934.12
521.276	17071.29
521.643	17229.48
522.009	17439.64
522.376	17489.13
522.743	17628.11
523.11	17782
523.477	18010.47
523.843	18023.58
524.21	18369.56
524.577	18549.44
524.943	18498.37
525.31	18725.93
525.676	18833.5
526.043	18915.99
526.409	19067.85
526.776	19388.74
527.142	19403.66
527.508	19543.31
527.874	19782.63
528.241	19772.91
528.607	19782.63
528.973	19959.35
529.339	20043.41
529.705	20232.79
530.071	20516.85
530.437	20602.72
530.803	20667.58
531.169	20800.23
531.535	20837.29
531.901	20980.34
532.267	21071.64
532.632	21189.82
532.998	21301.91
533.364	21426.2
533.73	21450.16
534.095	21599.53
534.461	21692.86
534.826	21790.49
535.192	22005.85
535.557	22053.76
535.923	22073.42
536.288	22184.37
536.653	22259.17
537.019	22307.31
537.384	22449.9
537.749	22484.93
538.114	22557.47
538.479	22641.09
538.845	22753.4
539.21	22740.29
539.575	22845.15
539.94	22926.05
540.305	23068.19
540.67	23167.4
541.034	23173.05
541.399	23255.31
541.764	23320.16
542.129	23439.26
542.494	23540.72
542.858	23549.76
543.223	23608.97
543.587	23782.3
543.952	23739.59
544.316	23790.21
544.681	23847.83
545.045	23889.87
545.41	24235.62
545.774	24256.86
546.138	24227.03
546.503	24210.99
546.867	24270.2
547.231	24457.08
547.595	24590.41
547.959	24693.23
548.324	24650.52
548.688	24734.82
549.052	24795.61
549.416	24883.96
549.779	24916.96
550.143	25043.96
550.507	25158.99
550.871	25290.73
551.235	25204.63
551.599	25471.75
551.962	25430.84
552.326	25631.97
552.689	25746.31
553.053	25623.15
553.417	25714
553.78	26167.09
554.143	25993.99
554.507	26012.3
554.87	26161.9
555.234	26473.98
555.597	26354.43
555.96	26489.35
556.323	26567.54
556.686	26615.22
557.05	26833.52
557.413	26918.49
557.776	26948.54
558.139	27083
558.502	27184.24
558.865	27268.08
559.228	27568.41
559.59	27619.71
559.953	27619.26
560.316	27962.08
560.679	27896.09
561.041	28045.24
561.404	28132.01
561.767	28416.98
562.129	28215.18
562.492	28609.06
562.854	28515.28
563.217	28687.25
563.579	28879.34
563.941	28872.33
564.304	29027.58
564.666	29268.93
565.028	29372.21
565.39	29393.9
565.753	29532.2
566.115	29710.5
566.477	29771.52
566.839	29841.57
567.201	30168.35
567.563	30056.94
567.925	30223.94
568.287	30249.25
568.648	30383.25
569.01	30446.53
569.372	30802.45
569.734	30710.93
570.095	30914.99
570.457	31090.13
570.819	31059.4
571.18	31122.67
571.542	31281.99
571.903	31269.79
572.265	31343
572.626	31519.72
572.987	31549.1
573.349	31697.57
573.71	31865.25
574.071	31897.79
574.432	32100.72
574.794	32268.85
575.155	32346.82
575.516	32174.39
575.877	32296.2
576.238	32420.04
576.599	32556.53
576.96	32613.7
577.32	32655.51
577.681	32660.48
578.042	32679.69
578.403	32815.28
578.763	32829.52
579.124	32928.27
579.485	33060.25
579.845	33214.82
580.206	33144.31
580.566	32982.73
580.927	33176.18
581.287	33223.86
581.648	33293.91
582.008	33373.01
582.368	33188.38
582.728	33397.19
583.089	33336.85
583.449	33363.29
583.809	33533
584.169	33436.96
584.529	33419.56
584.889	33667.24
585.249	33392.67
585.609	33419.33
585.969	33588.37
586.329	33520.8
586.688	33593.34
587.048	33623.62
587.408	33637.63
587.768	33669.5
588.127	33587.01
588.487	33515.83
588.846	33690.74
589.206	33718.53
589.565	33710.62
589.925	33744.97
590.284	33780.68
590.643	33826.33
591.003	33904.29
591.362	33972.54
591.721	33953.33
592.08	33844.41
592.44	33983.61
592.799	33988.36
593.158	33980.22
593.517	33904.07
593.876	34069.94
594.235	33980.45
594.593	34006.89
594.952	34096.38
595.311	34016.15
595.67	34193.32
596.029	34396.03
596.387	34263.38
596.746	34312.87
597.104	34180.44
597.463	34316.48
597.822	34385.18
598.18	34287.33
598.538	34266.32
598.897	34601
599.255	34324.85
599.613	34686.64
599.972	34572.52
600.33	34675.12
600.688	34512.41
601.046	34628.11
601.404	34805.96
601.762	34690.94
602.12	34933.19
602.478	34875.79
602.836	34955.34
603.194	34824.04
603.552	34970.25
603.91	34825.85
604.268	35042.34
604.625	34852.74
604.983	35030.59
605.341	34920.99
605.698	35140.87
606.056	35310.13
606.413	35222.68
606.771	35431.26
607.128	35335.67
607.485	35347.42
607.843	35386.74
608.2	35483.46
608.557	35687.07
608.914	35561.65
609.272	35851.59
609.629	35777.69
609.986	35824.24
610.343	35833.51
610.7	36094.97
611.057	35985.37
611.414	35992.37
611.771	35984.92
612.127	36073.73
612.484	36252.25
612.841	36275.3
613.198	36234.85
613.554	36192.82
613.911	36387.16
614.267	36506.94
614.624	36418.8
614.98	36444.56
615.337	36678.91
615.693	36713.94
616.05	36623.32
616.406	36821.05
616.762	36783.31
617.118	36760.94
617.475	36843.65
617.831	36940.6
618.187	36913.03
618.543	37128.16
618.899	37318.67
619.255	37231.89
619.611	37168.61
619.967	37427.59
620.323	37427.82
620.678	37355.27
621.034	37271.66
621.39	37258.1
621.746	37297.88
622.101	37767.69
622.457	37438.21
622.812	37535.84
623.168	37644.53
623.523	37653.35
623.879	37740.35
624.234	37576.74
624.589	37534.25
624.945	37614.25
625.3	37732.44
625.655	37770.86
626.01	37754.36
626.365	37841.59
626.72	37815.83
627.075	37716.85
627.43	37784.19
627.785	37763.17
628.14	37787.81
628.495	37947.58
628.85	37862.15
629.205	37762.5
629.559	37883.4
629.914	37767.92
630.269	37852.44
630.623	37777.86
630.978	37579.45
631.332	38003.62
631.687	37912.55
632.041	37829.61
632.396	37813.57
632.75	37689.5
633.104	37831.19
633.459	37663.52
633.813	37585.1
634.167	37562.73
634.521	37590.3
634.875	37780.8
635.229	37674.59
635.583	37486.34
635.937	37501.03
636.291	37367.03
636.645	37510.53
636.999	37435.95
637.352	37564.76
637.706	37254.03
638.06	37555.27
638.413	37437.08
638.767	37444.54
639.121	37467.81
639.474	37214.94
639.828	37176.3
640.181	37315.05
640.534	37154.15
640.888	37133.36
641.241	36952.35
641.594	37118.22
641.947	37217.2
642.301	37083.87
642.654	37201.83
643.007	37136.98
643.36	37209.52
643.713	37008.84
644.066	37115.73
644.419	37033.48
644.771	36658.12
645.124	36342.42
645.477	36380.84
645.83	36215.64
646.182	36064.01
646.535	35874.64
646.888	35903.56
647.24	35724.13
647.593	35904.01
647.945	35740.18
648.298	35795.99
648.65	35699.05
649.002	35546.06
649.355	35805.03
649.707	35636.45
650.059	35812.04
650.411	36178.58
650.763	36241.18
651.115	36599.36
651.467	36543.77
651.819	36456.99
652.171	36489.31
652.523	36335.87
652.875	36459.71
653.227	36198.47
653.578	36368.41
653.93	36275.76
654.282	36165.93
654.633	36178.81
654.985	36147.4
655.337	36202.08
655.688	36218.13
656.039	36283.44
656.391	35968.19
656.742	36112.82
657.094	35992.37
657.445	36273.72
657.796	36108.3
658.147	36047.74
658.498	36111.24
658.849	36057.91
659.2	36074.63
659.551	35941.98
659.902	36107.85
660.253	35956.22
660.604	36063.33
660.955	35827.63
661.306	35970.68
661.656	35920.96
662.007	35907.86
662.358	35939.27
662.708	35996.89
663.059	35912.83
663.409	35843.22
663.76	35846.84
664.11	35846.16
664.461	35930.91
664.811	35939.49
665.161	35857.24
665.511	35729.78
665.862	35787.41
666.212	35871.47
666.562	35969.1
666.912	35736.33
667.262	35817.69
667.612	35735.43
667.962	35767.75
668.312	35785.6
668.662	35774.53
669.011	35627.18
669.361	35776.79
669.711	35546.06
670.06	35588.09
670.41	35539.96
670.76	35517.81
671.109	35633.29
671.459	35481.65
671.808	35536.11
672.157	35727.52
672.507	35512.84
672.856	35493.63
673.205	35647.07
673.554	35542.89
673.904	35478.71
674.253	35654.98
674.602	35504.25
674.951	34979.52
675.3	34855.68
675.649	35483.23
675.998	35174.32
676.346	35305.61
676.695	35511.03
677.044	35193.52
677.393	35320.07
677.741	35376.57
678.09	35300.41
678.438	35255.9
678.787	35281.43
679.135	35320.3
679.484	35053.41
679.832	35193.52
680.181	34956.47
680.529	35045.51
680.877	34901.78
681.225	34999.18
681.573	35098.84
681.922	34932.74
682.27	34661.11
682.618	34708.56
682.966	34678.74
683.314	34781.33
683.661	34791.95
684.009	34417.5
684.357	34406.65
684.705	34295.92
685.053	34345.86
685.4	34344.73
685.748	34248.01
686.095	34182.7
686.443	34073.1
686.79	33972.54
687.138	34137.51
687.485	34052.76
687.832	33865.42
688.18	33871.98
688.527	33720.12
688.874	33778.87
689.221	33615.03
689.568	33694.81
689.915	33503.85
690.262	33537.97
690.609	33491.2
690.956	33333.01
691.303	33265.89
691.65	33083.07
691.997	33204.2
692.344	33012.79
692.69	32968.5
693.037	32958.33
693.383	32771.67
693.73	32780.25
694.077	32648.73
694.423	32602.41
694.769	32528.51
695.116	32399.25
695.462	32483.31
695.808	32316.76
696.155	32432.24
696.501	32117.9
696.847	32281.51
697.193	31920.62
697.539	32137.33
697.885	31679.04
698.231	31769.43
698.577	31773.27
698.923	31631.36
699.269	31409.89
699.614	31399.95
699.96	31375.09
700.306	31275.43
700.651	31197.47
700.997	31026.4
701.342	31031.83
701.688	30928.55
702.033	30806.29
702.379	30900.98
702.724	30734.21
703.069	30759.74
703.415	30459.64
703.76	30563.36
704.105	30451.5
704.45	30349.58
704.795	30165.63
705.14	30061.68
705.485	30104.62
705.83	30050.16
706.175	30075.01
706.52	29874.79
706.865	29764.51
707.209	29851.97
707.554	29784.63
707.899	29684.06
708.243	29569.04
708.588	29507.8
708.932	29333.56
709.277	29388.7
709.621	29399.55
709.966	29218.99
710.31	29329.05
710.654	29091.76
710.998	29111.42
711.342	29132.44
711.687	29063.29
712.031	28884.54
712.375	28650.64
712.719	28788.72
713.063	28761.38
713.407	28690.64
713.75	28687.93
714.094	28654.49
714.438	28537.2
714.782	28514.83
715.125	28417.66
715.469	28374.95
715.812	28304.44
716.156	28222.41
716.499	28154.16
716.843	28216.76
717.186	28127.04
717.53	28161.39
717.873	28190.54
718.216	28058.12
718.559	27828.52
718.902	27690.22
719.246	27684.79
719.589	27643.21
719.932	27635.98
720.275	27642.08
720.617	27722.08
720.96	27492.94
721.303	27482.77
721.646	27517.79
721.989	27225.37
722.331	27451.58
722.674	27315.09
723.016	27303.79
723.359	27218.59
723.701	27273.05
724.044	27000.29
724.386	26879.84
724.729	27069.22
725.071	26892.05
725.413	26950.35
725.755	26908.54
726.097	26763.91
726.439	26774.99
726.782	26614.54
727.124	26893.4
727.465	26713.52
727.807	26676.69
728.149	26475.11
728.491	26495
728.833	26596.69
729.175	26480.31
729.516	26321.67
729.858	26309.92
730.199	26402.34
730.541	26340.88
730.882	26295.68
731.224	26255.68
731.565	26137.04
731.906	26185.4
732.248	26223.14
732.589	26038.06
732.93	25994.44
733.271	25968.91
733.612	26083.71
733.953	25895.92
734.294	25802.13
734.635	25777.27
734.976	25858.4
735.317	25738.41
735.658	25729.37
735.999	25709.03
736.339	25644.17
736.68	25674.23
737.021	25671.97
737.361	25485.3
737.702	25745.64
738.042	25601.01
738.383	25373.67
738.723	25569.82
739.063	25384.74
739.404	25382.03
739.744	25354.91
740.084	25249.6
740.424	25195.59
740.764	25196.95
741.104	25292.54
741.444	25099.55
741.784	24982.94
742.124	25193.56
742.464	25022.72
742.804	24992.89
743.143	24932.32
743.483	25013
743.823	24847.58
744.162	24841.93
744.502	24836.96
744.841	24766.68
745.181	24869.95
745.52	24825.66
745.86	24743.4
746.199	24679.68
746.538	24730.07
746.877	24691.65
747.216	24710.18
747.556	24497.99
747.895	24531.21
748.234	24483.3
748.573	24238.11
748.911	24303.41
749.25	24328.27
749.589	24326.24
749.928	24180.71
750.267	24342.06
750.605	24147.71
750.944	24118.56
751.283	24086.02
751.621	24095.28
751.96	23927.83
752.298	23839.92
752.636	23933.03
752.975	23853.48
753.313	23786.82
753.651	23876.08
753.989	23745.69
754.327	23567.61
754.666	23597.9
755.004	23576.2
755.342	23481.52
755.679	23471.57
756.017	23368.52
756.355	23480.61
756.693	23238.81
757.031	23264.12
757.368	23178.92
757.706	23212.37
758.044	23063
758.381	23014.41
758.719	22924.47
759.056	22992.94
759.394	22908.42
759.731	22815.09
760.068	22697.36
760.405	22678.15
760.743	22590.92
761.08	22563.57
761.417	22587.3
761.754	22447.87
762.091	22343.69
762.428	22306.41
762.765	22174.21
763.102	22266.86
763.438	22142.12
763.775	21962.46
764.112	22033.87
764.449	22088.11
764.785	21937.83
765.122	21778.74
765.458	21758.17
765.795	21642.02
766.131	21558.85
766.467	21463.94
766.804	21456.48
767.14	21345.53
767.476	21451.74
767.812	21287.9
768.148	21266.88
768.485	21138.07
768.821	21114.57
769.157	20954.35
769.492	21053.78
769.828	20859.44
770.164	20766.78
770.5	20743.51
770.836	20662.83
771.171	20496.06
771.507	20518.2
771.842	20350.52
772.178	20327.47
772.513	20371.31
772.849	20300.58
773.184	20239.34
773.519	20153.02
773.855	20099.91
774.19	19969.07
774.525	19947.15
774.86	19840.03
775.195	19845.9
775.53	19745.57
775.865	19640.26
776.2	19417.67
776.535	19468.74
776.87	19405.46
777.205	19363.43
777.539	19224.45
777.874	19203.44
778.209	19085.7
778.543	19042.31
778.878	18863.56
779.212	18908.98
779.547	18729.55
779.881	18925.25
780.215	18604.13
780.55	18732.71
780.884	18559.61
781.218	18570.46
781.552	18522.1
781.886	18355.1
782.22	18311.93
782.554	18187.87
782.888	18196.68
783.222	18021.77
783.556	17991.72
783.889	17862.91
784.223	17824.04
784.557	17824.71
784.89	17710.14
785.224	17615.45
785.557	17582.24
785.891	17487.55
786.224	17517.38
786.558	17514.21
786.891	17395.35
787.224	17261.34
787.557	17246.88
787.891	17351.96
788.224	17264.28
788.557	17206.2
788.89	17091.17
789.223	17001.01
789.556	16927.11
789.888	16952.2
790.221	16844.63
790.554	16677.17
790.887	16748.13
791.219	16622.26
791.552	16547.69
791.884	16596.05
792.217	16454.36
792.549	16366
792.882	16299.11
793.214	16285.09
793.546	16221.59
793.879	16135.04
794.211	16091.43
794.543	16056.4
794.875	16062.28
795.207	16142.5
795.539	15953.35
795.871	15968.49
796.203	15793.58
796.535	15711.55
796.867	15600.82
797.198	15597.65
797.53	15605.56
797.862	15556.3
798.193	15539.8
798.525	15473.59
798.856	15462.07
799.188	15255.97
799.519	15287.15
799.85	15163.09
800.182	15227.72
800.513	15192.69
800.844	15062.53
801.175	15072.7
801.506	15086.93
801.837	14949.08
802.168	14882.87
802.499	14911.8
802.83	14867.96
803.161	14801.74
803.491	14689.88
803.822	14792.03
804.153	14695.08
804.483	14603.78
804.814	14588.42
805.145	14468.64
805.475	14510
805.805	14394.75
806.136	14436.56
806.466	14425.93
806.796	14348.42
807.126	14201.08
807.457	14214.19
807.787	14223
808.117	14111.59
808.447	14118.6
808.777	14116.79
809.107	14080.63
809.436	13994.31
809.766	14013.06
810.096	13880.64
810.426	13864.82
810.755	13886.29
811.085	13889.45
811.414	13767.42
811.744	13637.93
812.073	13701.66
812.403	13711.83
812.732	13590.93
813.061	13513.64
813.39	13532.85
813.719	13493.98
814.049	13514.09
814.378	13445.62
814.707	13471.61
815.036	13364.95
815.365	13350.71
815.693	13189.58
816.022	13267.55
816.351	13206.76
816.68	13048.8
817.008	13173.31
817.337	13061.22
817.665	13012.86
817.994	13098.74
818.322	12984.84
818.651	12946.43
818.979	12853.32
819.307	12922.92
819.636	12891.96
819.964	12829.59
820.292	12923.15
820.62	12900.1
820.948	12844.73
821.276	12826.43
821.604	12760.44
821.932	12850.16
822.259	12804.73
822.587	12759.09
822.915	12806.99
823.243	12794.56
823.57	12703.27
823.898	12774.68
824.225	12684.74
824.553	12700.33
824.88	12710.05
825.207	12755.02
825.535	12661.01
825.862	12766.32
826.189	12661.46
826.516	12795.24
826.843	12757.96
827.17	12769.71
827.497	12728.58
827.824	12742.36
828.151	12828.01
828.478	12771.74
828.805	12682.7
829.131	12720.67
829.458	12683.16
829.785	12604.97
830.111	12648.13
830.438	12756.6
830.764	12632.31
831.09	12676.6
831.417	12661.91
831.743	12713.21
832.069	12667.79
832.395	12609.26
832.722	12679.09
833.048	12635.47
833.374	12650.16
833.7	12530.84
834.026	12582.14
834.351	12629.15
834.677	12546.44
835.003	12549.6
835.329	12595.47
835.654	12524.74
835.98	12530.84
836.306	12556.83
836.631	12425.99
836.956	12459.43
837.282	12461.92
837.607	12370.17
837.932	12318.65
838.258	12371.75
838.583	12291.98
838.908	12365.88
839.233	12297.85
839.558	12222.83
839.883	12206.56
840.208	12273.9
840.533	12264.86
840.858	12131.76
841.182	12202.72
841.507	12178.54
841.832	12142.38
842.156	12045.88
842.481	12012.21
842.805	12016.05
843.13	12054.7
843.454	12002.27
843.778	11933.12
844.103	11940.58
844.427	11846.57
844.751	11933.12
845.075	11812.9
845.399	11846.79
845.723	11773.8
846.047	11730.64
846.371	11664.2
846.695	11608.83
847.019	11606.8
847.343	11503.98
847.666	11513.92
847.99	11431.89
848.313	11365
848.637	11303.76
848.96	11280.03
849.284	11249.97
849.607	11198.9
849.931	11254.27
850.254	11088.85
850.577	10996.42
850.9	10947.38
851.223	11027.38
851.546	10844.33
851.869	10816.54
852.192	10854.28
852.515	10792.81
852.838	10737.22
853.161	10755.07
853.483	10707.16
853.806	10647.95
854.129	10628.52
854.451	10541.06
854.774	10521.86
855.096	10485.7
855.419	10520.27
855.741	10521.86
856.063	10409.32
856.385	10311.01
856.708	10322.09
857.03	10317.57
857.352	10280.28
857.674	10246.61
857.996	10228.53
858.318	10138.59
858.64	10170.9
858.961	10126.61
859.283	10145.82
859.605	10085.26
859.926	10105.37
860.248	10093.17
860.57	9925.94
860.891	10029.89
861.212	9911.25
861.534	9965.71
861.855	9923.91
862.176	9906.28
862.498	9957.35
862.819	9874.19
863.14	9906.73
863.461	9765.27
863.782	9821.31
864.103	9807.3
864.424	9759.39
864.745	9725.49
865.065	9710.58
865.386	9714.42
865.707	9637.59
866.027	9658.38
866.348	9613.86
866.668	9616.34
866.989	9562.33
867.309	9549
867.63	9587.42
867.95	9510.81
868.27	9493.41
868.59	9503.13
868.91	9566.18
869.23	9498.15
869.55	9476.69
869.87	9469.23
870.19	9467.87
870.51	9462.45
870.83	9491.37
871.15	9442.56
871.469	9425.39
871.789	9362.56
872.109	9417.25
872.428	9315.79
872.748	9350.14
873.067	9364.15
873.386	9303.13
873.706	9340.42
874.025	9257.93
874.344	9243.02
874.663	9255.9
874.982	9224.26
875.301	9195.79
875.62	9223.13
875.939	9204.15
876.258	9143.59
876.577	9147.2
876.896	9140.88
877.214	9106.3
877.533	9090.71
877.852	9090.93
878.17	9104.04
878.489	9100.88
878.807	9014.1
879.125	9052.52
879.444	9012.07
879.762	8965.51
880.08	8957.83
880.398	8927.77
880.716	8996.7
881.034	8942.24
881.352	8924.16
881.67	8880.32
881.988	8945.63
882.306	8867.44
882.624	8819.98
882.941	8801
883.259	8704.28
883.577	8799.42
883.894	8784.5
884.212	8671.28
884.529	8676.93
884.846	8653.2
885.164	8658.85
885.481	8665.86
885.798	8663.83
886.115	8629.48
886.432	8635.58
886.75	8531.63
887.067	8537.5
887.383	8539.76
887.7	8546.77
888.017	8495.92
888.334	8461.35
888.651	8459.76
888.967	8430.39
889.284	8393.32
889.6	8336.83
889.917	8329.37
890.233	8278.75
890.55	8231.52
890.866	8264.97
891.182	8195.59
891.498	8253.44
891.815	8206.66
892.131	8175.48
892.447	8156.04
892.763	8117.17
893.079	8093.9
893.395	8098.87
893.71	8130.28
894.026	8062.94
894.342	8020.23
894.657	7991.98
894.973	8008.48
895.289	7943.62
895.604	7929.61
895.92	7840.8
896.235	7903.85
896.55	7819.55
896.865	7799.44
897.181	7747.01
897.496	7822.72
897.811	7704.08
898.126	7688.48
898.441	7626.79
898.756	7647.36
899.071	7610.07
899.386	7638.99
899.7	7519.45
900.015	7557.19
900.33	7511.09
900.644	7421.37
900.959	7488.94
901.273	7459.79
901.588	7401.94
901.902	7370.53
902.216	7338.89
902.531	7325.56
902.845	7288.49
903.159	7229.29
903.473	7274.26
903.787	7144.54
904.101	7137.54
904.415	7234.71
904.729	7153.36
905.042	7070.87
905.356	7065
905.67	7077.65
905.984	7041.04
906.297	7025.9
906.611	6958.11
906.924	6966.24
907.237	6898.9
907.551	6892.57
907.864	6851.44
908.177	6894.61
908.491	6898.45
908.804	6799.02
909.117	6757.66
909.43	6723.99
909.743	6699.36
910.056	6679.02
910.368	6627.95
910.681	6617.1
910.994	6581.62
911.307	6530.32
911.619	6531.23
911.932	6538.46
912.244	6478.8
912.557	6469.76
912.869	6536.42
913.181	6456.65
913.494	6469.31
913.806	6378.91
914.118	6360.61
914.43	6321.29
914.742	6319.03
915.054	6277.67
915.366	6226.38
915.678	6247.17
915.99	6186.6
916.302	6151.35
916.613	6136.21
916.925	6122.42
917.236	6112.71
917.548	6080.39
917.859	6120.84
918.171	6046.04
918.482	6028.87
918.794	5996.1
919.105	5961.52
919.416	5883.79
919.727	5868.65
920.038	5826.39
920.349	5896.89
920.66	5785.94
920.971	5778.7
921.282	5814.41
921.593	5734.41
921.903	5713.17
922.214	5718.82
922.525	5681.31
922.835	5660.29
923.146	5667.75
923.456	5612.38
923.767	5626.62
924.077	5601.99
924.387	5559.95
924.697	5529.67
925.008	5517.02
925.318	5464.36
925.628	5495.1
925.938	5402.89
926.248	5392.05
926.558	5382.1
926.867	5353.63
927.177	5345.95
927.487	5306.17
927.796	5267.98
928.106	5326.29
928.416	5189.57
928.725	5244.71
929.034	5210.13
929.344	5237.25
929.653	5206.74
929.962	5176.01
930.271	5114.77
930.581	5104.82
930.89	5053.3
931.199	5048.55
931.508	5055.11
931.817	4963.13
932.125	4948.9
932.434	4976.92
932.743	4915.45
933.051	4921.1
933.36	4914.77
933.669	4840.65
933.977	4851.95
934.286	4833.87
934.594	4829.58
934.902	4777.15
935.21	4778.73
935.519	4747.32
935.827	4735.79
936.135	4713.42
936.443	4670.26
936.751	4626.19
937.059	4674.33
937.367	4652.41
937.674	4627.1
937.982	4567.89
938.29	4540.54
938.597	4584.61
938.905	4551.62
939.213	4499.42
939.52	4491.51
939.827	4488.79
940.135	4473.88
940.442	4460.32
940.749	4467.78
941.056	4421.68
941.363	4395.69
941.67	4376.25
941.977	4346.65
942.284	4378.29
942.591	4334.22
942.898	4298.06
943.205	4306.65
943.511	4278.63
943.818	4240.21
944.125	4225.3
944.431	4183.94
944.738	4177.39
945.044	4160.67
945.35	4168.58
945.657	4107.11
945.963	4106.21
946.269	4080.9
946.575	4073.66
946.881	4052.2
947.187	4035.7
947.493	3998.86
947.799	4030.5
948.105	3981.92
948.41	3962.25
948.716	3988.69
949.022	3937.4
949.327	3929.94
949.633	3916.15
949.938	3970.84
950.244	3899.66
950.549	3854.01
950.854	3825.54
951.16	3828.47
951.465	3810.17
951.77	3769.94
952.075	3774.01
952.38	3764.75
952.685	3743.5
952.99	3755.48
953.294	3727.01
953.599	3715.03
953.904	3682.71
954.209	3664.86
954.513	3668.25
954.818	3654.69
955.122	3586.9
955.426	3650.85
955.731	3595.71
956.035	3580.34
956.339	3579.89
956.643	3572.89
956.948	3545.77
957.252	3514.81
957.556	3498.99
957.86	3464.19
958.163	3501.48
958.467	3462.61
958.771	3448.82
959.075	3422.16
959.378	3427.13
959.682	3382.61
959.985	3409.05
960.289	3334.7
960.592	3367.69
960.896	3387.35
961.199	3302.38
961.502	3309.84
961.805	3272.56
962.108	3275.72
962.411	3247.25
962.714	3263.52
963.017	3235.27
963.32	3256.74
963.623	3202.5
963.926	3192.33
964.228	3150.52
964.531	3181.71
964.833	3154.14
965.136	3145.1
965.438	3113.69
965.741	3108.49
966.043	3108.94
966.345	3061.94
966.648	3051.32
966.95	3064.2
967.252	3027.82
967.554	3027.82
967.856	3002.28
968.158	3050.41
968.46	2972.22
968.761	2977.2
969.063	2996.4
969.365	2949.63
969.666	2943.07
969.968	2959.57
970.269	2902.62
970.571	2939.23
970.872	2870.98
971.174	2853.36
971.475	2859.46
971.776	2923.41
972.077	2838.67
972.378	2833.02
972.679	2834.83
972.98	2821.04
973.281	2783.98
973.582	2789.63
973.883	2744.66
974.183	2723.64
974.484	2728.61
974.785	2787.37
975.085	2708.28
975.386	2721.16
975.686	2698.56
975.986	2679.35
976.287	2678.67
976.587	2660.14
976.887	2648.62
977.187	2662.4
977.487	2671.22
977.787	2618.79
978.087	2589.18
978.387	2637.32
978.687	2563.42
978.987	2590.99
979.286	2571.78
979.586	2556.87
979.885	2535.4
980.185	2522.07
980.484	2516.64
980.784	2526.81
981.083	2523.87
981.382	2502.86
981.682	2508.06
981.981	2469.86
982.28	2473.48
982.579	2414.5
982.878	2443.88
983.177	2438.9
983.475	2455.18
983.774	2408.17
984.073	2374.5
984.372	2364.33
984.67	2365.69
984.969	2340.83
985.267	2386.7
985.566	2367.49
985.864	2317.33
986.162	2316.2
986.461	2291.11
986.759	2303.32
987.057	2285.24
987.355	2291.56
987.653	2319.59
987.951	2284.56
988.249	2242.07
988.547	2265.58
988.844	2218.8
989.142	2250.89
989.44	2205.46
989.737	2223.09
990.035	2194.39
990.332	2180.83
990.63	2195.52
990.927	2177.22
991.224	2147.39
991.521	2110.55
991.819	2123.66
992.116	2098.57
992.413	2103.09
992.71	2095.86
993.006	2107.61
993.303	2097.67
993.6	2089.76
993.897	2056.09
994.193	2088.18
994.49	2024.23
994.787	2070.78
995.083	2022.87
995.379	2039.59
995.676	2026.94
995.972	2016.77
996.268	1976.32
996.565	1983.78
996.861	1988.07
997.157	1958.01
997.453	1943.1
997.749	1947.17
998.044	1921.86
998.34	1914.4
998.636	1921.4
998.932	1908.07
999.227	1921.63
999.523	1883.89
999.818	1865.81
1000.114	1872.37
1000.409	1843.67
1000.704	1852.25
1001	1831.01
1001.295	1809.99
1001.59	1822.65
1001.885	1833.72
1002.18	1763.67
1002.475	1815.87
1002.77	1800.28
1003.065	1798.24
1003.359	1781.07
1003.654	1747.17
1003.949	1732.48
1004.243	1745.36
1004.538	1722.09
1004.832	1741.75
1005.127	1716.66
1005.421	1712.37
1005.715	1676.89
1006.009	1674.63
1006.304	1687.96
1006.598	1668.3
1006.892	1607.29
1007.186	1691.35
1007.48	1648.64
1007.773	1598.02
1008.067	1619.72
1008.361	1582.88
1008.655	1620.17
1008.948	1620.4
1009.242	1557.12
1009.535	1571.81
1009.829	1597.35
1010.122	1567.74
1010.415	1569.1
1010.708	1548.08
1011.001	1519.38
1011.295	1541.53
1011.588	1512.6
1011.881	1516.67
1012.173	1500.85
1012.466	1494.3
1012.759	1491.59
1013.052	1504.24
1013.344	1442.77
1013.637	1439.38
1013.93	1420.85
1014.222	1435.32
1014.514	1444.35
1014.807	1433.96
1015.099	1435.09
1015.391	1414.98
1015.683	1407.97
1015.976	1401.19
1016.268	1387.18
1016.56	1367.07
1016.851	1366.39
1017.143	1379.05
1017.435	1320.29
1017.727	1306.73
1018.018	1348.09
1018.31	1327.07
1018.602	1337.46
1018.893	1329.1
1019.185	1286.17
1019.476	1294.3
1019.767	1316.22
1020.058	1292.49
1020.35	1258.14
1020.641	1271.25
1020.932	1258.37
1021.223	1262.44
1021.514	1266.73
1021.804	1257.01
1022.095	1235.09
1022.386	1230.8
1022.677	1202.55
1022.967	1207.98
1023.258	1187.41
1023.548	1196
1023.839	1188.54
1024.129	1156.68
1024.419	1157.81
1024.709	1148.09
1025	1133.18
1025.29	1166.17
1025.58	1141.09
1025.87	1138.83
1026.16	1121.2
1026.449	1136.34
1026.739	1095.21
1027.029	1124.36
1027.319	1084.14
1027.608	1094.53
1027.898	1066.29
1028.187	1085.72
1028.477	1073.74
1028.766	1063.8
1029.055	1061.09
1029.344	1053.63
1029.634	1027.42
1029.923	1029.45
1030.212	1026.96
1030.501	1021.54
1030.79	1024.48
1031.078	991.94
1031.367	984.93
1031.656	991.94
1031.945	991.94
1032.233	984.71
1032.522	967.53
1032.81	971.6
1033.099	955.78
1033.387	981.77
1033.675	946.29
1033.963	947.64
1034.251	931.83
1034.54	931.37
1034.828	927.53
1035.116	924.14
1035.403	938.15
1035.691	917.81
1035.979	911.49
1036.267	910.36
1036.554	909.91
1036.842	887.76
1037.129	890.02
1037.417	879.85
1037.704	900.87
1037.992	876.46
1038.279	841.21
1038.566	837.36
1038.853	837.36
1039.14	837.36
