Data from hue_20_FLMS001491_34.txt Node
Date: Mon Feb 06 15:33:58 GMT 2017
User: dcchb
Spectrometer: FLMS00149
Trigger mode: 0
Integration Time (sec): 2.000000E-2
Scans to average: 10
Electric dark correction enabled: true
Nonlinearity correction enabled: false
Boxcar width: 0
XAxis mode: Wavelengths
Number of Pixels in Spectrum: 2048
>>>>>Begin Spectral Data<<<<<
341.393	-18.32
341.776	-18.32
342.16	-18.32
342.543	-61.93
342.927	-51.31
343.31	-72.33
343.693	-82.5
344.077	-68.94
344.46	-61.93
344.843	-55.15
345.226	-28.94
345.61	-39.34
345.993	-6.34
346.376	-15.61
346.759	16.26
347.142	25.52
347.525	50.83
347.908	65.07
348.291	66.42
348.674	92.19
349.057	114.79
349.44	128.8
349.823	142.81
350.206	164.05
350.588	203.14
350.971	218.29
351.354	243.37
351.737	237.04
352.119	238.62
352.502	256.02
352.884	258.28
353.267	271.17
353.65	277.49
354.032	291.28
354.414	316.59
354.797	316.81
355.179	326.08
355.562	312.75
355.944	306.19
356.326	344.61
356.709	342.12
357.091	346.64
357.473	338.73
357.855	307.1
358.238	350.94
358.62	320.66
359.002	332.63
359.384	331.5
359.766	329.92
360.148	318.85
360.53	331.95
360.912	351.39
361.294	342.8
361.676	332.41
362.057	340.32
362.439	340.09
362.821	319.53
363.203	341.45
363.584	325.63
363.966	325.4
364.348	326.76
364.729	316.59
365.111	309.36
365.493	296.93
365.874	339.19
366.256	307.77
366.637	328.56
367.019	323.82
367.4	319.07
367.781	322.46
368.163	310.49
368.544	319.53
368.925	317.49
369.306	333.08
369.688	319.3
370.069	311.16
370.45	312.75
370.831	316.14
371.212	330.82
371.593	303.25
371.974	305.74
372.355	318.4
372.736	293.31
373.117	301.22
373.498	304.16
373.879	303.48
374.26	315.23
374.641	300.54
375.021	298.06
375.402	324.27
375.783	302.12
376.163	324.05
376.544	334.44
376.925	308.45
377.305	316.59
377.686	331.05
378.066	327.66
378.447	309.81
378.827	335.12
379.208	308.45
379.588	321.33
379.968	310.71
380.349	322.92
380.729	326.3
381.109	332.41
381.489	333.76
381.87	318.17
382.25	328.11
382.63	338.73
383.01	333.76
383.39	345.51
383.77	329.24
384.15	326.3
384.53	334.89
384.91	338.06
385.29	352.74
385.67	338.51
386.049	347.55
386.429	324.95
386.809	339.19
387.189	347.77
387.568	361.11
387.948	340.32
388.328	353.2
388.707	341.9
389.087	356.81
389.466	357.72
389.846	352.74
390.225	353.2
390.605	379.64
390.984	366.76
391.363	362.46
391.743	350.71
392.122	355.91
392.501	369.24
392.881	353.87
393.26	370.15
393.639	388.22
394.018	368.11
394.397	368.11
394.776	348.45
395.155	371.5
395.534	379.64
395.913	354.1
396.292	361.56
396.671	350.03
397.05	388.68
397.429	360.2
397.808	368.56
398.186	369.02
398.565	368.56
398.944	386.87
399.323	364.5
399.701	373.31
400.08	391.61
400.458	394.33
400.837	395.23
401.215	398.85
401.594	396.81
401.972	393.42
402.351	395.91
402.729	390.48
403.107	378.51
403.486	390.94
403.864	393.2
404.242	381.9
404.62	398.39
404.999	386.42
405.377	413.99
405.755	417.38
406.133	409.24
406.511	428
406.889	398.62
407.267	397.72
407.645	410.14
408.023	399.07
408.401	418.51
408.779	408.34
409.156	416.25
409.534	415.12
409.912	416.7
410.29	422.35
410.667	429.35
411.045	434.1
411.422	421.44
411.8	439.07
412.178	420.54
412.555	437.04
412.933	435.23
413.31	420.54
413.687	447.21
414.065	456.7
414.442	447.43
414.819	431.84
415.197	455.12
415.574	472.29
415.951	451.95
416.328	449.92
416.705	468
417.082	478.84
417.46	454.44
417.837	461.44
418.214	443.82
418.591	481.33
418.967	461.44
419.344	472.74
419.721	495.11
420.098	498.96
420.475	485.17
420.852	493.08
421.228	498.5
421.605	481.56
421.982	494.89
422.358	496.24
422.735	487.2
423.111	482.46
423.488	518.39
423.864	515
424.241	504.83
424.617	501.22
424.994	526.98
425.37	510.71
425.746	513.19
426.123	505.74
426.499	501.67
426.875	537.37
427.251	516.81
427.627	544.83
428.003	523.36
428.379	534.89
428.756	556.36
429.132	531.5
429.507	563.81
429.883	560.65
430.259	571.04
430.635	575.11
431.011	539.18
431.387	592.96
431.763	573.76
432.138	573.53
432.514	617.82
432.89	595
433.265	597.03
433.641	613.98
434.016	605.62
434.392	595
434.767	608.11
435.143	591.16
435.518	612.85
435.894	620.99
436.269	625.28
436.644	629.35
437.02	641.78
437.395	625.28
437.77	613.53
438.145	646.75
438.52	655.34
438.895	642.45
439.271	639.97
439.646	663.47
440.021	647.43
440.395	646.07
440.77	657.82
441.145	675.9
441.52	673.64
441.895	676.13
442.27	679.29
442.645	663.92
443.019	663.7
443.394	689.46
443.769	698.72
444.143	687.88
444.518	669.8
444.892	691.04
445.267	705.73
445.641	713.41
446.016	724.26
446.39	725.62
446.764	700.08
447.139	723.81
447.513	721.1
447.887	733.75
448.262	740.53
448.636	722.68
449.01	741.21
449.384	750.93
449.758	764.03
450.132	760.19
450.506	766.52
450.88	779.17
451.254	757.93
451.628	749.34
452.002	768.1
452.376	774.65
452.75	775.11
453.123	786.18
453.497	794.09
453.871	796.8
454.244	800.87
454.618	811.04
454.992	818.04
455.365	808.33
455.739	826.86
456.112	829.34
456.486	860.75
456.859	882.67
457.232	876.35
457.606	884.71
457.979	864.14
458.352	874.77
458.725	885.39
459.099	889.91
459.472	891.04
459.845	953.86
460.218	920.64
460.591	945.27
460.964	941.2
461.337	927.19
461.71	969.68
462.083	988.21
462.456	981.2
462.829	977.14
463.201	1009.45
463.574	1033.18
463.947	1000.41
464.32	1029.79
464.692	1041.54
465.065	1019.17
465.438	1052.84
465.81	1048.77
466.183	1077.25
466.555	1117.24
466.928	1067.53
467.3	1103.91
467.672	1119.28
468.045	1148.88
468.417	1147.3
468.789	1140.52
469.161	1146.4
469.534	1182.78
469.906	1208.77
470.278	1239.95
470.65	1227.07
471.022	1263.68
471.394	1259.39
471.766	1267.98
472.138	1304.36
472.51	1335.77
472.882	1331.48
473.253	1364.92
473.625	1358.82
473.997	1394.07
474.369	1389.78
474.74	1441.76
475.112	1455.77
475.484	1466.84
475.855	1505.48
476.227	1526.5
476.598	1543.22
476.97	1563.56
477.341	1583.67
477.713	1632.94
478.084	1656.21
478.455	1686.04
478.827	1705.03
479.198	1730.56
479.569	1744.35
479.94	1823.67
480.311	1849.65
480.682	1853.72
481.053	1914.96
481.424	1916.55
481.795	1948.18
482.166	1990.44
482.537	2025.47
482.908	2028.86
483.279	2094.85
483.65	2116.54
484.021	2192.24
484.391	2193.37
484.762	2228.85
485.133	2247.16
485.503	2277.44
485.874	2342.98
486.244	2363.09
486.615	2400.37
486.985	2399.92
487.356	2472.69
487.726	2509.52
488.097	2552.69
488.467	2573.03
488.837	2681.27
489.207	2680.82
489.578	2724.66
489.948	2780.25
490.318	2787.48
490.688	2820.02
491.058	2871.32
491.428	2904.09
491.798	2928.27
492.168	2992.9
492.538	2979.12
492.908	3033.58
493.278	3069.28
493.648	3093.46
494.017	3117.19
494.387	3182.28
494.757	3189.28
495.126	3247.13
495.496	3237.87
495.866	3279
496.235	3333.46
496.605	3349.73
496.974	3394.47
497.344	3387.92
497.713	3428.14
498.082	3436.05
498.452	3496.62
498.821	3509.72
499.19	3510.85
499.559	3535.03
499.928	3619.33
500.298	3585.65
500.667	3649.83
501.036	3630.85
501.405	3674.24
501.774	3674.24
502.143	3718.08
502.512	3727.57
502.88	3764.18
503.249	3731.41
503.618	3797.63
503.987	3780.68
504.356	3844.18
504.724	3798.76
505.093	3867
505.462	3892.31
505.83	3896.38
506.199	3932.76
506.567	4007.11
506.936	3981.8
507.304	4015.25
507.672	4022.7
508.041	4064.51
508.409	4045.53
508.777	4113.55
509.145	4124.17
509.514	4130.27
509.882	4095.92
510.25	4110.84
510.618	4185.41
510.986	4135.7
511.354	4191.06
511.722	4254.11
512.09	4295.01
512.458	4258.86
512.826	4293.21
513.193	4290.72
513.561	4311.74
513.929	4351.28
514.297	4393.09
514.664	4363.49
515.032	4417.72
515.4	4456.82
515.767	4459.53
516.135	4462.92
516.502	4443.48
516.869	4505.86
517.237	4520.32
517.604	4534.56
517.972	4539.75
518.339	4579.75
518.706	4591.28
519.073	4557.38
519.44	4599.64
519.808	4647.32
520.175	4621.33
520.542	4667.21
520.909	4703.14
521.276	4728.45
521.643	4716.92
522.009	4755.12
522.376	4765.96
522.743	4763.25
523.11	4865.17
523.477	4847.99
523.843	4891.61
524.21	4880.08
524.577	4961.21
524.943	4973.87
525.31	5019.74
525.676	4949.01
526.043	4971.83
526.409	5087.76
526.776	5078.72
527.142	5107.87
527.508	5141.32
527.874	5178.38
528.241	5220.64
528.607	5163.69
528.973	5212.96
529.339	5280.07
529.705	5243.01
530.071	5277.81
530.437	5309.9
530.803	5382.44
531.169	5387.41
531.535	5402.78
531.901	5423.8
532.267	5432.84
532.632	5472.84
532.998	5477.58
533.364	5549.9
533.73	5532.27
534.095	5584.47
534.461	5570.91
534.826	5607.3
535.192	5620.86
535.557	5726.84
535.923	5690.68
536.288	5667.18
536.653	5723.68
537.019	5702.89
537.384	5754.86
537.749	5786.5
538.114	5749.89
538.479	5806.61
538.845	5841.19
539.21	5781.08
539.575	5857.01
539.94	5877.35
540.305	5951.47
540.67	5954.41
541.034	5970.68
541.399	5983.78
541.764	6022.43
542.129	6073.95
542.494	6054.06
542.858	6080.05
543.223	6139.49
543.587	6137.9
543.952	6159.82
544.316	6198.69
544.681	6173.61
545.045	6229.65
545.41	6245.47
545.774	6325.02
546.138	6311.91
546.503	6319.37
546.867	6332.7
547.231	6425.81
547.595	6395.75
547.959	6379.25
548.324	6405.92
548.688	6440.95
549.052	6486.14
549.416	6433.26
549.779	6503.77
550.143	6552.13
550.507	6589.64
550.871	6636.65
551.235	6581.73
551.599	6619.92
551.962	6649.3
552.326	6685.69
552.689	6699.24
553.053	6680.04
553.417	6688.17
553.78	6807.26
554.143	6795.06
554.507	6859.92
554.87	6784.67
555.234	6874.16
555.597	6858.79
555.96	6862.86
556.323	6913.48
556.686	6886.81
557.05	6952.57
557.413	6966.58
557.776	7030.54
558.139	7063.08
558.502	7036.86
558.865	7011.55
559.228	7126.13
559.59	7111.89
559.953	7143.07
560.316	7255.61
560.679	7184.88
561.041	7186.92
561.404	7217.88
561.767	7329.74
562.129	7235.5
562.492	7273.69
562.854	7360.92
563.217	7303.52
563.579	7351.66
563.941	7402.5
564.304	7442.73
564.666	7444.99
565.028	7462.39
565.39	7515.27
565.753	7578.32
566.115	7590.75
566.477	7634.14
566.839	7628.49
567.201	7668.03
567.563	7666.45
567.925	7755.94
568.287	7777.86
568.648	7784.64
569.01	7816.96
569.372	7841.59
569.734	7795.04
570.095	7869.61
570.457	7979.89
570.819	7995.03
571.18	8020.11
571.542	8011.53
571.903	8069.6
572.265	8094.46
572.626	8146.21
572.987	8141.69
573.349	8252.88
573.71	8287.45
574.071	8328.58
574.432	8348.01
574.794	8430.72
575.155	8435.24
575.516	8454.9
575.877	8515.24
576.238	8640.44
576.599	8649.25
576.96	8709.59
577.32	8740.32
577.681	8899.86
578.042	8887.89
578.403	8978.05
578.763	9024.83
579.124	9110.03
579.485	9257.82
579.845	9309.8
580.206	9363.81
580.566	9454.88
580.927	9565.38
581.287	9751.59
581.648	9825.26
582.008	9921.53
582.368	10036.78
582.728	10071.81
583.089	10278.81
583.449	10361.75
583.809	10527.84
584.169	10706.37
584.529	10883.54
584.889	11011
585.249	11078.34
585.609	11287.37
585.969	11494.37
586.329	11627.48
586.688	11900.69
587.048	12072.44
587.408	12193.79
587.768	12481.01
588.127	12616.6
588.487	12824.73
588.846	13135.91
589.206	13252.29
589.565	13562.12
589.925	13852.95
590.284	13989.45
590.643	14184.92
591.003	14469.66
591.362	14758.69
591.721	14979.25
592.08	15314.16
592.44	15605
592.799	15789.63
593.158	16123.18
593.517	16356.62
593.876	16707.34
594.235	16895.13
594.593	17205.64
594.952	17417.61
595.311	17780.08
595.67	18069.79
596.029	18471.14
596.387	18641.08
596.746	18920.84
597.104	19158.8
597.463	19451.23
597.822	19800.6
598.18	20046.24
598.538	20237.42
598.897	20670.63
599.255	20808.7
599.613	21331.85
599.972	21491.85
600.33	21855.68
600.688	22025.4
601.046	22414.99
601.404	22770.23
601.762	22926.39
602.12	23348.75
602.478	23654.51
602.836	23817.21
603.194	23958.9
603.552	24287.48
603.91	24529.28
604.268	24873.23
604.625	25124.52
604.983	25427.57
605.341	25533.33
605.698	25924.28
606.056	26289.46
606.413	26370.37
606.771	26706.85
607.128	26968.99
607.485	27154.53
607.843	27473.84
608.2	27680.61
608.557	28030.44
608.914	28094.16
609.272	28443.08
609.629	28617.99
609.986	28949.96
610.343	29054.59
610.7	29423.17
611.057	29644.18
611.414	29664.74
611.771	29991.51
612.127	30333.88
612.484	30473.08
612.841	30621.55
613.198	30738.61
613.554	31012.05
613.911	31292.95
614.267	31431.25
614.624	31595.99
614.98	31713.95
615.337	32140.38
615.693	32074.4
616.05	32369.76
616.406	32723.42
616.762	32573.14
617.118	32768.16
617.475	32912.79
617.831	33183.75
618.187	33327.25
618.543	33549.39
618.899	33811.75
619.255	33807.68
619.611	33862.15
619.967	34141.24
620.323	34328.12
620.678	34272.76
621.034	34439.31
621.39	34467.78
621.746	34574.9
622.101	35025.51
622.457	34845.4
622.812	35029.12
623.168	35213.75
623.523	35285.39
623.879	35480.86
624.234	35283.8
624.589	35723.34
624.945	35571.48
625.3	35726.28
625.655	35825.71
626.01	35920.17
626.365	36026.61
626.72	36120.62
627.075	36099.15
627.43	36163.33
627.785	36122.65
628.14	36357.9
628.495	36269.31
628.85	36567.61
629.205	36335.53
629.559	36689.64
629.914	36475.18
630.269	36578.01
630.623	36602.19
630.978	36477.67
631.332	36849.64
631.687	36949.52
632.041	36880.15
632.396	36919.02
632.75	36784.1
633.104	36906.36
633.459	36747.04
633.813	36709.53
634.167	36828.4
634.521	36884.89
634.875	36991.78
635.229	36874.5
635.583	36814.84
635.937	36895.29
636.291	36757.89
636.645	36844.67
636.999	36844.21
637.352	37015.74
637.706	36745.23
638.06	36940.03
638.413	36888.51
638.767	36836.53
639.121	36906.36
639.474	36849.64
639.828	36863.2
640.181	36777.78
640.534	36824.55
640.888	36846.25
641.241	36703.65
641.594	36898.22
641.947	37007.37
642.301	36793.37
642.654	36903.87
643.007	36859.81
643.36	36865.23
643.713	36895.29
644.066	36824.55
644.419	36646.48
644.771	36567.39
645.124	36179.37
645.477	36167.85
645.83	36024.58
646.182	35854.41
646.535	35790.46
646.888	35846.73
647.24	35709.1
647.593	35948.19
647.945	35745.49
648.298	35660.97
648.65	35520.41
649.002	35474.53
649.355	35678.82
649.707	35633.85
650.059	35845.37
650.411	36256.21
650.763	36295.53
651.115	36632.47
651.467	36482.87
651.819	36494.17
652.171	36431.34
652.523	36476.31
652.875	36457.33
653.227	36187.73
653.578	36538.91
653.93	36335.53
654.282	36342.76
654.633	36200.16
654.985	36219.6
655.337	36377.11
655.688	36382.53
656.039	36456.88
656.391	36114.74
656.742	36215.08
657.094	36250.78
657.445	36323.32
657.796	36201.97
658.147	36164.46
658.498	36248.75
658.849	36205.14
659.2	36178.92
659.551	36217.34
659.902	36260.5
660.253	36120.17
660.604	36216.43
660.955	36140.28
661.306	36176.21
661.656	36195.64
662.007	36137.11
662.358	36146.83
662.708	36070.45
663.059	36090.11
663.409	35912.71
663.76	36209.43
664.11	36087.62
664.461	36165.36
664.811	36100.96
665.161	36005.82
665.511	36095.99
665.862	36100.96
666.212	36089.21
666.562	36142.09
666.912	35967.63
667.262	36065.93
667.612	36061.86
667.962	36038.59
668.312	36040.85
668.662	36245.59
669.011	36086.04
669.361	35946.84
669.711	35941.87
670.06	35847.4
670.41	35988.87
670.76	35995.65
671.109	36053.05
671.459	35848.99
671.808	35847.18
672.157	35897.12
672.507	35572.16
672.856	35880.4
673.205	35803.79
673.554	35830.68
673.904	35783.45
674.253	35901.64
674.602	35869.55
674.951	35365.38
675.3	35173.75
675.649	35701.42
675.998	35633.85
676.346	35746.84
676.695	35798.59
677.044	35543.68
677.393	35645.38
677.741	35611.93
678.09	35494.42
678.438	35456.91
678.787	35465.95
679.135	35605.83
679.484	35350.92
679.832	35429.79
680.181	35234.77
680.529	35443.57
680.877	35325.61
681.225	35282
681.573	35396.57
681.922	35324.71
682.27	35211.49
682.618	35183.92
682.966	35012.85
683.314	34989.57
683.661	34950.25
684.009	34830.03
684.357	34778.51
684.705	34745.29
685.053	34787.32
685.4	34663.26
685.748	34543.03
686.095	34525.86
686.443	34401.57
686.79	34338.52
687.138	34554.56
687.485	34419.65
687.832	34287.22
688.18	34340.55
688.527	34177.17
688.874	34246.77
689.221	34072.08
689.568	34017.4
689.915	33955.03
690.262	33927.23
690.609	33900.79
690.956	33731.3
691.303	33663.06
691.65	33563.4
691.997	33422.16
692.344	33348.26
692.69	33266
693.037	33372.44
693.383	33074.82
693.73	33235.72
694.077	33056.97
694.423	32995.73
694.769	32906.24
695.116	32933.13
695.462	32745.79
695.808	32602.97
696.155	32719.58
696.501	32488.62
696.847	32430.55
697.193	32258.12
697.539	32379.25
697.885	32121.18
698.231	31995.75
698.577	31964.57
698.923	31885.7
699.269	31826.49
699.614	31781.07
699.96	31703.56
700.306	31613.39
700.651	31560.51
700.997	31417.69
701.342	31363.45
701.688	31278.49
702.033	31216.57
702.379	31213.4
702.724	31196.68
703.069	31084.14
703.415	30784.04
703.76	30867.87
704.105	30790.81
704.45	30812.28
704.795	30527.32
705.14	30552.63
705.485	30507.21
705.83	30368.9
706.175	30510.37
706.52	30294.1
706.865	30260.43
707.209	30196.03
707.554	30005.3
707.899	30056.6
708.243	29968.69
708.588	29889.82
708.932	29769.82
709.277	29742.25
709.621	29711.52
709.966	29531.64
710.31	29583.61
710.654	29355.82
710.998	29436.27
711.342	29269.72
711.687	29393.79
712.031	29194.25
712.375	29132.33
712.719	29068.83
713.063	29100.92
713.407	29276.96
713.75	28926.23
714.094	29040.13
714.438	28916.51
714.782	28846.23
715.125	28796.74
715.469	28762.85
715.812	28755.61
716.156	28406.02
716.499	28617.99
716.843	28456.86
717.186	28307.49
717.53	28416.64
717.873	28315.4
718.216	28334.38
718.559	28350.65
718.902	27951.34
719.246	28112.92
719.589	28050.32
719.932	27973.26
720.275	27900.5
720.617	27841.51
720.96	27739.6
721.303	27834.73
721.646	27821.63
721.989	27661.63
722.331	27797.9
722.674	27553.61
723.016	27707.05
723.359	27621.41
723.701	27630.9
724.044	27381.86
724.386	27308.87
724.729	27505.93
725.071	27402.66
725.413	27293.51
725.755	27217.8
726.097	27267.29
726.439	27144.58
726.782	27101.42
727.124	27300.51
727.465	26966.51
727.807	26973.06
728.149	27012.38
728.491	27028.2
728.833	26996.79
729.175	26804.48
729.516	26752.28
729.858	26579.17
730.199	26770.13
730.541	26613.07
730.882	26616.69
731.224	26669.34
731.565	26475.22
731.906	26463.47
732.248	26531.27
732.589	26465.5
732.93	26445.17
733.271	26457.6
733.612	26353.64
733.953	26439.52
734.294	26258.28
734.635	26206.75
734.976	26262.12
735.317	26069.58
735.658	26128.11
735.999	26149.81
736.339	26034.1
736.68	25999.08
737.021	26098.73
737.361	25892.86
737.702	26113.42
738.042	25886.08
738.383	25908.23
738.723	26014.44
739.063	25729.7
739.404	25915.01
739.744	25726.77
740.084	25690.16
740.424	25693.32
740.764	25625.3
741.104	25649.93
741.444	25560.9
741.784	25509.15
742.124	25491.52
742.464	25502.14
742.804	25407.68
743.143	25397.51
743.483	25310.96
743.823	25174.01
744.162	25263.5
744.502	25249.72
744.841	25116.16
745.181	25204.07
745.52	25120.68
745.86	25123.17
746.199	25062.6
746.538	25018.76
746.877	25068.93
747.216	25023.06
747.556	25036.16
747.895	24964.3
748.234	24840.91
748.573	24960.46
748.911	24714.59
749.25	24817.19
749.589	24680.92
749.928	24673.01
750.267	24666.91
750.605	24675.27
750.944	24583.97
751.283	24434.82
751.621	24588.27
751.96	24440.47
752.298	24292.45
752.636	24352.79
752.975	24228.95
753.313	24356.86
753.651	24387.37
753.989	24372.68
754.327	24147.83
754.666	24091.56
755.004	24190.99
755.342	24049.07
755.679	23987.38
756.017	23886.36
756.355	23959.58
756.693	23851.56
757.031	23828.96
757.368	23747.84
757.706	23688.4
758.044	23619.25
758.381	23722.07
758.719	23614.28
759.056	23591.68
759.394	23565.02
759.731	23302.2
760.068	23418.35
760.405	23238.47
760.743	23073.73
761.08	23232.82
761.417	23117.8
761.754	22983.34
762.091	23010
762.428	23019.27
762.765	22822.89
763.102	22855.88
763.438	22646.85
763.775	22662.21
764.112	22595.1
764.449	22606.17
764.785	22480.3
765.122	22439.4
765.458	22264.03
765.795	22225.62
766.131	22202.57
766.467	22171.38
766.804	22023.36
767.14	21957.83
767.476	21983.14
767.812	21877.38
768.148	21876.92
768.485	21650.49
768.821	21614.11
769.157	21616.37
769.492	21543.15
769.828	21537.72
770.164	21393.55
770.5	21244.4
770.836	21332.53
771.171	21110.39
771.507	21179.77
771.842	21031.52
772.178	20926.44
772.513	20971.64
772.849	20790.63
773.184	20825.65
773.519	20711.53
773.855	20600.35
774.19	20548.15
774.525	20478.54
774.86	20462.27
775.195	20392.9
775.53	20389.28
775.865	20247.36
776.2	20063.19
776.535	20014.83
776.87	19881.95
777.205	19908.84
777.539	19870.88
777.874	19832.91
778.209	19645.35
778.543	19704.78
778.878	19486.25
779.212	19518.79
779.547	19389.08
779.881	19454.39
780.215	19274.73
780.55	19263.43
780.884	19132.59
781.218	19141.86
781.552	19119.26
781.886	18909.77
782.22	18894.4
782.554	18832.03
782.888	18626.84
783.222	18645.82
783.556	18437.92
783.889	18538.71
784.223	18322.22
784.557	18380.07
784.89	18262.56
785.224	18236.34
785.557	18124.48
785.891	18133.75
786.224	17951.38
786.558	18127.64
786.891	17848.1
787.224	17839.52
787.557	17766.07
787.891	17787.77
788.224	17723.59
788.557	17712.74
788.89	17646.3
789.223	17598.39
789.556	17533.99
789.888	17363.15
790.221	17320.89
790.554	17202.02
790.887	17246.76
791.219	17225.07
791.552	17114.34
791.884	17054.23
792.217	16928.13
792.549	16908.24
792.882	16835.25
793.214	16771.3
793.546	16752.54
793.879	16667.8
794.211	16493.34
794.543	16656.72
794.875	16471.64
795.207	16564.97
795.539	16433.45
795.871	16487.01
796.203	16317.07
796.535	16183.29
796.867	16204.76
797.198	16051.99
797.53	16179.67
797.862	15925.89
798.193	15964.76
798.525	15985.33
798.856	15910.3
799.188	15800.93
799.519	15664.43
799.85	15614.26
800.182	15723.87
800.513	15583.53
800.844	15552.57
801.175	15599.58
801.506	15497.66
801.837	15395.51
802.168	15445.23
802.499	15329.3
802.83	15349.86
803.161	15285.69
803.491	15264.67
803.822	15321.16
804.153	15177.89
804.483	14981.29
804.814	14953.04
805.145	14942.19
805.475	14946.71
805.805	14865.36
806.136	14957.78
806.466	14802.76
806.796	14885.7
807.126	14696.77
807.457	14646.38
807.787	14632.6
808.117	14592.6
808.447	14529.55
808.777	14578.81
809.107	14609.77
809.436	14493.16
809.766	14431.24
810.096	14330.68
810.426	14344.69
810.755	14290.91
811.085	14287.97
811.414	14247.29
811.744	14195.54
812.073	14147.86
812.403	14171.36
812.732	14036.68
813.061	14098.82
813.39	13924.59
813.719	13940.41
814.049	14058.6
814.378	13895.21
814.707	13801.88
815.036	13889.56
815.365	13742.9
815.693	13641.66
816.022	13708.33
816.351	13622
816.68	13498.84
817.008	13628.55
817.337	13476.69
817.665	13389.92
817.994	13572.06
818.322	13434.66
818.651	13333.87
818.979	13260.88
819.307	13338.62
819.636	13329.58
819.964	13262.91
820.292	13330.26
820.62	13330.93
820.948	13202.12
821.276	13196.7
821.604	13192.63
821.932	13274.21
822.259	13239.64
822.587	13146.08
822.915	13163.48
823.243	13183.59
823.57	13215.46
823.898	13164.16
824.225	13183.37
824.553	13149.92
824.88	13184.5
825.207	13189.47
825.535	13121.22
825.862	13141.11
826.189	13136.36
826.516	13165.74
826.843	13220.43
827.17	13213.65
827.497	13146.31
827.824	13140.66
828.151	13241.67
828.478	13155.8
828.805	13140.66
829.131	13177.49
829.458	13080.09
829.785	13092.3
830.111	13122.58
830.438	13144.72
830.764	13064.5
831.09	13085.29
831.417	13072.64
831.743	13113.09
832.069	13099.53
832.395	12970.94
832.722	13069.47
833.048	13031.73
833.374	13026.54
833.7	12952.87
834.026	12992.19
834.351	13045.74
834.677	12928.69
835.003	12941.11
835.329	12946.76
835.654	12903.83
835.98	12882.58
836.306	12919.19
836.631	12818.63
836.956	12865.86
837.282	12853.43
837.607	12756.03
837.932	12748.13
838.258	12754
838.583	12682.59
838.908	12660.44
839.233	12720.56
839.558	12661.12
839.883	12606.21
840.208	12614.57
840.533	12619.99
840.858	12575.25
841.182	12555.14
841.507	12577.28
841.832	12519.43
842.156	12446.89
842.481	12443.73
842.805	12431.98
843.13	12371.64
843.454	12366.44
843.778	12360.79
844.103	12291.87
844.427	12286.22
844.751	12297.06
845.075	12242.38
845.399	12203.73
845.723	12086
846.047	12121.48
846.371	12085.77
846.695	12117.63
847.019	11941.14
847.343	11906.57
847.666	11873.35
847.99	11774.14
848.313	11745.67
848.637	11692.79
848.96	11615.5
849.284	11647.14
849.607	11538.67
849.931	11553.13
850.254	11546.8
850.577	11391.55
850.9	11323.98
851.223	11383.19
851.546	11303.64
851.869	11219.35
852.192	11270.65
852.515	11123.31
852.838	11143.87
853.161	11078.11
853.483	11097.77
853.806	11004.67
854.129	11065.68
854.451	10885.58
854.774	10878.8
855.096	10862.07
855.419	10875.41
855.741	10765.8
856.063	10711.34
856.385	10698.69
856.708	10710.89
857.03	10640.38
857.352	10615.98
857.674	10583.66
857.996	10604.23
858.318	10494.85
858.64	10539.37
858.961	10502.31
859.283	10414.85
859.605	10371.92
859.926	10450.11
860.248	10362.43
860.57	10350.9
860.891	10322.65
861.212	10337.79
861.534	10245.14
861.855	10250.56
862.176	10238.36
862.498	10208.53
862.819	10193.84
863.14	10129.89
863.461	10144.58
863.782	10079.27
864.103	10119.27
864.424	10093.96
864.745	10066.61
865.065	10048.31
865.386	9948.88
865.707	9960.18
866.027	10062.55
866.348	9959.27
866.668	9976.22
866.989	9927.86
867.309	9899.16
867.63	9917.92
867.95	9916.34
868.27	9846.96
868.59	9871.59
868.91	9879.95
869.23	9837.24
869.55	9708.88
869.87	9779.16
870.19	9800.63
870.51	9779.62
870.83	9747.53
871.15	9676.57
871.469	9722.44
871.789	9706.17
872.109	9695.78
872.428	9595.44
872.748	9660.75
873.067	9652.16
873.386	9601.32
873.706	9616.46
874.025	9550.24
874.344	9565.16
874.663	9520.87
874.982	9553.63
875.301	9517.93
875.62	9478.15
875.939	9442
876.258	9416.69
876.577	9424.6
876.896	9444.03
877.214	9356.8
877.533	9430.25
877.852	9320.64
878.17	9414.43
878.489	9394.99
878.807	9366.52
879.125	9366.07
879.444	9311.15
879.762	9235.9
880.08	9306.86
880.398	9149.35
880.716	9221.21
881.034	9195.68
881.352	9232.06
881.67	9118.39
881.988	9185.28
882.306	9105.74
882.624	9064.61
882.941	9138.5
883.259	9067.54
883.577	9026.64
883.894	9006.3
884.212	8985.06
884.529	8933.54
884.846	9010.6
885.164	8910.03
885.481	8907.55
885.798	8962.46
886.115	8862.8
886.432	8945.29
886.75	8784.16
887.067	8883.14
887.383	8757.04
887.7	8812.86
888.017	8761.56
888.334	8707.33
888.651	8714.33
888.967	8655.8
889.284	8675.92
889.6	8623.71
889.917	8581.91
890.233	8609.48
890.55	8565.86
890.866	8585.97
891.182	8489.25
891.498	8462.81
891.815	8441.8
892.131	8447.9
892.447	8463.49
892.763	8328.35
893.079	8383.49
893.395	8341.46
893.71	8327
894.026	8337.17
894.342	8258.75
894.657	8257.4
894.973	8235.48
895.289	8129.72
895.604	8202.03
895.92	8120.68
896.235	8127.23
896.55	8128.59
896.865	8044.97
897.181	8035.71
897.496	8076.84
897.811	8009.04
898.126	7964.3
898.441	7927.69
898.756	7924.52
899.071	7833.45
899.386	7898.08
899.7	7796.62
900.015	7787.35
900.33	7746.45
900.644	7711.65
900.959	7732.66
901.273	7647.47
901.588	7623.06
901.902	7546.23
902.216	7574.93
902.531	7553.23
902.845	7524.99
903.159	7483.18
903.473	7459.22
903.787	7400.02
904.101	7433.46
904.415	7465.55
904.729	7364.31
905.042	7341.49
905.356	7303.52
905.67	7303.52
905.984	7265.78
906.297	7284.77
906.611	7175.62
906.924	7183.3
907.237	7166.35
907.551	7174.71
907.864	7077.54
908.177	7070.31
908.491	7037.31
908.804	7079.12
909.117	7039.35
909.43	6930.43
909.743	6936.53
910.056	6908.05
910.368	6885.91
910.681	6882.97
910.994	6859.69
911.307	6786.02
911.619	6690.66
911.932	6731.56
912.244	6700.83
912.557	6730.2
912.869	6644.33
913.181	6641.17
913.494	6650.43
913.806	6547.16
914.118	6541.96
914.43	6554.16
914.742	6511.68
915.054	6452.25
915.366	6449.76
915.678	6379.48
915.99	6439.14
916.302	6361.85
916.613	6356.88
916.925	6323.89
917.236	6282.31
917.548	6260.16
917.859	6258.58
918.171	6257.22
918.482	6177.9
918.794	6112.37
919.105	6182.87
919.416	6113.72
919.727	6132.48
920.038	6078.24
920.349	6025.59
920.66	6062.88
920.971	6007.06
921.282	5981.07
921.593	5951.02
921.903	5908.53
922.214	5877.12
922.525	5870.11
922.835	5853.17
923.146	5851.13
923.456	5825.6
923.767	5774.07
924.077	5772.72
924.387	5764.13
924.697	5719.16
925.008	5685.26
925.318	5685.49
925.628	5636
925.938	5619.73
926.248	5577.47
926.558	5574.08
926.867	5503.12
927.177	5509.22
927.487	5482.55
927.796	5408.66
928.106	5464.7
928.416	5398.26
928.725	5411.59
929.034	5377.7
929.344	5369.11
929.653	5328.66
929.962	5316
930.271	5264.93
930.581	5216.8
930.89	5276.68
931.199	5172.51
931.508	5177.7
931.817	5240.07
932.125	5181.54
932.434	5183.8
932.743	5089.34
933.051	5097.03
933.36	5081.66
933.669	5092.51
933.977	5007.54
934.286	4994.66
934.594	4990.82
934.902	4954.88
935.21	4886.19
935.519	4897.94
935.827	4920.53
936.135	4851.38
936.443	4848.22
936.751	4819.29
937.059	4795.34
937.367	4752.4
937.674	4756.24
937.982	4760.09
938.29	4749.24
938.597	4729.13
938.905	4692.52
939.213	4622.69
939.52	4668.34
939.827	4676.25
940.135	4590.83
940.442	4569.58
940.749	4570.49
941.056	4578.85
941.363	4537.04
941.67	4526.87
941.977	4502.24
942.284	4488.91
942.591	4419.98
942.898	4455.24
943.205	4450.26
943.511	4388.8
943.818	4400.55
944.125	4335.47
944.431	4332.08
944.738	4339.98
945.044	4320.55
945.35	4298.86
945.657	4216.82
945.963	4234.68
946.269	4233.09
946.575	4219.31
946.881	4190.16
947.187	4206.88
947.493	4165.07
947.799	4114.23
948.105	4104.96
948.41	4086.21
948.716	4076.26
949.022	4070.39
949.327	4069.48
949.633	4032.65
949.938	4036.04
950.244	3998.3
950.549	3960.79
950.854	3950.39
951.16	3951.52
951.465	3938.64
951.77	3915.14
952.075	3880.56
952.38	3882.82
952.685	3863.16
952.99	3846.21
953.294	3821.81
953.599	3804.63
953.904	3818.87
954.209	3731.64
954.513	3747.46
954.818	3717.85
955.122	3703.39
955.426	3718.98
955.731	3698.87
956.035	3697.74
956.339	3693.9
956.643	3667.01
956.948	3652.32
957.252	3576.61
957.556	3638.76
957.86	3570.97
958.163	3589.72
958.467	3548.14
958.771	3565.77
959.075	3543.4
959.378	3516.5
959.682	3510.18
959.985	3533.68
960.289	3474.7
960.592	3467.92
960.896	3449.39
961.199	3442.61
961.502	3435.83
961.805	3387.47
962.108	3380.91
962.411	3380.46
962.714	3339.11
963.017	3361.71
963.32	3353.57
963.623	3329.62
963.926	3288.49
964.228	3356.73
964.531	3271.99
964.833	3289.62
965.136	3236.06
965.438	3237.41
965.741	3208.49
966.043	3234.93
966.345	3145.89
966.648	3173.69
966.95	3182.73
967.252	3169.62
967.554	3142.95
967.856	3126.01
968.158	3090.75
968.46	3083.07
968.761	3084.2
969.063	3086.01
969.365	3022.51
969.666	3043.07
969.968	3028.61
970.269	3013.01
970.571	3013.92
970.872	3004.43
971.174	2977.99
971.475	2955.84
971.776	2947.03
972.077	2926.01
972.378	2933.69
972.679	2915.16
972.98	2912
973.281	2903.19
973.582	2855.5
973.883	2870.42
974.183	2848.05
974.484	2878.55
974.785	2827.48
975.085	2806.69
975.386	2779.12
975.686	2782.74
975.986	2769.86
976.287	2782.51
976.587	2754.49
976.887	2732.8
977.187	2742.06
977.487	2748.39
977.787	2738.9
978.087	2722.63
978.387	2677.2
978.687	2682.18
978.987	2654.15
979.286	2637.2
979.586	2646.47
979.885	2614.15
980.185	2621.61
980.484	2602.18
980.784	2566.92
981.083	2587.71
981.382	2542.52
981.682	2561.73
981.981	2567.83
982.28	2541.16
982.579	2501.16
982.878	2494.38
983.177	2492.58
983.475	2482.86
983.774	2491.67
984.073	2450.99
984.372	2483.08
984.67	2473.37
984.969	2451.9
985.267	2429.75
985.566	2401.28
985.864	2416.19
986.162	2395.18
986.461	2371.9
986.759	2380.04
987.057	2353.6
987.355	2337.55
987.653	2364.9
987.951	2310.66
988.249	2347.95
988.547	2307.04
988.844	2304.78
989.142	2276.76
989.44	2251.23
989.737	2263.88
990.035	2273.37
990.332	2215.75
990.63	2231.57
990.927	2241.28
991.224	2201.96
991.521	2225.69
991.819	2222.98
992.116	2217.78
992.413	2201.74
992.71	2179.82
993.006	2174.62
993.303	2171.45
993.6	2152.47
993.897	2131.23
994.193	2127.39
994.49	2114.96
994.787	2083.32
995.083	2100.04
995.379	2087.84
995.676	2053.27
995.972	2088.97
996.268	2061.4
996.565	2042.42
996.861	2019.37
997.157	2047.39
997.453	2006.94
997.749	2010.33
998.044	2006.94
998.34	1971.01
998.636	1968.97
998.932	1969.43
999.227	1956.54
999.523	1956.54
999.818	1941.86
1000.114	1917.22
1000.409	1909.31
1000.704	1910.44
1001	1891.69
1001.295	1881.29
1001.59	1885.13
1001.885	1847.39
1002.18	1826.83
1002.475	1848.07
1002.77	1869.77
1003.065	1828.41
1003.359	1802.2
1003.654	1827.51
1003.949	1797
1004.243	1817.57
1004.538	1780.28
1004.832	1782.09
1005.127	1779.37
1005.421	1776.44
1005.715	1763.78
1006.009	1738.7
1006.304	1725.36
1006.598	1742.99
1006.892	1711.58
1007.186	1698.47
1007.48	1698.47
1007.773	1672.94
1008.067	1669.77
1008.361	1629.55
1008.655	1671.81
1008.948	1634.52
1009.242	1625.71
1009.535	1618.47
1009.829	1627.51
1010.122	1612.15
1010.415	1599.04
1010.708	1613.28
1011.001	1598.59
1011.295	1574.86
1011.588	1584.13
1011.881	1545.26
1012.173	1526.27
1012.466	1567.18
1012.759	1537.35
1013.052	1498.03
1013.344	1534.63
1013.637	1514.52
1013.93	1491.92
1014.222	1477.46
1014.514	1494.18
1014.807	1453.96
1015.099	1485.14
1015.391	1433.85
1015.683	1457.57
1015.976	1443.79
1016.268	1448.08
1016.56	1426.16
1016.851	1406.73
1017.143	1413.73
1017.435	1387.29
1017.727	1369.44
1018.018	1389.33
1018.31	1343.91
1018.602	1350.91
1018.893	1346.84
1019.185	1349.1
1019.476	1338.71
1019.767	1357.92
1020.058	1308.88
1020.35	1305.71
1020.641	1300.74
1020.932	1281.99
1021.223	1295.09
1021.514	1251.25
1021.804	1282.66
1022.095	1271.59
1022.386	1247.41
1022.677	1243.79
1022.967	1257.35
1023.258	1236.79
1023.548	1216
1023.839	1221.42
1024.129	1187.3
1024.419	1203.8
1024.709	1177.13
1025	1192.95
1025.29	1151.82
1025.58	1166.06
1025.87	1161.76
1026.16	1152.05
1026.449	1152.27
1026.739	1133.29
1027.029	1140.75
1027.319	1116.79
1027.608	1134.87
1027.898	1118.15
1028.187	1136.23
1028.477	1098.94
1028.766	1110.92
1029.055	1082.67
1029.344	1058.49
1029.634	1072.95
1029.923	1069.79
1030.212	1065.27
1030.501	1056.68
1030.79	1041.54
1031.078	1029.34
1031.367	1034.08
1031.656	1031.6
1031.945	1025.04
1032.233	1019.85
1032.522	1010.58
1032.81	1007.87
1033.099	1005.84
1033.387	990.92
1033.675	985.27
1033.963	964.93
1034.251	964.25
1034.54	1003.12
1034.828	973.97
1035.116	957.47
1035.403	949.57
1035.691	952.73
1035.979	919.06
1036.267	933.75
1036.554	914.54
1036.842	907.76
1037.129	916.12
1037.417	931.03
1037.704	924.93
1037.992	877.48
1038.279	894.43
1038.566	881.32
1038.853	881.32
1039.14	881.32
