Data from hue_50_FLMS001491_94.txt Node
Date: Mon Feb 06 15:11:21 GMT 2017
User: dcchb
Spectrometer: FLMS00149
Trigger mode: 0
Integration Time (sec): 2.000000E-2
Scans to average: 10
Electric dark correction enabled: true
Nonlinearity correction enabled: false
Boxcar width: 0
XAxis mode: Wavelengths
Number of Pixels in Spectrum: 2048
>>>>>Begin Spectral Data<<<<<
341.393	-1.95
341.776	-1.95
342.16	-1.95
342.543	-56.18
342.927	-54.83
343.31	-49.86
343.693	-68.84
344.077	-59.12
344.46	-58.67
344.843	-41.72
345.226	-53.93
345.61	-36.3
345.993	-12.8
346.376	-6.69
346.759	-6.69
347.142	25.39
347.525	43.47
347.908	54.55
348.291	79.4
348.674	99.97
349.057	91.83
349.44	122.57
349.823	144.49
350.206	150.82
350.588	212.06
350.971	217.93
351.354	245.28
351.737	263.58
352.119	250.93
352.502	244.82
352.884	298.61
353.267	286.18
353.65	298.61
354.032	319.4
354.414	341.32
354.797	337.93
355.179	327.08
355.562	348.78
355.944	333.64
356.326	347.42
356.709	351.49
357.091	340.87
357.473	381.32
357.855	342
358.238	354.65
358.62	374.54
359.002	347.19
359.384	354.65
359.766	359.85
360.148	349.45
360.53	342.67
360.912	344.48
361.294	339.28
361.676	347.65
362.057	368.44
362.439	358.95
362.821	331.38
363.203	317.36
363.584	349
363.966	346.97
364.348	327.08
364.729	347.65
365.111	326.86
365.493	339.96
365.874	325.05
366.256	329.12
366.637	342.9
367.019	329.57
367.4	316.23
367.781	333.18
368.163	337.03
368.544	332.73
368.925	351.04
369.306	364.82
369.688	326.18
370.069	316.91
370.45	309.23
370.831	339.28
371.212	343.13
371.593	333.64
371.974	316.46
372.355	330.7
372.736	332.05
373.117	351.71
373.498	313.07
373.879	346.06
374.26	331.38
374.641	328.21
375.021	327.53
375.402	343.58
375.783	341.54
376.163	316.23
376.544	352.84
376.925	365.95
377.305	342.45
377.686	344.71
378.066	320.75
378.447	338.38
378.827	354.88
379.208	350.36
379.588	339.51
379.968	361.21
380.349	359.62
380.729	347.42
381.109	344.26
381.489	367.08
381.87	344.03
382.25	365.72
382.63	373.86
383.01	363.24
383.39	342.22
383.77	357.14
384.15	354.65
384.53	367.53
384.91	349.23
385.29	372.96
385.67	348.55
386.049	369.34
386.429	366.63
386.809	335.44
387.189	368.66
387.568	368.21
387.948	375.44
388.328	372.5
388.707	381.77
389.087	397.59
389.466	366.85
389.846	361.43
390.225	388.55
390.605	371.83
390.984	385.16
391.363	404.82
391.743	386.06
392.122	399.62
392.501	367.53
392.881	397.36
393.26	384.48
393.639	404.82
394.018	398.27
394.397	393.97
394.776	401.43
395.155	415.44
395.534	389.45
395.913	407.98
396.292	417.02
396.671	378.61
397.05	401.43
397.429	392.84
397.808	418.83
398.186	415.89
398.565	416.34
398.944	416.8
399.323	402.11
399.701	415.89
400.08	436.46
400.458	431.26
400.837	432.39
401.215	406.4
401.594	440.98
401.972	403.01
402.351	436.68
402.729	420.41
403.107	425.61
403.486	435.33
403.864	438.49
404.242	440.07
404.62	419.73
404.999	433.52
405.377	449.11
405.755	426.06
406.133	445.72
406.511	436.23
406.889	458.83
407.267	461.32
407.645	460.41
408.023	466.97
408.401	463.12
408.779	460.86
409.156	471.71
409.534	493.86
409.912	466.29
410.29	467.42
410.667	485.95
411.045	489.34
411.422	490.47
411.8	486.4
412.178	495.89
412.555	480.07
412.933	501.99
413.31	510.35
413.687	499.96
414.065	530.69
414.442	546.06
414.819	535.44
415.197	512.39
415.574	539.05
415.951	526.4
416.328	515.33
416.705	517.13
417.082	546.96
417.46	536.34
417.837	557.36
418.214	542.44
418.591	560.3
418.967	563.46
419.344	549.22
419.721	546.06
420.098	548.32
420.475	582.89
420.852	573.18
421.228	569.79
421.605	586.28
421.982	566.4
422.358	592.84
422.735	591.71
423.111	587.41
423.488	594.65
423.864	575.66
424.241	588.09
424.617	602.78
424.994	610.01
425.37	600.97
425.746	634.42
426.123	626.96
426.499	640.07
426.875	630.12
427.251	634.87
427.627	670.35
428.003	657.02
428.379	666.96
428.756	665.15
429.132	688.88
429.507	674.19
429.883	674.64
430.259	671.71
430.635	705.6
431.011	650.92
431.387	710.35
431.763	693.85
432.138	713.51
432.514	731.14
432.89	706.05
433.265	732.27
433.641	711.25
434.016	729.56
434.392	727.07
434.767	749.22
435.143	745.6
435.518	736.11
435.894	771.59
436.269	777.24
436.644	782.89
437.02	783.57
437.395	783.57
437.77	780.63
438.145	800.06
438.52	810.91
438.895	812.94
439.271	833.74
439.646	837.8
440.021	815.43
440.395	814.3
440.77	845.71
441.145	851.14
441.52	856.33
441.895	835.77
442.27	839.38
442.645	859.05
443.019	904.02
443.394	861.31
443.769	885.49
444.143	902.89
444.518	901.76
444.892	904.24
445.267	907.41
445.641	923.9
446.016	905.82
446.39	923.22
446.764	953.96
447.139	888.87
447.513	928.2
447.887	938.14
448.262	954.41
448.636	955.09
449.01	962.09
449.384	1006.61
449.758	964.58
450.132	990.79
450.506	984.01
450.88	996.22
451.254	1001.19
451.628	977.46
452.002	1019.49
452.376	1042.54
452.75	1020.85
453.123	1031.7
453.497	1030.11
453.871	1077.12
454.244	1077.34
454.618	1069.89
454.992	1094.52
455.365	1079.15
455.739	1135.87
456.112	1120.06
456.486	1141.3
456.859	1161.86
457.232	1177.45
457.606	1148.76
457.979	1195.99
458.352	1206.15
458.725	1203.22
459.099	1234.85
459.472	1238.47
459.845	1257.23
460.218	1267.62
460.591	1261.75
460.964	1290.45
461.337	1306.27
461.71	1327.28
462.083	1324.57
462.456	1361.4
462.829	1355.08
463.201	1362.08
463.574	1369.54
463.947	1424.68
464.32	1411.35
464.692	1455.64
465.065	1468.29
465.438	1479.37
465.81	1513.04
466.183	1514.4
466.555	1550.55
466.928	1566.37
467.3	1565.24
467.672	1596.2
468.045	1639.14
468.417	1680.72
468.789	1659.02
469.161	1686.59
469.534	1730.43
469.906	1763.2
470.278	1764.78
470.65	1807.95
471.022	1820.83
471.394	1894.72
471.766	1911.9
472.138	1933.59
472.51	1963.87
472.882	2039.13
473.253	2080.26
473.625	2069.86
473.997	2146.92
474.369	2177.65
474.74	2215.39
475.112	2250.42
475.484	2270.53
475.855	2329.52
476.227	2412.68
476.598	2459.46
476.97	2506.69
477.341	2568.6
477.713	2608.83
478.084	2654.7
478.455	2741.26
478.827	2788.49
479.198	2911.87
479.569	2962.94
479.94	3039.55
480.311	3125.2
480.682	3208.14
481.053	3296.95
481.424	3366.55
481.795	3405.42
482.166	3499.43
482.537	3630.05
482.908	3718.86
483.279	3780.78
483.65	3877.72
484.021	4002.47
484.391	4111.16
484.762	4195.23
485.133	4286.53
485.503	4397.71
485.874	4500.53
486.244	4646.06
486.615	4770.13
486.985	4877.47
487.356	4955.43
487.726	5100.29
488.097	5272.94
488.467	5347.29
488.837	5520.17
489.207	5645.81
489.578	5752.7
489.948	5863.21
490.318	6079.02
490.688	6151.34
491.058	6291.67
491.428	6425.9
491.798	6537.77
492.168	6672.23
492.538	6781.83
492.908	6983.63
493.278	7179.78
493.648	7232.44
494.017	7404.41
494.387	7587.91
494.757	7635.14
495.126	7824.51
495.496	7893.89
495.866	8068.35
496.235	8194.67
496.605	8350.6
496.974	8482.12
497.344	8641.21
497.713	8784.03
498.082	8836.91
498.452	8998.49
498.821	9176.34
499.19	9205.27
499.559	9327.07
499.928	9482.32
500.298	9642.32
500.667	9817.45
501.036	9901.07
501.405	10015.64
501.774	10092.47
502.143	10254.73
502.512	10330.66
502.88	10456.31
503.249	10564.55
503.618	10725.23
503.987	10786.02
504.356	10948.95
504.724	11034.14
505.093	11132.22
505.462	11281.14
505.83	11391.88
506.199	11500.35
506.567	11726.56
506.936	11725.88
507.304	11932.43
507.672	12019.66
508.041	12139.43
508.409	12305.3
508.777	12411.96
509.145	12437.5
509.514	12557.49
509.882	12695.12
510.25	12850.14
510.618	12924.94
510.986	13043.36
511.354	13202.68
511.722	13295.55
512.09	13432.27
512.458	13455.32
512.826	13555.21
513.193	13647.64
513.561	13751.59
513.929	13935.76
514.297	14084.01
514.664	14197.9
515.032	14252.37
515.4	14404.68
515.767	14531.45
516.135	14569.19
516.502	14620.27
516.869	14839.92
517.237	14938.22
517.604	14875.63
517.972	15034.49
518.339	15240.36
518.706	15288.72
519.073	15382.96
519.44	15443.29
519.808	15738.88
520.175	15605.78
520.542	15890.29
520.909	16017.52
521.276	16012.55
521.643	16220.45
522.009	16297.51
522.376	16424.74
522.743	16558.97
523.11	16732.07
523.477	16912.86
523.843	17055
524.21	17237.6
524.577	17340.19
524.943	17323.7
525.31	17489.12
525.676	17614.08
526.043	17677.59
526.409	17769.79
526.776	17957.58
527.142	18194.41
527.508	18162.77
527.874	18466.94
528.241	18427.62
528.607	18532.93
528.973	18712.14
529.339	18702.87
529.705	18991.9
530.071	19050.66
530.437	19171.11
530.803	19252.01
531.169	19335.4
531.535	19381.27
531.901	19494.94
532.267	19571.32
532.632	19694.26
532.998	19688.38
533.364	19937.41
533.73	20041.59
534.095	20110.74
534.461	20200.23
534.826	20319.1
535.192	20330.17
535.557	20594.57
535.923	20535.59
536.288	20715.92
536.653	20738.07
537.019	20702.14
537.384	20891.74
537.749	20942.13
538.114	21049.02
538.479	21138.51
538.845	21181.67
539.21	21188.23
539.575	21232.97
539.94	21361.56
540.305	21520.87
540.67	21451.05
541.034	21543.02
541.399	21703.02
541.764	21739.85
542.129	21853.75
542.494	21906.18
542.858	21957.47
543.223	22110.92
543.587	22157.02
543.952	22040.64
544.316	22284.92
544.681	22295.32
545.045	22388.87
545.41	22533.73
545.774	22506.39
546.138	22575.54
546.503	22666.61
546.867	22680.17
547.231	22960.38
547.595	22974.85
547.959	22978.92
548.324	23083.32
548.688	23089.42
549.052	23234.05
549.416	23286.25
549.779	23345.01
550.143	23298.23
550.507	23570.31
550.871	23584.78
551.235	23671.78
551.599	23746.35
551.962	23839.01
552.326	23885.11
552.689	24064.99
553.053	23994.71
553.417	24033.13
553.78	24422.49
554.143	24375.94
554.507	24429.27
554.87	24550.17
555.234	24705.65
555.597	24657.06
555.96	24757.85
556.323	24859.09
556.686	24996.26
557.05	24990.39
557.413	25134.79
557.776	25147.22
558.139	25481
558.502	25422.02
558.865	25463.14
559.228	25627.21
559.59	25684.61
559.953	25732.52
560.316	25994.88
560.679	26074.43
561.041	26231.49
561.404	26283.91
561.767	26457.69
562.129	26443.01
562.492	26620.63
562.854	26677.58
563.217	26706.95
563.579	26827.85
563.941	26983.56
564.304	27139.94
564.666	27222.65
565.028	27365.01
565.39	27353.04
565.753	27539.25
566.115	27595.07
566.477	27788.96
566.839	27844.32
567.201	28066.01
567.563	27951.89
567.925	28254.26
568.287	28176.29
568.648	28262.62
569.01	28491.99
569.372	28600.24
569.734	28567.92
570.095	28762.27
570.457	28744.19
570.819	28910.29
571.18	29129.71
571.542	29137.17
571.903	29158.19
572.265	29366.54
572.626	29489.25
572.987	29420.33
573.349	29603.15
573.71	29708.46
574.071	29773.77
574.432	29926.76
574.794	30239.29
575.155	30166.07
575.516	30077.26
575.877	30328.33
576.238	30477.02
576.599	30644.48
576.96	30629.34
577.32	30702.55
577.681	30895.77
578.042	30940.29
578.403	30947.75
578.763	31078.36
579.124	31232.71
579.485	31345.48
579.845	31477.9
580.206	31601.97
580.566	31609.65
580.927	31720.38
581.287	31990.88
581.648	31972.13
582.008	32156.53
582.368	32023.65
582.728	32379.12
583.089	32236.07
583.449	32371.21
583.809	32540.7
584.169	32697.08
584.529	32550.64
584.889	32935.26
585.249	32940.24
585.609	32831.76
585.969	33218.19
586.329	33184.07
586.688	33378.64
587.048	33318.53
587.408	33410.28
587.768	33694.57
588.127	33682.36
588.487	33649.14
588.846	33932.53
589.206	33878.29
589.565	33914.67
589.925	34223.37
590.284	34282.8
590.643	34436.02
591.003	34522.57
591.362	34734.99
591.721	34679.62
592.08	34721.88
592.44	34962.33
592.799	35045.49
593.158	35039.16
593.517	35234.86
593.876	35397.57
594.235	35322.77
594.593	35437.8
594.952	35565.25
595.311	35555.99
595.67	35711.24
596.029	36099.93
596.387	36059.93
596.746	36172.47
597.104	36002.53
597.463	36076.65
597.822	36355.96
598.18	36267.61
598.538	36423.76
598.897	36611.55
599.255	36318.9
599.613	37017.87
599.972	36721.83
600.33	36888.15
600.688	36884.76
601.046	37110.97
601.404	37215.83
601.762	37207.69
602.12	37439.33
602.478	37539.89
602.836	37658.76
603.194	37536.27
603.552	37701.69
603.91	37531.3
604.268	37851.74
604.625	37868.24
604.983	37986.2
605.341	37788.47
605.698	38059.2
606.056	38300.32
606.413	38225.52
606.771	38267.33
607.128	38419.19
607.485	38405.63
607.843	38503.48
608.2	38696.24
608.557	38666.41
608.914	38736.24
609.272	38910.7
609.629	38961.09
609.986	39257.13
610.343	38959.51
610.7	39279.05
611.057	39212.84
611.414	39350.46
611.771	39590.91
612.127	39644.69
612.484	39654.41
612.841	39834.29
613.198	39667.74
613.554	39820.73
613.911	39986.83
614.267	40042.87
614.624	40011.91
614.98	40140.95
615.337	40054.85
615.693	40076.09
616.05	40286.03
616.406	40438.8
616.762	40380.49
617.118	40476.53
617.475	40476.76
617.831	40627.04
618.187	40784.1
618.543	40759.92
618.899	40938.67
619.255	41005.11
619.611	40923.75
619.967	40950.19
620.323	41157.65
620.678	41130.08
621.034	41002.85
621.39	40999.68
621.746	40942.06
622.101	41431.76
622.457	41165.1
622.812	41183.18
623.168	41384.99
623.523	41311.99
623.879	41515.83
624.234	41250.3
624.589	41532.78
624.945	41414.36
625.3	41615.71
625.655	41547.69
626.01	41613.23
626.365	41545.89
626.72	41529.16
627.075	41527.58
627.43	41736.61
627.785	41538.2
628.14	41574.36
628.495	41669.72
628.85	41506.56
629.205	41558.54
629.559	41895.48
629.914	41603.06
630.269	41660.01
630.623	41629.95
630.978	41572.1
631.332	41654.13
631.687	41799.21
632.041	41521.7
632.396	41751.53
632.75	41530.07
633.104	41593.79
633.459	41495.04
633.813	41502.27
634.167	41576.62
634.521	41401.03
634.875	41469.95
635.229	41421.82
635.583	41424.98
635.937	41320.81
636.291	41295.27
636.645	41332.78
636.999	41242.84
637.352	41331.65
637.706	41116.52
638.06	41372.78
638.413	41313.57
638.767	41106.57
639.121	41229.74
639.474	40838.11
639.828	40934.83
640.181	40937.99
640.534	41099.34
640.888	41027.48
641.241	40879.69
641.594	40915.39
641.947	41029.06
642.301	40916.07
642.654	40814.6
643.007	40964.66
643.36	40797.2
643.713	40879.91
644.066	40968.95
644.419	40688.73
644.771	40495.52
645.124	40148.41
645.477	40164.68
645.83	39905.7
646.182	39769.89
646.535	39694.86
646.888	39720.85
647.24	39408.31
647.593	39726.5
647.945	39603.34
648.298	39533.51
648.65	39317.47
649.002	39225.27
649.355	39477.92
649.707	39245.38
650.059	39488.54
650.411	39848.98
650.763	40138.01
651.115	40338.46
651.467	40227.05
651.819	40088.3
652.171	40110.67
652.523	40011.01
652.875	40123.1
653.227	39820.28
653.578	40216.88
653.93	40188.63
654.282	39836.55
654.633	39837.23
654.985	39869.32
655.337	39957
655.688	39865.25
656.039	39980.5
656.391	39747.74
656.742	39697.8
657.094	39830.45
657.445	40052.59
657.796	39978.47
658.147	39792.48
658.498	39827.29
658.849	39835.2
659.2	39742.99
659.551	39696.22
659.902	39673.17
660.253	39552.94
660.604	39933.05
660.955	39693.28
661.306	39723.11
661.656	39664.13
662.007	39687.63
662.358	39651.47
662.708	39669.78
663.059	39663
663.409	39412.83
663.76	39793.84
664.11	39651.02
664.461	39681.98
664.811	39575.09
665.161	39584.35
665.511	39446.28
665.862	39501.87
666.212	39635.43
666.562	39617.57
666.912	39563.56
667.262	39585.48
667.612	39496.22
667.962	39509.78
668.312	39496
668.662	39499.39
669.011	39490.35
669.361	39581.87
669.711	39533.73
670.06	39433.4
670.41	39331.25
670.76	39359.73
671.109	39466.62
671.459	39324.93
671.808	39253.06
672.157	39300.97
672.507	39081.99
672.856	39245.38
673.205	39260.3
673.554	39255.55
673.904	39105.5
674.253	39351.82
674.602	39162.67
674.951	38665.06
675.3	38328.79
675.649	39082.9
675.998	38978.95
676.346	39036.8
676.695	39052.62
677.044	38795.9
677.393	38945.95
677.741	38969
678.09	38970.59
678.438	38858.27
678.787	38924.03
679.135	39006.97
679.484	38649.01
679.832	38971.49
680.181	38607.66
680.529	38792.29
680.877	38623.7
681.225	38636.36
681.573	38698.05
681.922	38480.65
682.27	38265.07
682.618	38420.09
682.966	38378.96
683.314	38307.55
683.661	38260.1
684.009	38167.89
684.357	38060.1
684.705	38046.54
685.053	38030.72
685.4	37960.22
685.748	37884.96
686.095	37874.8
686.443	37668.47
686.79	37493.11
687.138	37750.05
687.485	37607.23
687.832	37478.2
688.18	37567.01
688.527	37371.53
688.874	37290.18
689.221	37244.98
689.568	37043.86
689.915	37042.95
690.262	37023.29
690.609	36871.43
690.956	36880.02
691.303	36851.09
691.65	36541.5
691.997	36647.48
692.344	36462.18
692.69	36341.05
693.037	36414.95
693.383	36212.24
693.73	36297.89
694.077	36146.25
694.423	36144.22
694.769	36013.6
695.116	35879.14
695.462	35941.29
695.808	35636.21
696.155	35691.12
696.501	35537.23
696.847	35553.27
697.193	35234.41
697.539	35417.01
697.885	35166.84
698.231	35080.97
698.577	35065.15
698.923	34959.17
699.269	34849.79
699.614	34755.56
699.96	34666.07
700.306	34667.87
700.651	34461.78
700.997	34460.2
701.342	34271.05
701.688	34266.53
702.033	34147.66
702.379	34164.16
702.724	34019.98
703.069	34142.92
703.415	33632.19
703.76	33806.2
704.105	33744.73
704.45	33781.57
704.795	33448.47
705.14	33393.56
705.485	33353.33
705.83	33208.48
706.175	33273.56
706.52	33094.13
706.865	33103.62
707.209	33026.11
707.554	32921.03
707.899	32871.76
708.243	32714.7
708.588	32804.87
708.932	32605.33
709.277	32541.15
709.621	32608.27
709.966	32226.81
710.31	32256.19
710.654	32189.75
710.998	32172.35
711.342	32094.61
711.687	32089.18
712.031	31889.19
712.375	31837.67
712.719	31912.01
713.063	31887.38
713.407	31964.89
713.75	31657.78
714.094	31534.4
714.438	31534.62
714.782	31547.5
715.125	31432.03
715.469	31448.3
715.812	31303.67
716.156	31145.03
716.499	31218.92
716.843	31234.07
717.186	30897.8
717.53	31160.17
717.873	31052.6
718.216	31037.91
718.559	30865.04
718.902	30637.25
719.246	30694.64
719.589	30715.44
719.932	30599.73
720.275	30600.86
720.617	30588.21
720.96	30578.94
721.303	30353.41
721.646	30318.38
721.989	30136.24
722.331	30234.77
722.674	30185.73
723.016	30193.64
723.359	30151.83
723.701	30180.08
724.044	29890.15
724.386	29799.53
724.729	30016.92
725.071	29858.28
725.413	29885.17
725.755	29785.97
726.097	29674.33
726.439	29544.17
726.782	29534
727.124	29679.3
727.465	29470.04
727.807	29430.05
728.149	29341.01
728.491	29322.25
728.833	29332.42
729.175	29267.56
729.516	29164.29
729.858	29148.02
730.199	29208.13
730.541	29057.85
730.882	29032.77
731.224	29073.44
731.565	28936.5
731.906	29020.56
732.248	29059.21
732.589	28754.81
732.93	28878.2
733.271	28786.67
733.612	28756.84
733.953	28821.7
734.294	28653.12
734.635	28681.36
734.976	28579.22
735.317	28508.26
735.658	28359.79
735.999	28395.72
736.339	28436.4
736.68	28474.14
737.021	28270.3
737.361	28182.39
737.702	28415.83
738.042	28296.52
738.383	28219
738.723	28134.03
739.063	28183.52
739.404	28049.06
739.744	28045.22
740.084	27985.79
740.424	28000.7
740.764	27822.18
741.104	27924.55
741.444	27794.16
741.784	27790.77
742.124	27800.03
742.464	27725.23
742.804	27671.9
743.143	27600.49
743.483	27605.69
743.823	27482.3
744.162	27417.22
744.502	27513.71
744.841	27342.19
745.181	27442.08
745.52	27386.48
745.86	27299.71
746.199	27346.03
746.538	27264
746.877	27291.12
747.216	27215.87
747.556	27098.81
747.895	27148.75
748.234	27021.07
748.573	27027.4
748.911	26884.35
749.25	26866.05
749.589	26865.14
749.928	26800.96
750.267	26924.12
750.605	26802.77
750.944	26645.03
751.283	26637.35
751.621	26612.49
751.96	26496.79
752.298	26435.55
752.636	26434.19
752.975	26277.59
753.313	26232.16
753.651	26288.89
753.989	26265.16
754.327	26238.94
754.666	26036.46
755.004	26074.2
755.342	26169.79
755.679	26042.34
756.017	25921.21
756.355	25990.81
756.693	25748.56
757.031	25821.33
757.368	25649.81
757.706	25548.57
758.044	25539.75
758.381	25716.47
758.719	25445.52
759.056	25533.42
759.394	25313.77
759.731	25273.77
760.068	25219.53
760.405	25064.28
760.743	25052.08
761.08	25056.83
761.417	24858.87
761.754	24927.79
762.091	24930.73
762.428	24758.08
762.765	24518.76
763.102	24662.94
763.438	24490.51
763.775	24348.37
764.112	24388.14
764.449	24330.74
764.785	24160.13
765.122	24034.93
765.458	24015.27
765.795	24003.3
766.131	23973.24
766.467	23787.48
766.804	23638.33
767.14	23680.82
767.476	23629.07
767.812	23446.7
768.148	23614.61
768.485	23333.26
768.821	23295.97
769.157	23244.67
769.492	23194.5
769.828	23144.79
770.164	22971.68
770.5	22926.71
770.836	22942.76
771.171	22673.84
771.507	22761.52
771.842	22504.58
772.178	22515.88
772.513	22540.74
772.849	22423.45
773.184	22323.57
773.519	22246.96
773.855	22164.02
774.19	22096.9
774.525	22027.98
774.86	22002.9
775.195	21957.93
775.53	21853.3
775.865	21724.03
776.2	21561.33
776.535	21472.74
776.87	21500.54
777.205	21353.42
777.539	21284.04
777.874	21371.05
778.209	21083.37
778.543	21062.58
778.878	21004.96
779.212	21071.4
779.547	20832.31
779.881	20943.94
780.215	20759.54
780.55	20745.53
780.884	20645.87
781.218	20561.8
781.552	20579.66
781.886	20426.89
782.22	20256.95
782.554	20223.51
782.888	20004.3
783.222	19989.16
783.556	19925.21
783.889	19875.27
784.223	19701.49
784.557	19773.12
784.89	19762.95
785.224	19604.77
785.557	19432.12
785.891	19465.34
786.224	19303.98
786.558	19425.79
786.891	19211.56
787.224	19119.13
787.557	19056.76
787.891	19097.89
788.224	19110.77
788.557	18939.47
788.89	18997.55
789.223	18964.78
789.556	18746.03
789.888	18677.11
790.221	18605.25
790.554	18481.63
790.887	18470.11
791.219	18394.4
791.552	18322.54
791.884	18291.36
792.217	18338.81
792.549	18194.86
792.882	17943.79
793.214	18073.51
793.546	18023.79
793.879	17840.97
794.211	17806.4
794.543	17784.93
794.875	17807.75
795.207	17777.92
795.539	17777.47
795.871	17645.04
796.203	17480.76
796.535	17342.91
796.867	17418.38
797.198	17417.03
797.53	17353.07
797.862	17182.01
798.193	17233.98
798.525	17058.85
798.856	17123.25
799.188	16909.24
799.519	16924.39
799.85	16824.28
800.182	16784.73
800.513	16787.44
800.844	16639.87
801.175	16758.29
801.506	16702.92
801.837	16630.83
802.168	16533.21
802.499	16434.45
802.83	16277.85
803.161	16311.97
803.491	16333.44
803.822	16327.11
804.153	16183.84
804.483	16134.35
804.814	16067.68
805.145	16090.06
805.475	16057.52
805.805	15994.24
806.136	15921.47
806.466	15949.72
806.796	15863.4
807.126	15785.21
807.457	15714.25
807.787	15755.15
808.117	15537.76
808.447	15606.23
808.777	15640.35
809.107	15548.6
809.436	15514.25
809.766	15587.47
810.096	15430.19
810.426	15349.96
810.755	15377.99
811.085	15381.38
811.414	15334.6
811.744	15104.09
812.073	15209.63
812.403	14992.01
812.732	15113.81
813.061	15041.27
813.39	14913.59
813.719	14935.51
814.049	14871.33
814.378	14978.45
814.707	14848.96
815.036	14861.39
815.365	14695.97
815.693	14620.72
816.022	14694.84
816.351	14574.16
816.68	14508.4
817.008	14575.97
817.337	14439.03
817.665	14408.07
817.994	14451.46
818.322	14390.21
818.651	14343.21
818.979	14285.36
819.307	14371.68
819.636	14364
819.964	14218.69
820.292	14305.47
820.62	14235.87
820.948	14126.94
821.276	14230.22
821.604	14174.4
821.932	14228.64
822.259	14265.92
822.587	14203.1
822.915	14131.69
823.243	14201.52
823.57	14102.54
823.898	14159.94
824.225	14079.26
824.553	14034.07
824.88	14112.26
825.207	14195.64
825.535	14099.15
825.862	14119.71
826.189	14107.06
826.516	14116.78
826.843	14152.48
827.17	14130.56
827.497	14092.14
827.824	14074.97
828.151	14237
828.478	14130.56
828.805	14187.28
829.131	14050.34
829.458	14047.62
829.785	13999.94
830.111	14073.16
830.438	14164.01
830.764	14038.36
831.09	13999.49
831.417	13973.28
831.743	13990
832.069	14028.87
832.395	13951.58
832.722	14004.24
833.048	13917.23
833.374	13921.53
833.7	13854.18
834.026	13961.07
834.351	13976.21
834.677	13938.48
835.003	13939.38
835.329	13851.25
835.654	13849.21
835.98	13873.84
836.306	13813.05
836.631	13783.45
836.956	13860.29
837.282	13780.29
837.607	13735.09
837.932	13756.11
838.258	13680.18
838.583	13625.94
838.908	13611.03
839.233	13604.25
839.558	13639.05
839.883	13577.81
840.208	13484.48
840.533	13513.18
840.858	13450.58
841.182	13446.51
841.507	13534.64
841.832	13435.89
842.156	13397.25
842.481	13406.96
842.805	13278.15
843.13	13315.44
843.454	13188.21
843.778	13209.91
844.103	13176.24
844.427	13148.89
844.751	13170.81
845.075	13173.75
845.399	13020.99
845.723	12964.49
846.047	13051.49
846.371	12960.65
846.695	12951.61
847.019	12773.76
847.343	12754.1
847.666	12623.26
847.99	12681.56
848.313	12652.86
848.637	12589.81
848.96	12627.78
849.284	12541.22
849.607	12399.53
849.931	12343.26
850.254	12312.98
850.577	12261.91
850.9	12166.09
851.223	12204.96
851.546	12131.74
851.869	12068.69
852.192	12090.39
852.515	11966.78
852.838	11864.86
853.161	11856.27
853.483	11808.81
853.806	11819.21
854.129	11775.82
854.451	11710.06
854.774	11633
855.096	11682.94
855.419	11641.81
855.741	11568.14
856.063	11488.14
856.385	11409.05
856.708	11404.98
857.03	11375.38
857.352	11486.34
857.674	11331.99
857.996	11297.87
858.318	11218.77
858.64	11274.82
858.961	11232.11
859.283	11216.74
859.605	11124.31
859.926	11162.28
860.248	11112.56
860.57	11048.16
860.891	11060.13
861.212	10966.12
861.534	10994.82
861.855	10998.21
862.176	11014.26
862.498	10963.86
862.819	10953.7
863.14	10843.64
863.461	10821.5
863.782	10813.81
864.103	10879.12
864.424	10750.99
864.745	10910.31
865.065	10783.76
865.386	10725.23
865.707	10772.91
866.027	10692.01
866.348	10676.19
866.668	10687.26
866.989	10687.49
867.309	10573.14
867.63	10585.34
867.95	10516.87
868.27	10549.41
868.59	10610.88
868.91	10524.55
869.23	10443.88
869.55	10358.46
869.87	10520.26
870.19	10413.14
870.51	10426.03
870.83	10414.5
871.15	10432.58
871.469	10361.39
871.789	10456.53
872.109	10340.15
872.428	10309.87
872.748	10315.75
873.067	10298.12
873.386	10327.27
873.706	10309.64
874.025	10213.15
874.344	10200.95
874.663	10184
874.982	10241.4
875.301	10162.3
875.62	10196.2
875.939	10169.76
876.258	10140.61
876.577	10024
876.896	10057
877.214	10045.02
877.533	10057.45
877.852	10050.44
878.17	10026.94
878.489	9985.36
878.807	10025.13
879.125	9979.71
879.444	9964.12
879.762	9979.71
880.08	9908.98
880.398	9897
880.716	9908.75
881.034	9897.68
881.352	9948.52
881.67	9859.26
881.988	9922.76
882.306	9803.89
882.624	9762.09
882.941	9679.15
883.259	9697.91
883.577	9678.47
883.894	9668.76
884.212	9658.36
884.529	9617.91
884.846	9588.76
885.164	9538.82
885.481	9519.61
885.798	9635.54
886.115	9534.07
886.432	9514.41
886.75	9490.68
887.067	9458.14
887.383	9385.83
887.7	9355.32
888.017	9361.65
888.334	9330.91
888.651	9325.26
888.967	9281.87
889.284	9237.81
889.6	9251.82
889.917	9170.47
890.233	9214.08
890.55	9203.01
890.866	9190.8
891.182	9209.11
891.498	9112.61
891.815	9122.56
892.131	9045.5
892.447	9019.73
892.763	8995.33
893.079	8990.81
893.395	8942.45
893.71	8957.82
894.026	8922.79
894.342	8886.4
894.657	8829.46
894.973	8849.8
895.289	8790.59
895.604	8777.93
895.92	8715.11
896.235	8710.82
896.55	8723.25
896.865	8668.11
897.181	8664.04
897.496	8621.33
897.811	8589.24
898.126	8487.55
898.441	8523.7
898.756	8474.44
899.071	8477.6
899.386	8447.09
899.7	8345.85
900.015	8381.33
900.33	8291.84
900.644	8285.52
900.959	8272.64
901.273	8222.69
901.588	8203.71
901.902	8183.15
902.216	8193.32
902.531	8092.08
902.845	8063.15
903.159	8063.83
903.473	8000.33
903.787	7935.7
904.101	7968.01
904.415	7935.47
904.729	7950.38
905.042	7869.03
905.356	7881.46
905.67	7826.32
905.984	7816.83
906.297	7791.29
906.611	7722.59
906.924	7707.45
907.237	7662.03
907.551	7624.07
907.864	7672.43
908.177	7622.03
908.491	7570.06
908.804	7527.12
909.117	7512.2
909.43	7434.92
909.743	7372.32
910.056	7392.21
910.368	7408.25
910.681	7273.57
910.994	7323.28
911.307	7267.46
911.619	7240.35
911.932	7192.21
912.244	7163.06
912.557	7187.01
912.869	7135.94
913.181	7121.03
913.494	7050.07
913.806	6971.65
914.118	7022.72
914.43	6943.63
914.742	6874.25
915.054	6961.48
915.366	6927.13
915.678	6890.98
915.99	6883.07
916.302	6822.96
916.613	6795.16
916.925	6776.63
917.236	6759.68
917.548	6728.72
917.859	6749.96
918.171	6648.72
918.482	6653.24
918.794	6616.41
919.105	6556.3
919.416	6551.32
919.727	6577.31
920.038	6495.73
920.349	6488.05
920.66	6424.55
920.971	6398.33
921.282	6394.27
921.593	6342.74
921.903	6335.51
922.214	6320.14
922.525	6286.02
922.835	6223.88
923.146	6250.09
923.456	6258.45
923.767	6184.1
924.077	6213.25
924.387	6138.68
924.697	6050.55
925.008	6113.6
925.318	6082.64
925.628	6032.69
925.938	6037.21
926.248	5973.94
926.558	5968.97
926.867	5947.05
927.177	5880.16
927.487	5844
927.796	5855.07
928.106	5796.32
928.416	5787.05
928.725	5811.01
929.034	5718.8
929.344	5757
929.653	5751.8
929.962	5646.04
930.271	5604.46
930.581	5617.56
930.89	5597
931.199	5511.8
931.508	5499.38
931.817	5577.57
932.125	5499.6
932.434	5512.48
932.743	5439.94
933.051	5413.95
933.36	5407.85
933.669	5388.19
933.977	5325.82
934.286	5384.12
934.594	5319.49
934.902	5281.53
935.21	5251.47
935.519	5254.41
935.827	5247.63
936.135	5172.15
936.443	5238.37
936.751	5143
937.059	5135.99
937.367	5087.86
937.674	5106.62
937.982	5102.32
938.29	5052.83
938.597	5066.62
938.905	4963.12
939.213	4999.73
939.52	4956.56
939.827	4979.16
940.135	4933.51
940.442	4922.22
940.749	4921.99
941.056	4893.74
941.363	4816.23
941.67	4821.65
941.977	4796.12
942.284	4792.28
942.591	4743.46
942.898	4712.96
943.205	4730.58
943.511	4713.41
943.818	4715.89
944.125	4663.01
944.431	4644.26
944.738	4590.47
945.044	4625.73
945.35	4599.06
945.657	4568.55
945.963	4566.07
946.269	4529.01
946.575	4538.95
946.881	4449.91
947.187	4427.09
947.493	4483.36
947.799	4456.46
948.105	4403.36
948.41	4362.91
948.716	4393.19
949.022	4345.73
949.327	4370.59
949.633	4287.43
949.938	4322.01
950.244	4291.72
950.549	4262.8
950.854	4242.01
951.16	4204.72
951.465	4194.55
951.77	4219.86
952.075	4157.26
952.38	4128.11
952.685	4120.2
952.99	4141.44
953.294	4123.59
953.599	4075.01
953.904	4062.12
954.209	4010.83
954.513	4040.43
954.818	3973.09
955.122	3983.03
955.426	3955.69
955.731	3962.69
956.035	3918.17
956.339	3944.84
956.643	3929.7
956.948	3891.28
957.252	3870.04
957.556	3827.33
957.86	3813.54
958.163	3816.48
958.467	3768.57
958.771	3813.32
959.075	3757.73
959.378	3760.21
959.682	3779.87
959.985	3738.29
960.289	3722.92
960.592	3697.84
960.896	3718.63
961.199	3696.94
961.502	3670.5
961.805	3648.12
962.108	3627.33
962.411	3649.25
962.714	3573.1
963.017	3590.5
963.32	3545.75
963.623	3534.68
963.926	3545.08
964.228	3532.42
964.531	3501.91
964.833	3478.19
965.136	3440.45
965.438	3427.57
965.741	3433.67
966.043	3425.76
966.345	3416.04
966.648	3360.45
966.95	3409.49
967.252	3337.17
967.554	3348.02
967.856	3319.09
968.158	3335.36
968.46	3296.72
968.761	3312.54
969.063	3297.17
969.365	3272.32
969.666	3293.78
969.968	3201.36
970.269	3213.56
970.571	3219.21
970.872	3193.45
971.174	3121.58
971.475	3159.32
971.776	3135.14
972.077	3104.41
972.378	3142.38
972.679	3122.49
972.98	3101.7
973.281	3091.08
973.582	3071.19
973.883	3053.34
974.183	3033.45
974.484	3034.13
974.785	3032.77
975.085	3043.85
975.386	2995.94
975.686	2998.2
975.986	2991.64
976.287	3004.53
976.587	2934.24
976.887	2923.4
977.187	2910.74
977.487	2928.6
977.787	2894.7
978.087	2877.98
978.387	2874.59
978.687	2865.09
978.987	2826
979.286	2833.46
979.586	2798.66
979.885	2784.42
980.185	2810.18
980.484	2784.64
980.784	2781.71
981.083	2748.04
981.382	2733.8
981.682	2726.79
981.981	2727.02
982.28	2725.66
982.579	2699
982.878	2669.85
983.177	2639.34
983.475	2678.43
983.774	2605.44
984.073	2631.2
984.372	2586.46
984.67	2598.21
984.969	2606.8
985.267	2576.06
985.566	2559.57
985.864	2576.74
986.162	2573.58
986.461	2571.77
986.759	2541.71
987.057	2511.21
987.355	2509.4
987.653	2502.84
987.951	2471.66
988.249	2493.8
988.547	2499.68
988.844	2473.24
989.142	2459
989.44	2443.64
989.737	2405.9
990.035	2435.05
990.332	2400.7
990.63	2388.72
990.927	2380.36
991.224	2370.19
991.521	2340.81
991.819	2325
992.116	2336.07
992.413	2349.63
992.71	2347.82
993.006	2288.39
993.303	2304.43
993.6	2272.12
993.897	2251.32
994.193	2291.1
994.49	2255.17
994.787	2260.59
995.083	2190.31
995.379	2227.6
995.676	2217.43
995.972	2219.24
996.268	2182.63
996.565	2182.63
996.861	2149.18
997.157	2141.05
997.453	2150.08
997.749	2143.08
998.044	2117.54
998.34	2126.36
998.636	2112.8
998.932	2068.5
999.227	2051.33
999.523	2111.89
999.818	2073.7
1000.114	2057.66
1000.409	2046.58
1000.704	2031.44
1001	2012.91
1001.295	2004.33
1001.59	1974.72
1001.885	1958.9
1002.18	1982.63
1002.475	1977.89
1002.77	1957.77
1003.065	1939.02
1003.359	1932.24
1003.654	1908.74
1003.949	1956.19
1004.243	1906.25
1004.538	1889.3
1004.832	1874.16
1005.127	1855.4
1005.421	1868.74
1005.715	1845.01
1006.009	1835.06
1006.304	1824.9
1006.598	1814.73
1006.892	1796.42
1007.186	1815.4
1007.48	1818.34
1007.773	1789.64
1008.067	1768.4
1008.361	1753.94
1008.655	1731.11
1008.948	1737.89
1009.242	1715.07
1009.535	1725.01
1009.829	1709.42
1010.122	1719.14
1010.415	1703.99
1010.708	1677.1
1011.001	1693.6
1011.295	1682.53
1011.588	1626.03
1011.881	1681.62
1012.173	1635.97
1012.466	1619.93
1012.759	1636.65
1013.052	1622.64
1013.344	1601.62
1013.637	1614.05
1013.93	1580.61
1014.222	1566.6
1014.514	1562.53
1014.807	1563.66
1015.099	1522.53
1015.391	1515.75
1015.683	1528.63
1015.976	1525.24
1016.268	1500.16
1016.56	1516.43
1016.851	1497.22
1017.143	1495.41
1017.435	1459.26
1017.727	1494.51
1018.018	1453.15
1018.31	1449.76
1018.602	1426.94
1018.893	1425.36
1019.185	1403.66
1019.476	1414.51
1019.767	1414.51
1020.058	1393.95
1020.35	1395.3
1020.641	1349.88
1020.932	1373.16
1021.223	1366.15
1021.514	1351.69
1021.804	1321.86
1022.095	1345.81
1022.386	1333.83
1022.677	1302.88
1022.967	1314.4
1023.258	1296.32
1023.548	1298.81
1023.839	1286.15
1024.129	1293.61
1024.419	1282.54
1024.709	1248.87
1025	1254.06
1025.29	1283.44
1025.58	1242.09
1025.87	1228.3
1026.16	1239.83
1026.449	1207.51
1026.739	1212.48
1027.029	1214.52
1027.319	1198.7
1027.608	1197.57
1027.898	1160.28
1028.187	1156.44
1028.477	1156.21
1028.766	1173.61
1029.055	1139.94
1029.344	1143.33
1029.634	1118.25
1029.923	1126.38
1030.212	1110.79
1030.501	1143.56
1030.79	1114.63
1031.078	1114.41
1031.367	1112.6
1031.656	1060.85
1031.945	1103.78
1032.233	1090.68
1032.522	1071.02
1032.81	1054.75
1033.099	1049.55
1033.387	1059.94
1033.675	1057.01
1033.963	1012.04
1034.251	1041.41
1034.54	1030.34
1034.828	1011.36
1035.116	1004.58
1035.403	1002.32
1035.691	975.2
1035.979	1011.81
1036.267	999.38
1036.554	979.49
1036.842	973.17
1037.129	963.68
1037.417	953.73
1037.704	942.21
1037.992	946.05
1038.279	955.31
1038.566	908.76
1038.853	908.76
1039.14	908.76
