Data from hue_200_FLMS001491_00055.txt Node
Date: Tue Feb 07 16:43:38 GMT 2017
User: dcchb
Spectrometer: FLMS00149
Trigger mode: 0
Integration Time (sec): 2.000000E-2
Scans to average: 10
Electric dark correction enabled: true
Nonlinearity correction enabled: false
Boxcar width: 0
XAxis mode: Wavelengths
Number of Pixels in Spectrum: 2048
>>>>>Begin Spectral Data<<<<<
341.393	-8.98
341.776	-8.98
342.16	-8.98
342.543	-67.29
342.927	-73.39
343.31	-63.22
343.693	-63.22
344.077	-67.96
344.46	-64.8
344.843	-51.02
345.226	-22.32
345.61	-30.45
345.993	-10.79
346.376	-10.79
346.759	3.67
347.142	13.39
347.525	25.14
347.908	61.3
348.291	73.95
348.674	102.88
349.057	104.23
349.44	114.18
349.823	145.82
350.206	163.22
350.588	203.89
350.971	200.73
351.354	210.67
351.737	221.97
352.119	240.05
352.502	248.64
352.884	264.68
353.267	277.11
353.65	280.73
354.032	306.04
354.414	306.94
354.797	323.89
355.179	324.34
355.562	314.85
355.944	318.92
356.326	329.77
356.709	346.26
357.091	333.61
357.473	313.72
357.855	344
358.238	340.39
358.62	313.04
359.002	339.26
359.384	332.93
359.766	339.48
360.148	332.7
360.53	331.35
360.912	347.62
361.294	336.54
361.676	310.56
362.057	337.22
362.439	328.41
362.821	332.7
363.203	322.99
363.584	318.01
363.966	322.53
364.348	330.9
364.729	311.01
365.111	308.07
365.493	332.03
365.874	315.75
366.256	289.77
366.637	313.72
367.019	302.65
367.4	332.48
367.781	299.48
368.163	301.29
368.544	311.69
368.925	308.52
369.306	309.2
369.688	315.3
370.069	320.05
370.45	301.52
370.831	316.43
371.212	314.62
371.593	322.99
371.974	296.09
372.355	301.74
372.736	322.53
373.117	312.14
373.498	307.85
373.879	328.41
374.26	301.74
374.641	308.52
375.021	318.92
375.402	319.14
375.783	319.82
376.163	315.75
376.544	339.03
376.925	322.31
377.305	319.14
377.686	321.63
378.066	325.47
378.447	313.49
378.827	334.96
379.208	332.93
379.588	294.74
379.968	328.86
380.349	315.08
380.729	325.25
381.109	317.34
381.489	295.42
381.87	348.75
382.25	320.05
382.63	319.14
383.01	333.38
383.39	337.22
383.77	334.74
384.15	351.23
384.53	352.59
384.91	356.21
385.29	352.82
385.67	337.45
386.049	347.84
386.429	338.58
386.809	327.96
387.189	365.02
387.568	360.5
387.948	328.41
388.328	351.46
388.707	357.34
389.087	339.26
389.466	352.82
389.846	371.35
390.225	363.89
390.605	362.98
390.984	385.81
391.363	375.19
391.743	363.44
392.122	383.55
392.501	370.89
392.881	362.08
393.26	381.29
393.639	382.65
394.018	374.96
394.397	396.2
394.776	384
395.155	377.9
395.534	372.02
395.913	393.94
396.292	377.9
396.671	401.4
397.05	381.52
397.429	376.09
397.808	392.81
398.186	386.94
398.565	401.63
398.944	384.91
399.323	410.89
399.701	428.97
400.08	409.09
400.458	411.35
400.837	394.4
401.215	416.77
401.594	399.59
401.972	422.64
402.351	429.65
402.729	422.64
403.107	432.14
403.486	421.51
403.864	432.36
404.242	431.68
404.62	469.2
404.999	442.08
405.377	444.56
405.755	456.09
406.133	472.81
406.511	472.36
406.889	463.55
407.267	491.57
407.645	500.38
408.023	485.69
408.401	496.99
408.779	513.94
409.156	496.09
409.534	525.69
409.912	527.95
410.29	544.45
410.667	503.77
411.045	546.03
411.422	518.91
411.8	560.04
412.178	572.92
412.555	577.67
412.933	567.95
413.31	579.7
413.687	615.86
414.065	614.28
414.442	593.04
414.819	642.53
415.197	619.02
415.574	642.07
415.951	648.18
416.328	695.18
416.705	672.58
417.082	679.81
417.46	701.51
417.837	700.38
418.214	703.31
418.591	710.55
418.967	732.01
419.344	742.18
419.721	765.46
420.098	752.35
420.475	750.55
420.852	785.57
421.228	797.55
421.605	803.2
421.982	817.89
422.358	837.77
422.735	866.25
423.111	852.92
423.488	872.12
423.864	891.56
424.241	895.17
424.617	927.72
424.994	948.96
425.37	953.25
425.746	956.42
426.123	962.97
426.499	980.37
426.875	1000.26
427.251	1017.88
427.627	1027.37
428.003	1043.87
428.379	1058.11
428.756	1063.76
429.132	1089.97
429.507	1098.33
429.883	1096.75
430.259	1139.24
430.635	1120.03
431.011	1148.27
431.387	1166.35
431.763	1168.84
432.138	1197.31
432.514	1243.19
432.89	1239.35
433.265	1294.94
433.641	1297.88
434.016	1313.24
434.392	1313.92
434.767	1369.51
435.143	1377.65
435.518	1402.28
435.894	1430.98
436.269	1436.18
436.644	1484.76
437.02	1515.27
437.395	1528.6
437.77	1551.2
438.145	1560.69
438.52	1604.08
438.895	1628.04
439.271	1632.1
439.646	1706.68
440.021	1699.9
440.395	1722.27
440.77	1724.76
441.145	1790.29
441.52	1803.4
441.895	1822.83
442.27	1813.57
442.645	1867.58
443.019	1890.85
443.394	1874.58
443.769	1941.47
444.143	1936.73
444.518	1975.37
444.892	1950.97
445.267	1969.04
445.641	2013.79
446.016	2022.6
446.39	2026.44
446.764	2061.47
447.139	2031.19
447.513	2098.53
447.887	2121.58
448.262	2104.86
448.636	2096.95
449.01	2139.21
449.384	2214.69
449.758	2191.86
450.132	2221.92
450.506	2242.03
450.88	2287.91
451.254	2263.73
451.628	2293.78
452.002	2335.59
452.376	2362.71
452.75	2400.9
453.123	2380.56
453.497	2444.96
453.871	2461.91
454.244	2494.23
454.618	2523.38
454.992	2535.81
455.365	2510.27
455.739	2594.56
456.112	2643.15
456.486	2659.42
456.859	2683.6
457.232	2686.54
457.606	2745.3
457.979	2767.44
458.352	2820.77
458.725	2834.11
459.099	2866.2
459.472	2883.37
459.845	2939.41
460.218	2943.48
460.591	2966.76
460.964	2986.64
461.337	3063.7
461.71	3138.51
462.083	3189.58
462.456	3173.08
462.829	3171.72
463.201	3250.37
463.574	3246.3
463.947	3310.03
464.32	3386.86
464.692	3405.62
465.065	3436.35
465.438	3446.29
465.81	3502.34
466.183	3556.35
466.555	3614.42
466.928	3639.51
467.3	3646.74
467.672	3658.49
468.045	3766.74
468.417	3771.26
468.789	3826.17
469.161	3897.58
469.534	3932.61
469.906	4050.12
470.278	4037.92
470.65	4093.51
471.022	4119.5
471.394	4192.71
471.766	4219.15
472.138	4309.55
472.51	4389.55
472.882	4430.45
473.253	4509.99
473.625	4526.72
473.997	4656.66
474.369	4667.73
474.74	4707.28
475.112	4827.27
475.484	4834.28
475.855	4891
476.227	4942.07
476.598	5107.04
476.97	5087.83
477.341	5263.42
477.713	5310.65
478.084	5333.02
478.455	5445.56
478.827	5526.69
479.198	5683.75
479.569	5633.13
479.94	5824.08
480.311	5842.39
480.682	5963.06
481.053	6070.18
481.424	6198.09
481.795	6195.37
482.166	6281.25
482.537	6380
482.908	6448.47
483.279	6544.29
483.65	6638.3
484.021	6747.68
484.391	6789.48
484.762	6885.53
485.133	6921.68
485.503	7051.17
485.874	7117.84
486.244	7182.47
486.615	7283.48
486.985	7345.4
487.356	7526.64
487.726	7596.24
488.097	7720.53
488.467	7734.09
488.837	7910.81
489.207	7982.45
489.578	8043.23
489.948	8113.74
490.318	8205.94
490.688	8247.75
491.058	8299.95
491.428	8461.3
491.798	8487.74
492.168	8613.62
492.538	8634.63
492.908	8739.26
493.278	8798.02
493.648	8849.54
494.017	8958.01
494.387	9034.4
494.757	8985.58
495.126	9153.04
495.496	9130.44
495.866	9167.27
496.235	9276.2
496.605	9375.63
496.974	9406.81
497.344	9406.59
497.713	9462.86
498.082	9499.92
498.452	9587.38
498.821	9607.26
499.19	9574.04
499.559	9696.07
499.928	9741.72
500.298	9749.86
500.667	9791.66
501.036	9799.8
501.405	9923.41
501.774	9763.64
502.143	9915.73
502.512	9910.76
502.88	10002.51
503.249	9998.66
503.618	10048.38
503.987	10080.24
504.356	10118.89
504.724	10103.07
505.093	10102.39
505.462	10149.17
505.83	10176.06
506.199	10214.48
506.567	10342.38
506.936	10370.63
507.304	10372.67
507.672	10385.09
508.041	10412.66
508.409	10524.98
508.777	10482.27
509.145	10550.97
509.514	10521.36
509.882	10562.94
510.25	10571.3
510.618	10585.54
510.986	10565.43
511.354	10691.53
511.722	10703.28
512.09	10716.61
512.458	10714.8
512.826	10698.08
513.193	10704.41
513.561	10785.31
513.929	10825.31
514.297	10846.78
514.664	10899.43
515.032	10871.41
515.4	10887
515.767	10964.06
516.135	10910.96
516.502	10811.52
516.869	10939.43
517.237	10977.85
517.604	10944.4
517.972	10941.92
518.339	11057.84
518.706	10952.99
519.073	10923.84
519.44	11047.9
519.808	11106.88
520.175	11037.28
520.542	11049.48
520.909	11046.32
521.276	11054.23
521.643	11125.64
522.009	11106.88
522.376	11088.58
522.743	11113.21
523.11	11126.09
523.477	11201.12
523.843	11260.78
524.21	11286.31
524.577	11280.21
524.943	11286.31
525.31	11293.32
525.676	11301.91
526.043	11316.14
526.409	11302.81
526.776	11345.29
527.142	11314.11
527.508	11264.85
527.874	11275.92
528.241	11272.08
528.607	11260.1
528.973	11285.18
529.339	11212.19
529.705	11362.7
530.071	11270.72
530.437	11314.56
530.803	11343.26
531.169	11240.21
531.535	11234.11
531.901	11214.45
532.267	11143.94
532.632	11135.13
532.998	11174.68
533.364	11204.96
533.73	11079.99
534.095	11108.46
534.461	11115.24
534.826	11145.98
535.192	11109.59
535.557	11112.53
535.923	10945.08
536.288	11019.88
536.653	10950.95
537.019	10927.9
537.384	10899.43
537.749	10868.47
538.114	10797.06
538.479	10847.91
538.845	10709.83
539.21	10722.71
539.575	10654.69
539.94	10614.01
540.305	10601.81
540.67	10575.15
541.034	10552.55
541.399	10547.58
541.764	10459.44
542.129	10463.74
542.494	10362.95
542.858	10404.3
543.223	10249.05
543.587	10374.02
543.952	10193.91
544.316	10173.12
544.681	10152.33
545.045	10046.8
545.41	10148.72
545.774	10088.15
546.138	10068.27
546.503	10021.94
546.867	9917.08
547.231	9916.41
547.595	9888.84
547.959	9808.61
548.324	9871.21
548.688	9749.4
549.052	9737.65
549.416	9695.62
549.779	9625.57
550.143	9572.91
550.507	9639.35
550.871	9616.53
551.235	9511.67
551.599	9568.84
551.962	9459.47
552.326	9440.71
552.689	9404.78
553.053	9353.71
553.417	9337.66
553.78	9447.49
554.143	9301.28
554.507	9263.32
554.87	9269.19
555.234	9344.44
555.597	9231.68
555.96	9207.95
556.323	9183.09
556.686	9127.73
557.05	9111.23
557.413	9073.04
557.776	9015.41
558.139	9021.97
558.502	9067.16
558.865	8978.8
559.228	9010.22
559.59	9003.21
559.953	8964.11
560.316	9067.84
560.679	9022.19
561.041	8943.1
561.404	9027.62
561.767	9001.18
562.129	8928.64
562.492	9012.02
562.854	8953.72
563.217	8963.21
563.579	8940.84
563.941	8944.23
564.304	8967.5
564.666	8969.31
565.028	8964.34
565.39	8926.15
565.753	8992.59
566.115	9000.72
566.477	8927.73
566.839	8936.32
567.201	8970.67
567.563	8926.6
567.925	8988.07
568.287	8968.18
568.648	8943.1
569.01	8963.66
569.372	8980.16
569.734	8940.16
570.095	9056.99
570.457	8917.11
570.819	8977.9
571.18	8913.49
571.542	8954.17
571.903	8981.52
572.265	9049.08
572.626	8949.88
572.987	9021.51
573.349	9046.37
573.71	9004.79
574.071	9059.48
574.432	9045.47
574.794	9040.95
575.155	9041.4
575.516	9020.61
575.877	8984.45
576.238	9046.37
576.599	9073.49
576.96	9043.89
577.32	9072.13
577.681	9084.34
578.042	9072.59
578.403	9031.91
578.763	9154.39
579.124	9067.16
579.485	9090.44
579.845	9080.5
580.206	9084.11
580.566	9086.15
580.927	9066.71
581.287	9055.19
581.648	9016.99
582.008	9081.4
582.368	9160.04
582.728	9034.85
583.089	9070.55
583.449	9065.58
583.809	9027.62
584.169	9078.24
584.529	9049.76
584.889	9086.15
585.249	9008.18
585.609	9015.41
585.969	9053.15
586.329	8992.36
586.688	8971.57
587.048	9032.59
587.408	8937.9
587.768	9024.68
588.127	8950.1
588.487	8969.54
588.846	9032.81
589.206	8938.58
589.565	9001.85
589.925	8956.43
590.284	8954.85
590.643	8904.91
591.003	9005.02
591.362	9027.16
591.721	8924.57
592.08	8975.19
592.44	9004.11
592.799	8986.26
593.158	8981.97
593.517	8950.33
593.876	8892.93
594.235	8885.7
594.593	8933.61
594.952	8896.32
595.311	8875.98
595.67	8897.68
596.029	8965.47
596.387	8939.48
596.746	8908.75
597.104	8873.27
597.463	8948.3
597.822	8909.2
598.18	8872.14
598.538	8871.91
598.897	8941.97
599.255	8886.15
599.613	8941.97
599.972	8871.69
600.33	8889.31
600.688	8932.93
601.046	8855.87
601.404	8912.82
601.762	8880.5
602.12	8925.47
602.478	8882.08
602.836	8903.55
603.194	8833.04
603.552	8833.04
603.91	8837.34
604.268	8842.08
604.625	8832.14
604.983	8873.5
605.341	8864.23
605.698	8881.63
606.056	8894.96
606.413	8878.02
606.771	8894.96
607.128	8863.1
607.485	8870.78
607.843	8852.48
608.2	8908.3
608.557	8902.42
608.914	8897.45
609.272	8956.66
609.629	8943.1
609.986	8950.78
610.343	8920.5
610.7	8964.79
611.057	8941.97
611.414	8929.31
611.771	8925.25
612.127	8903.78
612.484	8981.52
612.841	8960.27
613.198	8965.24
613.554	8944.23
613.911	9017.45
614.267	9016.09
614.624	8950.56
614.98	8937
615.337	9005.02
615.693	8992.81
616.05	9026.26
616.406	8981.97
616.762	8984
617.118	8978.35
617.475	9041.63
617.831	9016.32
618.187	9035.3
618.543	8982.87
618.899	9067.16
619.255	9064
619.611	9044.11
619.967	9087.05
620.323	9060.84
620.678	9054.51
621.034	9047.05
621.39	9066.71
621.746	9043.21
622.101	9120.95
622.457	9042.53
622.812	9080.04
623.168	9098.8
623.523	9043.66
623.879	9186.03
624.234	9085.92
624.589	9082.08
624.945	9103.55
625.3	9099.03
625.655	9033.72
626.01	9008.63
626.365	8996.43
626.72	9028.29
627.075	9047.28
627.43	9063.55
627.785	9033.49
628.14	9079.14
628.495	8990.1
628.85	8950.56
629.205	8993.27
629.559	8994.17
629.914	8991.23
630.269	8994.4
630.623	8966.37
630.978	8953.95
631.332	8944.68
631.687	8979.93
632.041	8927.51
632.396	8953.04
632.75	8898.13
633.104	8924.12
633.459	8881.18
633.813	8861.74
634.167	8812.93
634.521	8853.61
634.875	8878.69
635.229	8847.96
635.583	8769.77
635.937	8808.19
636.291	8845.25
636.645	8817.68
636.999	8803.44
637.352	8788.53
637.706	8752.37
638.06	8735.42
638.413	8715.53
638.767	8764.8
639.121	8811.12
639.474	8690
639.828	8729.09
640.181	8706.49
640.534	8699.04
640.888	8686.61
641.241	8624.46
641.594	8684.8
641.947	8717.57
642.301	8689.09
642.654	8656.33
643.007	8670.34
643.36	8593.5
643.713	8589.21
644.066	8628.53
644.419	8605.03
644.771	8577.23
645.124	8478.25
645.477	8464.69
645.83	8452.94
646.182	8470.12
646.535	8312.83
646.888	8395.09
647.24	8313.74
647.593	8374.53
647.945	8298.37
648.298	8297.69
648.65	8215.43
649.002	8311.48
649.355	8330.91
649.707	8302.44
650.059	8372.72
650.411	8468.99
650.763	8458.82
651.115	8532.94
651.467	8516.67
651.819	8504.92
652.171	8472.38
652.523	8523
652.875	8565.48
653.227	8504.01
653.578	8493.84
653.93	8503.34
654.282	8441.87
654.633	8511.02
654.985	8427.86
655.337	8566.38
655.688	8495.65
656.039	8569.55
656.391	8486.61
656.742	8436.44
657.094	8417.69
657.445	8571.36
657.796	8496.78
658.147	8507.18
658.498	8538.59
658.849	8548.76
659.2	8503.56
659.551	8435.09
659.902	8550.34
660.253	8517.8
660.604	8554.86
660.955	8476.67
661.306	8494.52
661.656	8584.92
662.007	8534.75
662.358	8519.61
662.708	8509.21
663.059	8448.42
663.409	8473.51
663.76	8605.25
664.11	8523.9
664.461	8593.28
664.811	8534.07
665.161	8541.98
665.511	8513.05
665.862	8495.2
666.212	8528.42
666.562	8533.62
666.912	8487.52
667.262	8534.52
667.612	8548.31
667.962	8613.84
668.312	8515.09
668.662	8592.82
669.011	8547.85
669.361	8523
669.711	8517.57
670.06	8494.97
670.41	8523.45
670.76	8440.96
671.109	8504.69
671.459	8537.46
671.808	8493.84
672.157	8477.12
672.507	8490.45
672.856	8468.53
673.205	8447.52
673.554	8492.04
673.904	8508.76
674.253	8499.95
674.602	8440.96
674.951	8311.93
675.3	8381.53
675.649	8418.59
675.998	8399.38
676.346	8436.22
676.695	8382.66
677.044	8302.89
677.393	8360.29
677.741	8453.62
678.09	8360.97
678.438	8316.9
678.787	8398.71
679.135	8275.09
679.484	8270.12
679.832	8304.47
680.181	8244.81
680.529	8305.83
680.877	8237.81
681.225	8238.71
681.573	8217.69
681.922	8205.04
682.27	8195.1
682.618	8184.93
682.966	8218.15
683.314	8179.05
683.661	8116.23
684.009	8087.53
684.357	8082.78
684.705	8083.69
685.053	8126.4
685.4	8045.04
685.748	8014.54
686.095	8025.61
686.443	7970.24
686.79	7974.99
687.138	8028.55
687.485	7973.86
687.832	7938.83
688.18	7957.81
688.527	7934.99
688.874	7918.72
689.221	7898.15
689.568	7829.23
689.915	7818.38
690.262	7755.56
690.609	7761.66
690.956	7727.99
691.303	7768.89
691.65	7697.03
691.997	7693.87
692.344	7625.62
692.69	7666.3
693.037	7631.72
693.383	7510.82
693.73	7615.22
694.077	7473.98
694.423	7543.13
694.769	7458.62
695.116	7368.45
695.462	7426.75
695.808	7391.27
696.155	7383.82
696.501	7357.83
696.847	7330.03
697.193	7273.54
697.539	7299.3
697.885	7229.02
698.231	7223.6
698.577	7223.37
698.923	7132.3
699.269	7146.54
699.614	7083.49
699.96	7076.93
700.306	7062.92
700.651	7031.06
700.997	7012.3
701.342	7009.14
701.688	6932.76
702.033	6896.37
702.379	6952.87
702.724	6944.73
703.069	6900.44
703.415	6758.75
703.76	6834.68
704.105	6815.47
704.45	6799.65
704.795	6760.1
705.14	6735.92
705.485	6715.13
705.83	6730.95
706.175	6652.99
706.52	6665.19
706.865	6601.69
707.209	6625.64
707.554	6570.51
707.899	6595.14
708.243	6549.04
708.588	6565.31
708.932	6447.8
709.277	6488.7
709.621	6484.63
709.966	6464.29
710.31	6439.44
710.654	6390.4
710.998	6428.14
711.342	6452.09
711.687	6377.29
712.031	6339.55
712.375	6344.75
712.719	6351.08
713.063	6375.93
713.407	6334.58
713.75	6309.27
714.094	6352.66
714.438	6278.76
714.782	6293
715.125	6321.47
715.469	6283.96
715.812	6236.5
716.156	6233.79
716.499	6195.6
716.843	6189.95
717.186	6226.11
717.53	6229.27
717.873	6214.13
718.216	6184.53
718.559	6106.56
718.902	6053.68
719.246	6186.11
719.589	6095.26
719.932	6077.86
720.275	6087.13
720.617	6077.41
720.96	6082.83
721.303	6064.3
721.646	6123.51
721.989	6041.25
722.331	6062.27
722.674	6068.15
723.016	6043.97
723.359	6050.97
723.701	6068.6
724.044	6061.59
724.386	5978.2
724.729	6048.26
725.071	6059.78
725.413	6039.45
725.755	5961.48
726.097	5981.59
726.439	5983.63
726.782	5994.7
727.124	5997.64
727.465	5987.47
727.807	5902.73
728.149	5945.44
728.491	5956.06
728.833	5905.21
729.175	5951.99
729.516	5942.05
729.858	5913.8
730.199	5941.82
730.541	5987.24
730.882	5902.73
731.224	5957.41
731.565	5934.36
731.906	5991.31
732.248	5975.94
732.589	5960.13
732.93	5904.31
733.271	5975.04
733.612	5959.67
733.953	5955.38
734.294	5972.1
734.635	5938.66
734.976	5987.47
735.317	5895.27
735.658	5931.88
735.999	5946.79
736.339	5940.01
736.68	5985.21
737.021	5962.84
737.361	5896.85
737.702	6010.52
738.042	5967.36
738.383	5987.92
738.723	5984.76
739.063	6021.59
739.404	6012.1
739.744	6017.98
740.084	5990.41
740.424	6062.04
740.764	6053.23
741.104	6068.6
741.444	6044.64
741.784	6056.17
742.124	6093.68
742.464	6066.79
742.804	6110.63
743.143	6089.39
743.483	6128.71
743.823	6177.07
744.162	6167.58
744.502	6213.9
744.841	6222.49
745.181	6230.85
745.52	6302.26
745.86	6328.7
746.199	6339.32
746.538	6344.3
746.877	6433.11
747.216	6461.58
747.556	6461.36
747.895	6550.62
748.234	6572.09
748.573	6572.09
748.911	6718.3
749.25	6669.94
749.589	6742.25
749.928	6863.15
750.267	6924.85
750.605	6965.98
750.944	7000.55
751.283	7042.58
751.621	7184.05
751.96	7209.58
752.298	7327.55
752.636	7391.95
752.975	7417.94
753.313	7547.43
753.651	7644.6
753.989	7724.15
754.327	7868.32
754.666	7929.57
755.004	8031.48
755.342	8238.48
755.679	8337.24
756.017	8390.8
756.355	8553.05
756.693	8657.68
757.031	8809.09
757.368	8941.06
757.706	9087.28
758.044	9230.55
758.381	9387.83
758.719	9506.47
759.056	9668.73
759.394	9879.8
759.731	9960.25
760.068	10129.51
760.405	10331.54
760.743	10370.63
761.08	10568.37
761.417	10757.51
761.754	10864.86
762.091	11128.13
762.428	11265.3
762.765	11351.62
763.102	11578.06
763.438	11759.75
763.775	11852.4
764.112	12078.38
764.449	12289.22
764.785	12418.04
765.122	12496.68
765.458	12692.83
765.795	12882.2
766.131	13071.58
766.467	13170.11
766.804	13357.67
767.14	13479.48
767.476	13719.24
767.812	13805.12
768.148	14062.06
768.485	14030.42
768.821	14201.49
769.157	14386.8
769.492	14538.66
769.828	14720.35
770.164	14649.16
770.5	14836.95
770.836	14950.17
771.171	15140
771.507	15163.5
771.842	15172.76
772.178	15362.14
772.513	15447.11
772.849	15563.04
773.184	15601.91
773.519	15736.14
773.855	15805.74
774.19	15918.28
774.525	15971.39
774.86	16030.37
775.195	16084.15
775.53	16196.69
775.865	16170.25
776.2	16315.56
776.535	16265.17
776.87	16316.69
777.205	16415.44
777.539	16373.19
777.874	16536.57
778.209	16505.16
778.543	16584.48
778.878	16496.12
779.212	16684.14
779.547	16626.29
779.881	16695.89
780.215	16690.01
780.55	16811.59
780.884	16756.45
781.218	16851.59
781.552	16898.14
781.886	16755.55
782.22	16755.77
782.554	16781.99
782.888	16734.31
783.222	16818.37
783.556	16778.82
783.889	16804.36
784.223	16783.34
784.557	16756.23
784.89	16946.05
785.224	16680.07
785.557	16735.21
785.891	16836.9
786.224	16751.03
786.558	16842.55
786.891	16673.29
787.224	16589.9
787.557	16615.21
787.891	16646.4
788.224	16696.57
788.557	16699.05
788.89	16682.78
789.223	16680.3
789.556	16619.28
789.888	16564.59
790.221	16575.89
790.554	16498.83
790.887	16562.33
791.219	16515.78
791.552	16425.16
791.884	16431.26
792.217	16484.82
792.549	16337.93
792.882	16335.22
793.214	16322.11
793.546	16426.29
793.879	16238.05
794.211	16255.9
794.543	16294.54
794.875	16216.13
795.207	16242.12
795.539	16233.75
795.871	16170.7
796.203	16135
796.535	16062.46
796.867	16017.49
797.198	16057.71
797.53	15979.3
797.862	15890.03
798.193	15917.38
798.525	15756.48
798.856	15926.42
799.188	15672.86
799.519	15682.13
799.85	15662.47
800.182	15751.28
800.513	15601
800.844	15535.24
801.175	15615.47
801.506	15589.93
801.837	15452.53
802.168	15522.59
802.499	15518.97
802.83	15357.62
803.161	15387.9
803.491	15318.07
803.822	15384.96
804.153	15279.65
804.483	15258.86
804.814	15269.26
805.145	15198.3
805.475	15168.25
805.805	15179.32
806.136	15103.16
806.466	15126.44
806.796	15066.1
807.126	14986.78
807.457	14930.06
807.787	15006.89
808.117	14980.23
808.447	14939.1
808.777	14898.87
809.107	14844.41
809.436	14762.38
809.766	14802.83
810.096	14699.33
810.426	14701.59
810.755	14713.57
811.085	14720.35
811.414	14679.67
811.744	14543.4
812.073	14637.86
812.403	14547.47
812.732	14537.75
813.061	14533.91
813.39	14474.03
813.719	14450.52
814.049	14449.17
814.378	14451.88
814.707	14248.95
815.036	14362.62
815.365	14290.08
815.693	14213.02
816.022	14180.02
816.351	14209.63
816.68	14076.97
817.008	14174.37
817.337	14011.89
817.665	14034.72
817.994	13970.08
818.322	14091.21
818.651	13961.05
818.979	13973.7
819.307	14008.05
819.636	13928.96
819.964	13806.02
820.292	13952.23
820.62	13909.07
820.948	13843.76
821.276	13884.66
821.604	13935.96
821.932	13850.99
822.259	13947.03
822.587	13907.04
822.915	13820.94
823.243	13907.49
823.57	13868.17
823.898	13858.68
824.225	13765.8
824.553	13850.77
824.88	13890.54
825.207	13928.73
825.535	13902.29
825.862	13930.09
826.189	13812.57
826.516	14003.76
826.843	13959.01
827.17	13900.71
827.497	13986.81
827.824	13906.58
828.151	13916.3
828.478	13939.8
828.805	13933.02
829.131	13826.13
829.458	13878.11
829.785	13739.81
830.111	13811.44
830.438	13942.06
830.764	13898
831.09	14039.24
831.417	13837.21
831.743	13938
832.069	13874.72
832.395	13904.55
832.722	13858.68
833.048	13847.15
833.374	13856.87
833.7	13770.77
834.026	13696.42
834.351	13850.09
834.677	13826.36
835.003	13823.87
835.329	13790.65
835.654	13770.54
835.98	13759.92
836.306	13746.81
836.631	13634.27
836.956	13687.61
837.282	13692.13
837.607	13696.19
837.932	13574.39
838.258	13699.13
838.583	13611.9
838.908	13562.86
839.233	13574.84
839.558	13542.3
839.883	13503.66
840.208	13535.07
840.533	13427.73
840.858	13484.22
841.182	13449.87
841.507	13436.99
841.832	13363.77
842.156	13385.47
842.481	13422.75
842.805	13253.72
843.13	13259.14
843.454	13237.22
843.778	13147.06
844.103	13157.22
844.427	13124.23
844.751	13181.63
845.075	13088.3
845.399	13097.79
845.723	13056.21
846.047	12989.77
846.371	12937.12
846.695	12916.33
847.019	12789.78
847.343	12743.22
847.666	12662.1
847.99	12618.03
848.313	12661.19
848.637	12510.69
848.96	12537.81
849.284	12498.48
849.607	12446.96
849.931	12384.59
850.254	12299.17
850.577	12280.19
850.9	12163.8
851.223	12164.03
851.546	12059.4
851.869	11934.43
852.192	11979.18
852.515	12027.99
852.838	11980.53
853.161	11901.21
853.483	11830.93
853.806	11802.91
854.129	11737.83
854.451	11736.25
854.774	11679.52
855.096	11669.35
855.419	11648.34
855.741	11564.95
856.063	11536.25
856.385	11494.44
856.708	11456.48
857.03	11423.94
857.352	11420.32
857.674	11395.01
857.996	11326.09
858.318	11230.95
858.64	11283.6
858.961	11296.71
859.283	11210.16
859.605	11170.16
859.926	11221
860.248	11121.35
860.57	11070.5
860.891	11110.27
861.212	11008.81
861.534	11045.87
861.855	10950.73
862.176	11020.56
862.498	10990.73
862.819	10979.88
863.14	10842.48
863.461	10891.3
863.782	10895.14
864.103	10921.58
864.424	10803.39
864.745	10824.63
865.065	10824.4
865.386	10741.92
865.707	10746.21
866.027	10680.45
866.348	10680.91
866.668	10739.66
866.989	10617.4
867.309	10616.95
867.63	10644.52
867.95	10643.84
868.27	10533.11
868.59	10607.01
868.91	10617.18
869.23	10571.98
869.55	10549.84
869.87	10555.49
870.19	10467.58
870.51	10517.29
870.83	10524.75
871.15	10467.13
871.469	10478.65
871.789	10513.68
872.109	10452.66
872.428	10372.21
872.748	10401.36
873.067	10329.95
873.386	10341.03
873.706	10321.82
874.025	10348.03
874.344	10254.48
874.663	10368.82
874.982	10197.98
875.301	10295.6
875.62	10292.22
875.939	10215.38
876.258	10240.69
876.577	10143.74
876.896	10161.82
877.214	10148.94
877.533	10139.9
877.852	10100.58
878.17	10109.17
878.489	10131.54
878.807	10039.34
879.125	10091.99
879.444	10104.42
879.762	10054.26
880.08	10051.09
880.398	9967.7
880.716	9985.78
881.034	9967.25
881.352	9928.61
881.67	9858.33
881.988	9886.35
882.306	9863.3
882.624	9825.56
882.941	9813.81
883.259	9735.62
883.577	9758.67
883.894	9717.99
884.212	9678.45
884.529	9732
884.846	9699.01
885.164	9720.93
885.481	9629.41
885.798	9673.7
886.115	9490.43
886.432	9557.77
886.75	9531.56
887.067	9581.5
887.383	9510.54
887.7	9489.75
888.017	9425.12
888.334	9481.16
888.651	9474.16
888.967	9375.63
889.284	9320.26
889.6	9290.89
889.917	9321.17
890.233	9262.41
890.55	9272.13
890.866	9241.85
891.182	9222.19
891.498	9173.6
891.815	9178.12
892.131	9122.08
892.447	9132.92
892.763	8995.07
893.079	9021.29
893.395	9024.68
893.71	8960.5
894.026	8970.44
894.342	8954.17
894.657	8855.64
894.973	8829.2
895.289	8811.58
895.604	8875.08
895.92	8744.01
896.235	8724.35
896.55	8734.06
896.865	8741.75
897.181	8619.94
897.496	8655.42
897.811	8617.91
898.126	8612.71
898.441	8572.03
898.756	8502.43
899.071	8462.88
899.386	8465.37
899.7	8456.33
900.015	8397.12
900.33	8326.39
900.644	8268.99
900.959	8327.3
901.273	8277.35
901.588	8249.78
901.902	8183.57
902.216	8121.65
902.531	8125.49
902.845	8058.83
903.159	8052.73
903.473	8053.63
903.787	7959.62
904.101	7979.96
904.415	7952.84
904.729	7947.87
905.042	7867.42
905.356	7859.51
905.67	7854.99
905.984	7800.3
906.297	7791.04
906.611	7763.92
906.924	7743.81
907.237	7709.91
907.551	7678.27
907.864	7612.29
908.177	7588.78
908.491	7575.68
908.804	7490.93
909.117	7463.14
909.43	7421.33
909.743	7408.68
910.056	7400.31
910.368	7337.72
910.681	7367.32
910.994	7332.75
911.307	7287.55
911.619	7183.6
911.932	7231.5
912.244	7177.04
912.557	7101.11
912.869	7092.98
913.181	7102.92
913.494	7033.77
913.806	7049.81
914.118	7022.92
914.43	6957.84
914.742	6960.78
915.054	6919.65
915.366	6888.91
915.678	6852.08
915.99	6822.48
916.302	6812.76
916.613	6714.91
916.925	6788.13
917.236	6751.07
917.548	6741.8
917.859	6703.38
918.171	6640.79
918.482	6651.41
918.794	6644.4
919.105	6584.52
919.416	6500.45
919.727	6507.23
920.038	6543.16
920.349	6451.41
920.66	6410.06
920.971	6422.03
921.282	6430.62
921.593	6367.8
921.903	6298.87
922.214	6264.07
922.525	6268.14
922.835	6258.42
923.146	6211.19
923.456	6209.38
923.767	6199.67
924.077	6164.19
924.387	6171.42
924.697	6188.59
925.008	6073.57
925.318	6054.59
925.628	6042.16
925.938	6045.77
926.248	5994.93
926.558	5949.96
926.867	5952.22
927.177	5944.53
927.487	5956.06
927.796	5886
928.106	5814.14
928.416	5828.38
928.725	5830.64
929.034	5770.53
929.344	5758.78
929.653	5761.49
929.962	5693.92
930.271	5661.83
930.581	5699.34
930.89	5693.92
931.199	5611.66
931.508	5615.05
931.817	5613.24
932.125	5573.47
932.434	5557.88
932.743	5481.72
933.051	5485.56
933.36	5445.34
933.669	5421.38
933.977	5441.04
934.286	5387.26
934.594	5394.94
934.902	5306.36
935.21	5340.71
935.519	5341.16
935.827	5291.89
936.135	5266.36
936.443	5225.68
936.751	5202.41
937.059	5207.83
937.367	5177.55
937.674	5110.43
937.982	5132.12
938.29	5101.62
938.597	5125.57
938.905	5070.43
939.213	5041.05
939.52	5043.54
939.827	5003.09
940.135	5010.55
940.442	4947.05
940.749	4922.19
941.056	4927.16
941.363	4858.46
941.67	4906.59
941.977	4878.12
942.284	4821.62
942.591	4791.79
942.898	4838.57
943.205	4799.25
943.511	4733.49
943.818	4702.53
944.125	4679.93
944.431	4710.67
944.738	4644.68
945.044	4639.03
945.35	4617.56
945.657	4614.4
945.963	4597
946.269	4558.81
946.575	4545.93
946.881	4566.04
947.187	4486.94
947.493	4455.98
947.799	4521.29
948.105	4465.02
948.41	4419.15
948.716	4460.28
949.022	4362.65
949.327	4374.63
949.633	4342.77
949.938	4317.01
950.244	4340.28
950.549	4315.88
950.854	4272.94
951.16	4294.86
951.465	4274.75
951.77	4239.72
952.075	4272.49
952.38	4196.1
952.685	4215.09
952.99	4200.17
953.294	4153.39
953.599	4095.09
953.904	4095.32
954.209	4068.2
954.513	4135.09
954.818	4080.18
955.122	4009.67
955.426	4024.36
955.731	4002.44
956.035	3983.91
956.339	3961.99
956.643	3952.04
956.948	3934.87
957.252	3883.12
957.556	3919.28
957.86	3876.34
958.163	3889.22
958.467	3861.88
958.771	3856.9
959.075	3841.76
959.378	3798.15
959.682	3785.27
959.985	3766.06
960.289	3765.61
960.592	3730.13
960.896	3793.18
961.199	3722.67
961.502	3684.25
961.805	3707.76
962.108	3646.06
962.411	3660.98
962.714	3618.04
963.017	3572.39
963.32	3631.83
963.623	3578.49
963.926	3585.27
964.228	3539.17
964.531	3556.35
964.833	3550.92
965.136	3507.76
965.438	3495.56
965.741	3444.94
966.043	3470.25
966.345	3451.04
966.648	3437.48
966.95	3428.21
967.252	3406.07
967.554	3413.75
967.856	3377.59
968.158	3346.64
968.46	3353.19
968.761	3330.36
969.063	3330.82
969.365	3287.43
969.666	3295.79
969.968	3295.56
970.269	3267.09
970.571	3229.58
970.872	3265.51
971.174	3246.98
971.475	3214.89
971.776	3207.88
972.077	3213.31
972.378	3173.08
972.679	3118.17
972.98	3101.22
973.281	3111.61
973.582	3128.11
973.883	3094.44
974.183	3066.42
974.484	3076.59
974.785	3015.34
975.085	3058.96
975.386	3044.27
975.686	3025.51
975.986	2997.72
976.287	3010.37
976.587	2943.26
976.887	2959.07
977.187	2933.09
977.487	2894.67
977.787	2944.39
978.087	2877.95
978.387	2905.97
978.687	2862.13
978.987	2869.36
979.286	2835.46
979.586	2863.26
979.885	2816.71
980.185	2814.9
980.484	2779.19
980.784	2771.96
981.083	2775.58
981.382	2787.78
981.682	2770.83
981.981	2767.22
982.28	2719.31
982.579	2700.78
982.878	2701.91
983.177	2676.14
983.475	2679.99
983.774	2654.9
984.073	2637.5
984.372	2642.02
984.67	2660.33
984.969	2622.81
985.267	2609.71
985.566	2639.99
985.864	2568.12
986.162	2587.33
986.461	2622.59
986.759	2535.36
987.057	2572.64
987.355	2558.18
987.653	2513.44
987.951	2495.81
988.249	2503.72
988.547	2517.73
988.844	2478.41
989.142	2488.58
989.44	2432.31
989.737	2451.74
990.035	2444.74
990.332	2408.58
990.63	2421.46
990.927	2404.51
991.224	2390.5
991.521	2379.43
991.819	2372.65
992.116	2347.57
992.413	2333.55
992.71	2345.53
993.006	2338.75
993.303	2337.4
993.6	2315.25
993.897	2283.16
994.193	2288.13
994.49	2225.99
994.787	2275.02
995.083	2261.01
995.379	2219.89
995.676	2205.42
995.972	2234.12
996.268	2210.17
996.565	2180.34
996.861	2172.88
997.157	2164.07
997.453	2179.89
997.749	2158.19
998.044	2124.29
998.34	2105.09
998.636	2122.49
998.932	2098.76
999.227	2063.73
999.523	2085.65
999.818	2073
1000.114	2056.05
1000.409	2055.14
1000.704	1999.55
1001	2020.57
1001.295	2014.01
1001.59	2018.99
1001.885	2011.53
1002.18	1955.71
1002.475	1960.91
1002.77	1982.6
1003.065	1947.8
1003.359	1953.68
1003.654	1923.17
1003.949	1928.14
1004.243	1913
1004.538	1888.37
1004.832	1902.61
1005.127	1855.37
1005.421	1855.15
1005.715	1880.91
1006.009	1868.71
1006.304	1839.56
1006.598	1812.44
1006.892	1804.08
1007.186	1801.37
1007.48	1798.2
1007.773	1785.77
1008.067	1767.69
1008.361	1749.62
1008.655	1769.05
1008.948	1734.93
1009.242	1743.74
1009.535	1738.09
1009.829	1699.9
1010.122	1740.35
1010.415	1691.99
1010.708	1702.61
1011.001	1680.01
1011.295	1676.62
1011.588	1671.2
1011.881	1650.41
1012.173	1634.36
1012.466	1625.1
1012.759	1627.36
1013.052	1634.59
1013.344	1596.4
1013.637	1590.3
1013.93	1611.99
1014.222	1567.25
1014.514	1536.06
1014.807	1528.83
1015.099	1534.93
1015.391	1552.33
1015.683	1545.33
1015.976	1547.81
1016.268	1522.5
1016.56	1507.14
1016.851	1495.61
1017.143	1467.59
1017.435	1489.06
1017.727	1487.02
1018.018	1454.26
1018.31	1475.95
1018.602	1454.71
1018.893	1434.14
1019.185	1451.32
1019.476	1413.13
1019.767	1419
1020.058	1423.3
1020.35	1390.75
1020.641	1373.81
1020.932	1366.8
1021.223	1356.86
1021.514	1345.78
1021.804	1359.12
1022.095	1341.72
1022.386	1313.24
1022.677	1321.15
1022.967	1293.81
1023.258	1294.71
1023.548	1304.2
1023.839	1284.09
1024.129	1312.11
1024.419	1285.22
1024.709	1284.09
1025	1263.98
1025.29	1241.83
1025.58	1238.22
1025.87	1219.01
1026.16	1184.43
1026.449	1212.68
1026.739	1193.47
1027.029	1188.73
1027.319	1193.7
1027.608	1195.05
1027.898	1164.32
1028.187	1153.47
1028.477	1161.83
1028.766	1144.43
1029.055	1138.11
1029.344	1143.53
1029.634	1117.77
1029.923	1114.38
1030.212	1133.36
1030.501	1133.81
1030.79	1106.47
1031.078	1098.33
1031.367	1090.42
1031.656	1077.09
1031.945	1054.72
1032.233	1054.27
1032.522	1055.4
1032.81	1060.59
1033.099	1043.87
1033.387	1040.71
1033.675	1041.84
1033.963	1038
1034.251	1035.06
1034.54	994.38
1034.828	1009.52
1035.116	989.41
1035.403	994.83
1035.691	1010.43
1035.979	996.64
1036.267	975.17
1036.554	954.38
1036.842	988.73
1037.129	956.19
1037.417	934.95
1037.704	947.83
1037.992	949.18
1038.279	916.42
1038.566	937.43
1038.853	937.43
1039.14	937.43
