Data from hue_34_FLMS001491_00031.txt Node
Date: Tue Feb 07 17:25:31 GMT 2017
User: dcchb
Spectrometer: FLMS00149
Trigger mode: 0
Integration Time (sec): 2.000000E-2
Scans to average: 10
Electric dark correction enabled: true
Nonlinearity correction enabled: false
Boxcar width: 0
XAxis mode: Wavelengths
Number of Pixels in Spectrum: 2048
>>>>>Begin Spectral Data<<<<<
341.393	-30.49
341.776	-30.49
342.16	-30.49
342.543	-69.81
342.927	-62.81
343.31	-81.34
343.693	-76.82
344.077	-69.81
344.46	-57.39
344.843	-40.21
345.226	-52.19
345.61	-30.04
345.993	-25.07
346.376	-6.77
346.759	18.54
347.142	39.11
347.525	28.26
347.908	43.4
348.291	101.25
348.674	93.12
349.057	115.94
349.44	137.41
349.823	155.26
350.206	162.27
350.588	190.97
350.971	203.85
351.354	230.74
351.737	233.68
352.119	247.47
352.502	261.02
352.884	290.18
353.267	268.03
353.65	293.34
354.032	303.06
354.414	310.74
354.797	315.26
355.179	324.3
355.562	318.65
355.944	346.9
356.326	318.65
356.709	324.75
357.091	325.2
357.473	339.21
357.855	326.79
358.238	338.76
358.62	328.82
359.002	345.99
359.384	358.65
359.766	342.83
360.148	335.6
360.53	334.69
360.912	343.06
361.294	320.01
361.676	323.4
362.057	342.83
362.439	340.57
362.821	342.38
363.203	333.79
363.584	310.06
363.966	314.81
364.348	337.18
364.729	308.48
365.111	333.34
365.493	316.84
365.874	328.37
366.256	313
366.637	320.01
367.019	324.53
367.4	326.11
367.781	315.49
368.163	300.57
368.544	312.32
368.925	335.37
369.306	309.38
369.688	305.77
370.069	304.19
370.45	308.03
370.831	325.2
371.212	320.46
371.593	320.91
371.974	315.71
372.355	310.06
372.736	329.27
373.117	311.64
373.498	311.87
373.879	349.84
374.26	310.97
374.641	322.72
375.021	321.81
375.402	322.49
375.783	328.14
376.163	320.01
376.544	326.79
376.925	326.56
377.305	324.98
377.686	321.59
378.066	339.67
378.447	335.82
378.827	340.34
379.208	323.62
379.588	318.65
379.968	318.88
380.349	319.55
380.729	323.62
381.109	318.42
381.489	317.75
381.87	328.14
382.25	327.92
382.63	341.47
383.01	335.82
383.39	342.6
383.77	349.61
384.15	351.64
384.53	343.96
384.91	340.12
385.29	343.73
385.67	353
386.049	352.77
386.429	349.84
386.809	349.38
387.189	325.2
387.568	369.04
387.948	343.51
388.328	361.81
388.707	334.92
389.087	362.94
389.466	353
389.846	350.29
390.225	385.09
390.605	364.75
390.984	362.26
391.363	368.82
391.743	355.49
392.122	349.84
392.501	367.46
392.881	356.61
393.26	388.7
393.639	374.02
394.018	374.24
394.397	390.51
394.776	389.38
395.155	366.11
395.534	371.08
395.913	367.24
396.292	377.86
396.671	383.28
397.05	386.67
397.429	367.01
397.808	380.8
398.186	376.05
398.565	387.8
398.944	391.42
399.323	400.23
399.701	380.12
400.08	387.12
400.458	405.65
400.837	397.74
401.215	397.52
401.594	406.33
401.972	398.87
402.351	392.77
402.729	417.63
403.107	419.44
403.486	407.24
403.864	409.49
404.242	417.18
404.62	423.96
404.999	417.18
405.377	435.71
405.755	436.16
406.133	424.18
406.511	421.92
406.889	438.42
407.267	424.18
407.645	429.16
408.023	421.7
408.401	454.92
408.779	409.49
409.156	420.79
409.534	453.34
409.912	459.89
410.29	450.4
410.667	444.97
411.045	457.86
411.422	436.84
411.8	461.92
412.178	461.02
412.555	443.84
412.933	454.24
413.31	457.4
413.687	468.7
414.065	465.54
414.442	461.7
414.819	465.31
415.197	474.58
415.574	470.51
415.951	478.65
416.328	491.75
416.705	502.6
417.082	485.2
417.46	479.1
417.837	510.96
418.214	495.14
418.591	500.11
418.967	504.63
419.344	500.57
419.721	499.44
420.098	507.8
420.475	510.74
420.852	525.88
421.228	494.01
421.605	502.6
421.982	517.06
422.358	505.31
422.735	531.75
423.111	544.41
423.488	530.62
423.864	517.74
424.241	557.06
424.617	543.73
424.994	558.19
425.37	559.32
425.746	570.39
426.123	573.78
426.499	583.05
426.875	567.46
427.251	555.93
427.627	583.5
428.003	572.88
428.379	572.65
428.756	556.16
429.132	584.18
429.507	567.46
429.883	587.12
430.259	584.63
430.635	607.46
431.011	630.28
431.387	595.48
431.763	628.25
432.138	602.94
432.514	626.44
432.89	620.56
433.265	629.38
433.641	625.08
434.016	625.53
434.392	651.07
434.767	649.26
435.143	663.27
435.518	657.85
435.894	672.09
436.269	673.89
436.644	659.88
437.02	664.63
437.395	660.34
437.77	678.19
438.145	690.84
438.52	673.44
438.895	706.21
439.271	707.11
439.646	718.64
440.021	705.98
440.395	698.53
440.77	716.15
441.145	698.3
441.52	730.16
441.895	720
442.27	762.93
442.645	734.01
443.019	748.24
443.394	733.33
443.769	757.06
444.143	740.11
444.518	749.6
444.892	737.4
445.267	779.43
445.641	748.02
446.016	776.72
446.39	771.97
446.764	791.86
447.139	771.97
447.513	751.18
447.887	812.2
448.262	786.21
448.636	788.69
449.01	799.77
449.384	814.91
449.758	816.72
450.132	807.9
450.506	823.04
450.88	833.66
451.254	827.34
451.628	816.49
452.002	832.53
452.376	847.45
452.75	861.01
453.123	863.04
453.497	855.13
453.871	875.7
454.244	897.62
454.618	879.31
454.992	912.53
455.365	891.06
455.739	911.18
456.112	935.13
456.486	957.5
456.859	935.58
457.232	967.9
457.606	930.84
457.979	950.95
458.352	983.94
458.725	996.6
459.099	987.78
459.472	1010.16
459.845	1016.71
460.218	1029.37
460.591	1033.89
460.964	1014.45
461.337	1057.39
461.71	1079.76
462.083	1089.93
462.456	1084.05
462.829	1118.4
463.201	1100.78
463.574	1113.43
463.947	1110.72
464.32	1133.09
464.692	1148.46
465.065	1147.55
465.438	1165.86
465.81	1189.14
466.183	1208.12
466.555	1216.03
466.928	1258.51
467.3	1263.03
467.672	1262.35
468.045	1305.97
468.417	1304.84
468.789	1301
469.161	1296.25
469.534	1325.63
469.906	1355.23
470.278	1418.28
470.65	1412.41
471.022	1412.63
471.394	1421.45
471.766	1489.69
472.138	1507.32
472.51	1521.1
472.882	1553.19
473.253	1564.94
473.625	1588.45
473.997	1623.93
474.369	1678.16
474.74	1679.07
475.112	1705.51
475.484	1755.67
475.855	1792.74
476.227	1822.34
476.598	1897.14
476.97	1890.36
477.341	1973.97
477.713	1990.47
478.084	2002.67
478.455	2075.44
478.827	2107.08
479.198	2158.6
479.569	2164.03
479.94	2290.58
480.311	2314.76
480.682	2363.57
481.053	2429.55
481.424	2493.73
481.795	2480.85
482.166	2584.58
482.537	2651.92
482.908	2712.94
483.279	2751.81
483.65	2814.18
484.021	2920.39
484.391	2971.91
484.762	3075.19
485.133	3058.92
485.503	3159.93
485.874	3229.99
486.244	3294.16
486.615	3376.42
486.985	3453.93
487.356	3527.15
487.726	3595.4
488.097	3696.19
488.467	3707.26
488.837	3822.06
489.207	3914.71
489.578	4012.56
489.948	4074.26
490.318	4154.03
490.688	4205.1
491.058	4295.27
491.428	4388.15
491.798	4426.56
492.168	4554.47
492.538	4601.02
492.908	4689.83
493.278	4806.44
493.648	4821.13
494.017	4904.52
494.387	4993.56
494.757	5081.91
495.126	5144.06
495.496	5208.69
495.866	5287.78
496.235	5356.71
496.605	5404.84
496.974	5465.41
497.344	5582.01
497.713	5613.2
498.082	5698.4
498.452	5767.32
498.821	5767.55
499.19	5833.99
499.559	5934.32
499.928	6013.87
500.298	6029.01
500.667	6090.25
501.036	6095.45
501.405	6231.04
501.774	6257.48
502.143	6326.63
502.512	6353.75
502.88	6444.59
503.249	6484.36
503.618	6548.99
503.987	6615.21
504.356	6678.48
504.724	6701.76
505.093	6708.54
505.462	6808.65
505.83	6873.96
506.199	6888.65
506.567	7060.17
506.936	6968.19
507.304	7097.23
507.672	7169.77
508.041	7115.76
508.409	7203.67
508.777	7273.95
509.145	7323.44
509.514	7316.88
509.882	7379.71
510.25	7406.6
510.618	7478.46
510.986	7520.72
511.354	7567.27
511.722	7663.09
512.09	7778.11
512.458	7707.61
512.826	7761.62
513.193	7800.71
513.561	7846.59
513.929	7914.38
514.297	7990.09
514.664	8031.22
515.032	8040.71
515.4	8065.11
515.767	8183.98
516.135	8189.86
516.502	8158.22
516.869	8316.41
517.237	8323.64
517.604	8323.19
517.972	8397.99
518.339	8455.39
518.706	8469.62
519.073	8423.75
519.44	8489.96
519.808	8643.63
520.175	8630.52
520.542	8662.16
520.909	8769.5
521.276	8676.85
521.643	8770.18
522.009	8791.65
522.376	8908.25
522.743	8907.58
523.11	9016.95
523.477	9048.36
523.843	9182.15
524.21	9202.94
524.577	9229.6
524.943	9324.06
525.31	9392.31
525.676	9415.36
526.043	9434.57
526.409	9557.95
526.776	9582.59
527.142	9593.89
527.508	9630.72
527.874	9765.18
528.241	9746.42
528.607	9792.75
528.973	9886.53
529.339	9888.34
529.705	10068
530.071	10044.5
530.437	10071.16
530.803	10193.64
531.169	10181.22
531.535	10144.38
531.901	10253.53
532.267	10304.15
532.632	10356.8
532.998	10366.3
533.364	10458.95
533.73	10516.35
534.095	10557.7
534.461	10603.35
534.826	10656.46
535.192	10673.41
535.557	10693.97
535.923	10678.15
536.288	10810.35
536.653	10849.22
537.019	10821.2
537.384	10858.94
537.749	10959.27
538.114	10952.72
538.479	10965.83
538.845	11056.9
539.21	11060.74
539.575	11234.97
539.94	11208.08
540.305	11261.64
540.67	11296.44
541.034	11331.47
541.399	11404.69
541.764	11373.73
542.129	11518.13
542.494	11447.62
542.858	11531.01
543.223	11617.79
543.587	11645.13
543.952	11625.02
544.316	11695.98
544.681	11758.12
545.045	11819.59
545.41	11888.74
545.774	11905.01
546.138	11849.65
546.503	11957.44
546.867	11966.25
547.231	12088.74
547.595	12147.72
547.959	12121.05
548.324	12155.4
548.688	12174.16
549.052	12225.68
549.416	12312.68
549.779	12251.44
550.143	12351.78
550.507	12472
550.871	12434.04
551.235	12515.62
551.599	12641.04
551.962	12619.34
552.326	12641.04
552.689	12702.96
553.053	12662.05
553.417	12850.07
553.78	12920.8
554.143	12813.46
554.507	12909.05
554.87	12912.44
555.234	13040.58
555.597	13008.49
555.96	12989.73
556.323	13116.28
556.686	12992.44
557.05	13177.29
557.413	13197.41
557.776	13263.85
558.139	13324.86
558.502	13396.05
558.865	13398.53
559.228	13442.15
559.59	13437.85
559.953	13540.45
560.316	13663.16
560.679	13787.22
561.041	13761.23
561.404	13689.82
561.767	13878.52
562.129	13887.56
562.492	13990.38
562.854	13955.58
563.217	14002.13
563.579	14022.24
563.941	14105.86
564.304	14121.9
564.666	14197.38
565.028	14252.29
565.39	14305.85
565.753	14325.29
566.115	14416.58
566.477	14435.57
566.839	14531.16
567.201	14606.41
567.563	14495.23
567.925	14551.5
568.287	14704.71
568.648	14778.83
569.01	14816.57
569.372	14866.97
569.734	14913.52
570.095	14952.62
570.457	15027.42
570.819	15092.72
571.18	15165.04
571.542	15277.13
571.903	15227.41
572.265	15341.98
572.626	15386.5
572.987	15460.85
573.349	15568.87
573.71	15684.57
574.071	15731.8
574.432	15801.18
574.794	15951.46
575.155	15919.14
575.516	15977.45
575.877	16142.87
576.238	16125.92
576.599	16360.04
576.96	16407.49
577.32	16522.52
577.681	16574.95
578.042	16782.4
578.403	16853.81
578.763	16992.34
579.124	17136.29
579.485	17325.89
579.845	17420.12
580.206	17527.01
580.566	17691.3
580.927	17863.73
581.287	18073.21
581.648	18167.45
582.008	18293.54
582.368	18548.23
582.728	18684.49
583.089	18862.57
583.449	19091.49
583.809	19154.09
584.169	19436.57
584.529	19605.15
584.889	19921.07
585.249	20025.02
585.609	20067.06
585.969	20533.94
586.329	20726.25
586.688	20962.85
587.048	21118.1
587.408	21259.34
587.768	21571.2
588.127	21789.5
588.487	21980.23
588.846	22417.28
589.206	22459.76
589.565	22708.34
589.925	23039.41
590.284	23293.41
590.643	23604.37
591.003	23871.93
591.362	24126.84
591.721	24261.98
592.08	24607.28
592.44	24946.48
592.799	25116.19
593.158	25296.07
593.517	25598.89
593.876	25875.04
594.235	25982.38
594.593	26287.68
594.952	26740.78
595.311	26760.21
595.67	27173.08
596.029	27486.07
596.387	27783.69
596.746	27964.02
597.104	28286.28
597.463	28326.05
597.822	28716.32
598.18	28923.32
598.538	29101.85
598.897	29537.32
599.255	29669.29
599.613	30234.7
599.972	30170.52
600.33	30570.28
600.688	30595.37
601.046	30924.4
601.404	31320.09
601.762	31331.62
602.12	31693.87
602.478	31862.23
602.836	32136.8
603.194	32184.93
603.552	32411.37
603.91	32508.09
604.268	32801.19
604.625	32865.14
604.983	33260.83
605.341	33198.69
605.698	33716.87
606.056	33883.19
606.413	34077.08
606.771	34275.05
607.128	34569.73
607.485	34572.44
607.843	34704.19
608.2	35110.28
608.557	35248.35
608.914	35282.7
609.272	35534.45
609.629	35642.92
609.986	35936.92
610.343	36039.97
610.7	36391.15
611.057	36367.19
611.414	36405.38
611.771	36558.83
612.127	36973.28
612.484	36964.47
612.841	37234.06
613.198	37128.3
613.554	37277
613.911	37619.36
614.267	37877.66
614.624	37818.23
614.98	38084.89
615.337	38258.44
615.693	38269.06
616.05	38309.06
616.406	38690.75
616.762	38673.8
617.118	38756.28
617.475	38790.41
617.831	38943.4
618.187	39123.28
618.543	39235.37
618.899	39451.63
619.255	39596.94
619.611	39579.99
619.967	39683.94
620.323	39842.58
620.678	39757.61
621.034	39837.16
621.39	39941.34
621.746	39966.19
622.101	40422
622.457	40089.13
622.812	40357.82
623.168	40382.91
623.523	40452.06
623.879	40619.06
624.234	40364.83
624.589	40686.63
624.945	40771.15
625.3	40838.94
625.655	40777.47
626.01	40884.81
626.365	41024.7
626.72	40909.45
627.075	40835.1
627.43	40998.94
627.785	41062.89
628.14	41145.82
628.495	41062.89
628.85	41096.33
629.205	41074.41
629.559	41282.32
629.914	41127.07
630.269	41236.44
630.623	41155.77
630.978	41106.05
631.332	41386.04
631.687	41536.55
632.041	41270.79
632.396	41489.09
632.75	41269.66
633.104	41430.34
633.459	41164.13
633.813	41337.01
634.167	41321.87
634.521	41356.21
634.875	41367.06
635.229	41373.39
635.583	41233.51
635.937	41276.89
636.291	41346.05
636.645	41216.56
636.999	41118.03
637.352	41334.75
637.706	41164.58
638.06	41333.39
638.413	41241.87
638.767	41185.15
639.121	41348.98
639.474	41118.26
639.828	41088.43
640.181	41143.79
640.534	41154.86
640.888	40925.94
641.241	41065.6
641.594	40993.29
641.947	41108.99
642.301	41022.21
642.654	41046.84
643.007	40955.32
643.36	41045.04
643.713	40984.47
644.066	41232.6
644.419	40854.31
644.771	40616.12
645.124	40308.11
645.477	40244.83
645.83	40001
646.182	39929.59
646.535	39697.73
646.888	39834.22
647.24	39626.77
647.593	39951.51
647.945	39802.36
648.298	39510.39
648.65	39538.18
649.002	39461.12
649.355	39762.36
649.707	39638.75
650.059	39772.98
650.411	40252.29
650.763	40286.86
651.115	40597.14
651.467	40444.15
651.819	40507.2
652.171	40435.11
652.523	40398.95
652.875	40350.37
653.227	40344.04
653.578	40489.8
653.93	40307.43
654.282	40315.11
654.633	40136.36
654.985	40315.34
655.337	40312.85
655.688	40370.25
656.039	40488.67
656.391	40151.95
656.742	40232.63
657.094	40306.07
657.445	40316.02
657.796	40338.84
658.147	40112.86
658.498	40132.29
658.849	40149.24
659.2	40104.5
659.551	39942.24
659.902	40149.69
660.253	40284.6
660.604	40213.65
660.955	40069.7
661.306	40136.36
661.656	40095.23
662.007	39987.66
662.358	39999.41
662.708	40081.9
663.059	40149.01
663.409	39795.8
663.76	40098.62
664.11	40029.7
664.461	40020.43
664.811	40163.93
665.161	39980.43
665.511	39905.86
665.862	39939.53
666.212	40097.72
666.562	39927.78
666.912	39900.21
667.262	39864.05
667.612	39932.07
667.962	40011.39
668.312	39836.93
668.662	40081.22
669.011	39884.62
669.361	39971.84
669.711	39846.42
670.06	39866.99
670.41	39728.91
670.76	39754.9
671.109	39849.59
671.459	39800.55
671.808	39787.44
672.157	39838.97
672.507	39596.49
672.856	39618.41
673.205	39637.16
673.554	39699.54
673.904	39642.59
674.253	39763.71
674.602	39617.96
674.951	39065.65
675.3	39050.51
675.649	39568.24
675.998	39471.52
676.346	39528.01
676.695	39678.29
677.044	39380.9
677.393	39569.37
677.741	39584.96
678.09	39279.21
678.438	39411.18
678.787	39380
679.135	39296.38
679.484	39170.96
679.832	39313.56
680.181	39028.82
680.529	39267.68
680.877	39099.33
681.225	39134.35
681.573	39218.19
681.922	38889.84
682.27	38862.5
682.618	38879.67
682.966	38777.75
683.314	38888.03
683.661	38695.49
684.009	38554.25
684.357	38519.91
684.705	38467.93
685.053	38585.44
685.4	38377.08
685.748	38197.88
686.095	38294.15
686.443	38161.04
686.79	38094.38
687.138	38191.78
687.485	38278.78
687.832	37958.79
688.18	38029.75
688.527	38012.12
688.874	37762.86
689.221	37819.36
689.568	37607.84
689.915	37509.76
690.262	37589.08
690.609	37571.91
690.956	37368.75
691.303	37462.31
691.65	37163.1
691.997	37164.46
692.344	37008.53
692.69	36908.42
693.037	37005.14
693.383	36542.56
693.73	36917.24
694.077	36630.01
694.423	36690.12
694.769	36374.42
695.116	36394.31
695.462	36246.29
695.808	36282.68
696.155	36369.68
696.501	36143.47
696.847	36050.37
697.193	35805.85
697.539	35978.28
697.885	35688.34
698.231	35568.12
698.577	35501.91
698.923	35563.15
699.269	35346.66
699.614	35182.37
699.96	35174.68
700.306	35081.8
700.651	34957.06
700.997	34802.71
701.342	34781.7
701.688	34814.01
702.033	34671.42
702.379	34682.94
702.724	34446.34
703.069	34594.36
703.415	34253.58
703.76	34166.12
704.105	34250.19
704.45	34261.26
704.795	33895.85
705.14	33872.34
705.485	33907.37
705.83	33790.31
706.175	33764.55
706.52	33795.74
706.865	33639.36
707.209	33567.49
707.554	33299.25
707.899	33515.97
708.243	33306.93
708.588	33114.62
708.932	33063.55
709.277	33052.03
709.621	32975.19
709.966	32906.04
710.31	33013.61
710.654	32644.35
710.998	32705.59
711.342	32711.47
711.687	32499.27
712.031	32405.04
712.375	32316.45
712.719	32342.67
713.063	32262.67
713.407	32430.12
713.75	32179.28
714.094	32212.05
714.438	32020.42
714.782	32160.07
715.125	31899.51
715.469	32029.91
715.812	31838.05
716.156	31742.23
716.499	31720.76
716.843	31811.16
717.186	31499.07
717.53	31646.87
717.873	31698.62
718.216	31553.53
718.559	31391.96
718.902	31315.12
719.246	31300.89
719.589	31228.57
719.932	31097.05
720.275	31098.18
720.617	31044.62
720.96	30911.07
721.303	30902.03
721.646	30969.6
721.989	30707.68
722.331	30955.81
722.674	30649.83
723.016	30818.64
723.359	30783.61
723.701	30746.32
724.044	30432.21
724.386	30358.76
724.729	30466.56
725.071	30351.08
725.413	30277.64
725.755	30327.58
726.097	30247.35
726.439	30093.91
726.782	30078.32
727.124	30312.66
727.465	29954.71
727.807	30056.4
728.149	29910.19
728.491	29929.85
728.833	30068.38
729.175	29810.76
729.516	29820.25
729.858	29844.65
730.199	29630.65
730.541	29759.01
730.882	29725.79
731.224	29707.93
731.565	29374.16
731.906	29581.16
732.248	29522.85
732.589	29429.07
732.93	29251
733.271	29392.01
733.612	29349.52
733.953	29380.26
734.294	29303.88
734.635	29296.64
734.976	29218.23
735.317	28923.77
735.658	29077.89
735.999	28973.72
736.339	28931.91
736.68	29065.46
737.021	28925.13
737.361	28852.59
737.702	28902.98
738.042	28910.67
738.383	28684.91
738.723	28813.27
739.063	28641.75
739.404	28690.79
739.744	28681.97
740.084	28551.35
740.424	28514.29
740.764	28438.36
741.104	28553.84
741.444	28494.63
741.784	28375.31
742.124	28447.18
742.464	28304.13
742.804	28321.53
743.143	28284.02
743.483	28196.33
743.823	28159.73
744.162	28047.41
744.502	28102.1
744.841	27965.15
745.181	28151.36
745.52	27947.75
745.86	28073.85
746.199	27873.41
746.538	27932.84
746.877	27986.62
747.216	27910.47
747.556	27772.84
747.895	27756.35
748.234	27732.62
748.573	27504.6
748.911	27672.73
749.25	27613.07
749.589	27458.28
749.928	27480.2
750.267	27509.8
750.605	27350.71
750.944	27251.95
751.283	27174.89
751.621	27337.83
751.96	27042.69
752.298	27135.35
752.636	27009.02
752.975	27033.2
753.313	26890.83
753.651	27055.57
753.989	26831.4
754.327	26857.16
754.666	26676.83
755.004	26870.72
755.342	26758.41
755.679	26687.9
756.017	26602.48
756.355	26602.7
756.693	26396.83
757.031	26468.24
757.368	26392.99
757.706	26339.43
758.044	26220.34
758.381	26289.94
758.719	26113.68
759.056	26057.41
759.394	26021.93
759.731	25889.73
760.068	25833.23
760.405	25757.08
760.743	25727.25
761.08	25771.09
761.417	25494.26
761.754	25530.87
762.091	25464.2
762.428	25462.85
762.765	25286.81
763.102	25361.83
763.438	25242.06
763.775	25120.03
764.112	25112.12
764.449	25055.17
764.785	24972.01
765.122	24803.43
765.458	24731.34
765.795	24699.03
766.131	24683.88
766.467	24530.22
766.804	24442.31
767.14	24366.15
767.476	24379.49
767.812	24303.1
768.148	24250
768.485	24061.08
768.821	23878.03
769.157	23981.98
769.492	23974.52
769.828	23834.64
770.164	23627.42
770.5	23582.44
770.836	23696.34
771.171	23446.63
771.507	23407.08
771.842	23131.38
772.178	23133.64
772.513	23093.64
772.849	23094.77
773.184	23002.35
773.519	23004.38
773.855	22857.27
774.19	22679.19
774.525	22668.34
774.86	22616.14
775.195	22634.45
775.53	22480.33
775.865	22379.31
776.2	22285.3
776.535	22036.95
776.87	22118.98
777.205	21971.87
777.539	21891.64
777.874	21976.61
778.209	21796.05
778.543	21764.87
778.878	21678.54
779.212	21584.98
779.547	21498.43
779.881	21488.04
780.215	21274.48
780.55	21317.19
780.884	21281.94
781.218	21126.01
781.552	21181.83
781.886	20885.57
782.22	20966.92
782.554	20828.39
782.888	20652.13
783.222	20642.64
783.556	20453.94
783.889	20394.96
784.223	20329.42
784.557	20252.81
784.89	20400.16
785.224	20211.01
785.557	20066.38
785.891	20085.59
786.224	19915.65
786.558	20023.89
786.891	19727.18
787.224	19753.39
787.557	19569.22
787.891	19698.93
788.224	19640.63
788.557	19673.85
788.89	19463.23
789.223	19486.06
789.556	19353.63
789.888	19248.32
790.221	19193.41
790.554	19097.14
790.887	19036.58
791.219	18912.51
791.552	18929.69
791.884	18870.93
792.217	18807.88
792.549	18776.02
792.882	18604.5
793.214	18535.57
793.546	18552.52
793.879	18400.89
794.211	18387.33
794.543	18437.04
794.875	18248.12
795.207	18246.54
795.539	18191.4
795.871	18207.67
796.203	18034.12
796.535	18018.07
796.867	17990.28
797.198	17973.1
797.53	17840.67
797.862	17773.78
798.193	17828.47
798.525	17685.65
798.856	17550.97
799.188	17451.98
799.519	17370.63
799.85	17264.64
800.182	17323.63
800.513	17338.09
800.844	17254.93
801.175	17296.51
801.506	17271.42
801.837	17095.38
802.168	17161.6
802.499	17047.02
802.83	16925.9
803.161	16972.45
803.491	16841.15
803.822	16815.62
804.153	16789.18
804.483	16668.95
804.814	16637.99
805.145	16565
805.475	16516.64
805.805	16501.73
806.136	16515.29
806.466	16512.57
806.796	16385.12
807.126	16285.01
807.457	16189.87
807.787	16269.42
808.117	16258.34
808.447	16028.07
808.777	16132.7
809.107	16038.91
809.436	15996.2
809.766	15997.56
810.096	15948.97
810.426	15889.54
810.755	15791.01
811.085	15838.24
811.414	15682.99
811.744	15671.92
812.073	15675.53
812.403	15626.27
812.732	15520.51
813.061	15543.33
813.39	15414.3
813.719	15454.07
814.049	15462.21
814.378	15310.12
814.707	15272.38
815.036	15274.19
815.365	15171.59
815.693	15129.56
816.022	15067.87
816.351	15085.04
816.68	14950.81
817.008	15066.28
817.337	14901.32
817.665	14934.31
817.994	14929.79
818.322	14902.22
818.651	14789.23
818.979	14718.5
819.307	14738.16
819.636	14767.76
819.964	14715.11
820.292	14740.19
820.62	14698.84
820.948	14617.48
821.276	14718.95
821.604	14656.58
821.932	14623.36
822.259	14618.84
822.587	14675.11
822.915	14679.85
823.243	14624.04
823.57	14618.61
823.898	14596.47
824.225	14572.96
824.553	14585.17
824.88	14560.76
825.207	14584.94
825.535	14555.56
825.862	14472.85
826.189	14483.02
826.516	14580.42
826.843	14651.15
827.17	14595.56
827.497	14569.8
827.824	14567.09
828.151	14619.74
828.478	14544.26
828.805	14607.77
829.131	14480.99
829.458	14458.17
829.785	14509.01
830.111	14485.96
830.438	14501.55
830.764	14467.88
831.09	14477.6
831.417	14407.32
831.743	14452.97
832.069	14462.01
832.395	14375.91
832.722	14464.49
833.048	14424.72
833.374	14379.52
833.7	14308.79
834.026	14415.23
834.351	14382.46
834.677	14365.96
835.003	14423.59
835.329	14335.23
835.654	14374.55
835.98	14250.49
836.306	14258.17
836.631	14175.69
836.956	14306.3
837.282	14265.85
837.607	14142.02
837.932	14134.78
838.258	14085.29
838.583	14061.79
838.908	14108.12
839.233	14032.41
839.558	14019.31
839.883	13938.4
840.208	13859.76
840.533	13919.2
840.858	13927.11
841.182	13949.03
841.507	13901.8
841.832	13793.32
842.156	13812.76
842.481	13774.34
842.805	13830.16
843.13	13723.04
843.454	13749.48
843.778	13667
844.103	13585.87
844.427	13620.45
844.751	13589.94
845.075	13490.05
845.399	13447.12
845.723	13382.94
846.047	13460
846.371	13305.43
846.695	13365.99
847.019	13167.35
847.343	13149.95
847.666	12997.86
847.99	13037.86
848.313	13118.54
848.637	12912.44
848.96	12948.37
849.284	12986.11
849.607	12676.29
849.931	12793.12
850.254	12657.08
850.577	12656.86
850.9	12521.27
851.223	12559.01
851.546	12512
851.869	12458.67
852.192	12426.35
852.515	12382.74
852.838	12284.44
853.161	12303.65
853.483	12174.38
853.806	12157.66
854.129	12143.2
854.451	12057.1
854.774	12060.04
855.096	11987.27
855.419	11997.21
855.741	11951.79
856.063	11854.17
856.385	11835.18
856.708	11840.83
857.03	11822.75
857.352	11839.7
857.674	11692.36
857.996	11753.6
858.318	11665.7
858.64	11643.78
858.961	11654.62
859.283	11599.48
859.605	11472.71
859.926	11543.89
860.248	11383.44
860.57	11373.73
860.891	11442.2
861.212	11393.16
861.534	11378.92
861.855	11284.69
862.176	11310.45
862.498	11285.37
862.819	11259.61
863.14	11229.78
863.461	11217.57
863.782	11156.56
864.103	11176.9
864.424	11108.42
864.745	11206.73
865.065	11155.43
865.386	11052.38
865.707	11113.62
866.027	11065.03
866.348	11006.5
866.668	11025.03
866.989	11014.41
867.309	10933.96
867.63	10915.43
867.95	10910.46
868.27	10864.14
868.59	10835.21
868.91	10845.15
869.23	10860.75
869.55	10789.79
869.87	10818.94
870.19	10841.54
870.51	10827.3
870.83	10867.98
871.15	10697.59
871.469	10695.55
871.789	10736.45
872.109	10772.39
872.428	10684.03
872.748	10678.15
873.067	10611.71
873.386	10640.86
873.706	10598.15
874.025	10556.12
874.344	10517.93
874.663	10547.31
874.982	10490.13
875.301	10494.43
875.62	10496.69
875.939	10488.1
876.258	10428.89
876.577	10423.02
876.896	10425.5
877.214	10410.36
877.533	10372.62
877.852	10418.05
878.17	10282.46
878.489	10329.01
878.807	10307.54
879.125	10295.56
879.444	10272.51
879.762	10290.82
880.08	10299.18
880.398	10212.4
880.716	10233.87
881.034	10157.04
881.352	10206.75
881.67	10185.28
881.988	10148.45
882.306	10055.34
882.624	10129.01
882.941	10007.21
883.259	9990.71
883.577	9939.64
883.894	9937.15
884.212	9988
884.529	9882.47
884.846	9897.83
885.164	9875.91
885.481	9813.77
885.798	9878.4
886.115	9804.5
886.432	9786.42
886.75	9737.61
887.067	9706.43
887.383	9729.02
887.7	9681.12
888.017	9592.76
888.334	9640.66
888.651	9629.37
888.967	9673.88
889.284	9584.85
889.6	9594.56
889.917	9527.22
890.233	9549.14
890.55	9442.03
890.866	9454.68
891.182	9401.35
891.498	9449.48
891.815	9365.19
892.131	9409.94
892.447	9307.79
892.763	9265.76
893.079	9308.7
893.395	9203.61
893.71	9249.71
894.026	9207.91
894.342	9214.24
894.657	9117.97
894.973	9120.9
895.289	9123.62
895.604	9070.28
895.92	9044.07
896.235	8905.77
896.55	8958.87
896.865	8891.31
897.181	8892.44
897.496	8857.86
897.811	8862.83
898.126	8823.28
898.441	8801.36
898.756	8769.95
899.071	8680.92
899.386	8659.9
899.7	8675.04
900.015	8630.75
900.33	8527.47
900.644	8582.61
900.959	8552.56
901.273	8508.04
901.588	8537.87
901.902	8457.42
902.216	8428.95
902.531	8379.68
902.845	8411.54
903.159	8339.23
903.473	8316.41
903.787	8283.19
904.101	8211.1
904.415	8181.27
904.729	8198.67
905.042	8164.32
905.356	8096.52
905.67	8097.2
905.984	8065.34
906.297	8020.59
906.611	7975.85
906.924	7947.38
907.237	7978.56
907.551	7953.93
907.864	7891.33
908.177	7825.35
908.491	7803.2
908.804	7757.78
909.117	7766.14
909.43	7723.65
909.743	7686.37
910.056	7633.03
910.368	7610.66
910.681	7548.29
910.994	7507.84
911.307	7550.55
911.619	7392.36
911.932	7443.66
912.244	7434.62
912.557	7388.52
912.869	7372.02
913.181	7296.55
913.494	7274.17
913.806	7263.1
914.118	7213.38
914.43	7216.32
914.742	7205.25
915.054	7127.51
915.366	7082.99
915.678	7092.03
915.99	7019.04
916.302	7054.74
916.613	6986.5
916.925	6967.29
917.236	6951.24
917.548	6946.95
917.859	6875.31
918.171	6868.53
918.482	6827.41
918.794	6812.94
919.105	6793.28
919.416	6739.05
919.727	6740.4
920.038	6686.62
920.349	6618.15
920.66	6630.8
920.971	6599.16
921.282	6602.78
921.593	6592.84
921.903	6497.02
922.214	6510.58
922.525	6477.36
922.835	6428.32
923.146	6376.12
923.456	6433.52
923.767	6371.15
924.077	6393.07
924.387	6332.73
924.697	6324.59
925.008	6245.73
925.318	6201.21
925.628	6229.91
925.938	6221.55
926.248	6160.08
926.558	6091.83
926.867	6119.63
927.177	6081.89
927.487	6028.56
927.796	6030.36
928.106	6076.24
928.416	5970.03
928.725	5974.09
929.034	5918.95
929.344	5943.59
929.653	5858.84
929.962	5857.26
930.271	5752.63
930.581	5749.69
930.89	5768.22
931.199	5731.84
931.508	5752.18
931.817	5675.35
932.125	5664.5
932.434	5699.07
932.743	5611.84
933.051	5640.09
933.36	5574.78
933.669	5534.11
933.977	5541.56
934.286	5515.35
934.594	5474.45
934.902	5462.24
935.21	5412.53
935.519	5390.38
935.827	5395.13
936.135	5362.36
936.443	5304.73
936.751	5309.03
937.059	5317.61
937.367	5238.07
937.674	5300.21
937.982	5207.56
938.29	5208.24
938.597	5188.8
938.905	5128.92
939.213	5111.07
939.52	5052.76
939.827	5090.5
940.135	5112.2
940.442	5077.39
940.749	5016.38
941.056	5000.79
941.363	4963.05
941.67	4940.68
941.977	4981.8
942.284	4909.26
942.591	4937.06
942.898	4869.04
943.205	4882.82
943.511	4855.71
943.818	4822.03
944.125	4826.78
944.431	4780.68
944.738	4753.11
945.044	4724.41
945.35	4691.64
945.657	4708.14
945.963	4665.2
946.269	4635.37
946.575	4676.5
946.881	4638.76
947.187	4614.36
947.493	4585.2
947.799	4557.86
948.105	4552.21
948.41	4473.34
948.716	4487.13
949.022	4441.48
949.327	4427.47
949.633	4449.39
949.938	4416.4
950.244	4440.58
950.549	4422.95
950.854	4369.62
951.16	4333.91
951.465	4316.51
951.77	4329.62
952.075	4303.18
952.38	4291.65
952.685	4278.77
952.99	4242.39
953.294	4185.21
953.599	4205.33
953.904	4145.22
954.209	4154.03
954.513	4170.3
954.818	4104.09
955.122	4129.4
955.426	4072.45
955.731	4047.82
956.035	4047.14
956.339	4004.65
956.643	4061.15
956.948	3972.34
957.252	3980.25
957.556	3982.96
957.86	3949.74
958.163	3992
958.467	3934.15
958.771	3872
959.075	3882.4
959.378	3903.87
959.682	3886.69
959.985	3821.61
960.289	3847.37
960.592	3807.37
960.896	3804.66
961.199	3808.5
961.502	3759.92
961.805	3726.24
962.108	3738.45
962.411	3692.35
962.714	3699.35
963.017	3665
963.32	3658.45
963.623	3660.71
963.926	3611.67
964.228	3598.11
964.531	3573.71
964.833	3582.29
965.136	3544.78
965.438	3547.49
965.741	3538.23
966.043	3497.78
966.345	3506.59
966.648	3503.42
966.95	3501.84
967.252	3457.78
967.554	3410.77
967.856	3418.68
968.158	3406.03
968.46	3364.67
968.761	3364.9
969.063	3338.91
969.365	3342.53
969.666	3343.43
969.968	3310.21
970.269	3288.29
970.571	3298.46
970.872	3255.75
971.174	3237.67
971.475	3227.05
971.776	3219.36
972.077	3221.62
972.378	3201.96
972.679	3227.05
972.98	3205.13
973.281	3160.61
973.582	3127.16
973.883	3085.58
974.183	3140.27
974.484	3066.6
974.785	3086.71
975.085	3065.7
975.386	3043.1
975.686	3065.02
975.986	3060.27
976.287	3020.73
976.587	3007.17
976.887	3039.03
977.187	2995.87
977.487	2963.33
977.787	2991.57
978.087	2953.16
978.387	2934.4
978.687	2925.36
978.987	2907.73
979.286	2888.98
979.586	2918.13
979.885	2885.14
980.185	2854.63
980.484	2862.09
980.784	2815.31
981.083	2812.14
981.382	2848.07
981.682	2798.13
981.981	2774.63
982.28	2744.35
982.579	2767.85
982.878	2779.83
983.177	2760.17
983.475	2738.47
983.774	2697.8
984.073	2702.32
984.372	2694.18
984.67	2694.41
984.969	2694.63
985.267	2656.89
985.566	2651.47
985.864	2658.25
986.162	2634.07
986.461	2596.1
986.759	2583.9
987.057	2555.43
987.355	2594.07
987.653	2543.68
987.951	2558.59
988.249	2566.27
988.547	2512.04
988.844	2512.26
989.142	2521.08
989.44	2483.79
989.737	2515.2
990.035	2480.4
990.332	2477.46
990.63	2452.38
990.927	2414.87
991.224	2439.05
991.521	2446.05
991.819	2428.65
992.116	2415.77
992.413	2405.6
992.71	2385.71
993.006	2363.57
993.303	2331.48
993.6	2375.54
993.897	2353.62
994.193	2291.48
994.49	2300.97
994.787	2273.63
995.083	2237.7
995.379	2286.28
995.676	2271.59
995.972	2255.55
996.268	2232.5
996.565	2258.03
996.861	2213.29
997.157	2216.9
997.453	2208.77
997.749	2187.98
998.044	2177.58
998.34	2189.56
998.636	2174.19
998.932	2166.96
999.227	2132.39
999.523	2100.52
999.818	2134.65
1000.114	2073.41
1000.409	2096.68
1000.704	2093.29
1001	2080.86
1001.295	2076.8
1001.59	2045.16
1001.885	2028.21
1002.18	2044.48
1002.475	2009.68
1002.77	1999.51
1003.065	1996.35
1003.359	2024.14
1003.654	1974.43
1003.949	2003.58
1004.243	1969.23
1004.538	1913.18
1004.832	1924.26
1005.127	1914.31
1005.421	1904.82
1005.715	1910.25
1006.009	1880.64
1006.304	1874.09
1006.598	1846.97
1006.892	1839.74
1007.186	1849.23
1007.48	1825.28
1007.773	1813.75
1008.067	1801.77
1008.361	1795.45
1008.655	1813.98
1008.948	1795
1009.242	1809.01
1009.535	1790.48
1009.829	1759.06
1010.122	1725.84
1010.415	1712.96
1010.708	1720.42
1011.001	1706.86
1011.295	1707.77
1011.588	1685.17
1011.881	1662.12
1012.173	1669.57
1012.466	1643.13
1012.759	1671.38
1013.052	1642.46
1013.344	1646.75
1013.637	1665.96
1013.93	1603.14
1014.222	1593.42
1014.514	1619.41
1014.807	1597.26
1015.099	1586.19
1015.391	1574.21
1015.683	1560.2
1015.976	1554.32
1016.268	1559.97
1016.56	1538.05
1016.851	1511.16
1017.143	1515.68
1017.435	1518.62
1017.727	1463.25
1018.018	1476.13
1018.31	1455.8
1018.602	1498.96
1018.893	1453.54
1019.185	1456.92
1019.476	1437.72
1019.767	1441.78
1020.058	1416.02
1020.35	1402.01
1020.641	1386.64
1020.932	1381.67
1021.223	1380.32
1021.514	1370.37
1021.804	1370.83
1022.095	1382.58
1022.386	1332.18
1022.677	1349.36
1022.967	1329.24
1023.258	1349.81
1023.548	1327.44
1023.839	1318.4
1024.129	1293.09
1024.419	1322.24
1024.709	1263.71
1025	1257.83
1025.29	1297.16
1025.58	1264.84
1025.87	1226.87
1026.16	1239.3
1026.449	1254.9
1026.739	1243.82
1027.029	1220.32
1027.319	1225.74
1027.608	1204.5
1027.898	1182.81
1028.187	1171.51
1028.477	1178.29
1028.766	1175.35
1029.055	1173.99
1029.344	1196.37
1029.634	1134.45
1029.923	1158.18
1030.212	1131.74
1030.501	1125.18
1030.79	1112.08
1031.078	1128.12
1031.367	1115.01
1031.656	1113.43
1031.945	1089.93
1032.233	1086.77
1032.522	1088.35
1032.81	1091.51
1033.099	1030.27
1033.387	1043.6
1033.675	1056.48
1033.963	1037.73
1034.251	1049.48
1034.54	1010.61
1034.828	1007.45
1035.116	1024.85
1035.403	990.5
1035.691	1017.39
1035.979	971.97
1036.267	988.46
1036.554	983.94
1036.842	988.69
1037.129	978.97
1037.417	958.63
1037.704	968.8
1037.992	953.66
1038.279	952.08
1038.566	944.4
1038.853	944.4
1039.14	944.4
