Data from hue_30_FLMS001491_68.txt Node
Date: Mon Feb 06 15:05:46 GMT 2017
User: dcchb
Spectrometer: FLMS00149
Trigger mode: 0
Integration Time (sec): 2.000000E-2
Scans to average: 10
Electric dark correction enabled: true
Nonlinearity correction enabled: false
Boxcar width: 0
XAxis mode: Wavelengths
Number of Pixels in Spectrum: 2048
>>>>>Begin Spectral Data<<<<<
341.393	3.28
341.776	3.28
342.16	3.28
342.543	-63.61
342.927	-87.57
343.31	-74.91
343.693	-52.54
344.077	-49.38
344.46	-57.74
344.843	-49.83
345.226	-43.95
345.61	-13.45
345.993	-31.52
346.376	-7.8
346.759	7.57
347.142	19.32
347.525	33.11
347.908	44.63
348.291	60.68
348.674	100.45
349.057	115.36
349.44	113.1
349.823	135.7
350.206	173.67
350.588	168.02
350.971	222.71
351.354	221.8
351.737	231.29
352.119	260.45
352.502	251.86
352.884	271.97
353.267	286.43
353.65	290.95
354.032	301.8
354.414	304.29
354.797	311.74
355.179	334.12
355.562	325.98
355.944	339.54
356.326	360.56
356.709	333.21
357.091	330.27
357.473	365.75
357.855	328.92
358.238	356.94
358.62	337.05
359.002	339.99
359.384	357.62
359.766	364.85
360.148	330.73
360.53	337.28
360.912	340.44
361.294	339.77
361.676	350.84
362.057	334.57
362.439	317.17
362.821	330.5
363.203	295.92
363.584	330.5
363.966	324.4
364.348	330.05
364.729	330.05
365.111	299.99
365.493	307.9
365.874	318.75
366.256	311.97
366.637	318.07
367.019	316.94
367.4	330.05
367.781	327.34
368.163	329.14
368.544	299.77
368.925	326.21
369.306	316.26
369.688	337.05
370.069	323.95
370.45	311.29
370.831	327.11
371.212	326.66
371.593	327.34
371.974	307.45
372.355	325.53
372.736	317.39
373.117	333.89
373.498	310.84
373.879	333.89
374.26	331.18
374.641	321.91
375.021	324.62
375.402	335.25
375.783	313.55
376.163	346.32
376.544	330.73
376.925	339.77
377.305	331.4
377.686	326.88
378.066	322.36
378.447	336.15
378.827	335.25
379.208	341.57
379.588	338.41
379.968	331.86
380.349	325.53
380.729	334.12
381.109	354.68
381.489	344.06
381.87	352.65
382.25	361.23
382.63	342.93
383.01	341.35
383.39	354
383.77	357.84
384.15	348.58
384.53	342.93
384.91	344.28
385.29	350.61
385.67	376.83
386.049	338.64
386.429	351.29
386.809	361.69
387.189	363.49
387.568	352.19
387.948	376.37
388.328	355.81
388.707	361.69
389.087	367.11
389.466	369.82
389.846	390.84
390.225	369.14
390.605	380.22
390.984	389.71
391.363	379.54
391.743	380.89
392.122	387.67
392.501	375.47
392.881	385.19
393.26	372.31
393.639	382.02
394.018	369.59
394.397	380.67
394.776	391.97
395.155	408.69
395.534	396.71
395.913	390.84
396.292	408.24
396.671	408.01
397.05	385.87
397.429	388.8
397.808	373.21
398.186	397.39
398.565	397.39
398.944	394
399.323	426.32
399.701	386.77
400.08	414.11
400.458	413.21
400.837	404.85
401.215	406.88
401.594	399.42
401.972	443.49
402.351	418.63
402.729	411.85
403.107	409.82
403.486	419.54
403.864	421.34
404.242	435.36
404.62	444.62
404.999	438.75
405.377	405.75
405.755	417.96
406.133	423.83
406.511	415.92
406.889	431.06
407.267	451.85
407.645	459.99
408.023	447.56
408.401	425.41
408.779	457.73
409.156	431.06
409.534	453.21
409.912	452.98
410.29	460.21
410.667	479.42
411.045	466.54
411.422	464.73
411.8	479.87
412.178	464.51
412.555	485.07
412.933	482.36
413.31	494.56
413.687	495.02
414.065	499.76
414.442	494.79
414.819	467.9
415.197	504.73
415.574	511.06
415.951	509.48
416.328	507.67
416.705	507.22
417.082	508.8
417.46	514
417.837	524.84
418.214	521.68
418.591	513.09
418.967	519.2
419.344	513.32
419.721	549.93
420.098	529.59
420.475	545.64
420.852	549.93
421.228	552.87
421.605	536.14
421.982	547.22
422.358	558.74
422.735	580.89
423.111	572.53
423.488	561.68
423.864	557.16
424.241	568.01
424.617	593.09
424.994	597.16
425.37	589.93
425.746	568.91
426.123	571.62
426.499	583.15
426.875	603.26
427.251	597.16
427.627	592.19
428.003	625.18
428.379	619.98
428.756	614.79
429.132	624.96
429.507	632.41
429.883	643.94
430.259	638.51
430.635	646.2
431.011	648.91
431.387	651.62
431.763	678.97
432.138	660.43
432.514	681.9
432.89	675.35
433.265	679.87
433.641	685.29
434.016	681.68
434.392	726.42
434.767	701.34
435.143	712.18
435.518	711.96
435.894	736.59
436.269	733.65
436.644	742.24
437.02	746.08
437.395	765.74
437.77	748.12
438.145	726.42
438.52	765.06
438.895	741.79
439.271	782.24
439.646	762.8
440.021	783.37
440.395	785.63
440.77	784.95
441.145	806.65
441.52	789.02
441.895	830.37
442.27	810.71
442.645	811.17
443.019	833.99
443.394	822.24
443.769	819.3
444.143	826.98
444.518	846.64
444.892	829.24
445.267	823.37
445.641	840.09
446.016	849.58
446.39	863.82
446.764	846.64
447.139	863.59
447.513	863.82
447.887	862.69
448.262	871.73
448.636	881.9
449.01	858.17
449.384	925.74
449.758	909.47
450.132	904.95
450.506	891.61
450.88	889.36
451.254	924.16
451.628	943.82
452.002	937.72
452.376	951.05
452.75	975.68
453.123	952.18
453.497	971.16
453.871	967.32
454.244	986.08
454.618	995.34
454.992	1029.69
455.365	992.86
455.739	1033.53
456.112	1037.83
456.486	1040.76
456.859	1040.76
457.232	1053.87
457.606	1059.52
457.979	1048.9
458.352	1087.09
458.725	1092.97
459.099	1120.99
459.472	1111.95
459.845	1102
460.218	1160.08
460.591	1168.44
460.964	1158.95
461.337	1170.03
461.71	1174.32
462.083	1187.43
462.456	1195.79
462.829	1220.42
463.201	1234.2
463.574	1236.01
463.947	1262.45
464.32	1282.57
464.692	1305.62
465.065	1319.17
465.438	1341.09
465.81	1355.56
466.183	1350.36
466.555	1371.83
466.928	1391.94
467.3	1377.25
467.672	1418.61
468.045	1447.98
468.417	1438.27
468.789	1452.5
469.161	1480.07
469.534	1487.76
469.906	1537.93
470.278	1525.72
470.65	1558.26
471.022	1582.22
471.394	1605.49
471.766	1626.51
472.138	1650.92
472.51	1703.8
472.882	1718.26
473.253	1728.88
473.625	1784.02
473.997	1800.29
474.369	1822.21
474.74	1858.37
475.112	1902.44
475.484	1904.24
475.855	1960.29
476.227	1986.73
476.598	2050.45
476.97	2061.3
477.341	2112.83
477.713	2136.55
478.084	2163.45
478.455	2232.14
478.827	2238.02
479.198	2310.33
479.569	2343.1
479.94	2392.59
480.311	2454.51
480.682	2501.29
481.053	2570.21
481.424	2620.61
481.795	2646.37
482.166	2709.65
482.537	2725.47
482.908	2837.1
483.279	2866.25
483.65	2972.24
484.021	2971.33
484.391	3019.69
484.762	3092.01
485.133	3158.45
485.503	3206.13
485.874	3249.29
486.244	3303.75
486.615	3405.45
486.985	3441.38
487.356	3541.49
487.726	3581.04
488.097	3641.37
488.467	3698.32
488.837	3809.5
489.207	3847.92
489.578	3926.34
489.948	3985.32
490.318	4025.77
490.688	4065.77
491.058	4105.99
491.428	4220.12
491.798	4308.93
492.168	4373.11
492.538	4418.98
492.908	4489.26
493.278	4575.13
493.648	4616.49
494.017	4668.69
494.387	4750.27
494.757	4768.12
495.126	4836.37
495.496	4869.36
495.866	4959.53
496.235	5041.34
496.605	5090.83
496.974	5112.29
497.344	5173.99
497.713	5236.59
498.082	5275.23
498.452	5337.37
498.821	5391.61
499.19	5377.82
499.559	5464.6
499.928	5506.18
500.298	5593.41
500.667	5620.53
501.036	5650.81
501.405	5681.09
501.774	5712.28
502.143	5844.25
502.512	5825.5
502.88	5867.08
503.249	5906.17
503.618	5973.29
503.987	5972.39
504.356	6066.85
504.724	6088.31
505.093	6119.05
505.462	6155.88
505.83	6185.71
506.199	6263.45
506.567	6282.89
506.936	6260.06
507.304	6426.38
507.672	6440.62
508.041	6438.36
508.409	6537.57
508.777	6581.41
509.145	6580.05
509.514	6593.61
509.882	6632.93
510.25	6723.33
510.618	6742.08
510.986	6735.3
511.354	6826.83
511.722	6844
512.09	6894.62
512.458	6907.5
512.826	6980.72
513.193	7016.88
513.561	7089.42
513.929	7070.66
514.297	7125.8
514.664	7173.94
515.032	7196.76
515.4	7228.85
515.767	7279.7
516.135	7291.67
516.502	7267.04
516.869	7381.61
517.237	7416.42
517.604	7416.19
517.972	7465.45
518.339	7461.39
518.706	7508.62
519.073	7587.71
519.44	7555.39
519.808	7672.23
520.175	7615.28
520.542	7754.03
520.909	7784.32
521.276	7755.39
521.643	7815.5
522.009	7921.49
522.376	7936.85
522.743	7978.43
523.11	8059.34
523.477	8037.19
523.843	8073.35
524.21	8146.57
524.577	8290.52
524.943	8307.69
525.31	8325.09
525.676	8407.8
526.043	8455.48
526.409	8492.55
526.776	8540
527.142	8497.97
527.508	8593.56
527.874	8683.05
528.241	8711.97
528.607	8761.92
528.973	8782.03
529.339	8817.28
529.705	8871.97
530.071	8905.64
530.437	8953.55
530.803	8949.93
531.169	9036.49
531.535	9025.64
531.901	9107.9
532.267	9145.41
532.632	9226.54
532.998	9246.42
533.364	9315.35
533.73	9333.2
534.095	9373.65
534.461	9389.7
534.826	9463.37
535.192	9511.05
535.557	9570.48
535.923	9610.26
536.288	9640.54
536.653	9589.92
537.019	9687.32
537.384	9699.52
537.749	9733.19
538.114	9814.54
538.479	9811.38
538.845	9836.24
539.21	9904.94
539.575	9887.31
539.94	9970.02
540.305	9994.65
540.67	10069.9
541.034	10061.77
541.399	10130.24
541.764	10146.06
542.129	10167.98
542.494	10213.18
542.858	10304.7
543.223	10331.82
543.587	10406.85
543.952	10430.8
544.316	10392.61
544.681	10450.23
545.045	10530.91
545.41	10555.77
545.774	10605.71
546.138	10609.1
546.503	10699.94
546.867	10685.71
547.231	10740.85
547.595	10819.94
547.959	10856.1
548.324	10826.49
548.688	10858.36
549.052	10958.69
549.416	11017.9
549.779	10946.27
550.143	11022.42
550.507	11112.14
550.871	11131.8
551.235	11126.15
551.599	11258.57
551.962	11312.13
552.326	11250.89
552.689	11295.86
553.053	11279.82
553.417	11328.4
553.78	11487.49
554.143	11464.44
554.507	11523.65
554.87	11547.15
555.234	11659.02
555.597	11567.72
555.96	11673.7
556.323	11687.04
556.686	11768.62
557.05	11816.98
557.413	11799.58
557.776	11822.63
558.139	11953.47
558.502	11899.46
558.865	11976.75
559.228	12010.64
559.59	12069.17
559.953	11995.5
560.316	12147.36
560.679	12174.26
561.041	12270.98
561.404	12411.99
561.767	12367.92
562.129	12341.48
562.492	12482.72
562.854	12436.17
563.217	12503.74
563.579	12574.25
563.941	12579.9
564.304	12670.74
564.666	12680.46
565.028	12736.73
565.39	12717.29
565.753	12835.03
566.115	12836.61
566.477	12921.13
566.839	12983.5
567.201	13001.81
567.563	13003.16
567.925	13121.12
568.287	13124.74
568.648	13186.21
569.01	13282.93
569.372	13319.54
569.734	13211.07
570.095	13421
570.457	13487.67
570.819	13430.04
571.18	13514.11
571.542	13618.29
571.903	13620.77
572.265	13796.36
572.626	13791.16
572.987	13882.46
573.349	13905.51
573.71	14004.49
574.071	14053.75
574.432	14127.88
574.794	14320.64
575.155	14338.72
575.516	14316.12
575.877	14470.24
576.238	14520.18
576.599	14637.69
576.96	14697.35
577.32	14678.82
577.681	14943.67
578.042	14978.25
578.403	15097.8
578.763	15204.68
579.124	15354.06
579.485	15491.01
579.845	15670.89
580.206	15602.87
580.566	15834.27
580.927	15952.46
581.287	16197.65
581.648	16149.52
582.008	16448.27
582.368	16616.85
582.728	16717.41
583.089	16881.03
583.449	17045.99
583.809	17262.71
584.169	17588.35
584.529	17666.54
584.889	18030.83
585.249	18073.08
585.609	18302.23
585.969	18544.71
586.329	18732.5
586.688	18977.69
587.048	19129.55
587.408	19345.37
587.768	19546.72
588.127	19856.31
588.487	19960.72
588.846	20407.94
589.206	20487.03
589.565	20748.95
589.925	21080.91
590.284	21380.79
590.643	21489.72
591.003	21973.32
591.362	22192.07
591.721	22460.99
592.08	22662.79
592.44	23026.63
592.799	23253.74
593.158	23519.95
593.517	23847.62
593.876	24149.31
594.235	24269.53
594.593	24655.28
594.952	24896.41
595.311	25139.56
595.67	25429.73
596.029	25881.69
596.387	26095.25
596.746	26406.65
597.104	26647.1
597.463	26831.72
597.822	27154.88
598.18	27360.3
598.538	27701.31
598.897	28050.9
599.255	28122.99
599.613	28769.3
599.972	28884.33
600.33	29101.72
600.688	29305.33
601.046	29701.03
601.404	30033.67
601.762	30209.49
602.12	30435.47
602.478	30794.56
602.836	31108.67
603.194	31121.33
603.552	31443.81
603.91	31503.24
604.268	31843.8
604.625	32003.34
604.983	32304.35
605.341	32510.9
605.698	32830.44
606.056	33020.49
606.413	33277.66
606.771	33492.11
607.128	33716.29
607.485	33763.07
607.843	34022.95
608.2	34403.28
608.557	34697.28
608.914	34691.4
609.272	35062.92
609.629	35308.11
609.986	35509.91
610.343	35539.52
610.7	35939.51
611.057	36053.4
611.414	36242.32
611.771	36289.55
612.127	36546.04
612.484	36845.47
612.841	36903.1
613.198	36861.74
613.554	37117.56
613.911	37424.21
614.267	37576.98
614.624	37557.32
614.98	37752.79
615.337	38186.91
615.693	38098.09
616.05	38161.6
616.406	38553
616.762	38496.05
617.118	38657.18
617.475	38803.61
617.831	38929.94
618.187	39198.18
618.543	39113.89
618.899	39667.77
619.255	39595.23
619.611	39530.82
619.967	39733.08
620.323	40002.68
620.678	39985.05
621.034	39882.45
621.39	40091.49
621.746	40076.57
622.101	40644.02
622.457	40287.64
622.812	40503.23
623.168	40625.03
623.523	40659.38
623.879	40777.8
624.234	40665.03
624.589	40913.84
624.945	40968.53
625.3	41017.79
625.655	41036.1
626.01	41161.29
626.365	41369.42
626.72	41237.9
627.075	41380.72
627.43	41450.77
627.785	41305.69
628.14	41444.45
628.495	41493.03
628.85	41423.66
629.205	41479.7
629.559	41597.66
629.914	41432.47
630.269	41626.36
630.623	41545.91
630.978	41523.77
631.332	41681.73
631.687	41756.76
632.041	41585.46
632.396	41839.24
632.75	41609.19
633.104	41673.14
633.459	41584.56
633.813	41602.18
634.167	41748.39
634.521	41678.57
634.875	41797.43
635.229	41859.13
635.583	41479.93
635.937	41525.12
636.291	41519.93
636.645	41501.62
636.999	41554.5
637.352	41760.37
637.706	41542.52
638.06	41689.86
638.413	41591.34
638.767	41516.99
639.121	41582.75
639.474	41444
639.828	41358.12
640.181	41520.38
640.534	41435.41
640.888	41487.16
641.241	41314.28
641.594	41471.56
641.947	41521.73
642.301	41486.25
642.654	41501.62
643.007	41500.26
643.36	41436.76
643.713	41326.94
644.066	41544.78
644.419	41183.89
644.771	41103.44
645.124	40647.41
645.477	40588.42
645.83	40391.82
646.182	40351.82
646.535	40318.15
646.888	40364.48
647.24	39976.24
647.593	40277.92
647.945	40166.97
648.298	40006.97
648.65	40002.68
649.002	39944.6
649.355	39983.02
649.707	40002.23
650.059	40062.79
650.411	40664.35
650.763	40638.14
651.115	41053.04
651.467	41095.08
651.819	40879.04
652.171	40756.1
652.523	40851.92
652.875	40624.13
653.227	40719.49
653.578	41025.93
653.93	40810.11
654.282	40640.17
654.633	40639.5
654.985	40623.9
655.337	40683.11
655.688	40613.51
656.039	40815.09
656.391	40451.25
656.742	40557.92
657.094	40503.68
657.445	40683.11
657.796	40597.92
658.147	40587.52
658.498	40567.41
658.849	40469.78
659.2	40516.79
659.551	40408.77
659.902	40438.15
660.253	40501.42
660.604	40448.54
660.955	40364.48
661.306	40479.73
661.656	40406.73
662.007	40522.44
662.358	40368.54
662.708	40380.75
663.059	40398.37
663.409	40213.74
663.76	40477.01
664.11	40419.62
664.461	40539.84
664.811	40369.9
665.161	40358.6
665.511	40197.93
665.862	40240.86
666.212	40444.02
666.562	40306.85
666.912	40276.12
667.262	40342.33
667.612	40327.41
667.962	40409.22
668.312	40274.53
668.662	40429.11
669.011	40333.74
669.361	40286.51
669.711	40277.02
670.06	40236.57
670.41	40123.35
670.76	40067.76
671.109	40234.54
671.459	40139.4
671.808	40181.43
672.157	40131.49
672.507	39935.56
672.856	39969.91
673.205	39942.11
673.554	40039.74
673.904	39902.11
674.253	40165.16
674.602	40047.2
674.951	39404.95
675.3	39251.96
675.649	39942.11
675.998	39763.36
676.346	39687.43
676.695	40034.54
677.044	39791.61
677.393	39888.78
677.741	39850.14
678.09	39763.81
678.438	39690.59
678.787	39786.19
679.135	39860.76
679.484	39417.38
679.832	39541.9
680.181	39491.73
680.529	39576.25
680.877	39441.56
681.225	39541.67
681.573	39563.59
681.922	39264.17
682.27	39305.29
682.618	39157.28
682.966	39002.48
683.314	39234.79
683.661	39093.1
684.009	38861.01
684.357	38872.31
684.705	38808.13
685.053	38809.49
685.4	38716.61
685.748	38533.34
686.095	38568.14
686.443	38415.37
686.79	38468.71
687.138	38332.21
687.485	38512.09
687.832	38226.9
688.18	38306.9
688.527	38145.32
688.874	38055.16
689.221	38029.62
689.568	37884.77
689.915	37812.68
690.262	37776.52
690.609	37847.48
690.956	37732.68
691.303	37584.44
691.65	37469.64
691.997	37530.65
692.344	37238.91
692.69	37233.26
693.037	37211.34
693.383	37004.56
693.73	37132.02
694.077	36852.48
694.423	36895.64
694.769	36874.85
695.116	36702.2
695.462	36541.75
695.808	36365.03
696.155	36621.52
696.501	36245.71
696.847	36286.16
697.193	35925.04
697.539	35982.44
697.885	35887.76
698.231	35743.35
698.577	35731.38
698.923	35711.04
699.269	35691.6
699.614	35310.15
699.96	35317.15
700.306	35324.61
700.651	35248
700.997	35052.3
701.342	35055.24
701.688	35126.2
702.033	34916.94
702.379	34848.24
702.724	34815.47
703.069	34802.14
703.415	34562.59
703.76	34361.7
704.105	34450.05
704.45	34409.15
704.795	34169.38
705.14	34077.86
705.485	34100.91
705.83	33946.57
706.175	34002.83
706.52	33909.05
706.865	33901.14
707.209	33699.34
707.554	33509.74
707.899	33672.22
708.243	33504.32
708.588	33462.06
708.932	33305.68
709.277	33202.86
709.621	33133.71
709.966	32879.93
710.31	33130.09
710.654	32787.73
710.998	32854.62
711.342	32742.53
711.687	32693.72
712.031	32641.06
712.375	32607.17
712.719	32544.34
713.063	32439.26
713.407	32488.52
713.75	32313.16
714.094	32351.8
714.438	32195.42
714.782	32260.51
715.125	32110.46
715.469	32133.96
715.812	31961.31
716.156	31752.05
716.499	31806.06
716.843	31842.21
717.186	31658.04
717.53	31767.64
717.873	31862.1
718.216	31662.56
718.559	31506.86
718.902	31286.07
719.246	31449
719.589	31381.43
719.932	31228.22
720.275	31193.87
720.617	31140.54
720.96	31201.55
721.303	31037.04
721.646	31187.54
721.989	30841.79
722.331	30993.2
722.674	30852.86
723.016	30977.6
723.359	30778.74
723.701	30771.96
724.044	30542.13
724.386	30509.59
724.729	30690.15
725.071	30513.89
725.413	30440.22
725.755	30587.56
726.097	30271.63
726.439	30188.25
726.782	30307.11
727.124	30355.47
727.465	30176.72
727.807	30202.26
728.149	29994.58
728.491	30009.49
728.833	30096.72
729.175	30000.45
729.516	29890.63
729.858	29851.31
730.199	29857.41
730.541	29903.96
730.882	29689.28
731.224	29768.14
731.565	29564.08
731.906	29642.27
732.248	29513.24
732.589	29349.85
732.93	29468.26
733.271	29414.71
733.612	29330.19
733.953	29425.33
734.294	29297.42
734.635	29333.13
734.976	29360.7
735.317	29112.34
735.658	29151.89
735.999	29115.96
736.339	29050.2
736.68	29188.27
737.021	29039.12
737.361	28872.8
737.702	29085
738.042	28953.02
738.383	28724.33
738.723	28826.93
739.063	28697.89
739.404	28768.4
739.744	28745.8
740.084	28638.23
740.424	28609.3
740.764	28580.38
741.104	28638.46
741.444	28409.99
741.784	28481.62
742.124	28517.78
742.464	28351.68
742.804	28376.32
743.143	28296.09
743.483	28281.4
743.823	28146.72
744.162	28183.78
744.502	28246.83
744.841	28073.05
745.181	28205.02
745.52	27936.55
745.86	28089.77
746.199	28052.03
746.538	27879.15
746.877	27946.5
747.216	28009.77
747.556	27919.6
747.895	27842.32
748.234	27674.19
748.573	27683.45
748.911	27606.84
749.25	27574.53
749.589	27519.62
749.928	27640.74
750.267	27477.13
750.605	27580.4
750.944	27422.22
751.283	27265.61
751.621	27460.18
751.96	27131.6
752.298	27253.41
752.636	27247.98
752.975	27141.09
753.313	27060.42
753.651	27154.65
753.989	26997.6
754.327	26914.43
754.666	26768.67
755.004	26935.45
755.342	26831.05
755.679	26792.63
756.017	26672.41
756.355	26772.52
756.693	26568.91
757.031	26535.46
757.368	26500.89
757.706	26475.8
758.044	26418.4
758.381	26338.86
758.719	26228.35
759.056	26254.11
759.394	26279.42
759.731	26015.93
760.068	26111.06
760.405	25946.32
760.743	25818.42
761.08	25837.17
761.417	25801.92
761.754	25665.2
762.091	25676.5
762.428	25568.71
762.765	25436.73
763.102	25420.24
763.438	25314.93
763.775	25215.27
764.112	25168.49
764.449	25277.87
764.785	25117.87
765.122	24974.6
765.458	24904.54
765.795	24765.56
766.131	24887.14
766.467	24582.52
766.804	24577.55
767.14	24522.18
767.476	24464.1
767.812	24290.32
768.148	24484.67
768.485	24243.77
768.821	24092.59
769.157	24034.06
769.492	24097.11
769.828	24009.2
770.164	23883.33
770.5	23775.99
770.836	23720.17
771.171	23566.27
771.507	23585.71
771.842	23444.69
772.178	23413.28
772.513	23353.85
772.849	23267.98
773.184	23080.18
773.519	23155.21
773.855	22979.85
774.19	22866.63
774.525	22758.38
774.86	22816.91
775.195	22878.61
775.53	22613.08
775.865	22480.43
776.2	22315.01
776.535	22360.43
776.87	22309.58
777.205	22183.94
777.539	22048.35
777.874	22123.83
778.209	21971.96
778.543	21904.17
778.878	21822.14
779.212	21843.15
779.547	21593.67
779.881	21644.97
780.215	21435.71
780.55	21503.05
780.884	21297.63
781.218	21312.55
781.552	21303.51
781.886	21143.29
782.22	21033.23
782.554	20936.51
782.888	20814.03
783.222	20786.91
783.556	20581.94
783.889	20665.11
784.223	20506.01
784.557	20473.02
784.89	20443.42
785.224	20413.81
785.557	20239.35
785.891	20150.77
786.224	20100.83
786.558	20044.56
786.891	19983.09
787.224	19889.53
787.557	19695.41
787.891	19850.89
788.224	19754.62
788.557	19695.41
788.89	19645.7
789.223	19578.36
789.556	19452.48
789.888	19408.19
790.221	19277.8
790.554	19127.07
790.887	19130.01
791.219	19074.87
791.552	19028.31
791.884	19028.09
792.217	18847.53
792.549	18837.36
792.882	18655.67
793.214	18578.16
793.546	18765.27
793.879	18540.87
794.211	18499.74
794.543	18563.69
794.875	18383.36
795.207	18472.85
795.539	18374.32
795.871	18353.3
796.203	18152.18
796.535	18115.57
796.867	17968.45
797.198	17945.86
797.53	17949.25
797.862	17876.48
798.193	17831.96
798.525	17716.94
798.856	17682.81
799.188	17561.69
799.519	17454.34
799.85	17414.8
800.182	17388.81
800.513	17548.8
800.844	17270.17
801.175	17311.07
801.506	17305.87
801.837	17186.78
802.168	17290.51
802.499	17089.83
802.83	16960.35
803.161	16998.54
803.491	16987.24
803.822	16984.98
804.153	16810.07
804.483	16723.29
804.814	16610.52
805.145	16671.31
805.475	16682.84
805.805	16582.05
806.136	16533.92
806.466	16643.97
806.796	16419.79
807.126	16393.13
807.457	16361.72
807.787	16356.07
808.117	16227.71
808.447	16159.91
808.777	16304.77
809.107	16086.92
809.436	16063.42
809.766	16120.14
810.096	16043.76
810.426	15918.56
810.755	15937.55
811.085	15901.16
811.414	15886.47
811.744	15764.9
812.073	15725.8
812.403	15675.41
812.732	15680.15
813.061	15598.57
813.39	15533.94
813.719	15524
814.049	15613.04
814.378	15501.17
814.707	15466.82
815.036	15416.43
815.365	15270.45
815.693	15144.57
816.022	15218.24
816.351	15202.43
816.68	15074.52
817.008	15089.89
817.337	14946.16
817.665	14969.66
817.994	15040.4
818.322	14938.93
818.651	14921.08
818.979	14841.53
819.307	14841.98
819.636	14876.78
819.964	14712.95
820.292	14801.08
820.62	14788.65
820.948	14617.13
821.276	14676.11
821.604	14678.6
821.932	14768.09
822.259	14739.84
822.587	14747.75
822.915	14638.6
823.243	14684.92
823.57	14609.9
823.898	14684.7
824.225	14596.57
824.553	14638.15
824.88	14622.33
825.207	14741.87
825.535	14629.56
825.862	14666.85
826.189	14555.89
826.516	14701.65
826.843	14680.18
827.17	14690.35
827.497	14689.44
827.824	14656.68
828.151	14583.91
828.478	14553.85
828.805	14577.81
829.131	14539.62
829.458	14559.96
829.785	14499.39
830.111	14557.47
830.438	14615.77
830.764	14553.18
831.09	14585.72
831.417	14563.35
831.743	14567.87
832.069	14448.32
832.395	14506.85
832.722	14499.39
833.048	14441.32
833.374	14426.4
833.7	14437.25
834.026	14445.83
834.351	14524.93
834.677	14429.34
835.003	14418.04
835.329	14405.16
835.654	14375.55
835.98	14370.81
836.306	14239.96
836.631	14326.06
836.956	14318.38
837.282	14273.64
837.607	14199.06
837.932	14178.5
838.258	14216.24
838.583	14194.32
838.908	14174.66
839.233	14168.55
839.558	14050.59
839.883	14055.79
840.208	14032.29
840.533	13976.47
840.858	14061.21
841.182	14066.41
841.507	13971.05
841.832	13906.64
842.156	13826.19
842.481	13932.63
842.805	13755.46
843.13	13799.52
843.454	13776.93
843.778	13731.28
844.103	13623.03
844.427	13711.39
844.751	13659.19
845.075	13594.33
845.399	13549.81
845.723	13544.62
846.047	13488.57
846.371	13397.27
846.695	13415.58
847.019	13272.31
847.343	13314.57
847.666	13167.9
847.99	13148.02
848.313	13126.55
848.637	12944.63
848.96	12963.61
849.284	12934.91
849.607	12887.68
849.931	12914.58
850.254	12712.32
850.577	12769.49
850.9	12708.48
851.223	12596.84
851.546	12474.14
851.869	12422.84
852.192	12515.94
852.515	12405.21
852.838	12390.3
853.161	12363.4
853.483	12346
853.806	12258.77
854.129	12234.37
854.451	12216.06
854.774	12095.39
855.096	12095.39
855.419	12006.8
855.741	11989.63
856.063	12002.74
856.385	11924.09
856.708	11874.38
857.03	11854.72
857.352	11826.24
857.674	11821.72
857.996	11813.81
858.318	11757.09
858.64	11631.45
858.961	11673.25
859.283	11597.77
859.605	11576.31
859.926	11572.01
860.248	11522.97
860.57	11574.72
860.891	11480.26
861.212	11471
861.534	11396.42
861.855	11405.91
862.176	11430.77
862.498	11360.04
862.819	11316.65
863.14	11365.01
863.461	11199.59
863.782	11254.28
864.103	11265.81
864.424	11266.71
864.745	11267.61
865.065	11145.58
865.386	11135.87
865.707	11157.56
866.027	11115.07
866.348	11052.03
866.668	11064.91
866.989	10970.45
867.309	10901.07
867.63	10885.25
867.95	10988.98
868.27	10862.88
868.59	10883.89
868.91	10900.62
869.23	10886.38
869.55	10787.17
869.87	10821.07
870.19	10805.7
870.51	10743.56
870.83	10843.44
871.15	10770
871.469	10735.65
871.789	10738.36
872.109	10744.01
872.428	10657.01
872.748	10686.84
873.067	10669.66
873.386	10673.28
873.706	10681.64
874.025	10600.29
874.344	10643.67
874.663	10651.13
874.982	10588.08
875.301	10559.84
875.62	10563.23
875.939	10485.71
876.258	10480.97
876.577	10451.14
876.896	10489.1
877.214	10389.44
877.533	10367.75
877.852	10439.61
878.17	10400.07
878.489	10399.84
878.807	10374.53
879.125	10332.95
879.444	10395.09
879.762	10251.82
880.08	10295.44
880.398	10255.89
880.716	10213.63
881.034	10248.88
881.352	10231.71
881.67	10172.95
881.988	10195.78
882.306	10096.57
882.624	10128.66
882.941	10053.18
883.259	10137.25
883.577	10007.31
883.894	10003.47
884.212	10068.55
884.529	9951.04
884.846	9982.68
885.164	9916.69
885.481	9904.26
885.798	9907.88
886.115	9857.03
886.432	9825.84
886.75	9803.7
887.067	9784.04
887.383	9770.93
887.7	9760.31
888.017	9669.24
888.334	9710.59
888.651	9716.69
888.967	9631.05
889.284	9646.64
889.6	9560.77
889.917	9528.45
890.233	9559.41
890.55	9456.59
890.866	9472.63
891.182	9440.99
891.498	9432.18
891.815	9482.12
892.131	9396.7
892.447	9366.65
892.763	9325.97
893.079	9332.07
893.395	9228.34
893.71	9198.06
894.026	9311.96
894.342	9188.12
894.657	9099.76
894.973	9107.9
895.289	9092.76
895.604	9087.33
895.92	9005.07
896.235	8979.76
896.55	8979.09
896.865	8979.54
897.181	8911.29
897.496	8979.76
897.811	8875.36
898.126	8815.02
898.441	8821.8
898.756	8790.62
899.071	8718.75
899.386	8773.44
899.7	8618.64
900.015	8611.19
900.33	8612.09
900.644	8606.67
900.959	8547.23
901.273	8541.13
901.588	8476.27
901.902	8471.75
902.216	8458.42
902.531	8379.1
902.845	8389.95
903.159	8299.78
903.473	8308.14
903.787	8267.01
904.101	8267.47
904.415	8229.05
904.729	8158.54
905.042	8105.44
905.356	8165.77
905.67	8106.11
905.984	8084.65
906.297	8058.43
906.611	8030.18
906.924	7936.85
907.237	7892.11
907.551	7922.62
907.864	7925.33
908.177	7880.81
908.491	7856.63
908.804	7740.25
909.117	7747.03
909.43	7712.23
909.743	7708.61
910.056	7648.95
910.368	7593.36
910.681	7544.55
910.994	7582.74
911.307	7519.69
911.619	7466.81
911.932	7492.35
912.244	7433.82
912.557	7383.2
912.869	7388.62
913.181	7325.57
913.494	7271.56
913.806	7282.86
914.118	7270.2
914.43	7236.31
914.742	7190.43
915.054	7158.57
915.366	7109.76
915.678	7091.45
915.99	7101.17
916.302	7080.6
916.613	7030.66
916.925	6992.25
917.236	7004.45
917.548	6893.72
917.859	6910.21
918.171	6902.3
918.482	6887.84
918.794	6849.88
919.105	6826.83
919.416	6762.2
919.727	6717.22
920.038	6708.64
920.349	6670.9
920.66	6658.24
920.971	6658.02
921.282	6621.63
921.593	6538.7
921.903	6556.1
922.214	6522.2
922.525	6508.64
922.835	6437.23
923.146	6427.97
923.456	6436.1
923.767	6397.01
924.077	6408.08
924.387	6335.99
924.697	6261.19
925.008	6272.72
925.318	6253.28
925.628	6234.53
925.938	6195.43
926.248	6173.74
926.558	6154.98
926.867	6113.85
927.177	6124.47
927.487	6066.39
927.796	5998.37
928.106	6005.6
928.416	5972.39
928.725	5921.77
929.034	5910.69
929.344	5940.3
929.653	5938.26
929.962	5887.87
930.271	5851.71
930.581	5780.07
930.89	5755.67
931.199	5787.98
931.508	5726.97
931.817	5754.09
932.125	5747.98
932.434	5686.97
932.743	5578.05
933.051	5612.85
933.36	5553.64
933.669	5560.64
933.977	5535.11
934.286	5566.75
934.594	5566.97
934.902	5469.57
935.21	5456.01
935.519	5455.79
935.827	5413.53
936.135	5390.48
936.443	5341.44
936.751	5333.31
937.059	5362.91
937.367	5271.61
937.674	5261.44
937.982	5270.71
938.29	5225.74
938.597	5220.77
938.905	5169.69
939.213	5156.59
939.52	5117.27
939.827	5146.42
940.135	5104.84
940.442	5052.18
940.749	4998.17
941.056	5057.38
941.363	4997.27
941.67	5003.6
941.977	4976.48
942.284	4924.96
942.591	4903.26
942.898	4908.68
943.205	4849.03
943.511	4798.18
943.818	4874.34
944.125	4814.9
944.431	4742.36
944.738	4768.12
945.044	4767.9
945.35	4717.05
945.657	4681.57
945.963	4701.68
946.269	4673.21
946.575	4627.34
946.881	4627.34
947.187	4612.65
947.493	4567.45
947.799	4560.67
948.105	4498.98
948.41	4549.37
948.716	4544.4
949.022	4441.35
949.327	4508.7
949.633	4433.22
949.938	4409.71
950.244	4413.56
950.549	4381.69
950.854	4359.32
951.16	4375.59
951.465	4366.78
951.77	4280.9
952.075	4304.86
952.38	4275.71
952.685	4242.26
952.99	4193.22
953.294	4252.88
953.599	4174.47
953.904	4198.19
954.209	4167.69
954.513	4154.13
954.818	4163.62
955.122	4097.86
955.426	4127.69
955.731	4064.64
956.035	4083.4
956.339	4035.49
956.643	4032.78
956.948	3978.77
957.252	3960.91
957.556	3997.75
957.86	3983.51
958.163	3974.92
958.467	3935.38
958.771	3913.23
959.075	3913.68
959.378	3878.43
959.682	3904.42
959.985	3864.87
960.289	3833.01
960.592	3810.41
960.896	3785.78
961.199	3782.84
961.502	3795.72
961.805	3746.46
962.108	3712.11
962.411	3763.4
962.714	3684.76
963.017	3711.43
963.32	3686.8
963.623	3657.42
963.926	3677.53
964.228	3624.42
964.531	3576.52
964.833	3621.94
965.136	3590.3
965.438	3548.95
965.741	3572
966.043	3487.7
966.345	3490.64
966.648	3491.32
966.95	3501.94
967.252	3458.33
967.554	3452.9
967.856	3459.23
968.158	3409.29
968.46	3397.76
968.761	3369.52
969.063	3389.4
969.365	3356.86
969.666	3365
969.968	3340.14
970.269	3338.78
970.571	3309.63
970.872	3287.94
971.174	3259.91
971.475	3287.03
971.776	3297.65
972.077	3229.63
972.378	3215.4
972.679	3190.31
972.98	3173.59
973.281	3177.88
973.582	3165.23
973.883	3169.3
974.183	3108.96
974.484	3107.38
974.785	3084.78
975.085	3093.14
975.386	3093.36
975.686	3020.82
975.986	3073.48
976.287	3030.77
976.587	3015.85
976.887	3025.34
977.187	3021.95
977.487	2993.48
977.787	2949.64
978.087	2951.67
978.387	2935.63
978.687	2924.56
978.987	2888.62
979.286	2928.4
979.586	2940.37
979.885	2895.63
980.185	2876.87
980.484	2854.73
980.784	2855.63
981.083	2819.25
981.382	2806.59
981.682	2820.6
981.981	2754.16
982.28	2759.36
982.579	2764.33
982.878	2781.06
983.177	2724.34
983.475	2728.18
983.774	2737.67
984.073	2690.66
984.372	2691.12
984.67	2687.95
984.969	2712.58
985.267	2679.36
985.566	2647.73
985.864	2624
986.162	2650.21
986.461	2594.4
986.759	2590.1
987.057	2584.9
987.355	2576.77
987.653	2540.16
987.951	2573.15
988.249	2533.83
988.547	2525.47
988.844	2534.74
989.142	2524.34
989.44	2470.56
989.737	2480.95
990.035	2466.26
990.332	2440.95
990.63	2456.09
990.927	2449.09
991.224	2399.37
991.521	2419.48
991.819	2435.08
992.116	2400.28
992.413	2385.36
992.71	2357.57
993.006	2354.63
993.303	2365.02
993.6	2335.87
993.897	2357.34
994.193	2335.87
994.49	2316.66
994.787	2281.41
995.083	2311.01
995.379	2258.36
995.676	2284.57
995.972	2239.6
996.268	2249.32
996.565	2215.2
996.861	2231.01
997.157	2202.77
997.453	2191.92
997.749	2177
998.044	2163.45
998.34	2171.13
998.636	2173.84
998.932	2162.32
999.227	2141.98
999.523	2115.99
999.818	2123.22
1000.114	2117.8
1000.409	2096.56
1000.704	2071.47
1001	2078.7
1001.295	2054.07
1001.59	2049.55
1001.885	2033.73
1002.18	1990.8
1002.475	2008.42
1002.77	2021.08
1003.065	1998.25
1003.359	1986.28
1003.654	1958.25
1003.949	1963
1004.243	1954.86
1004.538	1939.27
1004.832	1936.56
1005.127	1925.26
1005.421	1927.29
1005.715	1886.62
1006.009	1905.83
1006.304	1896.56
1006.598	1857.24
1006.892	1851.59
1007.186	1804.36
1007.48	1834.64
1007.773	1843.45
1008.067	1806.62
1008.361	1769.11
1008.655	1803.23
1008.948	1774.76
1009.242	1760.74
1009.535	1772.72
1009.829	1734.08
1010.122	1746.73
1010.415	1730.91
1010.708	1744.25
1011.001	1739.95
1011.295	1708.09
1011.588	1696.79
1011.881	1664.25
1012.173	1669.67
1012.466	1689.33
1012.759	1673.52
1013.052	1683.46
1013.344	1659.5
1013.637	1628.32
1013.93	1636.91
1014.222	1612.05
1014.514	1610.69
1014.807	1607.53
1015.099	1578.6
1015.391	1549
1015.683	1599.62
1015.976	1552.16
1016.268	1527.53
1016.56	1511.26
1016.851	1525.04
1017.143	1506.97
1017.435	1494.09
1017.727	1500.64
1018.018	1488.66
1018.31	1488.44
1018.602	1488.66
1018.893	1483.01
1019.185	1448.66
1019.476	1468.55
1019.767	1437.14
1020.058	1419.06
1020.35	1396.91
1020.641	1365.73
1020.932	1404.14
1021.223	1399.62
1021.514	1410.02
1021.804	1371.83
1022.095	1371.83
1022.386	1378.16
1022.677	1362.79
1022.967	1348.33
1023.258	1349.91
1023.548	1338.83
1023.839	1331.83
1024.129	1325.95
1024.419	1294.99
1024.709	1276.01
1025	1287.31
1025.29	1275.56
1025.58	1269.91
1025.87	1279.63
1026.16	1229.46
1026.449	1228.56
1026.739	1240.76
1027.029	1251.38
1027.319	1240.53
1027.608	1208.44
1027.898	1215.67
1028.187	1198.27
1028.477	1178.39
1028.766	1162.57
1029.055	1175.45
1029.344	1153.75
1029.634	1168.9
1029.923	1162.34
1030.212	1134.09
1030.501	1141.55
1030.79	1118.95
1031.078	1126.41
1031.367	1100.2
1031.656	1106.75
1031.945	1090.71
1032.233	1105.85
1032.522	1107.2
1032.81	1081.67
1033.099	1039.41
1033.387	1086.64
1033.675	1058.16
1033.963	1044.15
1034.251	1060.65
1034.54	1051.38
1034.828	1032.85
1035.116	1044.15
1035.403	1018.84
1035.691	1008.45
1035.979	1021.78
1036.267	997.37
1036.554	981.33
1036.842	987.66
1037.129	1005.96
1037.417	971.16
1037.704	970.03
1037.992	949.92
1038.279	949.01
1038.566	969.13
1038.853	969.13
1039.14	969.13
