Data from hue_70_FLMS001491_6.txt Node
Date: Mon Feb 06 15:19:59 GMT 2017
User: dcchb
Spectrometer: FLMS00149
Trigger mode: 0
Integration Time (sec): 2.000000E-2
Scans to average: 10
Electric dark correction enabled: true
Nonlinearity correction enabled: false
Boxcar width: 0
XAxis mode: Wavelengths
Number of Pixels in Spectrum: 2048
>>>>>Begin Spectral Data<<<<<
341.393	0.01
341.776	0.01
342.16	0.01
342.543	-72.07
342.927	-73.43
343.31	-54.22
343.693	-67.1
344.077	-70.72
344.46	-62.13
344.843	-51.06
345.226	-39.31
345.61	-34.56
345.993	8.38
346.376	-17.61
346.759	-21
347.142	25.32
347.525	41.37
347.908	62.16
348.291	90.63
348.674	94.02
349.057	95.83
349.44	119.11
349.823	121.37
350.206	169.73
350.588	192.55
350.971	209.73
351.354	216.51
351.737	219.9
352.119	260.57
352.502	251.98
352.884	289.72
353.267	272.55
353.65	289.72
354.032	303.96
354.414	305.09
354.797	320.23
355.179	320.23
355.562	320.46
355.944	334.92
356.326	337.86
356.709	350.74
357.091	348.03
357.473	336.28
357.855	353.23
358.238	338.08
358.62	343.51
359.002	346.22
359.384	339.89
359.766	362.49
360.148	355.71
360.53	334.47
360.912	330.4
361.294	338.54
361.676	334.47
362.057	320.46
362.439	348.03
362.821	330.63
363.203	343.96
363.584	334.69
363.966	315.26
364.348	313.23
364.729	314.36
365.111	293.57
365.493	310.29
365.874	308.71
366.256	307.35
366.637	313.9
367.019	310.74
367.4	318.2
367.781	306.67
368.163	318.88
368.544	331.53
368.925	325.2
369.306	299.89
369.688	324.75
370.069	312.55
370.45	315.71
370.831	319.33
371.212	300.12
371.593	285.43
371.974	307.8
372.355	324.3
372.736	302.15
373.117	296.73
373.498	314.36
373.879	294.7
374.26	314.58
374.641	313.68
375.021	303.06
375.402	314.13
375.783	332.89
376.163	297.18
376.544	334.69
376.925	343.96
377.305	315.26
377.686	328.37
378.066	320.23
378.447	333.79
378.827	321.14
379.208	323.4
379.588	315.03
379.968	301.7
380.349	340.8
380.729	343.51
381.109	336.05
381.489	343.06
381.87	373.11
382.25	336.28
382.63	326.33
383.01	327.24
383.39	324.07
383.77	353.23
384.15	344.86
384.53	345.54
384.91	337.18
385.29	341.7
385.67	347.8
386.049	331.98
386.429	355.26
386.809	356.39
387.189	350.97
387.568	333.79
387.948	356.61
388.328	356.84
388.707	325.43
389.087	365.88
389.466	343.73
389.846	376.73
390.225	362.04
390.605	357.07
390.984	360.91
391.363	371.08
391.743	364.52
392.122	344.86
392.501	364.98
392.881	353
393.26	359.33
393.639	382.15
394.018	381.25
394.397	363.85
394.776	381.25
395.155	374.92
395.534	381.7
395.913	370.63
396.292	376.05
396.671	357.74
397.05	381.02
397.429	382.83
397.808	383.51
398.186	381.47
398.565	352.1
398.944	388.25
399.323	381.25
399.701	363.17
400.08	395.03
400.458	379.67
400.837	390.06
401.215	386.44
401.594	380.8
401.972	408.36
402.351	403.62
402.729	416.05
403.107	412.43
403.486	420.12
403.864	405.43
404.242	409.95
404.62	407.24
404.999	391.19
405.377	420.57
405.755	430.51
406.133	407.01
406.511	412.88
406.889	404.75
407.267	421.7
407.645	425.77
408.023	409.95
408.401	409.27
408.779	434.35
409.156	399.55
409.534	421.92
409.912	443.39
410.29	446.56
410.667	439.55
411.045	431.42
411.422	463.96
411.8	450.62
412.178	447.91
412.555	434.8
412.933	468.25
413.31	467.35
413.687	480.45
414.065	460.12
414.442	472.54
414.819	469.83
415.197	467.57
415.574	460.57
415.951	482.71
416.328	503.96
416.705	473.67
417.082	498.31
417.46	492.88
417.837	500.57
418.214	497.85
418.591	492.43
418.967	504.18
419.344	493.56
419.721	476.39
420.098	510.28
420.475	502.6
420.852	516.61
421.228	516.38
421.605	502.83
421.982	540.34
422.358	521.81
422.735	539.66
423.111	531.07
423.488	516.61
423.864	544.63
424.241	542.37
424.617	555.48
424.994	537.63
425.37	532.43
425.746	542.37
426.123	566.33
426.499	551.19
426.875	567.91
427.251	562.49
427.627	570.39
428.003	572.65
428.379	562.71
428.756	570.62
429.132	578.76
429.507	589.38
429.883	603.39
430.259	590.28
430.635	598.64
431.011	618.3
431.387	612.43
431.763	622.37
432.138	619.88
432.514	605.87
432.89	616.72
433.265	624.18
433.641	645.19
434.016	625.76
434.392	663.5
434.767	646.78
435.143	663.95
435.518	656.72
435.894	640.9
436.269	663.5
436.644	672.09
437.02	673.89
437.395	669.83
437.77	684.52
438.145	706.44
438.52	720
438.895	696.04
439.271	720.67
439.646	701.69
440.021	712.31
440.395	724.51
440.77	706.44
441.145	717.28
441.52	738.53
441.895	740.11
442.27	746.44
442.645	746.89
443.019	759.32
443.394	726.32
443.769	747.79
444.143	744.18
444.518	757.28
444.892	776.72
445.267	765.87
445.641	756.83
446.016	793.67
446.39	787.11
446.764	800.67
447.139	794.57
447.513	804.51
447.887	801.8
448.262	804.74
448.636	809.48
449.01	828.01
449.384	839.99
449.758	830.05
450.132	845.19
450.506	815.36
450.88	838.41
451.254	813.1
451.628	865.08
452.002	871.18
452.376	888.13
452.75	896.71
453.123	879.31
453.497	907.33
453.871	910.05
454.244	904.4
454.618	889.26
454.992	931.74
455.365	904.62
455.739	972.64
456.112	955.47
456.486	984.4
456.859	980.1
457.232	992.3
457.606	985.98
457.979	986.65
458.352	994.56
458.725	1015.58
459.099	1029.59
459.472	1041.12
459.845	1055.13
460.218	1069.36
460.591	1070.04
460.964	1080.44
461.337	1114.34
461.71	1123.15
462.083	1132.64
462.456	1155.24
462.829	1136.48
463.201	1180.32
463.574	1147.55
463.947	1199.53
464.32	1212.64
464.692	1223.03
465.065	1225.29
465.438	1237.5
465.81	1286.31
466.183	1263.26
466.555	1296.48
466.928	1311.62
467.3	1341.22
467.672	1378.73
468.045	1396.59
468.417	1403.59
468.789	1426.64
469.161	1454.21
469.534	1458.96
469.906	1468.45
470.278	1518.62
470.65	1542.12
471.022	1574.66
471.394	1597.71
471.766	1626.41
472.138	1671.38
472.51	1669.12
472.882	1728.1
473.253	1771.04
473.625	1785.05
473.997	1848.78
474.369	1859.63
474.74	1895.56
475.112	1935.56
475.484	1994.54
475.855	2041.32
476.227	2047.64
476.598	2127.64
476.97	2189.11
477.341	2285.15
477.713	2280.63
478.084	2339.39
478.455	2417.13
478.827	2443.11
479.198	2553.85
479.569	2599.95
479.94	2662.99
480.311	2724.24
480.682	2827.28
481.053	2902.76
481.424	3001.07
481.795	3066.6
482.166	3138.69
482.537	3237.22
482.908	3331.9
483.279	3419.81
483.65	3509.53
484.021	3593.59
484.391	3705.45
484.762	3791.55
485.133	3872.68
485.503	3950.64
485.874	4075.84
486.244	4227.7
486.615	4291.65
486.985	4450.07
487.356	4546.79
487.726	4666.56
488.097	4775.03
488.467	4905.42
488.837	5032.42
489.207	5163.72
489.578	5321.91
489.948	5408.69
490.318	5567.1
490.688	5599.87
491.058	5827.88
491.428	5950.82
491.798	6084.83
492.168	6269.91
492.538	6420.41
492.908	6500.86
493.278	6665.6
493.648	6775.88
494.017	6899.49
494.387	7040.28
494.757	7189.43
495.126	7329.31
495.496	7456.77
495.866	7569.08
496.235	7743.31
496.605	7941.05
496.974	8080.25
497.344	8160.48
497.713	8313.47
498.082	8449.96
498.452	8595.49
498.821	8726.34
499.19	8819.22
499.559	8962.26
499.928	9053.11
500.298	9206.33
500.667	9339.2
501.036	9406.77
501.405	9560.44
501.774	9666.2
502.143	9891.96
502.512	9931.28
502.88	10090.82
503.249	10112.06
503.618	10310.7
503.987	10377.37
504.356	10554.09
504.724	10588.66
505.093	10809
505.462	10819.84
505.83	10993.85
506.199	11151.59
506.567	11331.24
506.936	11402.65
507.304	11501.41
507.672	11600.16
508.041	11736.43
508.409	11890.32
508.777	11920.38
509.145	12067.95
509.514	12158.34
509.882	12192.69
510.25	12330.54
510.618	12520.36
510.986	12574.15
511.354	12682.84
511.722	12826.8
512.09	13003.74
512.458	13017.75
512.826	13100.91
513.193	13308.36
513.561	13311.98
513.929	13411.19
514.297	13560.11
514.664	13741.57
515.032	13770.05
515.4	13829.03
515.767	13932.98
516.135	14120.32
516.502	14049.36
516.869	14245.06
517.237	14293.88
517.604	14342.01
517.972	14493.19
518.339	14610.93
518.706	14670.14
519.073	14751.04
519.44	14819.51
519.808	15021.31
520.175	15011.6
520.542	15169.11
520.909	15227.64
521.276	15288.88
521.643	15461.53
522.009	15612.71
522.376	15663.11
522.743	15754.18
523.11	15857.45
523.477	16005.24
523.843	16088.18
524.21	16281.39
524.577	16271.68
524.943	16416.31
525.31	16440.03
525.676	16487.26
526.043	16699.46
526.409	16756.64
526.776	16948.5
527.142	16826.69
527.508	17027.36
527.874	17252.67
528.241	17282.72
528.607	17282.27
528.973	17348.71
529.339	17393.46
529.705	17556.39
530.071	17617.4
530.437	17775.59
530.803	17709.38
531.169	17929.94
531.535	17795.03
531.901	17883.61
532.267	18010.16
532.632	18055.13
532.998	18135.81
533.364	18245.18
533.73	18189.59
534.095	18372.41
534.461	18395.01
534.826	18428
535.192	18493.54
535.557	18558.85
535.923	18469.36
536.288	18580.99
536.653	18623.03
537.019	18530.15
537.384	18655.12
537.749	18697.38
538.114	18727.66
538.479	18730.82
538.845	18828.45
539.21	18766.98
539.575	18881.1
539.94	18796.36
540.305	18964.94
540.67	19003.81
541.034	18966.97
541.399	19040.64
541.764	19079.29
542.129	19071.15
542.494	19110.02
542.858	19081.55
543.223	19101.21
543.587	19271.37
543.952	19203.58
544.316	19192.28
544.681	19272.95
545.045	19308.43
545.41	19352.05
545.774	19336.91
546.138	19325.83
546.503	19320.64
546.867	19331.26
547.231	19527.86
547.595	19331.03
547.959	19520.63
548.324	19454.19
548.688	19460.29
549.052	19544.81
549.416	19536.22
549.779	19597.92
550.143	19690.34
550.507	19647.41
550.871	19757.91
551.235	19571.48
551.599	19766.05
551.962	19697.35
552.326	19793.39
552.689	19916.33
553.053	19788.65
553.417	19784.35
553.78	20025.7
554.143	19938.47
554.507	19957
554.87	19980.51
555.234	20142.08
555.597	20000.17
555.96	20111.35
556.323	20113.61
556.686	20073.38
557.05	20181.63
557.413	20215.53
557.776	20299.59
558.139	20444.9
558.502	20503.2
558.865	20405.58
559.228	20514.5
559.59	20541.39
559.953	20734.61
560.316	20670.43
560.679	20814.83
561.041	20749.98
561.404	20880.6
561.767	20933.93
562.129	20946.81
562.492	21058.22
562.854	21115.17
563.217	21085.56
563.579	21169.63
563.941	21287.59
564.304	21446
564.666	21389.51
565.028	21362.16
565.39	21642.83
565.753	21583.63
566.115	21591.31
566.477	21649.61
566.839	21664.53
567.201	21874.92
567.563	21852.09
567.925	21962.6
568.287	21949.95
568.648	21893.45
569.01	22092.31
569.372	22114.91
569.734	22123.27
570.095	22248.02
570.457	22245.98
570.819	22422.25
571.18	22302.93
571.542	22453.66
571.903	22466.77
572.265	22578.4
572.626	22520.55
572.987	22678.06
573.349	22592.41
573.71	22808.45
574.071	22775.69
574.432	22896.36
574.794	22990.37
575.155	23000.54
575.516	22900.88
575.877	23011.39
576.238	22960.54
576.599	23093.64
576.96	22995.34
577.32	23036.92
577.681	23195.34
578.042	23208.9
578.403	23232.62
578.763	23250.93
579.124	23270.81
579.485	23375.67
579.845	23363.92
580.206	23433.07
580.566	23368.21
580.927	23436.23
581.287	23424.26
581.648	23352.85
582.008	23456.8
582.368	23428.55
582.728	23552.84
583.089	23408.66
583.449	23322.11
583.809	23451.15
584.169	23514.88
584.529	23361.21
584.889	23558.72
585.249	23418.83
585.609	23492.96
585.969	23486.85
586.329	23504.25
586.688	23520.07
587.048	23462.67
587.408	23322.79
587.768	23346.52
588.127	23383.58
588.487	23388.78
588.846	23562.56
589.206	23414.99
589.565	23294.99
589.925	23504.03
590.284	23482.79
590.643	23548.77
591.003	23511.71
591.362	23593.97
591.721	23496.12
592.08	23434.65
592.44	23656.79
592.799	23516.46
593.158	23566.4
593.517	23547.87
593.876	23521.43
594.235	23459.96
594.593	23547.19
594.952	23495.89
595.311	23540.64
595.67	23548.55
596.029	23620.41
596.387	23695.89
596.746	23658.83
597.104	23544.25
597.463	23560.98
597.822	23707.87
598.18	23708.54
598.538	23575.89
598.897	23807.52
599.255	23545.84
599.613	23905.37
599.972	23720.97
600.33	23715.32
600.688	23699.96
601.046	23750.8
601.404	23847.3
601.762	23798.03
602.12	23871.02
602.478	23852.49
602.836	23928.42
603.194	23772.04
603.552	23787.64
603.91	23659.05
604.268	23896.33
604.625	23882.55
604.983	23866.96
605.341	23702.44
605.698	24004.81
606.056	23988.99
606.413	23887.07
606.771	23977.24
607.128	24079.16
607.485	23938.59
607.843	23993.51
608.2	24103.56
608.557	24245.7
608.914	24088.19
609.272	24181.3
609.629	24237.79
609.986	24270.34
610.343	24252.03
610.7	24483.44
611.057	24393.72
611.414	24437.79
611.771	24416.77
612.127	24457.45
612.484	24478.69
612.841	24614.73
613.198	24482.76
613.554	24600.05
613.911	24803.2
614.267	24670.55
614.624	24697.44
614.98	24666.94
615.337	24830.32
615.693	24701.51
616.05	24771.57
616.406	24949.87
616.762	24686.82
617.118	24820.83
617.475	24864.45
617.831	24921.17
618.187	24930.43
618.543	24997.77
618.899	25187.83
619.255	24931.11
619.611	25062.86
619.967	25113.25
620.323	25165.91
620.678	25178.79
621.034	25129.52
621.39	25028.06
621.746	25109.18
622.101	25353.02
622.457	25060.15
622.812	25170.88
623.168	25316.41
623.523	25200.48
623.879	25273.93
624.234	25207.94
624.589	25282.06
624.945	25273.25
625.3	25362.29
625.655	25318.22
626.01	25329.52
626.365	25456.75
626.72	25321.16
627.075	25311.44
627.43	25319.8
627.785	25193.7
628.14	25270.31
628.495	25350.76
628.85	25297.2
629.205	25279.58
629.559	25440.02
629.914	25304.21
630.269	25251.1
630.623	25233.25
630.978	25214.49
631.332	25335.85
631.687	25328.84
632.041	25170.2
632.396	25255.85
632.75	25259.91
633.104	25200.71
633.459	25067.15
633.813	25128.39
634.167	25108.28
634.521	25054.27
634.875	25061.73
635.229	25058.11
635.583	24961.39
635.937	24999.36
636.291	24875.29
636.645	24912.13
636.999	24854.05
637.352	24986.48
637.706	24892.01
638.06	24992.13
638.413	24780.38
638.767	24760.94
639.121	24894.73
639.474	24655.19
639.828	24759.82
640.181	24722.75
640.534	24827.84
640.888	24665.13
641.241	24595.53
641.594	24721.4
641.947	24633.04
642.301	24624.45
642.654	24612.7
643.007	24630.1
643.36	24602.31
643.713	24518.47
644.066	24595.07
644.419	24454.74
644.771	24395.76
645.124	24147.4
645.477	24134.97
645.83	23908.54
646.182	23873.51
646.535	23813.4
646.888	23784.7
647.24	23770.91
647.593	23896.79
647.945	23770.69
648.298	23636.23
648.65	23668.09
649.002	23673.06
649.355	23781.99
649.707	23655.21
650.059	23743.34
650.411	24069.44
650.763	24098.36
651.115	24360.28
651.467	24170.68
651.819	24188.3
652.171	24170.68
652.523	24199.15
652.875	24080.74
653.227	24061.3
653.578	24348.07
653.93	24126.16
654.282	24032.83
654.633	24013.17
654.985	24161.41
655.337	24179.72
655.688	24136.55
656.039	24184.01
656.391	24079.61
656.742	24074.64
657.094	24017.01
657.445	24146.72
657.796	24123.67
658.147	24075.54
658.498	24026.5
658.849	24101.75
659.2	24085.93
659.551	23952.6
659.902	24164.35
660.253	24092.26
660.604	24060.62
660.955	23986.5
661.306	24108.31
661.656	24038.7
662.007	24042.55
662.358	23985.6
662.708	24039.83
663.059	24090.45
663.409	24008.65
663.76	24130.23
664.11	23989.89
664.461	24116.22
664.811	24101.98
665.161	24145.37
665.511	24130.45
665.862	24101.53
666.212	24164.12
666.562	24125.93
666.912	23940.4
667.262	24064.92
667.612	23992.15
667.962	24083.22
668.312	24036.67
668.662	24078.03
669.011	24024.24
669.361	23962.32
669.711	24022.66
670.06	23937.46
670.41	23893.62
670.76	23904.24
671.109	24006.84
671.459	23981.98
671.808	23876.45
672.157	23960.74
672.507	23784.7
672.856	23774.08
673.205	23827.18
673.554	23849.56
673.904	23825.83
674.253	23949.89
674.602	23878.71
674.951	23519.85
675.3	23408.44
675.649	23730.24
675.998	23801.42
676.346	23649.79
676.695	23880.97
677.044	23621.99
677.393	23717.81
677.741	23699.5
678.09	23561.2
678.438	23505.61
678.787	23609.34
679.135	23587.64
679.484	23399.62
679.832	23523.69
680.181	23419.51
680.529	23465.16
680.877	23452.96
681.225	23306.97
681.573	23423.13
681.922	23311.04
682.27	23209.35
682.618	23270.59
682.966	23045.51
683.314	23251.83
683.661	23174.77
684.009	23087.99
684.357	23032.18
684.705	22871.96
685.053	23080.54
685.4	22955.79
685.748	22848.68
686.095	22869.02
686.443	22702.69
686.79	22698.17
687.138	22727.1
687.485	22712.19
687.832	22666.76
688.18	22637.39
688.527	22459.54
688.874	22485.52
689.221	22386.09
689.568	22427.67
689.915	22257.73
690.262	22282.82
690.609	22195.59
690.956	22088.25
691.303	22161.01
691.65	22034.01
691.997	21964.86
692.344	21869.04
692.69	21870.17
693.037	21817.97
693.383	21685.77
693.73	21748.82
694.077	21559.45
694.423	21542.27
694.769	21523.74
695.116	21467.7
695.462	21451.65
695.808	21367.59
696.155	21386.34
696.501	21271.09
696.847	21197.87
697.193	21051.66
697.539	21090.76
697.885	20963.98
698.231	20858.67
698.577	20838.56
698.923	20795.4
699.269	20712.24
699.614	20631.56
699.96	20497.78
700.306	20555.41
700.651	20458.46
700.997	20508.85
701.342	20410.32
701.688	20303.89
702.033	20286.94
702.379	20250.56
702.724	20060.28
703.069	20227.73
703.415	19981.41
703.76	20056.21
704.105	19986.83
704.45	19892.82
704.795	19768.53
705.14	19897.57
705.485	19700.29
705.83	19556.79
706.175	19613.74
706.52	19620.52
706.865	19439.28
707.209	19428.88
707.554	19416
707.899	19389.56
708.243	19266.17
708.588	19204.93
708.932	19117.93
709.277	18972.85
709.621	19078.61
709.966	18947.31
710.31	18966.07
710.654	18739.63
710.998	18818.95
711.342	18745.51
711.687	18750.48
712.031	18784.83
712.375	18558.17
712.719	18758.39
713.063	18601.33
713.407	18614.67
713.75	18642.91
714.094	18627.77
714.438	18425.97
714.782	18523.14
715.125	18449.25
715.469	18469.36
715.812	18286.31
716.156	18251.96
716.499	18138.97
716.843	18322.92
717.186	18141.01
717.53	18211.51
717.873	18138.97
718.216	18112.76
718.559	18105.98
718.902	17968.58
719.246	17989.37
719.589	17904.18
719.932	17894.68
720.275	17957.06
720.617	17891.3
720.96	17836.61
721.303	17904.63
721.646	17832.77
721.989	17656.5
722.331	17863.27
722.674	17731.3
723.016	17711.86
723.359	17665.76
723.701	17701.24
724.044	17589.38
724.386	17496.73
724.729	17622.6
725.071	17581.92
725.413	17509.84
725.755	17486.11
726.097	17432.78
726.439	17328.6
726.782	17393.68
727.124	17483.4
727.465	17365.89
727.807	17369.05
728.149	17340.12
728.491	17354.13
728.833	17404.53
729.175	17216.28
729.516	17193.69
729.858	17228.49
730.199	17259.67
730.541	17176.51
730.882	17176.74
731.224	17189.17
731.565	17103.52
731.906	17172.67
732.248	17174.93
732.589	17065.78
732.93	17001.83
733.271	17042.05
733.612	17086.34
733.953	17072.33
734.294	16952.34
734.635	16994.6
734.976	17038.21
735.317	16920.7
735.658	16972
735.999	16946.69
736.339	16870.98
736.68	17014.93
737.021	16994.14
737.361	16908.04
737.702	17056.51
738.042	16932.68
738.383	16899.46
738.723	16988.27
739.063	16948.27
739.404	16947.59
739.744	16864.2
740.084	16788.73
740.424	16929.51
740.764	16924.99
741.104	16953.69
741.444	16873.02
741.784	16865.11
742.124	16856.75
742.464	16920.7
742.804	16845.45
743.143	16768.16
743.483	16843.87
743.823	16816.52
744.162	16919.57
744.502	16910.98
744.841	16857.2
745.181	17089.06
745.52	16939.46
745.86	16864.88
746.199	16961.15
746.538	16965.44
746.877	17042.28
747.216	17160.69
747.556	17097.64
747.895	17054.71
748.234	17083.86
748.573	17151.88
748.911	17133.8
749.25	17236.17
749.589	17152.11
749.928	17292.21
750.267	17366.79
750.605	17329.05
750.944	17328.15
751.283	17439.33
751.621	17475.94
751.96	17338.77
752.298	17536.5
752.636	17602.04
752.975	17572.66
753.313	17611.98
753.651	17738.08
753.989	17666.89
754.327	17698.98
754.666	17774.46
755.004	17926.32
755.342	17984.17
755.679	17977.62
756.017	18014.68
756.355	18148.46
756.693	18115.02
757.031	18352.53
757.368	18312.3
757.706	18331.06
758.044	18391.39
758.381	18567.21
758.719	18628.22
759.056	18626.64
759.394	18613.31
759.731	18703.03
760.068	18759.97
760.405	18787.77
760.743	18827.32
761.08	18892.85
761.417	18851.5
761.754	18967.2
762.091	18981.66
762.428	19124.71
762.765	19094.88
763.102	19290.81
763.438	19176.46
763.775	19153.41
764.112	19216.01
764.449	19331.48
764.785	19238.38
765.122	19221.88
765.458	19173.07
765.795	19333.97
766.131	19397.02
766.467	19361.76
766.804	19314.08
767.14	19380.75
767.476	19362.44
767.812	19362.44
768.148	19459.62
768.485	19327.64
768.821	19341.65
769.157	19362.67
769.492	19329.68
769.828	19338.26
770.164	19215.78
770.5	19398.15
770.836	19425.49
771.171	19231.15
771.507	19274.99
771.842	19235.44
772.178	19304.59
772.513	19229.57
772.849	19209.9
773.184	19213.52
773.519	19168.32
773.855	19185.5
774.19	19060.53
774.525	19170.81
774.86	19173.75
775.195	19028.44
775.53	19019.18
775.865	18872.51
776.2	18832.29
776.535	18902.57
776.87	18834.32
777.205	18839.29
777.539	18781.67
777.874	18784.6
778.209	18616.25
778.543	18711.16
778.878	18545.06
779.212	18569.47
779.547	18443.82
779.881	18558.17
780.215	18473.65
780.55	18485.4
780.884	18291.51
781.218	18371.28
781.552	18217.39
781.886	18249.48
782.22	18123.61
782.554	18147.56
782.888	17991.86
783.222	17987.34
783.556	17868.24
783.889	17827.12
784.223	17687.23
784.557	17746.44
784.89	17735.14
785.224	17598.87
785.557	17689.94
785.891	17520.23
786.224	17480.01
786.558	17463.96
786.891	17319.78
787.224	17232.78
787.557	17272.1
787.891	17254.48
788.224	17219.22
788.557	17195.95
788.89	17088.6
789.223	17174.48
789.556	16948.95
789.888	17052.67
790.221	16930.42
790.554	16681.61
790.887	16826.01
791.219	16671.21
791.552	16750.53
791.884	16579.92
792.217	16593.02
792.549	16498.56
792.882	16437.32
793.214	16311
793.546	16358.23
793.879	16203.2
794.211	16162.75
794.543	16179.7
794.875	16202.98
795.207	16156.43
795.539	16062.19
795.871	16069.65
796.203	15917.56
796.535	15775.19
796.867	15848.18
797.198	15784.46
797.53	15776.55
797.862	15669.21
798.193	15733.39
798.525	15594.18
798.856	15686.83
799.188	15542.66
799.519	15485.03
799.85	15412.49
800.182	15425.6
800.513	15306.05
800.844	15205.04
801.175	15291.59
801.506	15250.91
801.837	15164.59
802.168	15112.39
802.499	14986.51
802.83	15002.78
803.161	14991.03
803.491	14928.89
803.822	15005.04
804.153	14905.16
804.483	14861.09
804.814	14734.32
805.145	14714.43
805.475	14731.15
805.805	14615.68
806.136	14598.73
806.466	14616.35
806.796	14582.23
807.126	14463.14
807.457	14441.44
807.787	14495.23
808.117	14381.33
808.447	14349.47
808.777	14363.7
809.107	14285.74
809.436	14224.72
809.766	14236.25
810.096	14134.56
810.426	14043.03
810.755	14145.18
811.085	14082.13
811.414	14067.67
811.744	13911.74
812.073	13915.81
812.403	13953.32
812.732	13872.19
813.061	13804.4
813.39	13760.33
813.719	13772.53
814.049	13847.56
814.378	13735.02
814.707	13596.72
815.036	13637.17
815.365	13596.27
815.693	13472.65
816.022	13536.61
816.351	13530.96
816.68	13338.19
817.008	13443.5
817.337	13301.81
817.665	13282.6
817.994	13312.66
818.322	13302.04
818.651	13209.61
818.979	13116.05
819.307	13142.95
819.636	13184.07
819.964	13064.08
820.292	13144.08
820.62	13050.74
820.948	13074.02
821.276	13098.43
821.604	13110.86
821.932	13156.96
822.259	13095.71
822.587	13018.65
822.915	12978.66
823.243	13082.61
823.57	12992.21
823.898	13045.09
824.225	12947.24
824.553	12977.53
824.88	13014.59
825.207	13060.46
825.535	13015.27
825.862	13040.12
826.189	12963.97
826.516	13027.69
826.843	13044.19
827.17	13053
827.497	12943.85
827.824	13071.53
828.151	13100.46
828.478	13077.41
828.805	13031.31
829.131	12998.54
829.458	12966.68
829.785	12928.71
830.111	12939.33
830.438	13050.29
830.764	12945.21
831.09	13029.5
831.417	12866.57
831.743	13000.35
832.069	12925.78
832.395	12958.32
832.722	12970.97
833.048	12926.68
833.374	12826.34
833.7	12859.34
834.026	12846
834.351	12935.95
834.677	12883.29
835.003	12880.13
835.329	12803.07
835.654	12848.04
835.98	12811.65
836.306	12842.16
836.631	12751.54
836.956	12761.03
837.282	12838.32
837.607	12740.24
837.932	12690.75
838.258	12734.14
838.583	12640.59
838.908	12497.54
839.233	12628.38
839.558	12596.07
839.883	12525.56
840.208	12563.07
840.533	12556.75
840.858	12659.34
841.182	12509.06
841.507	12493.24
841.832	12389.07
842.156	12384.77
842.481	12387.71
842.805	12340.71
843.13	12373.93
843.454	12226.59
843.778	12210.77
844.103	12253.48
844.427	12121.73
844.751	12173.48
845.075	12137.55
845.399	12100.03
845.723	11971.22
846.047	12096.42
846.371	11907.72
846.695	11864.56
847.019	11838.57
847.343	11844.67
847.666	11699.82
847.99	11644.68
848.313	11695.98
848.637	11625.92
848.96	11621.63
849.284	11501.86
849.607	11456.89
849.931	11465.7
850.254	11412.37
850.577	11321.75
850.9	11212.83
851.223	11258.48
851.546	11210.34
851.869	11104.81
852.192	11168.99
852.515	11029.55
852.838	11016.22
853.161	11030.01
853.483	10967.86
853.806	10915.66
854.129	10883.8
854.451	10911.37
854.774	10814.19
855.096	10821.2
855.419	10747.53
855.741	10736.91
856.063	10714.99
856.385	10603.58
856.708	10601.09
857.03	10616.01
857.352	10495.78
857.674	10523.81
857.996	10494.2
858.318	10484.26
858.64	10447.65
858.961	10399.06
859.283	10432.06
859.605	10305.96
859.926	10352.51
860.248	10336.92
860.57	10228.9
860.891	10311.61
861.212	10190.03
861.534	10242.23
861.855	10119.07
862.176	10178.73
862.498	10144.83
862.819	10152.74
863.14	10076.81
863.461	10070.71
863.782	9953.65
864.103	10044.72
864.424	9983.48
864.745	10012.63
865.065	9955.91
865.386	9881.34
865.707	9945.97
866.027	9920.21
866.348	9832.07
866.668	9879.53
866.989	9843.15
867.309	9868.23
867.63	9888.57
867.95	9771.51
868.27	9750.04
868.59	9781.9
868.91	9719.76
869.23	9752.3
869.55	9672.53
869.87	9743.49
870.19	9699.19
870.51	9702.58
870.83	9643.6
871.15	9614
871.469	9599.54
871.789	9670.72
872.109	9624.62
872.428	9570.16
872.748	9583.49
873.067	9524.06
873.386	9541.23
873.706	9555.7
874.025	9515.7
874.344	9481.57
874.663	9510.05
874.982	9497.17
875.301	9456.49
875.62	9356.83
875.939	9401.35
876.258	9396.6
876.577	9345.08
876.896	9358.41
877.214	9330.84
877.533	9339.43
877.852	9306.21
878.17	9371.07
878.489	9326.1
878.807	9327.9
879.125	9259.43
879.444	9250.62
879.762	9176.04
880.08	9240
880.398	9157.51
880.716	9134.24
881.034	9127.91
881.352	9148.02
881.67	9133.56
881.988	9133.11
882.306	9070.51
882.624	9015.6
882.941	9052.21
883.259	9003.17
883.577	9005.2
883.894	8960.46
884.212	8945.77
884.529	8896.5
884.846	8905.09
885.164	8919.33
885.481	8895.6
885.798	8873.23
886.115	8729.95
886.432	8808.6
886.75	8748.03
887.067	8762.95
887.383	8757.98
887.7	8704.87
888.017	8714.59
888.334	8669.39
888.651	8711.2
888.967	8617.64
889.284	8592.33
889.6	8587.58
889.917	8509.85
890.233	8537.42
890.55	8490.41
890.866	8502.16
891.182	8447.93
891.498	8450.41
891.815	8467.59
892.131	8375.84
892.447	8429.4
892.763	8379
893.079	8318.21
893.395	8319.8
893.71	8294.26
894.026	8243.64
894.342	8249.51
894.657	8160.25
894.973	8154.15
895.289	8105.34
895.604	8130.65
895.92	8078.9
896.235	8046.36
896.55	8078.9
896.865	8002.97
897.181	8004.78
897.496	7971.56
897.811	7910.99
898.126	7873.48
898.441	7911.67
898.756	7900.82
899.071	7763.88
899.386	7877.77
899.7	7826.93
900.015	7742.64
900.33	7711.9
900.644	7678.46
900.959	7695.41
901.273	7617.89
901.588	7633.71
901.902	7590.55
902.216	7581.06
902.531	7518.01
902.845	7469.65
903.159	7422.19
903.473	7507.16
903.787	7369.54
904.101	7407.5
904.415	7341.74
904.729	7323.21
905.042	7255.42
905.356	7229.2
905.67	7197.56
905.984	7243.67
906.297	7144.46
906.611	7130.22
906.924	7142.2
907.237	7139.94
907.551	7064.69
907.864	7020.85
908.177	7088.87
908.491	6975.42
908.804	6972.71
909.117	6910.57
909.43	6870.12
909.743	6873.05
910.056	6872.15
910.368	6825.82
910.681	6811.59
910.994	6793.51
911.307	6762.1
911.619	6745.6
911.932	6703.11
912.244	6645.49
912.557	6634.19
912.869	6641.42
913.181	6567.53
913.494	6567.3
913.806	6486.17
914.118	6487.75
914.43	6457.47
914.742	6436.91
915.054	6432.16
915.366	6369.56
915.678	6389.45
915.99	6329.79
916.302	6340.41
916.613	6271.04
916.925	6268.1
917.236	6213.41
917.548	6226.52
917.859	6223.35
918.171	6189.91
918.482	6140.19
918.794	6117.59
919.105	6120.76
919.416	6063.58
919.727	6073.98
920.038	6048.22
920.349	5993.3
920.66	5986.75
920.971	5969.57
921.282	5925.96
921.593	5865.4
921.903	5865.4
922.214	5859.3
922.525	5815.23
922.835	5819.52
923.146	5754.89
923.456	5787.66
923.767	5739.98
924.077	5741.56
924.387	5670.37
924.697	5609.58
925.008	5665.63
925.318	5647.1
925.628	5598.29
925.938	5584.27
926.248	5516.25
926.558	5570.04
926.867	5507.67
927.177	5453.88
927.487	5465.86
927.796	5388.57
928.106	5401.68
928.416	5411.85
928.725	5385.18
929.034	5351.74
929.344	5338.4
929.653	5291.17
929.962	5283.72
930.271	5204.17
930.581	5182.93
930.89	5181.35
931.199	5147.45
931.508	5127.11
931.817	5125.53
932.125	5099.54
932.434	5094.8
932.743	5048.69
933.051	5040.33
933.36	5040.33
933.669	4978.41
933.977	5004.85
934.286	4969.83
934.594	4946.32
934.902	4935.48
935.21	4881.69
935.519	4814.35
935.827	4872.2
936.135	4873.56
936.443	4789.72
936.751	4743.39
937.059	4792.43
937.367	4715.82
937.674	4728.93
937.982	4751.98
938.29	4657.07
938.597	4719.89
938.905	4667.24
939.213	4645.32
939.52	4618.88
939.827	4603.51
940.135	4596.05
940.442	4601.93
940.749	4528.71
941.056	4563.28
941.363	4441.25
941.67	4474.02
941.977	4479.67
942.284	4469.73
942.591	4430.41
942.898	4420.91
943.205	4433.34
943.511	4345.89
943.818	4350.63
944.125	4326.68
944.431	4304.76
944.738	4347.47
945.044	4302.05
945.35	4268.15
945.657	4250.3
945.963	4265.89
946.269	4236.74
946.575	4223.41
946.881	4193.12
947.187	4124.65
947.493	4150.87
947.799	4134.14
948.105	4142.73
948.41	4066.57
948.716	4094.14
949.022	4029.96
949.327	4069.96
949.633	4021.83
949.938	4044.65
950.244	3989.29
950.549	4003.52
950.854	3958.55
951.16	3877.65
951.465	3948.61
951.77	3890.53
952.075	3870.42
952.38	3851.89
952.685	3881.27
952.99	3820.48
953.294	3828.61
953.599	3786.36
953.904	3775.51
954.209	3740.93
954.513	3763.53
954.818	3719.01
955.122	3738.67
955.426	3701.16
955.731	3684.89
956.035	3636.98
956.339	3629.52
956.643	3644.21
956.948	3603.99
957.252	3597.21
957.556	3608.96
957.86	3560.37
958.163	3610.31
958.467	3522.63
958.771	3526.93
959.075	3532.35
959.378	3480.15
959.682	3504.55
959.985	3474.73
960.289	3427.95
960.592	3417.78
960.896	3435.63
961.199	3394.28
961.502	3374.61
961.805	3382.3
962.108	3327.16
962.411	3338.68
962.714	3321.73
963.017	3331.45
963.32	3272.02
963.623	3297.33
963.926	3254.17
964.228	3263.43
964.531	3263.21
964.833	3220.04
965.136	3176.65
965.438	3214.62
965.741	3222.08
966.043	3178.46
966.345	3148.41
966.648	3180.5
966.95	3156.54
967.252	3148.63
967.554	3176.88
967.856	3112.7
968.158	3067.05
968.46	3048.3
968.761	3078.35
969.063	3076.54
969.365	3027.51
969.666	3041.29
969.968	3016.88
970.269	3034.74
970.571	2974.17
970.872	2988.18
971.174	2970.78
971.475	2964.91
971.776	2943.89
972.077	2916.55
972.378	2904.8
972.679	2909.54
972.98	2905.7
973.281	2910.45
973.582	2865.93
973.883	2872.25
974.183	2841.3
974.484	2822.76
974.785	2783.22
975.085	2831.58
975.386	2806.04
975.686	2781.18
975.986	2754.97
976.287	2735.54
976.587	2711.58
976.887	2736.89
977.187	2739.38
977.487	2681.98
977.787	2675.2
978.087	2635.88
978.387	2671.81
978.687	2682.2
978.987	2607.18
979.286	2620.28
979.586	2597.23
979.885	2597.91
980.185	2612.37
980.484	2597.23
980.784	2594.07
981.083	2565.82
981.382	2532.6
981.682	2503
981.981	2524.47
982.28	2537.35
982.579	2495.32
982.878	2510.91
983.177	2487.86
983.475	2501.42
983.774	2458.71
984.073	2442.89
984.372	2432.04
984.67	2442.66
984.969	2415.77
985.267	2434.75
985.566	2427.07
985.864	2385.26
986.162	2396.11
986.461	2378.71
986.759	2373.29
987.057	2357.24
987.355	2341.2
987.653	2345.49
987.951	2343.68
988.249	2294.64
988.547	2308.65
988.844	2299.16
989.142	2287.64
989.44	2258.71
989.737	2276.56
990.035	2228.2
990.332	2236.34
990.63	2245.38
990.927	2225.94
991.224	2209.22
991.521	2194.08
991.819	2201.76
992.116	2162.22
992.413	2161.77
992.71	2177.58
993.006	2146.17
993.303	2143.69
993.6	2124.93
993.897	2101.88
994.193	2117.47
994.49	2091.48
994.787	2064.82
995.083	2069.56
995.379	2075.89
995.676	2065.95
995.972	2029.34
996.268	2030.47
996.565	2037.47
996.861	2033.86
997.157	2040.86
997.453	2022.79
997.749	2008.32
998.044	1981.43
998.34	1971.94
998.636	1974.43
998.932	1957.02
999.227	1934.43
999.523	1925.84
999.818	1930.13
1000.114	1914.09
1000.409	1891.72
1000.704	1888.55
1001	1895.33
1001.295	1868.21
1001.59	1885.84
1001.885	1860.76
1002.18	1849.01
1002.475	1848.78
1002.77	1816.46
1003.065	1828.44
1003.359	1808.55
1003.654	1790.48
1003.949	1795.22
1004.243	1751.83
1004.538	1757.71
1004.832	1728.33
1005.127	1752.51
1005.421	1735.79
1005.715	1770.59
1006.009	1744.6
1006.304	1691.72
1006.598	1724.49
1006.892	1691.72
1007.186	1676.58
1007.48	1691.27
1007.773	1667.54
1008.067	1625.96
1008.361	1631.16
1008.655	1624.83
1008.948	1626.41
1009.242	1608.79
1009.535	1627.99
1009.829	1609.24
1010.122	1591.38
1010.415	1580.09
1010.708	1580.54
1011.001	1555.23
1011.295	1563.14
1011.588	1573.31
1011.881	1554.78
1012.173	1521.78
1012.466	1528.56
1012.759	1473.87
1013.052	1505.74
1013.344	1504.83
1013.637	1522.69
1013.93	1480.65
1014.222	1477.49
1014.514	1465.96
1014.807	1450.6
1015.099	1438.62
1015.391	1454.21
1015.683	1427.32
1015.976	1435.23
1016.268	1409.47
1016.56	1408.34
1016.851	1398.17
1017.143	1388.9
1017.435	1385.97
1017.727	1364.05
1018.018	1385.97
1018.31	1363.37
1018.602	1339.19
1018.893	1362.46
1019.185	1335.8
1019.476	1317.04
1019.767	1329.24
1020.058	1300.54
1020.35	1294.44
1020.641	1286.31
1020.932	1286.31
1021.223	1292.64
1021.514	1274.33
1021.804	1251.73
1022.095	1251.51
1022.386	1243.82
1022.677	1237.27
1022.967	1253.99
1023.258	1250.83
1023.548	1204.95
1023.839	1221.22
1024.129	1198.17
1024.419	1162.02
1024.709	1185.29
1025	1167.22
1025.29	1151.85
1025.58	1174.9
1025.87	1146.42
1026.16	1169.7
1026.449	1151.4
1026.739	1116.59
1027.029	1114.79
1027.319	1106.88
1027.608	1103.04
1027.898	1108.69
1028.187	1105.52
1028.477	1106.65
1028.766	1076.14
1029.055	1055.58
1029.344	1100.55
1029.634	1065.75
1029.923	1061.68
1030.212	1036.82
1030.501	1061.68
1030.79	1042.92
1031.078	1049.03
1031.367	1031.4
1031.656	1019.65
1031.945	1044.28
1032.233	996.82
1032.522	984.85
1032.81	1001.8
1033.099	971.51
1033.387	990.72
1033.675	983.04
1033.963	985.07
1034.251	962.25
1034.54	968.35
1034.828	942.14
1035.116	942.59
1035.403	935.58
1035.691	916.15
1035.979	922.7
1036.267	940.55
1036.554	914.57
1036.842	901.01
1037.129	904.4
1037.417	916.37
1037.704	877.51
1037.992	905.75
1038.279	880.44
1038.566	888.58
1038.853	888.58
1039.14	888.58
