Data from hue_110_FLMS001491_00030.txt Node
Date: Tue Feb 07 17:01:07 GMT 2017
User: dcchb
Spectrometer: FLMS00149
Trigger mode: 0
Integration Time (sec): 2.000000E-2
Scans to average: 10
Electric dark correction enabled: true
Nonlinearity correction enabled: false
Boxcar width: 0
XAxis mode: Wavelengths
Number of Pixels in Spectrum: 2048
>>>>>Begin Spectral Data<<<<<
341.393	-19.8
341.776	-19.8
342.16	-19.8
342.543	-47.37
342.927	-63.64
343.31	-76.75
343.693	-87.37
344.077	-72
344.46	-55.28
344.843	-46.24
345.226	-44.89
345.61	-38.78
345.993	-0.59
346.376	-3.98
346.759	-4.43
347.142	22.23
347.525	56.13
347.908	71.72
348.291	76.01
348.674	91.83
349.057	112.4
349.44	136.8
349.823	148.56
350.206	159.4
350.588	205.96
350.971	207.99
351.354	242.34
351.737	228.78
352.119	252.06
352.502	254.32
352.884	266.52
353.267	286.63
353.65	293.86
354.032	324.82
354.414	293.86
354.797	319.85
355.179	333.18
355.562	324.82
355.944	334.54
356.326	329.34
356.709	333.64
357.091	338.61
357.473	339.96
357.855	359.17
358.238	340.19
358.62	350.36
359.002	343.58
359.384	344.71
359.766	323.47
360.148	317.59
360.53	345.16
360.912	334.31
361.294	319.85
361.676	304.94
362.057	329.79
362.439	322.34
362.821	325.5
363.203	322.11
363.584	299.06
363.966	340.19
364.348	338.38
364.729	318.49
365.111	332.51
365.493	323.24
365.874	322.56
366.256	315.33
366.637	309
367.019	317.82
367.4	321.66
367.781	304.71
368.163	322.56
368.544	320.3
368.925	319.62
369.306	316.46
369.688	292.96
370.069	307.87
370.45	302.9
370.831	306.74
371.212	312.17
371.593	313.75
371.974	304.03
372.355	318.49
372.736	317.82
373.117	328.21
373.498	316.01
373.879	315.78
374.26	323.69
374.641	297.03
375.021	315.33
375.402	308.55
375.783	312.84
376.163	332.51
376.544	314.88
376.925	314.2
377.305	337.25
377.686	335.22
378.066	318.04
378.447	325.5
378.827	338.15
379.208	338.38
379.588	325.27
379.968	331.83
380.349	332.73
380.729	342.67
381.109	342.67
381.489	342.45
381.87	343.35
382.25	336.57
382.63	339.06
383.01	339.51
383.39	350.36
383.77	340.64
384.15	336.35
384.53	344.03
384.91	341.77
385.29	340.87
385.67	357.36
386.049	339.06
386.429	348.78
386.809	364.82
387.189	369.11
387.568	361.66
387.948	355.1
388.328	336.35
388.707	360.08
389.087	367.31
389.466	361.21
389.846	344.26
390.225	353.75
390.605	349.23
390.984	349.23
391.363	346.97
391.743	368.21
392.122	367.31
392.501	366.63
392.881	381.54
393.26	385.84
393.639	380.64
394.018	354.2
394.397	372.5
394.776	355.1
395.155	393.97
395.534	379.06
395.913	386.29
396.292	376.8
396.671	373.63
397.05	387.19
397.429	385.61
397.808	391.03
398.186	377.93
398.565	392.39
398.944	389.91
399.323	368.89
399.701	398.27
400.08	392.39
400.458	424.03
400.837	396.68
401.215	391.26
401.594	384.71
401.972	388.78
402.351	408.89
402.729	417.02
403.107	406.63
403.486	407.31
403.864	416.12
404.242	401.88
404.62	433.97
404.999	412.73
405.377	410.02
405.755	440.98
406.133	426.97
406.511	427.87
406.889	427.64
407.267	428.77
407.645	436.68
408.023	436.23
408.401	419.73
408.779	410.47
409.156	453.63
409.534	434.2
409.912	453.86
410.29	446.85
410.667	446.63
411.045	457.25
411.422	453.18
411.8	450.92
412.178	444.82
412.555	437.81
412.933	469.22
413.31	454.54
413.687	466.51
414.065	468.55
414.442	476.23
414.819	488.89
415.197	465.38
415.574	474.2
415.951	479.85
416.328	470.58
416.705	497.25
417.082	493.63
417.46	509.68
417.837	500.41
418.214	518.94
418.591	504.48
418.967	507.87
419.344	515.1
419.721	508.55
420.098	521.43
420.475	522.78
420.852	494.08
421.228	525.49
421.605	520.07
421.982	532.27
422.358	504.7
422.735	534.31
423.111	549
423.488	538.83
423.864	541.31
424.241	573.63
424.617	538.6
424.994	562.33
425.37	529.56
425.746	574.31
426.123	570.47
426.499	555.1
426.875	567.98
427.251	579.28
427.627	579.28
428.003	588.54
428.379	581.76
428.756	607.07
429.132	588.09
429.507	611.14
429.883	616.11
430.259	628.99
430.635	625.61
431.011	630.8
431.387	613.4
431.763	632.16
432.138	624.93
432.514	634.87
432.89	652.05
433.265	657.02
433.641	649.79
434.016	665.38
434.392	665.38
434.767	679.61
435.143	668.99
435.518	685.04
435.894	678.26
436.269	673.29
436.644	678.26
437.02	712.61
437.395	713.74
437.77	707.86
438.145	707.86
438.52	718.48
438.895	712.83
439.271	732.95
439.646	726.17
440.021	754.19
440.395	731.82
440.77	750.57
441.145	743.57
441.52	767.97
441.895	758.93
442.27	781.31
442.645	770.46
443.019	771.14
443.394	759.84
443.769	773.17
444.143	788.31
444.518	798.93
444.892	804.13
445.267	817.69
445.641	823.79
446.016	835.54
446.39	821.98
446.764	830.57
447.139	854.3
447.513	835.09
447.887	848.88
448.262	850.01
448.636	848.2
449.01	834.41
449.384	837.35
449.758	868.31
450.132	865.82
450.506	878.03
450.88	880.74
451.254	890.91
451.628	876.67
452.002	890.91
452.376	879.16
452.75	905.15
453.123	919.61
453.497	937.46
453.871	938.82
454.244	971.13
454.618	953.51
454.992	1010.68
455.365	1000.06
455.739	979.49
456.112	1010
456.486	986.95
456.859	1007.06
457.232	1007.52
457.606	1046.38
457.979	1053.39
458.352	1107.63
458.725	1068.53
459.099	1085.48
459.472	1112.6
459.845	1121.86
460.218	1138.36
460.591	1135.42
460.964	1130.9
461.337	1184.46
461.71	1166.61
462.083	1221.97
462.456	1194.63
462.829	1214.29
463.201	1242.99
463.574	1242.54
463.947	1244.12
464.32	1301.52
464.692	1313.04
465.065	1323.89
465.438	1337.68
465.81	1392.82
466.183	1362.53
466.555	1414.96
466.928	1427.39
467.3	1431.01
467.672	1455.87
468.045	1497.45
468.417	1511.91
468.789	1508.52
469.161	1533.15
469.534	1556.65
469.906	1623.09
470.278	1621.06
470.65	1651.79
471.022	1692.92
471.394	1694.73
471.766	1745.12
472.138	1780.83
472.51	1821.73
472.882	1835.97
473.253	1887.27
473.625	1956.19
473.997	1960.49
474.369	2006.13
474.74	2057.88
475.112	2121.84
475.484	2148.05
475.855	2212.23
476.227	2235.51
476.598	2346.24
476.97	2350.98
477.341	2446.57
477.713	2487.25
478.084	2519.57
478.455	2631.2
478.827	2668.72
479.198	2769.5
479.569	2781.93
479.94	2941.7
480.311	2976.5
480.682	3086.56
481.053	3196.84
481.424	3212.43
481.795	3357.51
482.166	3409.49
482.537	3483.38
482.908	3636.15
483.279	3731.06
483.65	3809.7
484.021	3949.59
484.391	4021.9
484.762	4144.38
485.133	4214.21
485.503	4369.24
485.874	4481.77
486.244	4584.37
486.615	4675.89
486.985	4841.77
487.356	4928.77
487.726	5060.52
488.097	5205.82
488.467	5305.26
488.837	5540.73
489.207	5610.56
489.578	5755.87
489.948	5854.62
490.318	5967.61
490.688	6089.64
491.058	6277.21
491.428	6448.05
491.798	6552.23
492.168	6716.07
492.538	6826.35
492.908	6928.94
493.278	7126.45
493.648	7221.82
494.017	7370.96
494.387	7533.45
494.757	7649.38
495.126	7807.56
495.496	7842.14
495.866	7982.25
496.235	8140.21
496.605	8287.32
496.974	8419.52
497.344	8536.58
497.713	8647.54
498.082	8838.95
498.452	8938.61
498.821	9007.08
499.19	9070.58
499.559	9291.14
499.928	9362.78
500.298	9469.21
500.667	9565.93
501.036	9694.52
501.405	9805.02
501.774	9810.45
502.143	9934.74
502.512	10057.9
502.88	10208.18
503.249	10292.7
503.618	10286.37
503.987	10422.64
504.356	10469.87
504.724	10614.04
505.093	10685.68
505.462	10848.61
505.83	10843.64
506.199	10940.81
506.567	11106.91
506.936	11101.49
507.304	11222.61
507.672	11332.67
508.041	11299.67
508.409	11432.55
508.777	11566.79
509.145	11700.12
509.514	11564.98
509.882	11670.74
510.25	11738.31
510.618	11849.49
510.986	11869.15
511.354	11982.59
511.722	12064.17
512.09	12203.38
512.458	12119.09
512.826	12239.31
513.193	12272.76
513.561	12255.58
513.929	12356.82
514.297	12472.75
514.664	12552.75
515.032	12607.89
515.4	12664.38
515.767	12652.63
516.135	12781.44
516.502	12665.74
516.869	12814.66
517.237	12837.71
517.604	12816.92
517.972	12919.97
518.339	12959.52
518.706	12925.62
519.073	12891.5
519.44	12978.95
519.808	13177.14
520.175	13167.42
520.542	13242.22
520.909	13242.9
521.276	13226.18
521.643	13265.72
522.009	13366.96
522.376	13341.43
522.743	13412.39
523.11	13523.57
523.477	13569.45
523.843	13525.6
524.21	13652.16
524.577	13720.4
524.943	13670.46
525.31	13765.82
525.676	13778.03
526.043	13876.33
526.409	13867.06
526.776	13971.47
527.142	13843.34
527.508	13910.68
527.874	14056.89
528.241	13963.79
528.607	13895.54
528.973	14053.73
529.339	13955.42
529.705	14060.73
530.071	14015.76
530.437	14033.61
530.803	14110.22
531.169	14159.49
531.535	14018.02
531.901	14059.6
532.267	14089.88
532.632	14097.34
532.998	14075.42
533.364	14160.39
533.73	14057.79
534.095	14072.26
534.461	14124.01
534.826	14085.59
535.192	14042.2
535.557	14038.36
535.923	14024.12
536.288	14010.34
536.653	13986.38
537.019	13940.06
537.384	13942.99
537.749	13975.54
538.114	13906.61
538.479	13863.22
538.845	13900.96
539.21	13770.57
539.575	13782.55
539.94	13824.81
540.305	13811.25
540.67	13687.18
541.034	13734.86
541.399	13797.24
541.764	13717.46
542.129	13641.31
542.494	13644.25
542.858	13656
543.223	13553.4
543.587	13493.29
543.952	13498.49
544.316	13478.37
544.681	13433.4
545.045	13381.88
545.41	13428.88
545.774	13363.8
546.138	13382.33
546.503	13378.94
546.867	13291.94
547.231	13362.45
547.595	13300.3
547.959	13199.96
548.324	13248.55
548.688	13103.02
549.052	13128.33
549.416	13075.45
549.779	13009.91
550.143	13009.46
550.507	13039.06
550.871	13030.25
551.235	12997.94
551.599	13028.44
551.962	12983.92
552.326	12921.33
552.689	12944.15
553.053	12851.27
553.417	12817.15
553.78	12916.36
554.143	12750.48
554.507	12819.41
554.87	12791.16
555.234	12841.33
555.597	12830.03
555.96	12799.97
556.323	12797.49
556.686	12693.31
557.05	12691.05
557.413	12719.3
557.776	12688.56
558.139	12659.64
558.502	12755.68
558.865	12681.79
559.228	12763.82
559.59	12667.55
559.953	12678.85
560.316	12762.91
560.679	12746.64
561.041	12744.83
561.404	12793.65
561.767	12764.72
562.129	12729.24
562.492	12789.35
562.854	12741.9
563.217	12595.91
563.579	12703.71
563.941	12808.11
564.304	12791.16
564.666	12833.87
565.028	12806.53
565.39	12865.28
565.753	12865.96
566.115	12820.31
566.477	12877.26
566.839	12884.72
567.201	12869.58
567.563	12956.58
567.925	12958.16
568.287	12892.85
568.648	12968.33
569.01	12874.32
569.372	12985.51
569.734	12947.99
570.095	12967.2
570.457	12972.17
570.819	12982.12
571.18	12969.24
571.542	13043.58
571.903	13007.88
572.265	13063.24
572.626	13039.74
572.987	13044.04
573.349	13088.55
573.71	13166.29
574.071	13124.49
574.432	13106.41
574.794	13191.83
575.155	13144.6
575.516	13104.6
575.877	13147.08
576.238	13213.52
576.599	13173.98
576.96	13202.22
577.32	13221.43
577.681	13286.52
578.042	13308.89
578.403	13202.22
578.763	13238.83
579.124	13207.2
579.485	13217.82
579.845	13269.79
580.206	13254.88
580.566	13248.32
580.927	13133.3
581.287	13215.56
581.648	13192.05
582.008	13231.38
582.368	13220.75
582.728	13198.16
583.089	13189.12
583.449	13230.02
583.809	13135.11
584.169	13139.85
584.529	13182.79
584.889	13225.95
585.249	13119.06
585.609	13135.56
585.969	13161.32
586.329	13104.15
586.688	13118.16
587.048	13038.39
587.408	12993.42
587.768	13049.46
588.127	13055.33
588.487	13002
588.846	13147.76
589.206	13103.92
589.565	12992.96
589.925	13032.96
590.284	12989.8
590.643	13118.16
591.003	13082.45
591.362	13114.54
591.721	13040.87
592.08	13087.2
592.44	13104.15
592.799	13103.92
593.158	13051.49
593.517	13003.81
593.876	13047.43
594.235	12972.4
594.593	12965.85
594.952	13007.2
595.311	12933.98
595.67	12986.86
596.029	12992.96
596.387	13019.86
596.746	12951.38
597.104	12875.9
597.463	12910.48
597.822	12943.02
598.18	12880.42
598.538	12876.13
598.897	12926.07
599.255	12791.61
599.613	12969.69
599.972	12905.73
600.33	12912.74
600.688	12876.36
601.046	13013.98
601.404	12985.96
601.762	12867.54
602.12	12980.53
602.478	12917.26
602.836	12891.5
603.194	12898.28
603.552	12903.02
603.91	12845.17
604.268	12922.68
604.625	12875.45
604.983	12929.91
605.341	12884.72
605.698	12919.29
606.056	12963.81
606.413	12977.82
606.771	12939.18
607.128	13001.55
607.485	12960.2
607.843	12908.22
608.2	13102.57
608.557	12986.18
608.914	13019.18
609.272	13041.55
609.629	12994.32
609.986	13101.21
610.343	13013.53
610.7	13076.35
611.057	13057.82
611.414	13065.28
611.771	13045.39
612.127	13118.84
612.484	13072.28
612.841	13176.01
613.198	13112.06
613.554	13082.23
613.911	13139.17
614.267	13165.39
614.624	13122.45
614.98	13162.45
615.337	13160.87
615.693	13229.34
616.05	13244.26
616.406	13207.65
616.762	13237.02
617.118	13188.44
617.475	13216.91
617.831	13210.81
618.187	13345.72
618.543	13223.47
618.899	13269.79
619.255	13318.83
619.611	13256.01
619.967	13391.37
620.323	13364.48
620.678	13322.67
621.034	13281.54
621.39	13280.64
621.746	13218.95
622.101	13463.23
622.457	13328.55
622.812	13305.72
623.168	13356.57
623.523	13354.08
623.879	13389.11
624.234	13264.14
624.589	13319.51
624.945	13247.87
625.3	13418.26
625.655	13300.07
626.01	13331.26
626.365	13358.15
626.72	13373.52
627.075	13282.67
627.43	13355.67
627.785	13304.14
628.14	13290.13
628.495	13362.22
628.85	13292.39
629.205	13266.85
629.559	13418.26
629.914	13248.1
630.269	13330.81
630.623	13191.15
630.978	13145.5
631.332	13282.22
631.687	13234.31
632.041	13192.28
632.396	13086.07
632.75	13164.26
633.104	13291.49
633.459	13089.46
633.813	13161.09
634.167	13121.1
634.521	13190.47
634.875	13193.18
635.229	13136.69
635.583	13094.2
635.937	13053.53
636.291	13060.76
636.645	13042
636.999	12993.42
637.352	12990.03
637.706	12942.12
638.06	13056.69
638.413	12924.72
638.767	12943.93
639.121	12907.99
639.474	12848.33
639.828	12896.69
640.181	12920.42
640.534	12926.75
640.888	12825.28
641.241	12893.08
641.594	12860.76
641.947	12873.87
642.301	12860.54
642.654	12848.11
643.007	12796.36
643.36	12825.51
643.713	12741.44
644.066	12863.93
644.419	12879.97
644.771	12655.57
645.124	12598.85
645.477	12507.78
645.83	12428.68
646.182	12338.52
646.535	12412.87
646.888	12445.41
647.24	12296.26
647.593	12409.02
647.945	12350.27
648.298	12284.73
648.65	12233.44
649.002	12268.91
649.355	12354.11
649.707	12301.91
650.059	12385.3
650.411	12548.91
650.763	12592.07
651.115	12600.66
651.467	12682.69
651.819	12637.72
652.171	12642.24
652.523	12471.62
652.875	12570.38
653.227	12565.4
653.578	12692.63
653.93	12618.06
654.282	12589.58
654.633	12671.39
654.985	12607.44
655.337	12621.9
655.688	12664.84
656.039	12643.59
656.391	12518.85
656.742	12572.41
657.094	12566.31
657.445	12696.93
657.796	12615.57
658.147	12618.51
658.498	12661.45
658.849	12611.05
659.2	12623.93
659.551	12636.14
659.902	12654.67
660.253	12579.19
660.604	12673.2
660.955	12601.34
661.306	12668.23
661.656	12622.8
662.007	12763.82
662.358	12747.77
662.708	12664.84
663.059	12707.77
663.409	12671.62
663.76	12784.38
664.11	12712.52
664.461	12707.77
664.811	12774.89
665.161	12728.79
665.511	12622.8
665.862	12737.6
666.212	12741.22
666.562	12791.61
666.912	12706.64
667.262	12749.13
667.612	12707.32
667.962	12763.59
668.312	12741.9
668.662	12785.29
669.011	12731.05
669.361	12610.6
669.711	12703.25
670.06	12651.96
670.41	12700.32
670.76	12609.02
671.109	12707.77
671.459	12641.33
671.808	12593.88
672.157	12634.78
672.507	12577.83
672.856	12609.92
673.205	12575.57
673.554	12667.1
673.904	12604.73
674.253	12693.31
674.602	12610.15
674.951	12358.86
675.3	12381.91
675.649	12484.28
675.998	12475.69
676.346	12544.16
676.695	12515.46
677.044	12378.29
677.393	12484.5
677.741	12538.06
678.09	12400.89
678.438	12446.09
678.787	12412.64
679.135	12448.35
679.484	12396.82
679.832	12415.8
680.181	12345.3
680.529	12344.84
680.877	12303.04
681.225	12331.29
681.573	12265.75
681.922	12272.08
682.27	12227.11
682.618	12186.88
682.966	12201.35
683.314	12227.33
683.661	12111.63
684.009	12050.39
684.357	12131.29
684.705	12062.37
685.053	12091.52
685.4	12102.82
685.748	11975.82
686.095	12004.29
686.443	11950.73
686.79	11895.82
687.138	11885.87
687.485	11939.21
687.832	11868.25
688.18	11878.64
688.527	11795.25
688.874	11800
689.221	11733.11
689.568	11775.37
689.915	11716.16
690.262	11661.47
690.609	11647.01
690.956	11661.02
691.303	11575.15
691.65	11424.87
691.997	11506.9
692.344	11407.69
692.69	11336.74
693.037	11344.87
693.383	11281.82
693.73	11240.92
694.077	11206.34
694.423	11249.96
694.769	11127.48
695.116	11172.9
695.462	11206.57
695.808	11070.08
696.155	11094.26
696.501	10946.24
696.847	10946.24
697.193	10832.79
697.539	10891.78
697.885	10831.66
698.231	10761.38
698.577	10822.4
698.923	10798.44
699.269	10733.14
699.614	10628.51
699.96	10604.78
700.306	10604.55
700.651	10513.03
700.997	10540.6
701.342	10440.94
701.688	10419.02
702.033	10358.46
702.379	10403.43
702.724	10368.17
703.069	10332.47
703.415	10238.46
703.76	10232.13
704.105	10244.34
704.45	10162.98
704.795	10079.14
705.14	10066.49
705.485	10082.31
705.83	10060.39
706.175	9988.75
706.52	9957.11
706.865	9977.9
707.209	9908.52
707.554	9939.03
707.899	9905.14
708.243	9882.99
708.588	9864.68
708.932	9797.79
709.277	9760.28
709.621	9763.44
709.966	9708.3
710.31	9695.88
710.654	9598.25
710.998	9663.56
711.342	9622.43
711.687	9617.46
712.031	9535.65
712.375	9529.55
712.719	9441.87
713.063	9523.68
713.407	9517.35
713.75	9518.48
714.094	9465.15
714.438	9415.66
714.782	9462.21
715.125	9385.15
715.469	9396.9
715.812	9378.14
716.156	9323.46
716.499	9278.26
716.843	9257.92
717.186	9228.77
717.53	9234.64
717.873	9308.09
718.216	9248.88
718.559	9270.35
718.902	9146.74
719.246	9180.18
719.589	9197.58
719.932	9191.93
720.275	9149.45
720.617	9167.98
720.96	9135.66
721.303	9094.76
721.646	9134.08
721.989	9057.47
722.331	9137.7
722.674	9079.17
723.016	9066.74
723.359	8987.87
723.701	9102.9
724.044	8995.33
724.386	8977.02
724.729	9021.09
725.071	9002.56
725.413	9033.52
725.755	8983.58
726.097	8941.32
726.439	8982
726.782	8939.51
727.124	8977.93
727.465	8965.27
727.807	8920.98
728.149	8903.58
728.491	8880.98
728.833	8911.49
729.175	8892.51
729.516	8834.65
729.858	8894.31
730.199	8867.87
730.541	8903.58
730.882	8884.6
731.224	8856.58
731.565	8820.19
731.906	8859.96
732.248	8898.38
732.589	8902
732.93	8815.22
733.271	8749.23
733.612	8921.21
733.953	8901.55
734.294	8876.01
734.635	8896.12
734.976	8833.3
735.317	8847.76
735.658	8859.74
735.999	8862
736.339	8876.24
736.68	8868.33
737.021	8909.91
737.361	8869.91
737.702	8937.48
738.042	8784.26
738.383	8850.7
738.723	8923.24
739.063	8943.8
739.404	8948.32
739.744	8903.58
740.084	8914.2
740.424	8958.04
740.764	8878.5
741.104	9000.3
741.444	8929.12
741.784	8966.4
742.124	8977.25
742.464	9017.25
742.804	9038.27
743.143	9045.04
743.483	9082.11
743.823	9110.35
744.162	9099.05
744.502	9150.13
744.841	9149.67
745.181	9215.21
745.52	9254.53
745.86	9280.52
746.199	9304.92
746.538	9329.56
746.877	9412.27
747.216	9478.48
747.556	9500.17
747.895	9587.4
748.234	9563
748.573	9641.64
748.911	9743.11
749.25	9764.57
749.589	9822.2
749.928	9887.28
750.267	9961.4
750.605	10111.91
750.944	10195.3
751.283	10147.39
751.621	10270.32
751.96	10317.33
752.298	10441.39
752.636	10571.11
752.975	10634.38
753.313	10688.39
753.651	10786.47
753.989	10944.88
754.327	11045.9
754.666	11145.55
755.004	11195.04
755.342	11312.1
755.679	11549.16
756.017	11610.63
756.355	11747.35
756.693	11903.5
757.031	12032.54
757.368	12136.71
757.706	12321.79
758.044	12359.99
758.381	12678.85
758.719	12750.26
759.056	12928.33
759.394	13111.6
759.731	13176.91
760.068	13357.25
760.405	13432.27
760.743	13668.2
761.08	13881.08
761.417	13916.55
761.754	14094.63
762.091	14237.68
762.428	14408.52
762.765	14535.75
763.102	14792.92
763.438	14826.59
763.775	15010.76
764.112	15268.84
764.449	15380.25
764.785	15514.48
765.122	15666.34
765.458	15697.98
765.795	15885.99
766.131	15968.03
766.467	16300.9
766.804	16332.08
767.14	16383.83
767.476	16535.24
767.812	16683.71
768.148	16842.58
768.485	16960.54
768.821	17015
769.157	17191.72
769.492	17254.77
769.828	17363.92
770.164	17374.54
770.5	17511.71
770.836	17657.02
771.171	17587.42
771.507	17857.24
771.842	17899.73
772.178	18045.94
772.513	17994.87
772.849	18086.39
773.184	18128.42
773.519	18151.25
773.855	18202.54
774.19	18297.46
774.525	18365.7
774.86	18468.53
775.195	18561.4
775.53	18556.88
775.865	18560.05
776.2	18524.8
776.535	18487.06
776.87	18493.61
777.205	18522.08
777.539	18608.18
777.874	18767.27
778.209	18674.62
778.543	18727.73
778.878	18642.08
779.212	18777.9
779.547	18644.79
779.881	18757.33
780.215	18679.82
780.55	18784.9
780.884	18812.7
781.218	18693.38
781.552	18856.09
781.886	18729.76
782.22	18775.41
782.554	18634.62
782.888	18650.44
783.222	18682.76
783.556	18611.57
783.889	18586.49
784.223	18439.83
784.557	18538.81
784.89	18603.89
785.224	18483.89
785.557	18547.17
785.891	18421.97
786.224	18466.49
786.558	18453.61
786.891	18437.34
787.224	18353.05
787.557	18244.12
787.891	18334.07
788.224	18354.63
788.557	18367.06
788.89	18296.78
789.223	18278.25
789.556	18206.39
789.888	18184.92
790.221	18267.85
790.554	18003.68
790.887	18144.69
791.219	17972.72
791.552	17952.83
791.884	17887.52
792.217	17836.23
792.549	17926.17
792.882	17705.61
793.214	17677.59
793.546	17805.04
793.879	17711.71
794.211	17658.38
794.543	17768.21
794.875	17604.37
795.207	17626.51
795.539	17496.35
795.871	17591.49
796.203	17474.65
796.535	17378.16
796.867	17386.52
797.198	17359.85
797.53	17327.09
797.862	17159.63
798.193	17223.59
798.525	17158.05
798.856	17169.12
799.188	17005.29
799.519	16928.91
799.85	16946.98
800.182	16859.53
800.513	16932.52
800.844	16820.89
801.175	16928.68
801.506	16803.03
801.837	16766.42
802.168	16692.3
802.499	16666.99
802.83	16644.39
803.161	16637.61
803.491	16564.17
803.822	16619.99
804.153	16584.73
804.483	16345.42
804.814	16363.5
805.145	16282.59
805.475	16384.51
805.805	16345.42
806.136	16324.63
806.466	16278.53
806.796	16314.23
807.126	16173.44
807.457	16119.66
807.787	16049.38
808.117	16023.17
808.447	15951.76
808.777	16051.41
809.107	15916.73
809.436	15860.46
809.766	15866.79
810.096	15769.16
810.426	15793.57
810.755	15819.56
811.085	15776.85
811.414	15783.62
811.744	15647.58
812.073	15559.68
812.403	15558.32
812.732	15471.09
813.061	15491.65
813.39	15314.03
813.719	15275.84
814.049	15445.55
814.378	15355.84
814.707	15224.77
815.036	15255.73
815.365	15269.97
815.693	15101.38
816.022	15079.24
816.351	15119.01
816.68	15080.82
817.008	15067.94
817.337	14912.91
817.665	14978.22
817.994	14967.6
818.322	14935.74
818.651	14843.99
818.979	14946.36
819.307	14952.23
819.636	14808.51
819.964	14766.93
820.292	14822.52
820.62	14787.27
820.948	14762.63
821.276	14867.04
821.604	14806.25
821.932	14854.84
822.259	14785.68
822.587	14898.22
822.915	14749.53
823.243	14800.83
823.57	14702.52
823.898	14744.33
824.225	14778.45
824.553	14753.6
824.88	14724.22
825.207	14784.33
825.535	14754.27
825.862	14817.77
826.189	14774.39
826.516	14803.09
826.843	14900.26
827.17	14791.56
827.497	14768.06
827.824	14780.71
828.151	14798.57
828.478	14829.75
828.805	14822.29
829.131	14784.78
829.458	14726.03
829.785	14775.97
830.111	14751.34
830.438	14834.72
830.764	14777.1
831.09	14761.05
831.417	14685.12
831.743	14774.84
832.069	14740.71
832.395	14688.51
832.722	14719.92
833.048	14660.49
833.374	14747.72
833.7	14615.29
834.026	14536.43
834.351	14585.92
834.677	14563.54
835.003	14645.8
835.329	14608.29
835.654	14524.22
835.98	14610.77
836.306	14556.31
836.631	14480.83
836.956	14550.89
837.282	14536.2
837.607	14465.47
837.932	14441.96
838.258	14441.96
838.583	14458.01
838.908	14373.94
839.233	14411.46
839.558	14281.07
839.883	14285.58
840.208	14257.56
840.533	14285.81
840.858	14232.7
841.182	14279.71
841.507	14193.61
841.832	14181.18
842.156	14112.26
842.481	14068.19
842.805	14145.7
843.13	14056.89
843.454	14050.34
843.778	13945.93
844.103	13950.23
844.427	13955.2
844.751	13875.43
845.075	13828.42
845.399	13826.84
845.723	13749.55
846.047	13693.51
846.371	13710.68
846.695	13618.48
847.019	13557.47
847.343	13445.83
847.666	13406.06
847.99	13378.26
848.313	13389.56
848.637	13332.16
848.96	13203.35
849.284	13264.59
849.607	13011.04
849.931	13097.82
850.254	13032.74
850.577	12983.02
850.9	12922.68
851.223	12988.67
851.546	12850.59
851.869	12732.41
852.192	12774.66
852.515	12684.5
852.838	12635.91
853.161	12595.69
853.483	12548.91
853.806	12520.43
854.129	12472.53
854.451	12402.92
854.774	12335.58
855.096	12268.01
855.419	12305.98
855.741	12221.46
856.063	12246.09
856.385	12198.86
856.708	12105.76
857.03	12109.82
857.352	12127.68
857.674	12021.01
857.996	11966.1
858.318	11885.65
858.64	11944.18
858.961	11955.02
859.283	11846.33
859.605	11799.77
859.926	11852.2
860.248	11757.97
860.57	11690.62
860.891	11750.96
861.212	11628.93
861.534	11591.19
861.855	11627.8
862.176	11658.31
862.498	11590.06
862.819	11644.3
863.14	11618.99
863.461	11482.72
863.782	11439.78
864.103	11469.39
864.424	11401.14
864.745	11429.16
865.065	11343.52
865.386	11322.5
865.707	11297.41
866.027	11288.6
866.348	11249.05
866.668	11256.96
866.989	11191.88
867.309	11276.85
867.63	11223.52
867.95	11225.1
868.27	11108.72
868.59	11118.89
868.91	11082.05
869.23	11070.53
869.55	11061.71
869.87	11101.94
870.19	11093.13
870.51	11027.82
870.83	11115.95
871.15	11086.8
871.469	10969.97
871.789	11015.61
872.109	10923.87
872.428	10928.61
872.748	10932.45
873.067	10889.06
873.386	10947.82
873.706	10844.77
874.025	10834.15
874.344	10767.03
874.663	10752.34
874.982	10762.51
875.301	10852.68
875.62	10754.38
875.939	10772.46
876.258	10814.49
876.577	10687.49
876.896	10695.4
877.214	10678.22
877.533	10654.72
877.852	10645.23
878.17	10650.2
878.489	10680.03
878.807	10586.02
879.125	10569.98
879.444	10617.43
879.762	10494.72
880.08	10560.26
880.398	10488.17
880.716	10544.89
881.034	10470.09
881.352	10556.64
881.67	10470.54
881.988	10485.46
882.306	10408.17
882.624	10317.33
882.941	10357.33
883.259	10334.95
883.577	10246.14
883.894	10280.27
884.212	10162.76
884.529	10188.97
884.846	10200.95
885.164	10169.76
885.481	10139.48
885.798	10176.99
886.115	10091.8
886.432	10038.92
886.75	10006.15
887.067	10048.41
887.383	10021.06
887.7	10000.27
888.017	9932.7
888.334	10029.43
888.651	9920.95
888.967	9910.78
889.284	9889.32
889.6	9854.74
889.917	9751.01
890.233	9803.22
890.55	9718.93
890.866	9757.79
891.182	9635.54
891.498	9612.71
891.815	9647.06
892.131	9577.01
892.447	9553.05
892.763	9507.63
893.079	9530
893.395	9482.1
893.71	9517.12
894.026	9466.05
894.342	9438.71
894.657	9361.19
894.973	9273.97
895.289	9239.39
895.604	9357.8
895.92	9226.73
896.235	9165.04
896.55	9224.93
896.865	9153.52
897.181	9107.42
897.496	9134.53
897.811	9059.73
898.126	9029
898.441	8989.23
898.756	8997.36
899.071	8949.68
899.386	8929.12
899.7	8829.46
900.015	8821.55
900.33	8730.25
900.644	8778.61
900.959	8800.53
901.273	8708.56
901.588	8653.87
901.902	8579.29
902.216	8603.25
902.531	8646.41
902.845	8531.61
903.159	8504.95
903.473	8489.81
903.787	8463.14
904.101	8413.2
904.415	8448.22
904.729	8354.44
905.042	8325.97
905.356	8284.39
905.67	8297.27
905.984	8218.85
906.297	8254.78
906.611	8157.84
906.924	8153.77
907.237	8162.13
907.551	8121.23
907.864	8029.48
908.177	7951.97
908.491	7979.99
908.804	7963.94
909.117	7894.11
909.43	7912.87
909.743	7829.26
910.056	7831.52
910.368	7737.06
910.681	7809.37
910.994	7725.08
911.307	7719.2
911.619	7697.74
911.932	7595.82
912.244	7550.39
912.557	7601.92
912.869	7509.94
913.181	7521.47
913.494	7455.93
913.806	7421.81
914.118	7389.27
914.43	7324.64
914.742	7366.67
915.054	7310.63
915.366	7274.24
915.678	7316.5
915.99	7167.81
916.302	7184.3
916.613	7140.69
916.925	7126.9
917.236	7154.7
917.548	7092.78
917.859	7057.75
918.171	7025.66
918.482	6991.99
918.794	6979.34
919.105	6944.76
919.416	6940.02
919.727	6881.71
920.038	6813.92
920.349	6820.24
920.66	6768.27
920.971	6747.7
921.282	6763.07
921.593	6694.6
921.903	6686.91
922.214	6667.71
922.525	6612.79
922.835	6573.02
923.146	6560.82
923.456	6491.67
923.767	6519.46
924.077	6462.06
924.387	6481.72
924.697	6432.91
925.008	6384.32
925.318	6398.11
925.628	6359.92
925.938	6302.29
926.248	6273.37
926.558	6263.42
926.867	6285.8
927.177	6214.61
927.487	6208.28
927.796	6171.9
928.106	6120.38
928.416	6130.55
928.725	6093.71
929.034	6076.76
929.344	6132.8
929.653	6081.73
929.962	5916.99
930.271	5940.72
930.581	5951.34
930.89	5914.28
931.199	5839.03
931.508	5877.22
931.817	5883.77
932.125	5829.08
932.434	5790.89
932.743	5739.37
933.051	5738.69
933.36	5808.07
933.669	5681.97
933.977	5643.33
934.286	5760.84
934.594	5692.14
934.902	5593.38
935.21	5579.15
935.519	5618.02
935.827	5562.65
936.135	5493.73
936.443	5523.33
936.751	5492.6
937.059	5487.4
937.367	5440.62
937.674	5469.77
937.982	5362.2
938.29	5396.55
938.597	5350.68
938.905	5341.87
939.213	5324.69
939.52	5212.83
939.827	5286.73
940.135	5218.03
940.442	5171.47
940.749	5210.34
941.056	5173.51
941.363	5121.98
941.67	5092.15
941.977	5108.2
942.284	5075.21
942.591	5035.43
942.898	5002.44
943.205	5016.68
943.511	5008.77
943.818	4994.3
944.125	4944.14
944.431	4880.18
944.738	4890.35
945.044	4825.04
945.35	4855.32
945.657	4853.74
945.963	4810.35
946.269	4767.87
946.575	4807.64
946.881	4759.73
947.187	4744.14
947.493	4711.37
947.799	4691.26
948.105	4701.2
948.41	4640.19
948.716	4652.39
949.022	4632.51
949.327	4621.66
949.633	4535.56
949.938	4562.45
950.244	4559.06
950.549	4511.15
950.854	4505.5
951.16	4436.8
951.465	4466.41
951.77	4433.64
952.075	4431.61
952.38	4383.25
952.685	4393.87
952.99	4348.22
953.294	4326.3
953.599	4306.41
953.904	4303.02
954.209	4262.12
954.513	4293.98
954.818	4265.74
955.122	4245.17
955.426	4212.4
955.731	4191.16
956.035	4135.57
956.339	4124.04
956.643	4147.32
956.948	4135.8
957.252	4120.2
957.556	4055.57
957.86	4074.78
958.163	4023.03
958.467	4065.06
958.771	4036.81
959.075	4046.08
959.378	4013.54
959.682	4006.53
959.985	3965.63
960.289	3972.18
960.592	3940.77
960.896	3942.13
961.199	3907.1
961.502	3880.43
961.805	3877.72
962.108	3828.01
962.411	3796.14
962.714	3813.54
963.017	3785.52
963.32	3748.69
963.623	3785.97
963.926	3738.97
964.228	3722.92
964.531	3688.58
964.833	3678.18
965.136	3629.37
965.438	3703.94
965.741	3679.99
966.043	3646.99
966.345	3644.73
966.648	3599.99
966.95	3584.85
967.252	3525.64
967.554	3562.93
967.856	3532.65
968.158	3492.65
968.46	3449.71
968.761	3458.52
969.063	3453.33
969.365	3424.18
969.666	3428.7
969.968	3360.9
970.269	3428.24
970.571	3423.72
970.872	3405.19
971.174	3352.99
971.475	3346.66
971.776	3315.7
972.077	3341.92
972.378	3327.91
972.679	3285.87
972.98	3275.93
973.281	3273.67
973.582	3240.9
973.883	3239.55
974.183	3220.34
974.484	3259.43
974.785	3204.97
975.085	3225.08
975.386	3197.74
975.686	3185.54
975.986	3141.47
976.287	3120.91
976.587	3089.95
976.887	3112.77
977.187	3102.38
977.487	3075.71
977.787	3051.08
978.087	3036.16
978.387	3027.35
978.687	3040.68
978.987	2988.71
979.286	2971.76
979.586	3020.57
979.885	2953.23
980.185	2946.67
980.484	2938.54
980.784	2955.94
981.083	2911.19
981.382	2908.26
981.682	2898.77
981.981	2830.52
982.28	2855.15
982.579	2818.54
982.878	2839.78
983.177	2796.17
983.475	2818.77
983.774	2807.24
984.073	2764.98
984.372	2741.93
984.67	2729.73
984.969	2756.17
985.267	2748.94
985.566	2706
985.864	2715.49
986.162	2711.65
986.461	2686.79
986.759	2656.96
987.057	2650.18
987.355	2650.86
987.653	2649.73
987.951	2627.81
988.249	2620.35
988.547	2591.88
988.844	2563.86
989.142	2546.68
989.44	2533.13
989.737	2518.21
990.035	2504.65
990.332	2534.26
990.63	2511.21
990.927	2502.17
991.224	2515.05
991.521	2490.64
991.819	2456.74
992.116	2487.48
992.413	2417.65
992.71	2428.72
993.006	2425.11
993.303	2397.54
993.6	2414.48
993.897	2389.85
994.193	2414.94
994.49	2373.58
994.787	2360.47
995.083	2332.23
995.379	2361.38
995.676	2332.23
995.972	2309.63
996.268	2301.04
996.565	2263.98
996.861	2262.85
997.157	2318.89
997.453	2269.63
997.749	2221.72
998.044	2263.75
998.34	2228.95
998.636	2221.95
998.932	2232.12
999.227	2188.95
999.523	2185.34
999.818	2180.14
1000.114	2176.52
1000.409	2160.48
1000.704	2102.85
1001	2105.11
1001.295	2092.23
1001.59	2068.73
1001.885	2088.62
1002.18	2063.53
1002.475	2061.05
1002.77	2050.43
1003.065	2044.32
1003.359	2042.74
1003.654	2003.42
1003.949	2013.82
1004.243	1998.22
1004.538	1967.49
1004.832	1979.24
1005.127	1955.06
1005.421	1967.04
1005.715	1983.99
1006.009	1921.84
1006.304	1911.45
1006.598	1883.2
1006.892	1886.59
1007.186	1882.07
1007.48	1894.27
1007.773	1896.98
1008.067	1804.11
1008.361	1823.99
1008.655	1808.17
1008.948	1814.73
1009.242	1824.44
1009.535	1794.61
1009.829	1793.26
1010.122	1758.23
1010.415	1794.16
1010.708	1768.85
1011.001	1743.54
1011.295	1748.51
1011.588	1722.75
1011.881	1717.1
1012.173	1723.2
1012.466	1713.71
1012.759	1680.04
1013.052	1661.06
1013.344	1696.31
1013.637	1645.69
1013.93	1640.49
1014.222	1644.34
1014.514	1639.59
1014.807	1608.86
1015.099	1608.4
1015.391	1594.85
1015.683	1597.33
1015.976	1607.73
1016.268	1579.03
1016.56	1584
1016.851	1535.41
1017.143	1552.13
1017.435	1539.25
1017.727	1525.02
1018.018	1525.92
1018.31	1522.08
1018.602	1523.66
1018.893	1499.25
1019.185	1486.6
1019.476	1478.69
1019.767	1467.39
1020.058	1453.61
1020.35	1433.04
1020.641	1457.67
1020.932	1404.57
1021.223	1398.47
1021.514	1399.6
1021.804	1373.16
1022.095	1390.1
1022.386	1380.61
1022.677	1392.59
1022.967	1338.13
1023.258	1338.81
1023.548	1361.63
1023.839	1334.74
1024.129	1323.44
1024.419	1318.02
1024.709	1293.16
1025	1298.58
1025.29	1275.98
1025.58	1262.65
1025.87	1270.33
1026.16	1275.76
1026.449	1260.62
1026.739	1255.19
1027.029	1253.16
1027.319	1216.55
1027.608	1226.49
1027.898	1249.09
1028.187	1212.03
1028.477	1213.39
1028.766	1214.52
1029.055	1167.06
1029.344	1193.73
1029.634	1179.49
1029.923	1174.97
1030.212	1166.38
1030.501	1162.09
1030.79	1145.14
1031.078	1125.93
1031.367	1117.8
1031.656	1144.46
1031.945	1103.11
1032.233	1094.97
1032.522	1100.39
1032.81	1078.7
1033.099	1097.23
1033.387	1093.84
1033.675	1050.23
1033.963	1060.62
1034.251	1073.95
1034.54	1072.15
1034.828	1040.51
1035.116	1036.22
1035.403	1032.6
1035.691	1001.41
1035.979	1037.57
1036.267	1013.62
1036.554	1022.66
1036.842	988.76
1037.129	986.73
1037.417	981.53
1037.704	997.57
1037.992	997.8
1038.279	955.31
1038.566	961.19
1038.853	961.19
1039.14	961.19
