Data from hue_280_FLMS001491_00095.txt Node
Date: Tue Feb 07 15:56:08 GMT 2017
User: dcchb
Spectrometer: FLMS00149
Trigger mode: 0
Integration Time (sec): 2.000000E-2
Scans to average: 10
Electric dark correction enabled: true
Nonlinearity correction enabled: false
Boxcar width: 0
XAxis mode: Wavelengths
Number of Pixels in Spectrum: 2048
>>>>>Begin Spectral Data<<<<<
341.393	-10.76
341.776	-10.76
342.16	-10.76
342.543	-36.07
342.927	-66.81
343.31	-80.14
343.693	-57.54
344.077	-65.45
344.46	-50.99
344.843	-41.72
345.226	-34.04
345.61	-33.81
345.993	-43.98
346.376	-16.64
346.759	0.76
347.142	32.17
347.525	33.08
347.908	62
348.291	90.03
348.674	96.35
349.057	109.91
349.44	123.02
349.823	138.61
350.206	180.87
350.588	188.33
350.971	191.49
351.354	214.54
351.737	227.2
352.119	228.78
352.502	260.19
352.884	232.4
353.267	276.46
353.65	278.04
354.032	288.66
354.414	287.76
354.797	292.51
355.179	295.22
355.562	316.91
355.944	311.71
356.326	323.69
356.709	315.78
357.091	335.22
357.473	330.7
357.855	330.7
358.238	310.13
358.62	337.48
359.002	312.84
359.384	329.79
359.766	350.36
360.148	329.79
360.53	308.78
360.912	332.05
361.294	319.17
361.676	315.56
362.057	329.57
362.439	322.34
362.821	317.14
363.203	305.84
363.584	338.15
363.966	306.52
364.348	316.01
364.729	323.47
365.111	311.04
365.493	298.61
365.874	309.68
366.256	304.48
366.637	284.82
367.019	308.1
367.4	305.61
367.781	311.04
368.163	332.28
368.544	306.52
368.925	317.36
369.306	294.31
369.688	293.41
370.069	292.73
370.45	284.82
370.831	285.05
371.212	308.33
371.593	309.68
371.974	299.06
372.355	309.68
372.736	297.03
373.117	298.83
373.498	314.43
373.879	294.77
374.26	310.13
374.641	301.55
375.021	303.35
375.402	320.08
375.783	318.72
376.163	303.13
376.544	336.8
376.925	315.78
377.305	320.3
377.686	314.43
378.066	330.25
378.447	320.53
378.827	326.63
379.208	329.12
379.588	308.33
379.968	322.56
380.349	342
380.729	336.57
381.109	327.99
381.489	320.53
381.87	329.12
382.25	341.09
382.63	321.66
383.01	331.83
383.39	341.09
383.77	351.49
384.15	335.67
384.53	334.54
384.91	348.32
385.29	332.73
385.67	331.15
386.049	337.25
386.429	336.57
386.809	349.45
387.189	327.08
387.568	341.77
387.948	357.36
388.328	344.26
388.707	355.78
389.087	353.97
389.466	351.94
389.846	345.39
390.225	361.21
390.605	339.74
390.984	371.15
391.363	358.72
391.743	339.28
392.122	337.48
392.501	339.51
392.881	361.66
393.26	355.1
393.639	365.27
394.018	375.67
394.397	363.92
394.776	374.76
395.155	403.24
395.534	364.37
395.913	362.56
396.292	391.94
396.671	390.81
397.05	381.77
397.429	392.84
397.808	382.22
398.186	389.91
398.565	386.74
398.944	385.84
399.323	375.89
399.701	389.68
400.08	404.82
400.458	387.87
400.837	403.69
401.215	406.4
401.594	403.46
401.972	399.85
402.351	403.01
402.729	399.62
403.107	405.27
403.486	422.9
403.864	398.49
404.242	430.13
404.62	428.77
404.999	416.34
405.377	441.66
405.755	436.01
406.133	440.98
406.511	440.53
406.889	461.54
407.267	447.3
407.645	468.55
408.023	457.47
408.401	466.74
408.779	466.97
409.156	462.67
409.534	461.09
409.912	523.46
410.29	489.11
410.667	491.82
411.045	498.6
411.422	496.57
411.8	513.29
412.178	518.49
412.555	515.1
412.933	540.86
413.31	515.78
413.687	559.62
414.065	549
414.442	547.41
414.819	549.67
415.197	583.57
415.574	574.31
415.951	566.62
416.328	587.41
416.705	573.85
417.082	594.42
417.46	600.75
417.837	610.69
418.214	607.3
418.591	625.61
418.967	629.9
419.344	635.32
419.721	638.26
420.098	638.26
420.475	658.37
420.852	657.47
421.228	671.48
421.605	655.66
421.982	695.66
422.358	698.15
422.735	722.55
423.111	725.72
423.488	737.24
423.864	726.85
424.241	748.09
424.617	729.56
424.994	763.68
425.37	775.21
425.746	770.23
426.123	778.82
426.499	785.15
426.875	798.48
427.251	812.72
427.627	841.42
428.003	849.55
428.379	830.8
428.756	856.79
429.132	875.54
429.507	913.51
429.883	890.68
430.259	899.5
430.635	916.44
431.011	883.45
431.387	922.55
431.763	946.5
432.138	937.01
432.514	940.62
432.89	969.32
433.265	983.56
433.641	1000.06
434.016	1032.6
434.392	1045.48
434.767	1059.72
435.143	1045.48
435.518	1034.86
435.894	1075.31
436.269	1087.29
436.644	1099.49
437.02	1122.99
437.395	1136.33
437.77	1157.79
438.145	1163.22
438.52	1177.68
438.895	1168.87
439.271	1169.55
439.646	1207.51
440.021	1217.68
440.395	1230.33
440.77	1229.2
441.145	1241.18
441.52	1269.43
441.895	1242.99
442.27	1278.02
442.645	1279.37
443.019	1285.25
443.394	1289.09
443.769	1333.83
444.143	1327.51
444.518	1342.87
444.892	1337.22
445.267	1341.52
445.641	1324.34
446.016	1355.76
446.39	1359.82
446.764	1381.29
447.139	1390.78
447.513	1379.26
447.887	1385.13
448.262	1414.96
448.636	1410.22
449.01	1397.79
449.384	1429.88
449.758	1446.83
450.132	1468.07
450.506	1442.76
450.88	1450.22
451.254	1462.65
451.628	1487.96
452.002	1503.77
452.376	1535.41
452.75	1498.12
453.123	1506.94
453.497	1556.88
453.871	1544.22
454.244	1568.63
454.618	1568.41
454.992	1580.38
455.365	1591
455.739	1612.92
456.112	1639.36
456.486	1619.03
456.859	1665.58
457.232	1663.09
457.606	1662.19
457.979	1669.87
458.352	1719.36
458.725	1747.84
459.099	1758.23
459.472	1750.32
459.845	1764.33
460.218	1788.96
460.591	1793.26
460.964	1821.51
461.337	1866.02
461.71	1850.43
462.083	1895.4
462.456	1877.55
462.829	1903.31
463.201	1882.75
463.574	1910.09
463.947	1922.29
464.32	1965.68
464.692	1953.71
465.065	1967.94
465.438	2005.91
465.81	2023.08
466.183	2025.34
466.555	2100.37
466.928	2061.5
467.3	2103.53
467.672	2105.79
468.045	2134.27
468.417	2151.67
468.789	2175.62
469.161	2170.88
469.534	2225.56
469.906	2262.17
470.278	2251.78
470.65	2249.97
471.022	2323.87
471.394	2334.26
471.766	2355.96
472.138	2409.74
472.51	2417.2
472.882	2412.22
473.253	2446.8
473.625	2501.49
473.997	2516.63
474.369	2541.26
474.74	2539.9
475.112	2624.87
475.484	2661.94
475.855	2682.73
476.227	2692.22
476.598	2743.52
476.97	2732.67
477.341	2793.46
477.713	2840.24
478.084	2827.58
478.455	2899.67
478.827	2916.39
479.198	3003.85
479.569	2983.06
479.94	3005.2
480.311	3048.37
480.682	3071.64
481.053	3194.58
481.424	3202.94
481.795	3219.89
482.166	3277.06
482.537	3279.32
482.908	3360.22
483.279	3330.17
483.65	3382.37
484.021	3444.29
484.391	3441.58
484.762	3466.21
485.133	3505.08
485.503	3581.23
485.874	3634.57
486.244	3634.11
486.615	3724.96
486.985	3717.5
487.356	3793.66
487.726	3795.69
488.097	3858.51
488.467	3840.89
488.837	3938.29
489.207	3983.48
489.578	3965.4
489.948	4031.84
490.318	4090.82
490.688	4006.99
491.058	4096.7
491.428	4150.03
491.798	4190.48
492.168	4255.11
492.538	4268.45
492.908	4314.55
493.278	4329.01
493.648	4313.87
494.017	4369.24
494.387	4460.53
494.757	4424.6
495.126	4499.85
495.496	4516.8
495.866	4489.91
496.235	4516.35
496.605	4583.02
496.974	4573.07
497.344	4625.05
497.713	4652.17
498.082	4678.15
498.452	4676.12
498.821	4754.54
499.19	4676.57
499.559	4711.15
499.928	4745.5
500.298	4803.12
500.667	4793.86
501.036	4759.73
501.405	4896.23
501.774	4874.08
502.143	4866.62
502.512	4839.51
502.88	4951.14
503.249	4916.79
503.618	4972.61
503.987	4957.24
504.356	4956.34
504.724	5001.99
505.093	5039.27
505.462	4995.21
505.83	5050.57
506.199	5031.36
506.567	5095.32
506.936	5124.02
507.304	5124.47
507.672	5082.89
508.041	5133.74
508.409	5194.75
508.777	5221.42
509.145	5228.87
509.514	5284.24
509.882	5263.68
510.25	5180.06
510.618	5252.83
510.986	5274.07
511.354	5325.82
511.722	5298.02
512.09	5373.95
512.458	5347.74
512.826	5421.19
513.193	5363.56
513.561	5418.47
513.929	5465.7
514.297	5455.76
514.664	5471.13
515.032	5472.94
515.4	5546.83
515.767	5509.09
516.135	5486.04
516.502	5499.6
516.869	5524.01
517.237	5543.44
517.604	5518.81
517.972	5593.16
518.339	5564.01
518.706	5617.56
519.073	5605.59
519.44	5624.8
519.808	5675.19
520.175	5660.73
520.542	5656.89
520.909	5665.92
521.276	5734.4
521.643	5741.85
522.009	5743.66
522.376	5750.67
522.743	5757.22
523.11	5832.02
523.477	5829.54
523.843	5890.78
524.21	5921.96
524.577	5934.39
524.943	5959.02
525.31	5921.51
525.676	5947.5
526.043	6016.88
526.409	5963.77
526.776	6063.2
527.142	6055.52
527.508	6077.67
527.874	6138.68
528.241	6113.6
528.607	6149.75
528.973	6138.23
529.339	6195.85
529.705	6279.02
530.071	6209.86
530.437	6273.59
530.803	6280.82
531.169	6272.91
531.535	6303.2
531.901	6288.28
532.267	6345.91
532.632	6339.58
532.998	6332.8
533.364	6387.04
533.73	6434.04
534.095	6426.81
534.461	6457.32
534.826	6428.16
535.192	6476.3
535.557	6559.23
535.923	6481.04
536.288	6507.94
536.653	6498.44
537.019	6509.07
537.384	6502.74
537.749	6585.9
538.114	6554.04
538.479	6566.01
538.845	6580.02
539.21	6579.35
539.575	6613.24
539.94	6639.01
540.305	6675.62
540.67	6646.69
541.034	6664.77
541.399	6667.71
541.764	6676.75
542.129	6727.82
542.494	6675.16
542.858	6692.56
543.223	6723.07
543.587	6706.35
543.952	6768.49
544.316	6815.05
544.681	6718.55
545.045	6747.7
545.41	6780.02
545.774	6829.74
546.138	6756.52
546.503	6739.12
546.867	6796.97
547.231	6837.65
547.595	6897.08
547.959	6897.98
548.324	6865.67
548.688	6955.61
549.052	6946.57
549.416	6939.56
549.779	6952.67
550.143	6885.33
550.507	6978.88
550.871	6923.52
551.235	6944.99
551.599	6996.28
551.962	6953.8
552.326	7005.1
552.689	7022.5
553.053	6975.95
553.417	6985.66
553.78	7064.53
554.143	7027.7
554.507	7024.98
554.87	7125.32
555.234	7183.17
555.597	7052.1
555.96	7113.57
556.323	7074.48
556.686	7103.17
557.05	7181.36
557.413	7222.95
557.776	7175.04
558.139	7233.34
558.502	7215.49
558.865	7257.75
559.228	7355.15
559.59	7306.11
559.953	7303.62
560.316	7389.04
560.679	7335.71
561.041	7405.31
561.404	7446.44
561.767	7475.82
562.129	7410.51
562.492	7448.25
562.854	7460.23
563.217	7431.08
563.579	7491.19
563.941	7501.58
564.304	7525.76
564.666	7607.34
565.028	7633.56
565.39	7589.94
565.753	7685.53
566.115	7700.45
566.477	7718.75
566.839	7678.75
567.201	7815.92
567.563	7777.06
567.925	7807.34
568.287	7796.72
568.648	7862.93
569.01	7876.71
569.372	7897.05
569.734	7983.38
570.095	7984.51
570.457	7967.56
570.819	8002.13
571.18	8050.95
571.542	8023.15
571.903	8098.85
572.265	8071.74
572.626	8141.57
572.987	8143.83
573.349	8162.36
573.71	8208
574.071	8284.39
574.432	8317.83
574.794	8354.89
575.155	8314.89
575.516	8358.06
575.877	8437.38
576.238	8468.11
576.599	8466.08
576.96	8553.08
577.32	8532.52
577.681	8596.02
578.042	8608.67
578.403	8593.53
578.763	8681.44
579.124	8692.51
579.485	8747.65
579.845	8807.31
580.206	8795.11
580.566	8867.87
580.927	8922.34
581.287	8908.33
581.648	9029.68
582.008	9041.43
582.368	9038.27
582.728	9111.03
583.089	9134.76
583.449	9208.66
583.809	9323.68
584.169	9362.78
584.529	9345.6
584.889	9490.23
585.249	9544.69
585.609	9492.72
585.969	9624.46
586.329	9667.4
586.688	9779.49
587.048	9782.43
587.408	9839.15
587.768	9894.51
588.127	9962.08
588.487	9991.46
588.846	10111.46
589.206	10100.16
589.565	10144.22
589.925	10325.69
590.284	10321.62
590.643	10416.76
591.003	10505.57
591.362	10584.89
591.721	10595.06
592.08	10671.44
592.44	10809.07
592.799	10910.98
593.158	10892.91
593.517	10957.54
593.876	11052.68
594.235	11014.48
594.593	11119.79
594.952	11164.99
595.311	11164.76
595.67	11213.8
596.029	11435.26
596.387	11522.72
596.746	11502.83
597.104	11508.93
597.463	11591.42
597.822	11694.47
598.18	11644.3
598.538	11778.08
598.897	11820.11
599.255	11828.47
599.613	12083.83
599.972	11937.62
600.33	12131.07
600.688	12115.25
601.046	12118.41
601.404	12236.15
601.762	12195.92
602.12	12320.89
602.478	12444.28
602.836	12457.61
603.194	12462.13
603.552	12464.62
603.91	12483.15
604.268	12568.12
604.625	12575.12
604.983	12669.81
605.341	12635.01
605.698	12752.97
606.056	12767.66
606.413	12795.45
606.771	12883.14
607.128	12927.2
607.485	12860.31
607.843	12920.2
608.2	13020.31
608.557	13074.54
608.914	13051.27
609.272	13154.99
609.629	13228.66
609.986	13303.46
610.343	13196.12
610.7	13338.72
611.057	13244.48
611.414	13366.74
611.771	13401.77
612.127	13430.69
612.484	13493.52
612.841	13557.02
613.198	13473.4
613.554	13540.97
613.911	13665.26
614.267	13536.68
614.624	13733.28
614.98	13677.24
615.337	13725.37
615.693	13763.11
616.05	13672.27
616.406	13790.68
616.762	13711.59
617.118	13729.67
617.475	13828.65
617.831	13794.3
618.187	13900.96
618.543	13833.85
618.899	13999.26
619.255	14030.45
619.611	13900.74
619.967	14002.2
620.323	14042.2
620.678	14022.77
621.034	13996.55
621.39	14045.14
621.746	14013.28
622.101	14148.64
622.457	14033.61
622.812	14194.97
623.168	14102.31
623.523	14104.8
623.879	14128.3
624.234	14089.66
624.589	14191.12
624.945	14197.9
625.3	14168.53
625.655	14196.55
626.01	14251.24
626.365	14226.15
626.72	14335.53
627.075	14216.21
627.43	14188.41
627.785	14274.51
628.14	14220.95
628.495	14291.01
628.85	14228.41
629.205	14198.13
629.559	14332.14
629.914	14190.9
630.269	14288.97
630.623	14267.05
630.978	14124.01
631.332	14224.34
631.687	14251.01
632.041	14182.99
632.396	14215.53
632.75	14164.46
633.104	14131.24
633.459	14135.98
633.813	14100.73
634.167	14044.01
634.521	14159.71
634.875	14160.16
635.229	14083.78
635.583	14018.93
635.937	14053.5
636.291	14023.44
636.645	13997.23
636.999	14018.7
637.352	14008.08
637.706	13990
638.06	14020.28
638.413	13976.89
638.767	14016.21
639.121	14044.24
639.474	13895.76
639.828	13947.29
640.181	13906.16
640.534	13921.07
640.888	13835.65
641.241	13843.11
641.594	13848.53
641.947	13868.42
642.301	13839.72
642.654	13908.42
643.007	13818.7
643.36	13765.15
643.713	13816.44
644.066	13825.26
644.419	13839.95
644.771	13684.02
645.124	13631.59
645.477	13589.11
645.83	13517.02
646.182	13378.04
646.535	13407.42
646.888	13401.99
647.24	13270.7
647.593	13453.74
647.945	13393.18
648.298	13363.12
648.65	13376.23
649.002	13356.12
649.355	13434.31
649.707	13388.66
650.059	13451.48
650.411	13685.15
650.763	13622.55
651.115	13761.3
651.467	13695.09
651.819	13742.1
652.171	13735.32
652.523	13675.88
652.875	13676.11
653.227	13625.26
653.578	13710.01
653.93	13755.88
654.282	13677.69
654.633	13648.09
654.985	13667.97
655.337	13718.59
655.688	13722.66
656.039	13751.59
656.391	13589.78
656.742	13713.4
657.094	13719.95
657.445	13808.54
657.796	13713.85
658.147	13679.05
658.498	13725.37
658.849	13747.97
659.2	13755.43
659.551	13652.61
659.902	13760.17
660.253	13705.49
660.604	13803.34
660.955	13663
661.306	13853.28
661.656	13767.41
662.007	13831.36
662.358	13804.24
662.708	13835.65
663.059	13831.59
663.409	13745.03
663.76	13776.67
664.11	13814.64
664.461	13840.62
664.811	13764.47
665.161	13808.76
665.511	13807.41
665.862	13851.02
666.212	13896.44
666.562	13920.62
666.912	13833.62
667.262	13785.71
667.612	13799.27
667.962	13816.22
668.312	13842.88
668.662	13845.37
669.011	13898.7
669.361	13839.27
669.711	13763.34
670.06	13722.66
670.41	13740.51
670.76	13740.29
671.109	13848.08
671.459	13811.7
671.808	13727.18
672.157	13797.69
672.507	13656.9
672.856	13670.91
673.205	13672.95
673.554	13728.09
673.904	13680.85
674.253	13712.27
674.602	13743.9
674.951	13521.76
675.3	13468.66
675.649	13629.1
675.998	13592.5
676.346	13626.17
676.695	13644.02
677.044	13571.93
677.393	13531.03
677.741	13648.09
678.09	13521.09
678.438	13504.14
678.787	13616.45
679.135	13521.54
679.484	13399.73
679.832	13546.4
680.181	13450.13
680.529	13450.13
680.877	13407.42
681.225	13405.38
681.573	13402.9
681.922	13378.49
682.27	13321.99
682.618	13291.71
682.966	13285.84
683.314	13295.33
683.661	13309.11
684.009	13178.5
684.357	13166.97
684.705	13136.46
685.053	13111.15
685.4	13108.21
685.748	13083.13
686.095	13023.02
686.443	12967.65
686.79	13017.82
687.138	13009.69
687.485	13016.01
687.832	12970.37
688.18	12930.82
688.527	12807.43
688.874	12817.6
689.221	12842.23
689.568	12785.51
689.915	12783.48
690.262	12769.24
690.609	12649.02
690.956	12602.92
691.303	12607.66
691.65	12528.12
691.997	12497.61
692.344	12446.99
692.69	12369.7
693.037	12369.7
693.383	12324.05
693.73	12290.16
694.077	12263.49
694.423	12276.37
694.769	12207.22
695.116	12209.71
695.462	12093.55
695.808	12107.34
696.155	12188.24
696.501	12024.4
696.847	12031.18
697.193	11901.69
697.539	11937.4
697.885	11901.24
698.231	11790.28
698.577	11818.98
698.923	11747.12
699.269	11631.42
699.614	11680
699.96	11577.18
700.306	11601.14
700.651	11606.33
700.997	11491.99
701.342	11425.1
701.688	11446.34
702.033	11390.07
702.379	11383.74
702.724	11350.52
703.069	11301.93
703.415	11162.5
703.76	11219.22
704.105	11157.98
704.45	11105.78
704.795	11053.58
705.14	10941.72
705.485	11003.19
705.83	10938.55
706.175	10960.93
706.52	10875.05
706.865	10845.45
707.209	10847.71
707.554	10872.34
707.899	10777.43
708.243	10768.84
708.588	10771.78
708.932	10673.25
709.277	10759.8
709.621	10674.15
709.966	10656.08
710.31	10656.75
710.654	10484.55
710.998	10599.58
711.342	10422.41
711.687	10511.9
712.031	10478.91
712.375	10459.47
712.719	10509.64
713.063	10429.87
713.407	10435.97
713.75	10339.25
714.094	10362.3
714.438	10334.95
714.782	10341.51
715.125	10249.08
715.469	10315.29
715.812	10242.53
716.156	10165.69
716.499	10209.53
716.843	10265.35
717.186	10163.66
717.53	10189.42
717.873	10148.74
718.216	10147.61
718.559	10088.63
718.902	10095.64
719.246	10043.21
719.589	10004.57
719.932	10029.88
720.275	10034.4
720.617	10009.77
720.96	9984.23
721.303	9995.08
721.646	9922.08
721.989	9917.11
722.331	9986.49
722.674	9968.64
723.016	9993.49
723.359	9884.8
723.701	9915.76
724.044	9856.32
724.386	9860.62
724.729	9859.71
725.071	9827.17
725.413	9888.41
725.755	9840.28
726.097	9742.88
726.439	9769.32
726.782	9707.17
727.124	9822.88
727.465	9791.47
727.807	9774.29
728.149	9767.06
728.491	9760.05
728.833	9770
729.175	9779.04
729.516	9763.44
729.858	9742.43
730.199	9806.61
730.541	9723.9
730.882	9736.1
731.224	9733.39
731.565	9717.34
731.906	9707.4
732.248	9734.74
732.589	9673.05
732.93	9674.41
733.271	9633.05
733.612	9716.89
733.953	9696.1
734.294	9684.8
734.635	9743.78
734.976	9716.21
735.317	9715.08
735.658	9664.46
735.999	9687.97
736.339	9654.07
736.68	9767.96
737.021	9689.32
737.361	9709.89
737.702	9737.46
738.042	9718.7
738.383	9615.88
738.723	9761.86
739.063	9767.96
739.404	9673.5
739.744	9780.84
740.084	9688.64
740.424	9770.9
740.764	9698.59
741.104	9804.35
741.444	9787.62
741.784	9735.42
742.124	9835.76
742.464	9775.19
742.804	9769.09
743.143	9792.37
743.483	9902.65
743.823	9835.98
744.162	9882.08
744.502	9906.04
744.841	9937.9
745.181	10017.9
745.52	10005.92
745.86	10092.25
746.199	10112.59
746.538	10181.29
746.877	10186.03
747.216	10223.32
747.556	10261.51
747.895	10366.82
748.234	10297.89
748.573	10413.6
748.911	10457.89
749.25	10500.6
749.589	10568.85
749.928	10719.35
750.267	10745.56
750.605	10866.92
750.944	10868.73
751.283	10850.19
751.621	10957.54
751.96	11013.58
752.298	11107.14
752.636	11211.54
752.975	11302.16
753.313	11375.15
753.651	11523.85
753.989	11623.51
754.327	11667.12
754.666	11734.69
755.004	11852.88
755.342	12008.13
755.679	12117.51
756.017	12184.17
756.355	12378.97
756.693	12400.66
757.031	12663.71
757.368	12684.05
757.706	12846.98
758.044	12968.78
758.381	13163.58
758.719	13183.92
759.056	13305.95
759.394	13551.37
759.731	13586.62
760.068	13734.64
760.405	13855.54
760.743	13944.8
761.08	14133.72
761.417	14255.76
761.754	14532.81
762.091	14541.17
762.428	14690.32
762.765	14838.11
763.102	15060.25
763.438	15133.47
763.775	15160.82
764.112	15369.62
764.449	15450.3
764.785	15595.83
765.122	15709.05
765.458	15748.6
765.795	15928.03
766.131	16008.25
766.467	16114.24
766.804	16179.32
767.14	16292.76
767.476	16426.77
767.812	16550.84
768.148	16609.37
768.485	16645.75
768.821	16774.78
769.157	16841
769.492	16985.4
769.828	17047.77
770.164	17048.68
770.5	17159.86
770.836	17310.82
771.171	17306.52
771.507	17270.59
771.842	17341.78
772.178	17468.55
772.513	17527.08
772.849	17418.61
773.184	17600.75
773.519	17669.9
773.855	17691.15
774.19	17631.49
774.525	17643.46
774.86	17818.37
775.195	17720.52
775.53	17843.23
775.865	17881.2
776.2	17720.3
776.535	17715.33
776.87	17893.85
777.205	17843.46
777.539	17868.99
777.874	17954.19
778.209	17837.13
778.543	17847.3
778.878	17845.27
779.212	17807.53
779.547	17858.15
779.881	17956.67
780.215	17866.96
780.55	17952.61
780.884	17861.54
781.218	17829.9
781.552	17896.34
781.886	17871.71
782.22	17842.33
782.554	17776.57
782.888	17687.08
783.222	17656.8
783.556	17601.43
783.889	17655.89
784.223	17555.56
784.557	17588.32
784.89	17659.06
785.224	17563.92
785.557	17424.49
785.891	17488.21
786.224	17455.22
786.558	17513.75
786.891	17462.9
787.224	17278.27
787.557	17373.19
787.891	17289.8
788.224	17322.12
788.557	17371.15
788.89	17294.09
789.223	17316.24
789.556	17099.3
789.888	17172.29
790.221	17117.83
790.554	17098.39
790.887	17090.26
791.219	17006.42
791.552	16957.6
791.884	16886.19
792.217	16889.81
792.549	16818.17
792.882	16801
793.214	16664.73
793.546	16812.75
793.879	16673.09
794.211	16590.16
794.543	16647.33
794.875	16654.79
795.207	16696.37
795.539	16562.59
795.871	16527.11
796.203	16415.92
796.535	16349.71
796.867	16349.94
797.198	16206.66
797.53	16269.26
797.862	16108.81
798.193	16277.62
798.525	16082.83
798.856	16112.2
799.188	15960.34
799.519	15904.07
799.85	15879.89
800.182	15874.92
800.513	15875.6
800.844	15705.21
801.175	15879.67
801.506	15826.79
801.837	15668.15
802.168	15688.26
802.499	15594.03
802.83	15531.43
803.161	15534.59
803.491	15387.25
803.822	15495.95
804.153	15384.31
804.483	15218.44
804.814	15322.39
805.145	15319.46
805.475	15226.13
805.805	15215.96
806.136	15139.12
806.466	15212.57
806.796	15283.75
807.126	15068.84
807.457	15074.26
807.787	15007.37
808.117	15040.14
808.447	14980.03
808.777	14983.87
809.107	14955.85
809.436	14899.58
809.766	14852.35
810.096	14797.44
810.426	14771.45
810.755	14749.08
811.085	14655.52
811.414	14655.07
811.744	14640.15
812.073	14545.47
812.403	14614.84
812.732	14475.86
813.061	14543.88
813.39	14392.25
813.719	14416.2
814.049	14496.65
814.378	14308.41
814.707	14306.38
815.036	14382.08
815.365	14289.43
815.693	14190.9
816.022	14234.06
816.351	14138.02
816.68	14098.92
817.008	14092.14
817.337	13987.06
817.665	13966.27
817.994	14053.5
818.322	14063.67
818.651	13864.58
818.979	13914.07
819.307	13968.98
819.636	13922.66
819.964	13816.67
820.292	13887.18
820.62	13810.34
820.948	13844.47
821.276	13818.48
821.604	13799.95
821.932	13783.45
822.259	13822.09
822.587	13834.07
822.915	13799.04
823.243	13733.51
823.57	13744.13
823.898	13761.53
824.225	13777.58
824.553	13722.89
824.88	13843.34
825.207	13816.22
825.535	13733.51
825.862	13711.59
826.189	13746.62
826.516	13808.54
826.843	13853.28
827.17	13734.41
827.497	13877.91
827.824	13886.73
828.151	13890.79
828.478	13788.42
828.805	13894.18
829.131	13713.85
829.458	13736.45
829.785	13693.74
830.111	13741.64
830.438	13848.99
830.764	13796.56
831.09	13868.87
831.417	13661.65
831.743	13766.73
832.069	13707.07
832.395	13710.01
832.722	13733.51
833.048	13687.41
833.374	13685.83
833.7	13570.12
834.026	13664.81
834.351	13696.67
834.677	13637.24
835.003	13656.45
835.329	13600.86
835.654	13591.37
835.98	13521.54
836.306	13584.36
836.631	13471.59
836.956	13569.45
837.282	13560.41
837.607	13452.16
837.932	13520.18
838.258	13361.99
838.583	13473.18
838.908	13418.26
839.233	13375.33
839.558	13356.34
839.883	13356.57
840.208	13292.39
840.533	13289.68
840.858	13294.65
841.182	13284.03
841.507	13287.64
841.832	13186.63
842.156	13168.1
842.481	13238.38
842.805	13058.27
843.13	13064.6
843.454	13084.94
843.778	12990.25
844.103	12955.9
844.427	12957.71
844.751	12955.45
845.075	12972.63
845.399	12842.91
845.723	12802.01
846.047	12820.99
846.371	12634.78
846.695	12718.39
847.019	12590.94
847.343	12543.48
847.666	12486.54
847.99	12486.76
848.313	12417.84
848.637	12359.99
848.96	12298.29
849.284	12277.73
849.607	12238.18
849.931	12188.92
850.254	12098.07
850.577	12021.92
850.9	11963.16
851.223	11899.88
851.546	11872.31
851.869	11847.23
852.192	11793
852.515	11703.96
852.838	11751.19
853.161	11740.34
853.483	11674.81
853.806	11643.39
854.129	11588.71
854.451	11541.25
854.774	11557.52
855.096	11410.41
855.419	11501.93
855.741	11426.45
856.063	11392.1
856.385	11391.65
856.708	11310.52
857.03	11270.07
857.352	11224.65
857.674	11182.62
857.996	11146.46
858.318	11113.92
858.64	11087.02
858.961	11123.86
859.283	11031.21
859.605	11018.1
859.926	11005.45
860.248	10957.08
860.57	10930.87
860.891	11003.64
861.212	10926.35
861.534	10831.89
861.855	10819.46
862.176	10863.53
862.498	10833.47
862.819	10805
863.14	10758.22
863.461	10735.85
863.782	10715.74
864.103	10812.68
864.424	10612.24
864.745	10727.26
865.065	10597.77
865.386	10607.04
865.707	10666.47
866.027	10678
866.348	10617.88
866.668	10577.43
866.989	10599.35
867.309	10426.25
867.63	10480.94
867.95	10495.85
868.27	10434.84
868.59	10450.21
868.91	10369.98
869.23	10378.79
869.55	10401.62
869.87	10324.11
870.19	10338.12
870.51	10332.24
870.83	10272.36
871.15	10257.89
871.469	10214.51
871.789	10283.66
872.109	10241.62
872.428	10214.51
872.748	10252.47
873.067	10232.13
873.386	10237.33
873.706	10209.76
874.025	10122.08
874.344	10045.7
874.663	10115.98
874.982	10121.17
875.301	10158.24
875.62	10019.48
875.939	10026.94
876.258	10006.83
876.577	9966.83
876.896	10031.91
877.214	9961.18
877.533	9971.35
877.852	9946.04
878.17	9978.58
878.489	9950.11
878.807	9892.03
879.125	9907.85
879.444	9846.83
879.762	9847.74
880.08	9831.92
880.398	9808.19
880.716	9810.9
881.034	9847.51
881.352	9831.92
881.67	9736.33
881.988	9699.04
882.306	9696.78
882.624	9704.24
882.941	9650.9
883.259	9651.13
883.577	9602.54
883.894	9619.94
884.212	9569.78
884.529	9568.42
884.846	9549.89
885.164	9471.47
885.481	9431.48
885.798	9515.77
886.115	9387.41
886.432	9419.5
886.75	9342.44
887.067	9372.72
887.383	9316.45
887.7	9298.82
888.017	9339.05
888.334	9304.7
888.651	9227.64
888.967	9282.1
889.284	9199.16
889.6	9200.07
889.917	9088.21
890.233	9154.42
890.55	9081.2
890.866	9057.47
891.182	9038.72
891.498	9056.57
891.815	8942.9
892.131	8912.39
892.447	8903.58
892.763	8930.92
893.079	8942.9
893.395	8859.51
893.71	8768.67
894.026	8822.9
894.342	8790.59
894.657	8712.62
894.973	8712.17
895.289	8690.25
895.604	8641.21
895.92	8595.79
896.235	8573.42
896.55	8566.87
896.865	8559.63
897.181	8497.71
897.496	8442.57
897.811	8429.92
898.126	8440.77
898.441	8374.1
898.756	8336.59
899.071	8268.79
899.386	8309.02
899.7	8250.72
900.015	8215.91
900.33	8164.84
900.644	8108.12
900.959	8105.63
901.273	8158.51
901.588	8051.62
901.902	8056.14
902.216	8003.72
902.531	8005.98
902.845	7987.22
903.159	7923.04
903.473	7854.79
903.787	7851.86
904.101	7786.09
904.415	7818.86
904.729	7799.88
905.042	7774.57
905.356	7732.76
905.67	7685.76
905.984	7677.17
906.297	7737.51
906.611	7601.92
906.924	7537.74
907.237	7629.49
907.551	7573.67
907.864	7494.35
908.177	7507.01
908.491	7459.55
908.804	7431.3
909.117	7400.57
909.43	7333.45
909.743	7346.33
910.056	7302.49
910.368	7311.53
910.681	7230.63
910.994	7168.48
911.307	7194.02
911.619	7133.23
911.932	7144.3
912.244	7026.34
912.557	7080.12
912.869	7043.97
913.181	7010.52
913.494	7010.52
913.806	6947.25
914.118	6928.94
914.43	6830.19
914.742	6900.92
915.054	6826.8
915.366	6797.65
915.678	6793.58
915.99	6756.52
916.302	6747.7
916.613	6716.52
916.925	6662.28
917.236	6679.23
917.548	6581.38
917.859	6592
918.171	6549.29
918.482	6510.2
918.794	6491.21
919.105	6526.69
919.416	6466.81
919.727	6399.24
920.038	6410.99
920.349	6378
920.66	6379.8
920.971	6343.42
921.282	6323.31
921.593	6236.3
921.903	6250.99
922.214	6267.26
922.525	6224.1
922.835	6222.29
923.146	6106.14
923.456	6143.2
923.767	6159.02
924.077	6129.19
924.387	6052.58
924.697	6012.58
925.008	6008.06
925.318	5960.15
925.628	5940.49
925.938	5916.09
926.248	5862.76
926.558	5838.58
926.867	5850.55
927.177	5769.88
927.487	5783.66
927.796	5727.84
928.106	5753.83
928.416	5672.25
928.725	5741.4
929.034	5609.65
929.344	5618.69
929.653	5598.13
929.962	5599.94
930.271	5548.64
930.581	5586.6
930.89	5506.15
931.199	5560.16
931.508	5471.35
931.817	5493.5
932.125	5409.66
932.434	5439.04
932.743	5350.9
933.051	5313.84
933.36	5325.14
933.669	5330.34
933.977	5321.07
934.286	5303
934.594	5264.13
934.902	5271.81
935.21	5224.35
935.519	5228.2
935.827	5154.98
936.135	5147.07
936.443	5150.01
936.751	5076.56
937.059	5090.35
937.367	5024.59
937.674	5077.92
937.982	5027.3
938.29	5013.06
938.597	5015.77
938.905	4935.32
939.213	4947.75
939.52	4928.32
939.827	4882.89
940.135	4892.84
940.442	4844.7
940.749	4769.45
941.056	4859.84
941.363	4786.4
941.67	4792.95
941.977	4773.52
942.284	4713.63
942.591	4761.99
942.898	4726.06
943.205	4677.7
943.511	4609.68
943.818	4643.58
944.125	4606.07
944.431	4585.05
944.738	4602.45
945.044	4567.65
945.35	4525.62
945.657	4538.27
945.963	4527.42
946.269	4473.64
946.575	4484.71
946.881	4437.93
947.187	4444.94
947.493	4396.58
947.799	4405.17
948.105	4342.34
948.41	4309.8
948.716	4304.38
949.022	4310.25
949.327	4341.21
949.633	4262.35
949.938	4225.06
950.244	4298.95
950.549	4222.35
950.854	4190.26
951.16	4164.95
951.465	4138.51
951.77	4158.39
952.075	4097.15
952.38	4103.71
952.685	4107.32
952.99	4050.37
953.294	4066.42
953.599	4027.78
953.904	4017.61
954.209	4006.08
954.513	3973.77
954.818	3938.29
955.122	3939.64
955.426	3955.46
955.731	3908
956.035	3911.85
956.339	3883.6
956.643	3858.51
956.948	3847.67
957.252	3812.41
957.556	3838.4
957.86	3791.17
958.163	3787.1
958.467	3736.03
958.771	3739.87
959.075	3715.47
959.378	3695.58
959.682	3736.03
959.985	3712.98
960.289	3690.61
960.592	3661.01
960.896	3667.78
961.199	3618.52
961.502	3597.28
961.805	3608.35
962.108	3560.22
962.411	3539.65
962.714	3537.62
963.017	3535.13
963.32	3544.4
963.623	3525.64
963.926	3529.94
964.228	3450.39
964.531	3456.04
964.833	3429.37
965.136	3395.25
965.438	3405.64
965.741	3350.51
966.043	3366.78
966.345	3345.99
966.648	3365.42
966.95	3360.67
967.252	3332.2
967.554	3313.22
967.856	3270.51
968.158	3301.01
968.46	3287.68
968.761	3244.52
969.063	3239.77
969.365	3222.15
969.666	3240.68
969.968	3176.05
970.269	3181.47
970.571	3164.75
970.872	3143.73
971.174	3151.87
971.475	3152.09
971.776	3122.94
972.077	3099.66
972.378	3081.13
972.679	3056.05
972.98	3051.08
973.281	3031.19
973.582	3037.74
973.883	3050.85
974.183	2976.28
974.484	3016.05
974.785	3002.72
975.085	2992.55
975.386	2974.92
975.686	2963.62
975.986	2921.36
976.287	2910.74
976.587	2888.37
976.887	2904.64
977.187	2913.68
977.487	2896.73
977.787	2866
978.087	2820.58
978.387	2830.52
978.687	2852.44
978.987	2799.79
979.286	2805.66
979.586	2753.91
979.885	2799.56
980.185	2765.21
980.484	2718.21
980.784	2733.57
981.083	2710.75
981.382	2710.97
981.682	2697.64
981.981	2676.4
982.28	2673.46
982.579	2633.24
982.878	2633.91
983.177	2657.64
983.475	2623.07
983.774	2623.29
984.073	2595.72
984.372	2576.74
984.67	2573.8
984.969	2585.78
985.267	2563.41
985.566	2534.93
985.864	2537.19
986.162	2495.16
986.461	2540.13
986.759	2480.02
987.057	2470.75
987.355	2457.65
987.653	2469.62
987.951	2483.41
988.249	2426.69
988.547	2435.05
988.844	2431.43
989.142	2347.59
989.44	2373.58
989.737	2395.73
990.035	2342.62
990.332	2339.01
990.63	2354.15
990.927	2336.75
991.224	2325.9
991.521	2290.87
991.819	2333.13
992.116	2288.16
992.413	2312.79
992.71	2287.71
993.006	2259.91
993.303	2251.78
993.6	2272.79
993.897	2232.79
994.193	2275.96
994.49	2196.86
994.787	2216.07
995.083	2167.26
995.379	2165.23
995.676	2189.18
995.972	2172.91
996.268	2162.51
996.565	2157.99
996.861	2140.14
997.157	2083.42
997.453	2088.39
997.749	2092.01
998.044	2091.56
998.34	2065.79
998.636	2064.66
998.932	2031.22
999.227	2046.13
999.523	2023.53
999.818	2005.68
1000.114	2014.72
1000.409	1988.51
1000.704	1989.64
1001	1983.54
1001.295	1962.29
1001.59	1965.68
1001.885	1927.04
1002.18	1944.89
1002.475	1935.4
1002.77	1929.75
1003.065	1896.76
1003.359	1865.8
1003.654	1903.09
1003.949	1875.06
1004.243	1852.69
1004.538	1855.63
1004.832	1862.86
1005.127	1839.13
1005.421	1836.87
1005.715	1820.15
1006.009	1824.44
1006.304	1786.7
1006.598	1809.3
1006.892	1766.37
1007.186	1750.55
1007.48	1758
1007.773	1761.17
1008.067	1741.73
1008.361	1722.3
1008.655	1712.13
1008.948	1721.85
1009.242	1694.73
1009.535	1667.84
1009.829	1670.78
1010.122	1667.16
1010.415	1681.17
1010.708	1673.49
1011.001	1635.52
1011.295	1628.29
1011.588	1614.73
1011.881	1624.9
1012.173	1619.48
1012.466	1579.7
1012.759	1582.19
1013.052	1573.6
1013.344	1575.64
1013.637	1536.09
1013.93	1561.63
1014.222	1575.18
1014.514	1534.96
1014.807	1502.64
1015.099	1514.62
1015.391	1481.4
1015.683	1476.43
1015.976	1489.09
1016.268	1474.62
1016.56	1467.84
1016.851	1458.13
1017.143	1455.19
1017.435	1432.14
1017.727	1421.29
1018.018	1409.09
1018.31	1434.62
1018.602	1387.62
1018.893	1394.4
1019.185	1411.57
1019.476	1387.17
1019.767	1344.91
1020.058	1362.53
1020.35	1344.68
1020.641	1353.5
1020.932	1350.56
1021.223	1327.51
1021.514	1323.21
1021.804	1301.75
1022.095	1287.96
1022.386	1308.07
1022.677	1285.7
1022.967	1262.2
1023.258	1260.62
1023.548	1261.29
1023.839	1264.01
1024.129	1262.88
1024.419	1232.37
1024.709	1231.24
1025	1229.88
1025.29	1216.78
1025.58	1204.8
1025.87	1197.57
1026.16	1188.3
1026.449	1173.84
1026.739	1219.71
1027.029	1170.45
1027.319	1163.44
1027.608	1171.81
1027.898	1135.65
1028.187	1151.92
1028.477	1121.41
1028.766	1116.89
1029.055	1100.62
1029.344	1108.08
1029.634	1099.94
1029.923	1094.97
1030.212	1067.4
1030.501	1097.23
1030.79	1082.32
1031.078	1054.52
1031.367	1076.44
1031.656	1063.56
1031.945	1042.77
1032.233	1023.79
1032.522	1040.74
1032.81	1038.25
1033.099	1022.2
1033.387	1019.27
1033.675	999.61
1033.963	993.73
1034.251	993.73
1034.54	972.71
1034.828	1002.54
1035.116	989.44
1035.403	1011.13
1035.691	981.75
1035.979	951.47
1036.267	923.45
1036.554	976.56
1036.842	936.78
1037.129	927.29
1037.417	928.87
1037.704	913.28
1037.992	902.66
1038.279	914.64
1038.566	919.38
1038.853	919.38
1039.14	919.38
