Data from hue_150_FLMS001491_00054.txt Node
Date: Tue Feb 07 16:54:13 GMT 2017
User: dcchb
Spectrometer: FLMS00149
Trigger mode: 0
Integration Time (sec): 2.000000E-2
Scans to average: 10
Electric dark correction enabled: true
Nonlinearity correction enabled: false
Boxcar width: 0
XAxis mode: Wavelengths
Number of Pixels in Spectrum: 2048
>>>>>Begin Spectral Data<<<<<
341.393	10.9
341.776	10.9
342.16	10.9
342.543	-45.82
342.927	-53.28
343.31	-69.77
343.693	-75.87
344.077	-72.48
344.46	-38.81
344.843	-42.2
345.226	-35.2
345.61	-57.34
345.993	-15.99
346.376	1.86
346.759	13.62
347.142	10.9
347.525	32.6
347.908	56.1
348.291	88.42
348.674	96.1
349.057	108.08
349.44	139.94
349.823	148.53
350.206	167.28
350.588	176.78
350.971	211.8
351.354	224.91
351.737	222.42
352.119	245.7
352.502	247.51
352.884	287.73
353.267	275.08
353.65	308.07
354.032	316.43
354.414	304.68
354.797	311.46
355.179	313.27
355.562	320.73
355.944	337.22
356.326	334.51
356.709	327.96
357.091	334.74
357.473	325.92
357.855	341.29
358.238	339.48
358.62	372.02
359.002	335.64
359.384	358.92
359.766	341.06
360.148	351.23
360.53	325.47
360.912	323.66
361.294	335.64
361.676	350.33
362.057	332.7
362.439	327.96
362.821	332.48
363.203	346.49
363.584	321.86
363.966	308.97
364.348	304.68
364.729	301.97
365.111	287.96
365.493	316.21
365.874	304.68
366.256	325.25
366.637	322.53
367.019	296.55
367.4	316.21
367.781	324.12
368.163	330.67
368.544	298.13
368.925	306.04
369.306	306.26
369.688	321.18
370.069	311.01
370.45	307.39
370.831	315.98
371.212	320.73
371.593	312.59
371.974	313.04
372.355	305.59
372.736	319.37
373.117	311.91
373.498	319.37
373.879	307.62
374.26	306.04
374.641	323.89
375.021	315.53
375.402	302.42
375.783	342.65
376.163	317.56
376.544	319.37
376.925	334.51
377.305	344.45
377.686	336.77
378.066	334.51
378.447	319.6
378.827	337.45
379.208	323.44
379.588	340.61
379.968	345.13
380.349	325.7
380.729	333.83
381.109	321.4
381.489	327.05
381.87	347.39
382.25	335.87
382.63	334.06
383.01	329.09
383.39	322.99
383.77	361.18
384.15	334.74
384.53	335.19
384.91	346.94
385.29	356.66
385.67	366.37
386.049	344.68
386.429	359.82
386.809	362.08
387.189	355.08
387.568	360.95
387.948	362.76
388.328	365.24
388.707	350.33
389.087	354.85
389.466	360.05
389.846	347.17
390.225	370.67
390.605	335.41
390.984	367.73
391.363	373.61
391.743	371.35
392.122	367.96
392.501	373.61
392.881	370.22
393.26	393.04
393.639	365.92
394.018	361.18
394.397	382.87
394.776	376.54
395.155	348.75
395.534	381.97
395.913	379.48
396.292	378.13
396.671	392.14
397.05	409.76
397.429	383.1
397.808	378.58
398.186	395.07
398.565	364.79
398.944	392.14
399.323	396.66
399.701	365.02
400.08	383.1
400.458	385.36
400.837	382.42
401.215	404.79
401.594	396.2
401.972	407.73
402.351	389.2
402.729	403.44
403.107	404.79
403.486	392.14
403.864	414.51
404.242	422.42
404.62	422.64
404.999	416.99
405.377	397.79
405.755	426.71
406.133	414.51
406.511	436.88
406.889	423.77
407.267	426.26
407.645	443.66
408.023	441.4
408.401	421.74
408.779	450.21
409.156	463.1
409.534	428.07
409.912	437.56
410.29	445.69
410.667	443.21
411.045	452.47
411.422	434.17
411.8	432.81
412.178	463.1
412.555	464.23
412.933	475.3
413.31	481.17
413.687	478.01
414.065	479.59
414.442	486.6
414.819	484.79
415.197	500.16
415.574	490.44
415.951	498.12
416.328	493.6
416.705	500.83
417.082	483.43
417.46	491.34
417.837	501.74
418.214	499.03
418.591	509.2
418.967	511.91
419.344	504.45
419.721	508.74
420.098	519.36
420.475	530.44
420.852	539.93
421.228	527.5
421.605	513.94
421.982	542.19
422.358	532.25
422.735	559.59
423.111	543.77
423.488	557.1
423.864	534.51
424.241	567.95
424.617	565.24
424.994	581.74
425.37	562.08
425.746	566.37
426.123	577.22
426.499	588.74
426.875	590.1
427.251	577.89
427.627	594.39
428.003	601.17
428.379	602.3
428.756	600.94
429.132	588.97
429.507	602.53
429.883	614.05
430.259	625.58
430.635	626.71
431.011	622.41
431.387	641.62
431.763	647.72
432.138	644.33
432.514	642.98
432.89	656.31
433.265	660.15
433.641	677.1
434.016	688.17
434.392	685.69
434.767	704.67
435.143	666.93
435.518	687.72
435.894	704.44
436.269	700.38
436.644	709.19
437.02	722.07
437.395	720.04
437.77	736.53
438.145	725.01
438.52	725.01
438.895	755.06
439.271	744.67
439.646	767.72
440.021	764.56
440.395	763.65
440.77	775.63
441.145	778.79
441.52	790.54
441.895	779.92
442.27	793.03
442.645	803.43
443.019	819.47
443.394	788.28
443.769	827.83
444.143	813.82
444.518	810.43
444.892	821.05
445.267	823.09
445.641	829.64
446.016	811.11
446.39	831.45
446.764	855.63
447.139	865.57
447.513	860.37
447.887	860.37
448.262	899.02
448.636	877.77
449.01	888.39
449.384	895.63
449.758	903.76
450.132	890.65
450.506	901.5
450.88	911.9
451.254	908.28
451.628	903.76
452.002	944.66
452.376	943.99
452.75	983.08
453.123	945.57
453.497	967.94
453.871	980.6
454.244	986.7
454.618	992.8
454.992	1025.34
455.365	1042.06
455.739	1033.7
456.112	1037.54
456.486	1049.97
456.859	1074.15
457.232	1065.34
457.606	1077.32
457.979	1094.94
458.352	1098.78
458.725	1138.11
459.099	1116.41
459.472	1172.91
459.845	1153.47
460.218	1179.01
460.591	1157.99
460.964	1177.2
461.337	1212.68
461.71	1219.46
462.083	1251.77
462.456	1268.27
462.829	1273.24
463.201	1280.47
463.574	1278.89
463.947	1322.28
464.32	1329.29
464.692	1358.44
465.065	1379.23
465.438	1364.77
465.81	1397.76
466.183	1430.98
466.555	1424.65
466.928	1474.14
467.3	1470.07
467.672	1504.2
468.045	1510.98
468.417	1552.33
468.789	1569.28
469.161	1587.13
469.534	1633.69
469.906	1630.75
470.278	1668.26
470.65	1716.17
471.022	1736.06
471.394	1772.89
471.766	1833.91
472.138	1829.84
472.51	1863.06
472.882	1908.25
473.253	1957.52
473.625	2005.2
473.997	2016.27
474.369	2077.97
474.74	2096.5
475.112	2141.92
475.484	2193.67
475.855	2263.05
476.227	2298.53
476.598	2367.45
476.97	2414.46
477.341	2502.82
477.713	2529.71
478.084	2597.95
478.455	2673.21
478.827	2731.51
479.198	2816.25
479.569	2863.94
479.94	2948.91
480.311	3053.76
480.682	3083.59
481.053	3212.85
481.424	3304.15
481.795	3380.53
482.166	3483.81
482.537	3532.39
482.908	3646.06
483.279	3736
483.65	3786.62
484.021	3964.92
484.391	3996.56
484.762	4106.84
485.133	4197.01
485.503	4316.78
485.874	4507.06
486.244	4573.95
486.615	4663.44
486.985	4792.02
487.356	4910.21
487.726	4993.82
488.097	5191.78
488.467	5233.14
488.837	5398.78
489.207	5573.7
489.578	5674.48
489.948	5778.44
490.318	5878.09
490.688	6003.97
491.058	6162.38
491.428	6374.58
491.798	6471.07
492.168	6593.56
492.538	6700.22
492.908	6795.13
493.278	6941.12
493.648	7061.79
494.017	7154.9
494.387	7327.32
494.757	7411.84
495.126	7585.17
495.496	7640.08
495.866	7754.43
496.235	7865.39
496.605	8036.23
496.974	8203.23
497.344	8260.18
497.713	8350.8
498.082	8415.2
498.452	8574.07
498.821	8679.6
499.19	8759.37
499.559	8837.11
499.928	8989.42
500.298	9076.43
500.667	9208.18
501.036	9209.76
501.405	9320.94
501.774	9367.04
502.143	9510.31
502.512	9559.81
502.88	9686.36
503.249	9655.85
503.618	9827.59
503.987	9880.02
504.356	9953.24
504.724	10020.36
505.093	10103.75
505.462	10160.02
505.83	10242.05
506.199	10346.9
506.567	10417.64
506.936	10563.17
507.304	10617.86
507.672	10691.75
508.041	10704.63
508.409	10858.3
508.777	10866.66
509.145	10913.44
509.514	10985.08
509.882	11014.23
510.25	11089.93
510.618	11140.33
510.986	11159.31
511.354	11235.02
511.722	11370.38
512.09	11389.36
512.458	11410.38
512.826	11523.14
513.193	11568.57
513.561	11533.09
513.929	11639.75
514.297	11629.13
514.664	11710.94
515.032	11729.24
515.4	11854.43
515.767	11786.64
516.135	11903.02
516.502	11742.57
516.869	11991.61
517.237	12032.28
517.604	11918.16
517.972	12058.27
518.339	12050.59
518.706	12030.7
519.073	12077.03
519.44	12167.87
519.808	12311.6
520.175	12221.2
520.542	12314.76
520.909	12364.93
521.276	12275.67
521.643	12415.32
522.009	12390.24
522.376	12444.48
522.743	12436.11
523.11	12517.24
523.477	12595.66
523.843	12678.82
524.21	12676.11
524.577	12755.65
524.943	12761.53
525.31	12746.84
525.676	12781.42
526.043	12798.14
526.409	12884.92
526.776	12980.05
527.142	12899.38
527.508	12912.94
527.874	13002.88
528.241	12942.99
528.607	12916.78
528.973	12945.7
529.339	13001.97
529.705	12969.43
530.071	13089.88
530.437	12999.26
530.803	13069.54
531.169	13117.45
531.535	12994.74
531.901	13009.43
532.267	12939.6
532.632	12971.92
532.998	13004.46
533.364	12957.68
533.73	13003.56
534.095	13039.71
534.461	13013.27
534.826	12948.19
535.192	12991.81
535.557	13018.02
535.923	12919.26
536.288	12927.4
536.653	12861.41
537.019	12838.36
537.384	12805.82
537.749	12820.28
538.114	12804.69
538.479	12747.74
538.845	12809.89
539.21	12639.27
539.575	12662.32
539.94	12665.03
540.305	12703.68
540.67	12663
541.034	12612.61
541.399	12666.39
541.764	12537.58
542.129	12613.06
542.494	12522.21
542.858	12419.39
543.223	12500.52
543.587	12485.38
543.952	12370.35
544.316	12347.53
544.681	12394.53
545.045	12354.99
545.41	12390.69
545.774	12286.29
546.138	12248.1
546.503	12183.92
546.867	12164.71
547.231	12203.58
547.595	12096.01
547.959	12111.6
548.324	11979.63
548.688	12046.07
549.052	11987.99
549.416	11968.33
549.779	12004.94
550.143	11912.06
550.507	11897.6
550.871	11863.47
551.235	11824.38
551.599	11822.34
551.962	11796.13
552.326	11897.37
552.689	11813.08
553.053	11722.69
553.417	11679.98
553.78	11788
554.143	11697.15
554.507	11685.85
554.87	11672.52
555.234	11799.75
555.597	11576.93
555.96	11562.92
556.323	11689.47
556.686	11523.6
557.05	11619.41
557.413	11570.83
557.776	11548.68
558.139	11655.34
558.502	11524.95
558.865	11516.59
559.228	11579.87
559.59	11528.57
559.953	11572.18
560.316	11583.25
560.679	11610.82
561.041	11615.34
561.404	11517.95
561.767	11540.77
562.129	11588.68
562.492	11561.79
562.854	11566.98
563.217	11518.4
563.579	11584.84
563.941	11574.67
564.304	11659.41
564.666	11631.39
565.028	11640.88
565.39	11684.5
565.753	11600.88
566.115	11632.97
566.477	11611.28
566.839	11646.76
567.201	11700.54
567.563	11722.69
567.925	11704.61
568.287	11688.56
568.648	11809.01
569.01	11798.84
569.372	11708
569.734	11713.19
570.095	11836.58
570.457	11845.62
570.819	11846.98
571.18	11840.42
571.542	11798.62
571.903	11816.24
572.265	11838.84
572.626	11895.34
572.987	11860.31
573.349	11908.22
573.71	11899.18
574.071	11929.01
574.432	11933.75
574.794	12014.43
575.155	12000.87
575.516	11858.95
575.877	11940.99
576.238	11962.45
576.599	12074.32
576.96	11985.96
577.32	11992.06
577.681	12009.68
578.042	11956.13
578.403	12007.2
578.763	12008.78
579.124	11895.11
579.485	12002.9
579.845	11983.02
580.206	11956.13
580.566	11952.28
580.927	11922.23
581.287	11986.41
581.648	11906.41
582.008	12030.02
582.368	12032.06
582.728	12011.04
583.089	12052.62
583.449	11918.61
583.809	12021.21
584.169	11940.99
584.529	11948.44
584.889	12056.46
585.249	11908.22
585.609	11870.03
585.969	11917.94
586.329	11886.98
586.688	11915.22
587.048	11879.07
587.408	11881.1
587.768	11827.09
588.127	11883.13
588.487	11821.67
588.846	11913.64
589.206	11886.75
589.565	11807.43
589.925	11881.1
590.284	11822.12
590.643	11849.46
591.003	11853.76
591.362	11816.24
591.721	11809.69
592.08	11768.79
592.44	11779.18
592.799	11798.62
593.158	11826.86
593.517	11710.26
593.876	11758.17
594.235	11740.76
594.593	11807.66
594.952	11687.43
595.311	11723.14
595.67	11740.31
596.029	11813.98
596.387	11717.49
596.746	11770.37
597.104	11716.81
597.463	11706.64
597.822	11715
598.18	11753.42
598.538	11744.83
598.897	11789.8
599.255	11679.3
599.613	11820.76
599.972	11719.97
600.33	11750.26
600.688	11681.33
601.046	11656.47
601.404	11761.33
601.762	11764.94
602.12	11782.57
602.478	11793.42
602.836	11905.96
603.194	11644.95
603.552	11720.43
603.91	11756.58
604.268	11733.31
604.625	11679.52
604.983	11657.15
605.341	11695.57
605.698	11744.15
606.056	11678.85
606.413	11726.08
606.771	11717.04
607.128	11824.38
607.485	11702.8
607.843	11773.53
608.2	11749.8
608.557	11849.91
608.914	11758.62
609.272	11882
609.629	11832.06
609.986	11860.99
610.343	11874.55
610.7	11858.28
611.057	11865.73
611.414	11824.15
611.771	11873.87
612.127	11924.04
612.484	11899.18
612.841	11998.84
613.198	11795.23
613.554	11935.56
613.911	12026.41
614.267	11908.67
614.624	11909.35
614.98	11921.55
615.337	11986.86
615.693	11929.69
616.05	11944.15
616.406	11990.02
616.762	11950.93
617.118	11876.13
617.475	11983.24
617.831	11992.28
618.187	12050.59
618.543	12013.3
618.899	12141.43
619.255	12037.48
619.611	12004.49
619.967	12119.06
620.323	12120.87
620.678	12104.82
621.034	11995.67
621.39	12169.45
621.746	11959.52
622.101	12171.94
622.457	12096.01
622.812	12105.95
623.168	12132.17
623.523	12107.76
623.879	12136.23
624.234	12077.03
624.589	12126.74
624.945	12112.51
625.3	12100.98
625.655	12009.91
626.01	12083.35
626.365	12136.46
626.72	12044.94
627.075	12065.28
627.43	12015.79
627.785	12009.91
628.14	12064.6
628.495	12034.54
628.85	12035.45
629.205	12000.42
629.559	12088.1
629.914	11987.99
630.269	12008.55
630.623	12012.4
630.978	11999.29
631.332	12019.63
631.687	12002.9
632.041	11985.28
632.396	11971.72
632.75	11817.37
633.104	11969.91
633.459	11953.87
633.813	11904.15
634.167	11903.7
634.521	11900.08
634.875	11911.61
635.229	11842.01
635.583	11835.9
635.937	11802.01
636.291	11747.77
636.645	11817.37
636.999	11736.25
637.352	11782.57
637.706	11767.88
638.06	11766.98
638.413	11594.1
638.767	11692.4
639.121	11675.91
639.474	11657.15
639.828	11658.96
640.181	11612.41
640.534	11668.68
640.888	11644.04
641.241	11582.8
641.594	11593.88
641.947	11570.6
642.301	11531.05
642.654	11609.47
643.007	11548
643.36	11550.04
643.713	11490.15
644.066	11515.91
644.419	11532.41
644.771	11449.47
645.124	11332.64
645.477	11365.86
645.83	11221.91
646.182	11174.9
646.535	11194.79
646.888	11183.27
647.24	11166.99
647.593	11161.34
647.945	11124.51
648.298	11090.16
648.65	11049.26
649.002	11081.57
649.355	11165.19
649.707	11134
650.059	11225.75
650.411	11307.1
650.763	11323.6
651.115	11379.64
651.467	11438.4
651.819	11416.25
652.171	11377.38
652.523	11410.83
652.875	11365.41
653.227	11351.85
653.578	11437.27
653.93	11329.93
654.282	11358.18
654.633	11342.81
654.985	11349.59
655.337	11370.6
655.688	11400.43
656.039	11448.34
656.391	11280.66
656.742	11354.79
657.094	11306.43
657.445	11382.13
657.796	11371.06
658.147	11348.46
658.498	11399.3
658.849	11350.94
659.2	11419.19
659.551	11326.76
659.902	11379.19
660.253	11441.11
660.604	11471.62
660.955	11344.16
661.306	11479.75
661.656	11419.64
662.007	11401.34
662.358	11429.81
662.708	11436.37
663.059	11462.58
663.409	11375.35
663.76	11434.56
664.11	11482.69
664.461	11395.01
664.811	11385.07
665.161	11421
665.511	11404.95
665.862	11411.73
666.212	11466.42
666.562	11434.11
666.912	11365.86
667.262	11422.81
667.612	11380.32
667.962	11408.8
668.312	11438.63
668.662	11424.61
669.011	11380.77
669.361	11404.05
669.711	11375.35
670.06	11299.87
670.41	11342.13
670.76	11372.64
671.109	11421
671.459	11347.1
671.808	11349.14
672.157	11309.82
672.507	11287.22
672.856	11304.84
673.205	11334
673.554	11282.47
673.904	11284.05
674.253	11291.74
674.602	11210.38
674.951	11086.09
675.3	11045.64
675.649	11283.83
675.998	11187.11
676.346	11180.78
676.695	11315.92
677.044	11192.76
677.393	11224.17
677.741	11175.36
678.09	11202.47
678.438	11169.03
678.787	11244.51
679.135	11128.8
679.484	11069.14
679.832	11144.62
680.181	11107.34
680.529	11082.7
680.877	11050.84
681.225	11063.04
681.573	11063.27
681.922	10976.27
682.27	10988.47
682.618	10962.48
682.966	11007.9
683.314	11015.59
683.661	10924.29
684.009	10848.58
684.357	10867.12
684.705	10867.34
685.053	10838.64
685.4	10854.91
685.748	10731.3
686.095	10795.25
686.443	10684.52
686.79	10740.57
687.138	10740.11
687.485	10705.31
687.832	10677.97
688.18	10673.22
688.527	10493.57
688.874	10595.94
689.221	10495.6
689.568	10493.79
689.915	10480.68
690.262	10506.9
690.609	10469.39
690.956	10428.26
691.303	10447.47
691.65	10319.56
691.997	10355.72
692.344	10259.22
692.69	10261.93
693.037	10274.59
693.383	10185.55
693.73	10214.93
694.077	10127.7
694.423	10091.32
694.769	10148.94
695.116	10110.98
695.462	10067.36
695.808	9943.75
696.155	9990.53
696.501	9929.51
696.847	9941.94
697.193	9809.74
697.539	9879.57
697.885	9758.9
698.231	9715.06
698.577	9764.77
698.923	9676.41
699.269	9669.18
699.614	9649.29
699.96	9550.31
700.306	9628.5
700.651	9528.62
700.997	9489.52
701.342	9469.19
701.688	9475.06
702.033	9421.05
702.379	9358
702.724	9333.6
703.069	9347.16
703.415	9198.01
703.76	9275.52
704.105	9223.32
704.45	9211.57
704.795	9079.14
705.14	9084.34
705.485	9081.85
705.83	9036.88
706.175	9080.95
706.52	9023.32
706.865	9053.6
707.209	9007.5
707.554	8931.35
707.899	8925.02
708.243	8856.77
708.588	8865.59
708.932	8802.31
709.277	8790.56
709.621	8696.55
709.966	8642.54
710.31	8719.38
710.654	8684.35
710.998	8709.43
711.342	8683.44
711.687	8698.13
712.031	8569.32
712.375	8603.45
712.719	8645.03
713.063	8573.84
713.407	8509.89
713.75	8523
714.094	8506.73
714.438	8438.25
714.782	8530.68
715.125	8476.44
715.469	8515.76
715.812	8393.73
716.156	8355.32
716.499	8358.03
716.843	8347.63
717.186	8312.61
717.53	8380.63
717.873	8349.44
718.216	8323.45
718.559	8312.15
718.902	8257.24
719.246	8327.3
719.589	8258.82
719.932	8191.93
720.275	8271.25
720.617	8162.1
720.96	8176.11
721.303	8229.9
721.646	8272.16
721.989	8168.2
722.331	8179.73
722.674	8119.17
723.016	8203.91
723.359	8189.22
723.701	8141.31
724.044	8088.88
724.386	8111.93
724.729	8160.07
725.071	8186.51
725.413	8167.07
725.755	8139.96
726.097	8059.73
726.439	8093.85
726.782	8083.69
727.124	8146.28
727.465	8062.44
727.807	8078.94
728.149	8082.56
728.491	8059.05
728.833	8137.02
729.175	8078.71
729.516	8074.19
729.858	8018.38
730.199	8066.51
730.541	7989.9
730.882	7993.97
731.224	7996.23
731.565	7954.42
731.906	7950.13
732.248	8013.18
732.589	7956.46
732.93	7956.46
733.271	7994.2
733.612	7953.07
733.953	8024.25
734.294	8017.25
734.635	7971.15
734.976	8035.78
735.317	7994.65
735.658	7977.7
735.999	8034.42
736.339	7982.45
736.68	8035.33
737.021	8065.61
737.361	8005.04
737.702	8064.48
738.042	7963.46
738.383	7989
738.723	8087.3
739.063	7977.47
739.404	8054.99
739.744	8112.61
740.084	8052.5
740.424	8113.29
740.764	8037.36
741.104	8114.87
741.444	8106.51
741.784	8111.93
742.124	8136.79
742.464	8171.82
742.804	8163.91
743.143	8148.32
743.483	8229.44
743.823	8121.42
744.162	8198.03
744.502	8251.59
744.841	8289.1
745.181	8315.09
745.52	8340.63
745.86	8352.61
746.199	8388.31
746.538	8478.93
746.877	8480.29
747.216	8521.41
747.556	8544.01
747.895	8578.81
748.234	8574.97
748.573	8624.01
748.911	8707.17
749.25	8784.01
749.589	8784.23
749.928	8842.99
750.267	8946.71
750.605	8980.39
750.944	9096.09
751.283	9089.08
751.621	9189.42
751.96	9242.3
752.298	9353.93
752.636	9408.62
752.975	9508.51
753.313	9548.96
753.651	9677.54
753.989	9772.45
754.327	9908.72
754.666	9878.44
755.004	10035.5
755.342	10225.32
755.679	10280.24
756.017	10418.77
756.355	10591.42
756.693	10683.84
757.031	10787.8
757.368	10899.88
757.706	11021.24
758.044	11207.45
758.381	11378.74
758.719	11507.1
759.056	11710.26
759.394	11773.08
759.731	11944.15
760.068	12058.95
760.405	12229.79
760.743	12303.69
761.08	12586.84
761.417	12628.88
761.754	12807.4
762.091	12992.48
762.428	13056.89
762.765	13252.36
763.102	13470.89
763.438	13499.36
763.775	13700.49
764.112	13874.95
764.449	14131.89
764.785	14168.95
765.122	14223.64
765.458	14342.5
765.795	14573.01
766.131	14759.44
766.467	14836.5
766.804	14968.48
767.14	15080.79
767.476	15203.95
767.812	15289.37
768.148	15510.84
768.485	15441.01
768.821	15539.99
769.157	15768
769.492	15877.83
769.828	16018.62
770.164	15999.41
770.5	16110.14
770.836	16262.23
771.171	16270.59
771.507	16479.17
771.842	16438.27
772.178	16622.67
772.513	16689.56
772.849	16745.38
773.184	16849.33
773.519	16930.91
773.855	16998.48
774.19	16979.05
774.525	17056.78
774.86	17156.22
775.195	17200.51
775.53	17391.92
775.865	17247.29
776.2	17289.32
776.535	17151.24
776.87	17377
777.205	17368.19
777.539	17411.12
777.874	17412.93
778.209	17438.24
778.543	17532.7
778.878	17433.95
779.212	17533.83
779.547	17458.58
779.881	17593.49
780.215	17590.33
780.55	17634.62
780.884	17629.42
781.218	17630.33
781.552	17692.7
781.886	17640.95
782.22	17614.51
782.554	17466.26
782.888	17486.83
783.222	17498.58
783.556	17514.4
783.889	17540.16
784.223	17425.59
784.557	17426.72
784.89	17521.86
785.224	17497.68
785.557	17444.57
785.891	17324.8
786.224	17363.44
786.558	17413.16
786.891	17365.93
787.224	17240.28
787.557	17322.99
787.891	17256.78
788.224	17237.34
788.557	17328.64
788.89	17321.86
789.223	17289.77
789.556	17189.21
789.888	17191.47
790.221	17181.07
790.554	17013.17
790.887	17067.4
791.219	17136.78
791.552	17034.41
791.884	16980.4
792.217	16988.31
792.549	16969.33
792.882	16872.61
793.214	16913.51
793.546	16857.47
793.879	16737.47
794.211	16669
794.543	16752.84
794.875	16704.02
795.207	16660.64
795.539	16693.63
795.871	16638.94
796.203	16503.13
796.535	16513.07
796.867	16440.08
797.198	16399.85
797.53	16453.18
797.862	16351.04
798.193	16376.35
798.525	16278.95
798.856	16332.73
799.188	16146.3
799.519	16104.72
799.85	16026.75
800.182	16021.1
800.513	16091.16
800.844	15991.73
801.175	16041.67
801.506	16062.01
801.837	15928
802.168	15861.79
802.499	15848.45
802.83	15735.69
803.161	15753.31
803.491	15772.98
803.822	15771.62
804.153	15645.29
804.483	15556.03
804.814	15499.99
805.145	15478.97
805.475	15596.48
805.805	15364.4
806.136	15445.3
806.466	15414.34
806.796	15370.73
807.126	15308.58
807.457	15294.12
807.787	15287.34
808.117	15213.89
808.447	15158.75
808.777	15236.04
809.107	15043.73
809.436	15081.24
809.766	15110.39
810.096	15073.33
810.426	14966.89
810.755	15030.17
811.085	15041.24
811.414	14950.62
811.744	14837.18
812.073	14794.24
812.403	14797.86
812.732	14761.02
813.061	14788.82
813.39	14740.69
813.719	14653.23
814.049	14741.36
814.378	14634.02
814.707	14602.61
815.036	14587.02
815.365	14575.72
815.693	14389.96
816.022	14389.51
816.351	14453.69
816.68	14373.24
817.008	14365.33
817.337	14274.26
817.665	14194.49
817.994	14242.62
818.322	14231.09
818.651	14121.72
818.979	14119.91
819.307	14124.66
819.636	14214.37
819.964	14101.61
820.292	14163.3
820.62	14177.99
820.948	14058.67
821.276	14120.82
821.604	14045.34
821.932	14062.96
822.259	14027.48
822.587	14096.41
822.915	14077.65
823.243	14147.03
823.57	14143.41
823.898	14119.91
824.225	13949.75
824.553	13981.16
824.88	14059.57
825.207	14103.41
825.535	14017.54
825.862	13996.52
826.189	14068.61
826.516	14161.27
826.843	14166.92
827.17	14104.77
827.497	14099.35
827.824	14083.08
828.151	14060.25
828.478	14096.86
828.805	14080.82
829.131	14113.36
829.458	14089.86
829.785	14004.66
830.111	14112
830.438	14118.78
830.764	14152
831.09	14112.91
831.417	13976.41
831.743	14029.97
832.069	14001.72
832.395	14022.29
832.722	14061.38
833.048	13989.52
833.374	14031.33
833.7	13985.68
834.026	13963.98
834.351	13986.58
834.677	13876.3
835.003	14057.77
835.329	14035.17
835.654	13951.1
835.98	13873.59
836.306	13975.96
836.631	13880.14
836.956	13975.51
837.282	13882.63
837.607	13778.23
837.932	13759.24
838.258	13820.26
838.583	13740.26
838.908	13589.76
839.233	13736.19
839.558	13684.89
839.883	13638.79
840.208	13595.18
840.533	13587.5
840.858	13608.06
841.182	13607.16
841.507	13521.06
841.832	13488.06
842.156	13521.28
842.481	13533.03
842.805	13418.69
843.13	13397.9
843.454	13345.69
843.778	13363.32
844.103	13364.45
844.427	13289.42
844.751	13224.34
845.075	13161.07
845.399	13227.28
845.723	13066.38
846.047	13167.62
846.371	12994.07
846.695	12974.4
847.019	12859.15
847.343	12866.16
847.666	12684.24
847.99	12763.11
848.313	12797.23
848.637	12730.12
848.96	12710
849.284	12640.63
849.607	12521.54
849.931	12468.2
850.254	12409.67
850.577	12366.96
850.9	12390.01
851.223	12307.98
851.546	12271.15
851.869	12128.78
852.192	12201.32
852.515	12036.12
852.838	12098.5
853.161	11982.34
853.483	11982.57
853.806	11981.89
854.129	11931.72
854.451	11849.69
854.774	11772.85
855.096	11714.32
855.419	11671.84
855.741	11691.27
856.063	11585.51
856.385	11610.37
856.708	11532.18
857.03	11510.26
857.352	11530.6
857.674	11492.18
857.996	11449.7
858.318	11346.65
858.64	11436.59
858.961	11329.02
859.283	11334
859.605	11232.3
859.926	11257.61
860.248	11199.08
860.57	11290.83
860.891	11154.57
861.212	11139.65
861.534	11135.13
861.855	11047.22
862.176	11088.58
862.498	11043.61
862.819	11054
863.14	10948.92
863.461	11009.48
863.782	10990.05
864.103	10977.62
864.424	10896.27
864.745	10936.94
865.065	10942.59
865.386	10859.88
865.707	10819.21
866.027	10882.03
866.348	10861.24
866.668	10885.65
866.989	10815.59
867.309	10696.95
867.63	10773.33
867.95	10723.39
868.27	10663.5
868.59	10674.8
868.91	10693.79
869.23	10633
869.55	10569.04
869.87	10684.52
870.19	10552.55
870.51	10619.21
870.83	10668.93
871.15	10586.22
871.469	10531.08
871.789	10501.7
872.109	10488.14
872.428	10475.49
872.748	10533.79
873.067	10420.12
873.386	10438.2
873.706	10440.46
874.025	10378.54
874.344	10322.72
874.663	10312.78
874.982	10306.68
875.301	10294.48
875.62	10284.08
875.939	10273.91
876.258	10289.73
876.577	10191.88
876.896	10269.39
877.214	10187.36
877.533	10186.46
877.852	10151.88
878.17	10251.76
878.489	10174.7
878.807	10150.3
879.125	10102.84
879.444	10151.2
879.762	10059
880.08	10072.79
880.398	9981.49
880.716	10098.1
881.034	9974.48
881.352	9957.53
881.67	10016.29
881.988	10017.42
882.306	9962.96
882.624	9872.57
882.941	9890.64
883.259	9921.83
883.577	9827.14
883.894	9799.12
884.212	9868.95
884.529	9784.21
884.846	9761.61
885.164	9792.12
885.481	9743.98
885.798	9773.58
886.115	9689.52
886.432	9663.98
886.75	9646.36
887.067	9631.67
887.383	9603.19
887.7	9641.61
888.017	9558
888.334	9515.29
888.651	9464.67
888.967	9418.57
889.284	9485.91
889.6	9341.28
889.917	9348.74
890.233	9345.35
890.55	9340.15
890.866	9324.33
891.182	9315.07
891.498	9193.94
891.815	9248.63
892.131	9157.78
892.447	9077.33
892.763	9129.53
893.079	9075.52
893.395	9037.56
893.71	9044.56
894.026	8984.23
894.342	8968.18
894.657	8927.51
894.973	8963.44
895.289	8902.65
895.604	8939.26
895.92	8806.38
896.235	8755.53
896.55	8746.49
896.865	8754.85
897.181	8705.36
897.496	8739.49
897.811	8643.9
898.126	8714.4
898.441	8621.98
898.756	8640.96
899.071	8498.36
899.386	8492.04
899.7	8465.14
900.015	8500.62
900.33	8390.8
900.644	8417.01
900.959	8344.7
901.273	8354.41
901.588	8260.63
901.902	8222.21
902.216	8247.52
902.531	8204.13
902.845	8138.37
903.159	8109.9
903.473	8125.72
903.787	8083.01
904.101	8078.04
904.415	8038.04
904.729	7974.31
905.042	7974.08
905.356	7966.4
905.67	7901.54
905.984	7872.39
906.297	7879.4
906.611	7787.87
906.924	7818.61
907.237	7751.27
907.551	7767.31
907.864	7704.71
908.177	7687.76
908.491	7713.3
908.804	7593.53
909.117	7572.06
909.43	7564.6
909.743	7493.87
910.056	7470.37
910.368	7454.1
910.681	7417.94
910.994	7435.57
911.307	7357.6
911.619	7298.62
911.932	7310.6
912.244	7239.87
912.557	7236.48
912.869	7189.92
913.181	7164.84
913.494	7130.94
913.806	7131.17
914.118	7071.28
914.43	7029.7
914.742	7027.22
915.054	6998.06
915.366	6981.34
915.678	6947.22
915.99	6867.67
916.302	6860.44
916.613	6885.07
916.925	6851.85
917.236	6802.36
917.548	6709.03
917.859	6779.09
918.171	6669.03
918.482	6646.21
918.794	6624.74
919.105	6635.14
919.416	6578.19
919.727	6588.36
920.038	6535.93
920.349	6512.2
920.66	6462.26
920.971	6515.59
921.282	6458.19
921.593	6469.94
921.903	6358.76
922.214	6344.3
922.525	6330.29
922.835	6349.95
923.146	6288.48
923.456	6281.7
923.767	6255.71
924.077	6238.76
924.387	6162.38
924.697	6180.68
925.008	6179.33
925.318	6126.9
925.628	6096.39
925.938	6071.31
926.248	5976.62
926.558	6019.56
926.867	5997.86
927.177	5945.66
927.487	5936.17
927.796	5898.21
928.106	5914.7
928.416	5810.53
928.725	5875.61
929.034	5831.77
929.344	5829.96
929.653	5776.4
929.962	5776.4
930.271	5737.08
930.581	5691.43
930.89	5668.61
931.199	5675.39
931.508	5672.22
931.817	5610.53
932.125	5581.6
932.434	5612.79
932.743	5487.37
933.051	5518.78
933.36	5507.26
933.669	5468.61
933.977	5458.22
934.286	5437.88
934.594	5459.57
934.902	5397.2
935.21	5345.9
935.519	5295.28
935.827	5330.76
936.135	5308.39
936.443	5255.74
936.751	5278.34
937.059	5253.48
937.367	5199.92
937.674	5204.67
937.982	5173.48
938.29	5168.96
938.597	5135.51
938.905	5063.65
939.213	5062.3
939.52	5017.1
939.827	5042.18
940.135	5027.95
940.442	5030.21
940.749	4988.85
941.056	4983.2
941.363	4950.43
941.67	4900.72
941.977	4873.83
942.284	4850.78
942.591	4789.54
942.898	4821.62
943.205	4756.77
943.511	4789.99
943.818	4739.14
944.125	4708.86
944.431	4735.3
944.738	4688.75
945.044	4684.45
945.35	4649.43
945.657	4634.51
945.963	4582.99
946.269	4598.35
946.575	4596.32
946.881	4549.09
947.187	4572.59
947.493	4510.22
947.799	4484.01
948.105	4491.46
948.41	4440.62
948.716	4493.5
949.022	4455.31
949.327	4437
949.633	4364.91
949.938	4407.17
950.244	4354.29
950.549	4319.26
950.854	4346.16
951.16	4316.33
951.465	4293.05
951.77	4249.89
952.075	4253.05
952.38	4299.15
952.685	4255.54
952.99	4185.26
953.294	4151.59
953.599	4164.47
953.904	4094.41
954.209	4119.04
954.513	4121.53
954.818	4072.94
955.122	4072.27
955.426	4050.57
955.731	4017.13
956.035	3986.39
956.339	3965.38
956.643	3998.82
956.948	3933.51
957.252	3952.95
957.556	3946.17
957.86	3896.45
958.163	3904.13
958.467	3911.37
958.771	3878.82
959.075	3827.53
959.378	3830.24
959.682	3833.18
959.985	3813.52
960.289	3790.92
960.592	3770.35
960.896	3749.11
961.199	3708.43
961.502	3740.3
961.805	3710.47
962.108	3672.73
962.411	3633.18
962.714	3674.08
963.017	3615.55
963.32	3603.8
963.623	3602.67
963.926	3589.34
964.228	3607.42
964.531	3557.48
964.833	3555.22
965.136	3557.03
965.438	3524.03
965.741	3479.51
966.043	3428.44
966.345	3447.65
966.648	3447.2
966.95	3481.55
967.252	3420.98
967.554	3384.15
967.856	3395
968.158	3348.44
968.46	3331.27
968.761	3350.02
969.063	3325.17
969.365	3342.12
969.666	3297.82
969.968	3321.55
970.269	3251.04
970.571	3279.97
970.872	3251.04
971.174	3298.05
971.475	3239.07
971.776	3247.2
972.077	3200.88
972.378	3183.48
972.679	3179.41
972.98	3148.9
973.281	3170.82
973.582	3130.14
973.883	3077.49
974.183	3079.52
974.484	3067.77
974.785	3063.25
975.085	3072.52
975.386	3041.56
975.686	3017.15
975.986	3016.02
976.287	3065.06
976.587	2985.29
976.887	2960.66
977.187	2988.68
977.487	2926.53
977.787	2971.28
978.087	2904.16
978.387	2913.65
978.687	2938.28
978.987	2863.71
979.286	2854.67
979.586	2845.63
979.885	2870.04
980.185	2829.81
980.484	2876.82
980.784	2801.79
981.083	2778.29
981.382	2757.72
981.682	2807.44
981.981	2778.29
982.28	2739.42
982.579	2729.02
982.878	2749.36
983.177	2750.49
983.475	2698.06
983.774	2689.25
984.073	2691.51
984.372	2681.79
984.67	2678.4
984.969	2658.74
985.267	2662.13
985.566	2649.7
985.864	2593.66
986.162	2588.46
986.461	2621
986.759	2582.59
987.057	2546.88
987.355	2549.59
987.653	2512.08
987.951	2503.72
988.249	2529.93
988.547	2494.91
988.844	2516.83
989.142	2475.25
989.44	2473.66
989.737	2456.72
990.035	2459.88
990.332	2442.03
990.63	2413.33
990.927	2440.22
991.224	2398.19
991.521	2432.31
991.819	2388.92
992.116	2396.6
992.413	2371.52
992.71	2347.11
993.006	2332.88
993.303	2342.82
993.6	2350.73
993.897	2285.19
994.193	2291.97
994.49	2289.49
994.787	2267.79
995.083	2281.13
995.379	2244.07
995.676	2256.27
995.972	2240
996.268	2224.18
996.565	2206.55
996.861	2188.02
997.157	2219.66
997.453	2185.08
997.749	2160
998.044	2121.58
998.34	2187.34
998.636	2139.89
998.932	2129.04
999.227	2137.18
999.523	2083.62
999.818	2098.31
1000.114	2117.06
1000.409	2065.31
1000.704	2048.59
1001	2072.09
1001.295	2030.96
1001.59	2020.34
1001.885	2040.91
1002.18	2015.14
1002.475	1981.93
1002.77	2018.08
1003.065	1981.93
1003.359	1977.86
1003.654	1972.89
1003.949	1927.01
1004.243	1930.85
1004.538	1871.65
1004.832	1904.19
1005.127	1889.5
1005.421	1880.91
1005.715	1863.06
1006.009	1855.6
1006.304	1851.76
1006.598	1826.68
1006.892	1847.47
1007.186	1835.49
1007.48	1799.11
1007.773	1811.53
1008.067	1795.94
1008.361	1752.78
1008.655	1762.72
1008.948	1767.69
1009.242	1781.03
1009.535	1748.03
1009.829	1727.47
1010.122	1722.05
1010.415	1719.56
1010.708	1699.9
1011.001	1713.01
1011.295	1698.77
1011.588	1667.13
1011.881	1690.63
1012.173	1662.84
1012.466	1647.02
1012.759	1632.78
1013.052	1635.04
1013.344	1657.41
1013.637	1642.05
1013.93	1580.58
1014.222	1613.8
1014.514	1607.92
1014.807	1574.93
1015.099	1561.15
1015.391	1532.45
1015.683	1538.32
1015.976	1525.21
1016.268	1532.67
1016.56	1522.05
1016.851	1486.12
1017.143	1489.73
1017.435	1496.51
1017.727	1494.25
1018.018	1485.44
1018.31	1462.39
1018.602	1462.39
1018.893	1446.57
1019.185	1445.44
1019.476	1428.49
1019.767	1431.43
1020.058	1381.49
1020.35	1394.14
1020.641	1382.84
1020.932	1369.29
1021.223	1373.81
1021.514	1389.17
1021.804	1353.69
1022.095	1343.75
1022.386	1333.13
1022.677	1324.54
1022.967	1300.81
1023.258	1313.69
1023.548	1289.97
1023.839	1305.11
1024.129	1261.04
1024.419	1290.19
1024.709	1278.89
1025	1258.1
1025.29	1247.93
1025.58	1234.6
1025.87	1249.74
1026.16	1217.43
1026.449	1238.67
1026.739	1242.06
1027.029	1211.1
1027.319	1185.11
1027.608	1198.67
1027.898	1174.71
1028.187	1174.04
1028.477	1172.23
1028.766	1157.54
1029.055	1172.23
1029.344	1146.69
1029.634	1133.59
1029.923	1131.55
1030.212	1126.58
1030.501	1105.34
1030.79	1121.61
1031.078	1083.87
1031.367	1113.47
1031.656	1103.08
1031.945	1062.18
1032.233	1071.44
1032.522	1079.58
1032.81	1040.93
1033.099	1068.05
1033.387	1055.4
1033.675	1046.58
1033.963	1029.63
1034.251	1066.47
1034.54	1032.12
1034.828	1024.44
1035.116	1011.1
1035.403	993.93
1035.691	995.06
1035.979	1002.52
1036.267	996.64
1036.554	975.17
1036.842	972.46
1037.129	984.89
1037.417	977.88
1037.704	949.18
1037.992	950.09
1038.279	950.09
1038.566	955.51
1038.853	955.51
1039.14	955.51
