Data from hue_36_FLMS001491_00057.txt Node
Date: Tue Feb 07 17:30:00 GMT 2017
User: dcchb
Spectrometer: FLMS00149
Trigger mode: 0
Integration Time (sec): 2.000000E-2
Scans to average: 10
Electric dark correction enabled: true
Nonlinearity correction enabled: false
Boxcar width: 0
XAxis mode: Wavelengths
Number of Pixels in Spectrum: 2048
>>>>>Begin Spectral Data<<<<<
341.393	-11.4
341.776	-11.4
342.16	-11.4
342.543	-73.54
342.927	-72.41
343.31	-54.79
343.693	-59.53
344.077	-70.83
344.46	-51.17
344.843	-55.92
345.226	-55.92
345.61	-34.67
345.993	-26.09
346.376	12.1
346.759	16.85
347.142	16.4
347.525	24.31
347.908	63.18
348.291	67.47
348.674	107.02
349.057	101.59
349.44	137.07
349.823	149.28
350.206	191.31
350.588	197.18
350.971	215.49
351.354	248.71
351.737	239.22
352.119	266.33
352.502	282.38
352.884	284.41
353.267	274.92
353.65	284.41
354.032	329.84
354.414	322.38
354.797	339.78
355.179	321.93
355.562	325.09
355.944	348.14
356.326	342.04
356.709	349.95
357.091	343.62
357.473	372.55
357.855	323.28
358.238	326.67
358.62	348.82
359.002	348.59
359.384	355.15
359.766	341.36
360.148	335.49
360.53	347.46
360.912	348.82
361.294	331.42
361.676	334.58
362.057	337.97
362.439	339.78
362.821	336.39
363.203	332.1
363.584	316.73
363.966	343.17
364.348	305.88
364.729	331.19
365.111	329.16
365.493	324.64
365.874	326.22
366.256	321.02
366.637	333.9
367.019	311.31
367.4	309.72
367.781	326.45
368.163	306.33
368.544	324.19
368.925	319.21
369.306	323.51
369.688	313.34
370.069	342.49
370.45	304.3
370.831	335.26
371.212	324.19
371.593	340.46
371.974	314.7
372.355	324.19
372.736	303.4
373.117	338.65
373.498	309.72
373.879	316.28
374.26	323.73
374.641	312.89
375.021	334.36
375.402	324.19
375.783	327.8
376.163	329.84
376.544	321.93
376.925	340.91
377.305	328.25
377.686	316.5
378.066	336.84
378.447	344.3
378.827	354.24
379.208	338.88
379.588	347.01
379.968	341.36
380.349	345.2
380.729	324.19
381.109	336.39
381.489	319.67
381.87	359.44
382.25	336.62
382.63	348.59
383.01	344.52
383.39	339.55
383.77	331.42
384.15	337.75
384.53	343.62
384.91	347.69
385.29	330.51
385.67	346.56
386.049	354.92
386.429	359.44
386.809	340.23
387.189	357.86
387.568	350.17
387.948	367.12
388.328	347.46
388.707	354.92
389.087	339.33
389.466	363.51
389.846	352.43
390.225	358.54
390.605	359.21
390.984	391.53
391.363	357.18
391.743	385.88
392.122	366.22
392.501	396.5
392.881	367.58
393.26	357.18
393.639	380.68
394.018	363.73
394.397	381.59
394.776	382.49
395.155	376.61
395.534	388.59
395.913	377.29
396.292	389.5
396.671	376.16
397.05	376.84
397.429	366.45
397.808	374.58
398.186	376.84
398.565	372.77
398.944	381.81
399.323	373.68
399.701	383.39
400.08	391.53
400.458	392.89
400.837	416.84
401.215	379.1
401.594	404.64
401.972	380.23
402.351	400.79
402.729	421.81
403.107	427.69
403.486	398.08
403.864	420.23
404.242	415.71
404.62	413.9
404.999	403.51
405.377	415.94
405.755	422.71
406.133	418.87
406.511	401.92
406.889	409.16
407.267	430.85
407.645	423.17
408.023	413.9
408.401	427.91
408.779	428.36
409.156	453.9
409.534	413
409.912	429.95
410.29	426.78
410.667	446.67
411.045	421.81
411.422	443.05
411.8	457.06
412.178	455.93
412.555	464.07
412.933	456.61
413.31	448.93
413.687	457.74
414.065	437.86
414.442	482.83
414.819	478.31
415.197	484.63
415.574	507.01
415.951	471.98
416.328	470.85
416.705	496.16
417.082	494.8
417.46	488.93
417.837	509.49
418.214	502.94
418.591	510.4
418.967	497.52
419.344	482.83
419.721	491.41
420.098	495.03
420.475	491.64
420.852	505.2
421.228	514.92
421.605	543.16
421.982	512.66
422.358	506.55
422.735	492.32
423.111	511.07
423.488	541.81
423.864	509.72
424.241	537.97
424.617	524.63
424.994	542.49
425.37	537.29
425.746	559.66
426.123	523.28
426.499	560.11
426.875	553.56
427.251	554.91
427.627	565.76
428.003	537.97
428.379	565.31
428.756	562.15
429.132	570.73
429.507	576.38
429.883	578.64
430.259	602.37
430.635	555.82
431.011	599.66
431.387	583.84
431.763	603.95
432.138	608.7
432.514	593.33
432.89	598.98
433.265	624.52
433.641	638.08
434.016	631.3
434.392	618.19
434.767	628.13
435.143	666.1
435.518	680.34
435.894	670.62
436.269	662.93
436.644	666.78
437.02	676.72
437.395	665.65
437.77	660.22
438.145	675.14
438.52	691.18
438.895	677.85
439.271	693.67
439.646	694.35
440.021	691.86
440.395	702.03
440.77	694.35
441.145	720.56
441.52	720.11
441.895	718.3
442.27	731.63
442.645	727.79
443.019	721.46
443.394	720.56
443.769	736.15
444.143	716.49
444.518	738.64
444.892	754.46
445.267	751.07
445.641	758.98
446.016	747
446.39	741.12
446.764	766.89
447.139	796.94
447.513	758.07
447.887	755.81
448.262	796.04
448.636	734.35
449.01	780.67
449.384	762.82
449.758	801.01
450.132	814.57
450.506	804.4
450.88	798.75
451.254	805.08
451.628	829.71
452.002	813.89
452.376	813.21
452.75	852.08
453.123	827
453.497	855.47
453.871	877.84
454.244	845.98
454.618	881.91
454.992	871.74
455.365	851.86
455.739	861.35
456.112	896.15
456.486	885.53
456.859	931.4
457.232	935.24
457.606	944.51
457.979	930.95
458.352	967.33
458.725	962.36
459.099	961.01
459.472	985.86
459.845	977.73
460.218	990.16
460.591	978.18
460.964	1002.36
461.337	1006.65
461.71	1035.35
462.083	1076.71
462.456	1036.94
462.829	1078.74
463.201	1073.32
463.574	1108.35
463.947	1105.41
464.32	1111.51
464.692	1116.71
465.065	1125.97
465.438	1166.42
465.81	1165.07
466.183	1186.54
466.555	1220.89
466.928	1221.56
467.3	1233.32
467.672	1241.68
468.045	1265.18
468.417	1272.18
468.789	1284.61
469.161	1301.56
469.534	1338.17
469.906	1357.61
470.278	1376.59
470.65	1372.75
471.022	1417.94
471.394	1455.68
471.766	1488.45
472.138	1492.52
472.51	1526.64
472.882	1532.97
473.253	1579.52
473.625	1603.02
473.997	1640.76
474.369	1661.55
474.74	1669.91
475.112	1734.77
475.484	1783.81
475.855	1801.21
476.227	1827.2
476.598	1899.74
476.97	1914.2
477.341	1964.6
477.713	2019.51
478.084	2052.73
478.455	2146.96
478.827	2150.35
479.198	2216.34
479.569	2255.89
479.94	2327.75
480.311	2366.62
480.682	2431.7
481.053	2510.57
481.424	2588.31
481.795	2620.17
482.166	2693.62
482.537	2713.5
482.908	2865.14
483.279	2913.5
483.65	2993.27
484.021	3022.65
484.391	3108.52
484.762	3179.93
485.133	3257.89
485.503	3363.65
485.874	3429.19
486.244	3532.01
486.615	3590.77
486.985	3725
487.356	3814.26
487.726	3883.41
488.097	3972.68
488.467	4043.18
488.837	4141.49
489.207	4262.84
489.578	4395.27
489.948	4417.64
490.318	4567.69
490.688	4607.01
491.058	4699.21
491.428	4790.28
491.798	4903.95
492.168	5077.28
492.538	5108.92
492.908	5236.6
493.278	5308.69
493.648	5385.97
494.017	5528.34
494.387	5597.04
494.757	5700.54
495.126	5853.76
495.496	5860.99
495.866	5968.56
496.235	6062.79
496.605	6108.22
496.974	6263.92
497.344	6303.69
497.713	6379.17
498.082	6534.64
498.452	6571.93
498.821	6675.88
499.19	6729.89
499.559	6819.61
499.928	6917.91
500.298	7014.86
500.667	7052.6
501.036	7140.73
501.405	7221.63
501.774	7284.91
502.143	7339.37
502.512	7436.32
502.88	7515.86
503.249	7608.97
503.618	7659.59
503.987	7749.08
504.356	7761.05
504.724	7833.59
505.093	7954.95
505.462	7970.09
505.83	8099.58
506.199	8226.8
506.567	8291.21
506.936	8278.1
507.304	8436.97
507.672	8460.47
508.041	8554.25
508.409	8614.36
508.777	8684.87
509.145	8813.45
509.514	8818.65
509.882	8812.55
510.25	8891.87
510.618	9010.51
510.986	9081.02
511.354	9114.24
511.722	9207.57
512.09	9344.51
512.458	9281.01
512.826	9409.6
513.193	9448.69
513.561	9478.52
513.929	9624.05
514.297	9665.18
514.664	9677.84
515.032	9809.59
515.4	9879.64
515.767	9918.74
516.135	9930.26
516.502	9917.38
516.869	10085.96
517.237	10212.97
517.604	10135.91
517.972	10316.01
518.339	10336.8
518.706	10335.9
519.073	10460.87
519.44	10456.35
519.808	10492.51
520.175	10576.57
520.542	10672.39
520.909	10756.45
521.276	10739.96
521.643	10896.11
522.009	10871.03
522.376	11001.87
522.743	11047.97
523.11	11167.07
523.477	11229.89
523.843	11255.88
524.21	11442.99
524.577	11467.17
524.943	11569.09
525.31	11588.75
525.676	11726.15
526.043	11808.18
526.409	11819.48
526.776	11982.86
527.142	11986.03
527.508	12020.83
527.874	12118.45
528.241	12161.16
528.607	12215.85
528.973	12365
529.339	12352.12
529.705	12530.42
530.071	12575.39
530.437	12652.68
530.803	12711.21
531.169	12798.89
531.535	12760.24
531.901	12849.51
532.267	12881.82
532.632	12904.19
532.998	13020.35
533.364	13149.84
533.73	13186.67
534.095	13241.36
534.461	13252.89
534.826	13338.53
535.192	13383.96
535.557	13520
535.923	13497.63
536.288	13556.15
536.653	13626.66
537.019	13614.01
537.384	13718.41
537.749	13759.77
538.114	13786.21
538.479	13802.7
538.845	13929.25
539.21	13994.11
539.575	13970.38
539.94	14060.77
540.305	14096.25
540.67	14182.13
541.034	14166.53
541.399	14314.78
541.764	14326.98
542.129	14382.57
542.494	14397.94
542.858	14417.38
543.223	14510.25
543.587	14538.5
543.952	14616.69
544.316	14615.34
544.681	14681.32
545.045	14894.88
545.41	14901.88
545.774	14954.54
546.138	14921.32
546.503	15009.68
546.867	15020.75
547.231	15126.06
547.595	15085.38
547.959	15218.71
548.324	15263
548.688	15286.28
549.052	15353.4
549.416	15421.42
549.779	15388.42
550.143	15503.45
550.507	15512.49
550.871	15592.03
551.235	15660.51
551.599	15712.26
551.962	15714.52
552.326	15787.51
552.689	15899.37
553.053	15850.78
553.417	15936.43
553.78	16170.78
554.143	16029.31
554.507	16050.55
554.87	16214.62
555.234	16317.44
555.597	16261.17
555.96	16401.05
556.323	16456.19
556.686	16398.57
557.05	16538.45
557.413	16542.74
557.776	16588.17
558.139	16750.87
558.502	16815.73
558.865	16773.7
559.228	16922.85
559.59	16907.71
559.953	16937.53
560.316	17106.12
560.679	17128.26
561.041	17190.41
561.404	17275.38
561.767	17415.04
562.129	17346.11
562.492	17546.11
562.854	17506.56
563.217	17535.26
563.579	17584.75
563.941	17721.02
564.304	17771.86
564.666	17845.99
565.028	17929.15
565.39	17966.43
565.753	18097.05
566.115	18205.3
566.477	18150.16
566.839	18245.3
567.201	18432.41
567.563	18462.69
567.925	18502.92
568.287	18521.45
568.648	18615.23
569.01	18732.06
569.372	18872.63
569.734	18801.21
570.095	18954.88
570.457	18974.09
570.819	19006.86
571.18	19014.09
571.542	19233.75
571.903	19174.54
572.265	19318.72
572.626	19323.01
572.987	19391.93
573.349	19607.07
573.71	19624.24
574.071	19713.51
574.432	19784.24
574.794	20113.5
575.155	20070.33
575.516	19995.31
575.877	20174.06
576.238	20255.41
576.599	20433.71
576.96	20409.08
577.32	20597.55
577.681	20778.11
578.042	20835.74
578.403	20920.48
578.763	21084.32
579.124	21213.13
579.485	21367.02
579.845	21494.25
580.206	21602.72
580.566	21677.07
580.927	21917.74
581.287	22163.61
581.648	22062.15
582.008	22390.72
582.368	22497.61
582.728	22762.24
583.089	22758.62
583.449	22993.42
583.809	23218.95
584.169	23272.96
584.529	23400.19
584.889	23853.06
585.249	23804.25
585.609	24016.22
585.969	24364.23
586.329	24372.59
586.688	24718.35
587.048	24940.94
587.408	24948.17
587.768	25189.07
588.127	25311.1
588.487	25517.2
588.846	25966.9
589.206	25920.8
589.565	26167.57
589.925	26565.53
590.284	26644.4
590.643	26906.09
591.003	27185.4
591.362	27404.6
591.721	27508.78
592.08	27709.23
592.44	28027.86
592.799	28282.77
593.158	28438.93
593.517	28767.73
593.876	28865.81
594.235	28965.02
594.593	29292.69
594.952	29546.47
595.311	29637.54
595.67	29966.12
596.029	30352.78
596.387	30501.47
596.746	30572.43
597.104	30753.67
597.463	30959.77
597.822	31139.87
598.18	31306.87
598.538	31637.71
598.897	31753.64
599.255	31752.51
599.613	32460.97
599.972	32323.35
600.33	32620.74
600.688	32615.54
601.046	33024.57
601.404	33307.27
601.762	33303.66
602.12	33687.38
602.478	33665.91
602.836	33939.57
603.194	33895.28
603.552	34274.03
603.91	34241.49
604.268	34493.91
604.625	34577.52
604.983	34862.04
605.341	34833.11
605.698	35134.34
606.056	35306.77
606.413	35361.91
606.771	35757.38
607.128	35784.04
607.485	35706.98
607.843	35998.5
608.2	36233.75
608.557	36450.24
608.914	36347.42
609.272	36758.93
609.629	36752.38
609.986	36974.3
610.343	37112.6
610.7	37334.74
611.057	37458.58
611.414	37554.17
611.771	37675.52
612.127	37830.77
612.484	37975.85
612.841	38149.18
613.198	38195.96
613.554	38244.55
613.911	38598.89
614.267	38625.1
614.624	38623.52
614.98	38621.48
615.337	38983.73
615.693	39043.39
616.05	39007.92
616.406	39408.13
616.762	39312.09
617.118	39397.51
617.475	39514.79
617.831	39617.16
618.187	39720.89
618.543	39763.83
618.899	40078.4
619.255	40028.45
619.611	39983.26
619.967	40097.83
620.323	40307.32
620.678	40254.44
621.034	40263.48
621.39	40275.9
621.746	40286.98
622.101	40721.99
622.457	40613.07
622.812	40785.5
623.168	40730.13
623.523	40898.03
623.879	40959.5
624.234	40802.67
624.589	41001.31
624.945	41095.54
625.3	41158.82
625.655	41123.57
626.01	41433.39
626.365	41269.1
626.72	41267.52
627.075	41362.43
627.43	41232.26
627.785	41156.56
628.14	41410.11
628.495	41384.35
628.85	41425.25
629.205	41211.92
629.559	41475.65
629.914	41460.05
630.269	41454.86
630.623	41466.61
630.978	41362.2
631.332	41728.97
631.687	41620.73
632.041	41503.89
632.396	41623.67
632.75	41425.48
633.104	41687.62
633.459	41368.76
633.813	41549.09
634.167	41446.72
634.521	41634.51
634.875	41540.28
635.229	41610.11
635.583	41479.04
635.937	41530.11
636.291	41535.08
636.645	41545.02
636.999	41327.63
637.352	41479.26
637.706	41410.56
638.06	41611.46
638.413	41435.42
638.767	41357.91
639.121	41405.37
639.474	41089.67
639.828	41123.79
640.181	41197.69
640.534	41199.04
640.888	40984.13
641.241	40950.01
641.594	41069.56
641.947	41211.25
642.301	41125.83
642.654	41066.84
643.007	41162.66
643.36	41189.1
643.713	41178.03
644.066	41175.54
644.419	41102.32
644.771	40664.82
645.124	40504.6
645.477	40419.18
645.83	39967.89
646.182	39969.25
646.535	39937.83
646.888	40100.77
647.24	39768.12
647.593	40052.41
647.945	39996.14
648.298	39657.84
648.65	39614.9
649.002	39514.57
649.355	39758.86
649.707	39847.44
650.059	39953.88
650.411	40437.03
650.763	40373.98
651.115	40722.22
651.467	40606.52
651.819	40571.49
652.171	40635.44
652.523	40446.75
652.875	40416.92
653.227	40326.98
653.578	40498.05
653.93	40454.88
654.282	40335.34
654.633	40265.28
654.985	40256.7
655.337	40408.33
655.688	40463.47
656.039	40401.32
656.391	40242.68
656.742	40374.88
657.094	40398.39
657.445	40398.39
657.796	40396.35
658.147	40390.25
658.498	40246.75
658.849	40432.51
659.2	40150.03
659.551	40195.23
659.902	40273.42
660.253	40231.61
660.604	40270.25
660.955	40199.52
661.306	40229.35
661.656	40085.4
662.007	40250.14
662.358	40047.89
662.708	40283.59
663.059	40231.16
663.409	39931.51
663.76	40320.42
664.11	40317.94
664.461	40230.03
664.811	40305.73
665.161	40130.37
665.511	40018.74
665.862	40050.15
666.212	40252.4
666.562	40133.31
666.912	40062.58
667.262	40070.49
667.612	40061.9
667.962	40150.71
668.312	40007.21
668.662	40227.09
669.011	40133.76
669.361	39971.51
669.711	40004.5
670.06	40025.97
670.41	39851.51
670.76	39887.89
671.109	40072.07
671.459	39945.97
671.808	39823.71
672.157	39983.48
672.507	39738.07
672.856	39896.48
673.205	39766.99
673.554	39862.81
673.904	39803.83
674.253	40065.29
674.602	39880.43
674.951	39344.4
675.3	39083.85
675.649	39863.94
675.998	39736.03
676.346	39949.59
676.695	39854.22
677.044	39599.09
677.393	39689.7
677.741	39691.06
678.09	39731.74
678.438	39603.15
678.787	39641.12
679.135	39572.87
679.484	39294.91
679.832	39539.43
680.181	39287.23
680.529	39306.66
680.877	39305.76
681.225	39218.08
681.573	39350.96
681.922	39081.13
682.27	38967.69
682.618	39200.68
682.966	38908.71
683.314	39050.17
683.661	38922.27
684.009	38760.92
684.357	38732.44
684.705	38712.33
685.053	38707.36
685.4	38675.27
685.748	38515.05
686.095	38452.68
686.443	38338.33
686.79	38246.13
687.138	38394.6
687.485	38388.27
687.832	38272.12
688.18	38298.33
688.527	38127.03
688.874	38082.29
689.221	37931.33
689.568	37970.2
689.915	37844.1
690.262	37890.88
690.609	37820.83
690.956	37626.03
691.303	37522.76
691.65	37434.17
691.997	37328.86
692.344	37137.46
692.69	37248.19
693.037	37212.48
693.383	36883.9
693.73	37160.96
694.077	36799.84
694.423	36866.5
694.769	36708.09
695.116	36730.69
695.462	36602.78
695.808	36480.52
696.155	36609.33
696.501	36236.91
696.847	36211.15
697.193	36026.3
697.539	36197.59
697.885	35936.13
698.231	35866.98
698.577	35772.07
698.923	35729.58
699.269	35594.9
699.614	35443.49
699.96	35324.62
700.306	35397.84
700.651	35320.55
700.997	35185.19
701.342	35082.59
701.688	35097.96
702.033	34965.31
702.379	34925.76
702.724	34713.79
703.069	34869.94
703.415	34473.57
703.76	34482.16
704.105	34488.03
704.45	34509.95
704.795	34150.19
705.14	34140.7
705.485	34126.46
705.83	33984.54
706.175	34005.33
706.52	33806.7
706.865	33869.07
707.209	33677.89
707.554	33707.72
707.899	33603.31
708.243	33452.81
708.588	33567.83
708.932	33270.44
709.277	33092.82
709.621	33357.22
709.966	33078.58
710.31	33194.73
710.654	32819.15
710.998	32950.45
711.342	32969.88
711.687	32804.69
712.031	32580.74
712.375	32580.29
712.719	32658.03
713.063	32504.36
713.407	32636.78
713.75	32426.62
714.094	32413.06
714.438	32178.94
714.782	32389.56
715.125	32049.45
715.469	32278.6
715.812	31989.79
716.156	31731.95
716.499	31902.34
716.843	31867.09
717.186	31706.41
717.53	31902.79
717.873	31899.18
718.216	31709.35
718.559	31629.8
718.902	31327.89
719.246	31500.77
719.589	31484.5
719.932	31169.48
720.275	31340.09
720.617	31361.11
720.96	31235.46
721.303	31174.9
721.646	31085.86
721.989	31074.56
722.331	31038.86
722.674	30914.79
723.016	31024.62
723.359	30976.26
723.701	30930.61
724.044	30818.53
724.386	30614.24
724.729	30740.79
725.071	30729.71
725.413	30701.69
725.755	30628.7
726.097	30500.12
726.439	30231.65
726.782	30489.95
727.124	30550.51
727.465	30280.23
727.807	30226.45
728.149	30313.45
728.491	30253.79
728.833	30215.15
729.175	30133.57
729.516	29984.42
729.858	30011.99
730.199	30061.48
730.541	29957.08
730.882	29949.85
731.224	30003.41
731.565	29694.71
731.906	29713.7
732.248	29721.83
732.589	29605.9
732.93	29467.15
733.271	29531.55
733.612	29611.1
733.953	29578.56
734.294	29423.08
734.635	29444.55
734.976	29409.3
735.317	29264.89
735.658	29213.6
735.999	29256.08
736.339	29056.99
736.68	29335.85
737.021	29079.14
737.361	28905.36
737.702	29257.44
738.042	28967.28
738.383	29007.05
738.723	29022.87
739.063	28904.45
739.404	28920.27
739.744	28788.07
740.084	28741.29
740.424	28631.46
740.764	28774.51
741.104	28773.83
741.444	28547.85
741.784	28568.42
742.124	28499.49
742.464	28522.99
742.804	28442.77
743.143	28407.06
743.483	28437.35
743.823	28267.86
744.162	28257.24
744.502	28197.13
744.841	28128.43
745.181	28202.1
745.52	28082.33
745.86	28170.23
746.199	28099.73
746.538	28049.56
746.877	28051.37
747.216	28029.9
747.556	27898.6
747.895	28044.59
748.234	27894.08
748.573	27869.68
748.911	27883.69
749.25	27644.15
749.589	27679.4
749.928	27653.64
750.267	27682.56
750.605	27532.28
750.944	27559.4
751.283	27370.71
751.621	27372.29
751.96	27196.93
752.298	27259.75
752.636	27359.86
752.975	27099.53
753.313	27039.19
753.651	27112.86
753.989	27083.48
754.327	27022.24
754.666	26817.73
755.004	26916.03
755.342	27042.58
755.679	26873.77
756.017	26727.11
756.355	26737.05
756.693	26700.44
757.031	26744.28
757.368	26502.03
757.706	26447.34
758.044	26392.43
758.381	26471.07
758.719	26311.3
759.056	26320.79
759.394	26284.18
759.731	26006
760.068	26103.62
760.405	25899.33
760.743	25772.56
761.08	25975.72
761.417	25801.71
761.754	25626.35
762.091	25637.87
762.428	25557.2
762.765	25401.49
763.102	25557.87
763.438	25290.31
763.775	25164.21
764.112	25251.21
764.449	25241.95
764.785	25118.56
765.122	25006.48
765.458	24829.53
765.795	24856.2
766.131	24745.69
766.467	24575.07
766.804	24554.74
767.14	24477.45
767.476	24544.79
767.812	24337.34
768.148	24383.89
768.485	24229.55
768.821	24150.9
769.157	24147.06
769.492	23987.97
769.828	23975.54
770.164	23768.77
770.5	23812.83
770.836	23718.6
771.171	23592.28
771.507	23473.63
771.842	23345.95
772.178	23378.95
772.513	23196.13
772.849	23211.04
773.184	23064.15
773.519	23061.67
773.855	23063.02
774.19	22824.84
774.525	22872.97
774.86	22811.73
775.195	22733.54
775.53	22648.12
775.865	22440.89
776.2	22421.01
776.535	22266.66
776.87	22273.67
777.205	22153.22
777.539	22156.83
777.874	22073.45
778.209	21956.84
778.543	21910.74
778.878	21797.29
779.212	21792.77
779.547	21598.66
779.881	21552.1
780.215	21413.58
780.55	21539.22
780.884	21287.48
781.218	21276.63
781.552	21331.32
781.886	21098.1
782.22	21076.64
782.554	20994.83
782.888	20747.38
783.222	20709.87
783.556	20638.91
783.889	20553.26
784.223	20404.56
784.557	20449.53
784.89	20442.98
785.224	20223.78
785.557	20258.8
785.891	20204.57
786.224	20075.53
786.558	20049.77
786.891	19849.32
787.224	19820.85
787.557	19835.99
787.891	19795.99
788.224	19785.6
788.557	19697.69
788.89	19643.9
789.223	19531.36
789.556	19428.09
789.888	19397.36
790.221	19341.99
790.554	19240.98
790.887	19206.63
791.219	19091.83
791.552	19093.18
791.884	19052.73
792.217	18941.1
792.549	18864.72
792.882	18716.02
793.214	18699.07
793.546	18669.92
793.879	18596.47
794.211	18431.73
794.543	18559.41
794.875	18439.42
795.207	18465.63
795.539	18367.1
795.871	18351.28
796.203	18191.51
796.535	18086.21
796.867	18060.9
797.198	17985.87
797.53	17871.75
797.862	17759.66
798.193	17887.11
798.525	17664.52
798.856	17817.06
799.188	17580.46
799.519	17636.5
799.85	17392.44
800.182	17465.43
800.513	17459.33
800.844	17289.62
801.175	17356.73
801.506	17284.87
801.837	17220.24
802.168	17192.67
802.499	17163.07
802.83	17115.84
803.161	16966.46
803.491	17042.16
803.822	17048.94
804.153	16872.23
804.483	16670.88
804.814	16635.4
805.145	16700.93
805.475	16624.55
805.805	16578.9
806.136	16618.9
806.466	16637.66
806.796	16531.22
807.126	16370.54
807.457	16344.33
807.787	16342.75
808.117	16321.28
808.447	16249.87
808.777	16178.23
809.107	16171.23
809.436	16076.99
809.766	16038.8
810.096	15965.36
810.426	15934.4
810.755	16039.71
811.085	15913.38
811.414	15835.42
811.744	15770.79
812.073	15761.52
812.403	15710
812.732	15611.24
813.061	15585.71
813.39	15500.06
813.719	15514.3
814.049	15648.3
814.378	15515.88
814.707	15407.63
815.036	15460.06
815.365	15366.05
815.693	15110.24
816.022	15196.11
816.351	15089.45
816.68	15122.67
817.008	15084.7
817.337	15015.1
817.665	15028.66
817.994	14978.26
818.322	14959.73
818.651	14921.77
818.979	14840.41
819.307	14874.31
819.636	14834.77
819.964	14724.71
820.292	14905.95
820.62	14800.87
820.948	14691.94
821.276	14794.54
821.604	14782.11
821.932	14750.93
822.259	14695.11
822.587	14757.03
822.915	14686.29
823.243	14757.71
823.57	14568.78
823.898	14717.71
824.225	14668.89
824.553	14653.98
824.88	14628.44
825.207	14686.97
825.535	14626.86
825.862	14681.55
826.189	14553.87
826.516	14707.09
826.843	14684.26
827.17	14620.31
827.497	14717.93
827.824	14660.08
828.151	14696.46
828.478	14735.78
828.805	14710.93
829.131	14685.16
829.458	14640.65
829.785	14517.49
830.111	14660.53
830.438	14768.33
830.764	14620.53
831.09	14625.96
831.417	14548.22
831.743	14703.7
832.069	14635.45
832.395	14561.55
832.722	14572.4
833.048	14573.53
833.374	14520.65
833.7	14512.97
834.026	14508.67
834.351	14520.42
834.677	14504.15
835.003	14545.96
835.329	14450.14
835.654	14449.69
835.98	14342.12
836.306	14343.25
836.631	14396.36
836.956	14357.26
837.282	14402.23
837.607	14372.86
837.932	14225.29
838.258	14177.61
838.583	14278.17
838.908	14152.52
839.233	14164.27
839.558	14091.28
839.883	14061.9
840.208	14057.16
840.533	14033.88
840.858	14032.98
841.182	14011.74
841.507	14029.81
841.832	13961.12
842.156	13944.39
842.481	13885.19
842.805	13887.45
843.13	13856.94
843.454	13839.99
843.778	13784.62
844.103	13726.09
844.427	13756.83
844.751	13686.09
845.075	13614.23
845.399	13601.13
845.723	13477.51
846.047	13503.95
846.371	13419.66
846.695	13415.14
847.019	13312.55
847.343	13166.79
847.666	13216.5
847.99	13127.47
848.313	13140.35
848.637	13036.62
848.96	13089.5
849.284	13020.35
849.607	12847.7
849.931	12907.81
850.254	12759.79
850.577	12727.93
850.9	12780.58
851.223	12651.77
851.546	12592.34
851.869	12566.58
852.192	12483.19
852.515	12445.22
852.838	12389.63
853.161	12410.65
853.483	12260.37
853.806	12257.88
854.129	12281.16
854.451	12141.5
854.774	12156.87
855.096	12119.81
855.419	12070.09
855.741	12058.12
856.063	11918.46
856.385	11939.02
856.708	11979.02
857.03	11906.25
857.352	11915.97
857.674	11805.01
857.996	11774.05
858.318	11670.33
858.64	11708.75
858.961	11584.23
859.283	11654.06
859.605	11548.98
859.926	11610.9
860.248	11618.58
860.57	11458.36
860.891	11467.62
861.212	11464.46
861.534	11475.98
861.855	11322.54
862.176	11415.87
862.498	11377.91
862.819	11372.26
863.14	11308.08
863.461	11245.03
863.782	11261.75
864.103	11284.8
864.424	11168.65
864.745	11256.78
865.065	11205.03
865.386	11153.51
865.707	11135.65
866.027	11079.61
866.348	11166.39
866.668	11087.07
866.989	11090.46
867.309	10986.73
867.63	11013.4
867.95	10978.82
868.27	10851.82
868.59	10993.28
868.91	10918.71
869.23	10890.46
869.55	10906.51
869.87	10906.06
870.19	10816.79
870.51	10847.75
870.83	10863.8
871.15	10825.83
871.469	10771.82
871.789	10795.32
872.109	10777.92
872.428	10709.68
872.748	10691.82
873.067	10701.99
873.386	10678.94
873.706	10683.91
874.025	10575.67
874.344	10633.75
874.663	10619.96
874.982	10584.71
875.301	10633.29
875.62	10519.4
875.939	10539.06
876.258	10551.04
876.577	10555.78
876.896	10496.57
877.214	10497.03
877.533	10468.55
877.852	10503.58
878.17	10431.94
878.489	10399.85
878.807	10378.84
879.125	10357.37
879.444	10405.05
879.762	10289.57
880.08	10411.15
880.398	10228.56
880.716	10254.09
881.034	10289.35
881.352	10196.47
881.67	10175.45
881.988	10190.59
882.306	10157.6
882.624	10106.3
882.941	10086.19
883.259	10075.79
883.577	10079.64
883.894	9985.85
884.212	9957.15
884.529	10026.53
884.846	9902.01
885.164	9929.36
885.481	9949.24
885.798	9858.4
886.115	9829.93
886.432	9882.13
886.75	9824.28
887.067	9918.96
887.383	9855.01
887.7	9782.69
888.017	9758.29
888.334	9753.99
888.651	9629.25
888.967	9701.34
889.284	9674.45
889.6	9577.28
889.917	9601.23
890.233	9611.63
890.55	9462.03
890.866	9490.05
891.182	9531.4
891.498	9503.83
891.815	9424.74
892.131	9384.06
892.447	9433.1
892.763	9328.47
893.079	9337.73
893.395	9206.89
893.71	9228.59
894.026	9254.12
894.342	9234.69
894.657	9185.87
894.973	9191.07
895.289	9174.8
895.604	9135.03
895.92	9091.87
896.235	9038.99
896.55	8984.3
896.865	8997.18
897.181	8958.99
897.496	8944.07
897.811	8894.36
898.126	8875.15
898.441	8843.06
898.756	8818.2
899.071	8722.16
899.386	8788.37
899.7	8668.83
900.015	8735.49
900.33	8578.66
900.644	8558.09
900.959	8629.5
901.273	8553.8
901.588	8529.39
901.902	8433.13
902.216	8405.56
902.531	8448.94
902.845	8424.09
903.159	8340.92
903.473	8299.8
903.787	8269.97
904.101	8268.84
904.415	8257.54
904.729	8230.19
905.042	8134.83
905.356	8204.88
905.67	8119.91
905.984	8135.73
906.297	8101.61
906.611	8052.57
906.924	8039.46
907.237	8025.68
907.551	7959.69
907.864	7898
908.177	7888.28
908.491	7860.94
908.804	7801.73
909.117	7829.07
909.43	7766.7
909.743	7663.2
910.056	7664.11
910.368	7658.23
910.681	7692.58
910.994	7626.82
911.307	7517.9
911.619	7501.4
911.932	7511.57
912.244	7481.74
912.557	7443.55
912.869	7406.03
913.181	7336.21
913.494	7409.65
913.806	7357.22
914.118	7325.13
914.43	7252.59
914.742	7274.06
915.054	7177.34
915.366	7149.54
915.678	7171.01
915.99	7079.26
916.302	7079.49
916.613	7053.27
916.925	7062.54
917.236	6977.57
917.548	6963.56
917.859	6966.95
918.171	6936.67
918.482	6846.05
918.794	6838.82
919.105	6871.36
919.416	6762.44
919.727	6829.55
920.038	6735.32
920.349	6719.95
920.66	6679.73
920.971	6710.23
921.282	6612.16
921.593	6634.08
921.903	6577.58
922.214	6550.01
922.525	6512.5
922.835	6517.02
923.146	6395.44
923.456	6414.2
923.767	6445.61
924.077	6369
924.387	6364.93
924.697	6347.76
925.008	6266.4
925.318	6341.2
925.628	6240.64
925.938	6237.48
926.248	6185.73
926.558	6170.59
926.867	6164.48
927.177	6079.97
927.487	6060.31
927.796	6040.42
928.106	6067.54
928.416	6020.31
928.725	5993.87
929.034	5959.97
929.344	5949.8
929.653	5861.22
929.962	5833.65
930.271	5872.74
930.581	5866.64
930.89	5795.45
931.199	5758.17
931.508	5719.98
931.817	5699.41
932.125	5678.85
932.434	5722.91
932.743	5702.58
933.051	5622.13
933.36	5564.73
933.669	5565.86
933.977	5616.25
934.286	5529.93
934.594	5549.13
934.902	5518.4
935.21	5448.8
935.519	5457.16
935.827	5425.97
936.135	5337.39
936.443	5331.29
936.751	5343.49
937.059	5348.91
937.367	5282.7
937.674	5305.07
937.982	5310.5
938.29	5219.2
938.597	5265.75
938.905	5156.38
939.213	5136.49
939.52	5150.27
939.827	5126.55
940.135	5078.86
940.442	5107.56
940.749	5055.81
941.056	5080.67
941.363	5048.58
941.67	4985.53
941.977	4963.39
942.284	4930.84
942.591	4964.29
942.898	4928.13
943.205	4943.95
943.511	4865.76
943.818	4879.32
944.125	4812.88
944.431	4842.49
944.738	4797.29
945.044	4770.4
945.35	4737.63
945.657	4682.49
945.963	4732.21
946.269	4687.69
946.575	4691.08
946.881	4634.36
947.187	4589.61
947.493	4637.97
947.799	4599.33
948.105	4595.49
948.41	4485.21
948.716	4577.86
949.022	4491.53
949.327	4494.02
949.633	4415.38
949.938	4446.11
950.244	4423.51
950.549	4405.44
950.854	4335.38
951.16	4338.32
951.465	4315.72
951.77	4332.22
952.075	4350.75
952.38	4264.42
952.685	4311.65
952.99	4251.54
953.294	4228.26
953.599	4245.21
953.904	4219.23
954.209	4137.19
954.513	4146.23
954.818	4148.72
955.122	4108.95
955.426	4112.34
955.731	4080.02
956.035	4086.12
956.339	4070.75
956.643	4043.64
956.948	4017.65
957.252	4014.94
957.556	3994.6
957.86	3927.48
958.163	3974.94
958.467	3958.44
958.771	3912.57
959.075	3895.84
959.378	3869.18
959.682	3899.01
959.985	3864.88
960.289	3853.59
960.592	3819.46
960.896	3842.51
961.199	3784.89
961.502	3799.8
961.805	3789.63
962.108	3756.41
962.411	3762.29
962.714	3688.39
963.017	3689.97
963.32	3752.12
963.623	3668.51
963.926	3633.7
964.228	3631.44
964.531	3620.14
964.833	3598.9
965.136	3567.94
965.438	3534.5
965.741	3537.66
966.043	3536.08
966.345	3526.36
966.648	3457.89
966.95	3489.07
967.252	3477.1
967.554	3465.12
967.856	3502.41
968.158	3399.59
968.46	3426.93
968.761	3393.48
969.063	3385.35
969.365	3396.2
969.666	3353.26
969.968	3319.59
970.269	3328.4
970.571	3297.89
970.872	3348.74
971.174	3268.74
971.475	3270.1
971.776	3271.23
972.077	3247.27
972.378	3224.22
972.679	3244.11
972.98	3201.4
973.281	3214.73
973.582	3210.44
973.883	3168.41
974.183	3130.44
974.484	3129.76
974.785	3127.95
975.085	3099.03
975.386	3096.99
975.686	3034.85
975.986	3028.75
976.287	3037.79
976.587	3007.28
976.887	3017.9
977.187	2987.85
977.487	3030.78
977.787	2960.95
978.087	2962.08
978.387	2956.66
978.687	2936.32
978.987	2934.06
979.286	2928.86
979.586	2892.48
979.885	2898.58
980.185	2865.81
980.484	2891.35
980.784	2831.92
981.083	2884.35
981.382	2823.78
981.682	2851.8
981.981	2770.45
982.28	2826.72
982.579	2753.73
982.878	2776.1
983.177	2776.1
983.475	2746.27
983.774	2748.76
984.073	2696.1
984.372	2714.18
984.67	2701.53
984.969	2689.77
985.267	2689.55
985.566	2659.49
985.864	2662.88
986.162	2631.92
986.461	2600.96
986.759	2630.34
987.057	2599.61
987.355	2582.43
987.653	2616.1
987.951	2581.98
988.249	2571.81
988.547	2546.95
988.844	2519.61
989.142	2534.75
989.44	2539.5
989.737	2505.82
990.035	2501.53
990.332	2470.34
990.63	2467.86
990.927	2449.78
991.224	2461.76
991.521	2434.87
991.819	2431.48
992.116	2394.19
992.413	2429.67
992.71	2412.95
993.006	2395.77
993.303	2346.73
993.6	2333.4
993.897	2347.64
994.193	2311.25
994.49	2324.13
994.787	2315.32
995.083	2293.4
995.379	2270.35
995.676	2285.26
995.972	2267.41
996.268	2264.7
996.565	2251.59
996.861	2210.69
997.157	2224.7
997.453	2238.03
997.749	2219.73
998.044	2183.57
998.34	2169.79
998.636	2154.42
998.932	2172.5
999.227	2171.37
999.523	2115.1
999.818	2137.25
1000.114	2134.31
1000.409	2096.57
1000.704	2097.93
1001	2064.48
1001.295	2086.63
1001.59	2057.25
1001.885	2059.73
1002.18	2021.09
1002.475	2018.83
1002.77	2004.82
1003.065	2007.53
1003.359	1998.94
1003.654	2007.98
1003.949	1986.97
1004.243	1972.5
1004.538	1946.74
1004.832	1935.9
1005.127	1930.7
1005.421	1969.57
1005.715	1923.01
1006.009	1908.33
1006.304	1902
1006.598	1865.84
1006.892	1857.71
1007.186	1889.79
1007.48	1854.77
1007.773	1820.64
1008.067	1836.01
1008.361	1813.19
1008.655	1825.16
1008.948	1796.69
1009.242	1804.15
1009.535	1781.32
1009.829	1765.96
1010.122	1779.97
1010.415	1734.09
1010.708	1744.49
1011.001	1705.17
1011.295	1714.43
1011.588	1714.66
1011.881	1674.43
1012.173	1686.64
1012.466	1680.76
1012.759	1680.31
1013.052	1668.56
1013.344	1680.53
1013.637	1623.14
1013.93	1631.04
1014.222	1617.26
1014.514	1620.88
1014.807	1589.24
1015.099	1602.8
1015.391	1592.85
1015.683	1566.64
1015.976	1555.79
1016.268	1555.34
1016.56	1555.57
1016.851	1533.87
1017.143	1526.19
1017.435	1539.3
1017.727	1510.37
1018.018	1480.31
1018.31	1488
1018.602	1478.28
1018.893	1476.7
1019.185	1435.12
1019.476	1468.56
1019.767	1438.51
1020.058	1425.85
1020.35	1450.94
1020.641	1408.9
1020.932	1408.45
1021.223	1412.75
1021.514	1396.7
1021.804	1353.76
1022.095	1352.86
1022.386	1386.31
1022.677	1383.14
1022.967	1342.24
1023.258	1354.89
1023.548	1323.26
1023.839	1317.61
1024.129	1332.52
1024.419	1292.07
1024.709	1314.67
1025	1278.74
1025.29	1284.61
1025.58	1276.93
1025.87	1261.34
1026.16	1274.44
1026.449	1262.24
1026.739	1255.69
1027.029	1241.9
1027.319	1228.34
1027.608	1245.52
1027.898	1183.82
1028.187	1236.25
1028.477	1190.83
1028.766	1182.92
1029.055	1178.85
1029.344	1172.75
1029.634	1172.75
1029.923	1169.14
1030.212	1156.03
1030.501	1123.49
1030.79	1128.23
1031.078	1129.36
1031.367	1092.98
1031.656	1114.9
1031.945	1104.05
1032.233	1083.26
1032.522	1095.01
1032.81	1069.25
1033.099	1077.84
1033.387	1094.79
1033.675	1074
1033.963	1062.92
1034.251	1039.87
1034.54	1044.85
1034.828	1009.37
1035.116	1045.52
1035.403	1006.65
1035.691	1017.95
1035.979	1038.07
1036.267	985.19
1036.554	1015.69
1036.842	1003.94
1037.129	1001.91
1037.417	973.66
1037.704	981.57
1037.992	965.75
1038.279	951.06
1038.566	921.46
1038.853	921.46
1039.14	921.46
