Data from hue_190_FLMS001491_00061.txt Node
Date: Tue Feb 07 16:45:36 GMT 2017
User: dcchb
Spectrometer: FLMS00149
Trigger mode: 0
Integration Time (sec): 2.000000E-2
Scans to average: 10
Electric dark correction enabled: true
Nonlinearity correction enabled: false
Boxcar width: 0
XAxis mode: Wavelengths
Number of Pixels in Spectrum: 2048
>>>>>Begin Spectral Data<<<<<
341.393	-12.58
341.776	-12.58
342.16	-12.58
342.543	-76.09
342.927	-64.56
343.31	-68.85
343.693	-62.75
344.077	-51.91
344.46	-66.59
344.843	-51.68
345.226	-61.17
345.61	-19.82
345.993	-22.53
346.376	4.82
346.759	3.46
347.142	31.93
347.525	45.04
347.908	47.75
348.291	59.5
348.674	107.64
349.057	105.15
349.44	116.45
349.823	132.72
350.206	156.45
350.588	187.64
350.971	204.59
351.354	216.79
351.737	205.26
352.119	233.96
352.502	250.91
352.884	283.45
353.267	279.16
353.65	282.78
354.032	278.71
354.414	285.94
354.797	320.51
355.179	325.71
355.562	295.43
355.944	316.45
356.326	322.32
356.709	328.65
357.091	334.3
357.473	324.13
357.855	333.62
358.238	343.79
358.62	312.6
359.002	312.6
359.384	333.17
359.766	346.95
360.148	340.85
360.53	323.68
360.912	337.01
361.294	326.84
361.676	341.76
362.057	332.04
362.439	323.9
362.821	311.47
363.203	324.36
363.584	337.24
363.966	326.39
364.348	326.84
364.729	313.96
365.111	333.85
365.493	305.83
365.874	301.98
366.256	310.57
366.637	325.49
367.019	324.36
367.4	327.52
367.781	294.98
368.163	308.76
368.544	317.12
368.925	320.06
369.306	318.71
369.688	297.01
370.069	288.88
370.45	292.94
370.831	318.93
371.212	305.6
371.593	317.8
371.974	294.98
372.355	275.32
372.736	284.13
373.117	306.73
373.498	332.04
373.879	313.96
374.26	300.85
374.641	294.07
375.021	304.02
375.402	308.09
375.783	314.86
376.163	301.76
376.544	313.51
376.925	315.54
377.305	319.38
377.686	343.11
378.066	329.33
378.447	298.37
378.827	303.34
379.208	326.16
379.588	315.09
379.968	322.32
380.349	336.78
380.729	340.85
381.109	337.91
381.489	324.13
381.87	334.3
382.25	314.19
382.63	327.29
383.01	329.55
383.39	319.61
383.77	352.6
384.15	335.88
384.53	332.72
384.91	349.44
385.29	341.08
385.67	347.18
386.049	343.79
386.429	352.83
386.809	340.63
387.189	332.27
387.568	367.52
387.948	358.93
388.328	344.92
388.707	358.71
389.087	345.82
389.466	343.79
389.846	339.04
390.225	347.41
390.605	354.64
390.984	358.93
391.363	368.65
391.743	378.37
392.122	335.43
392.501	372.04
392.881	363.45
393.26	373.85
393.639	364.58
394.018	377.91
394.397	383.56
394.776	367.07
395.155	381.76
395.534	363.22
395.913	367.74
396.292	385.82
396.671	387.41
397.05	392.15
397.429	379.27
397.808	395.77
398.186	415.2
398.565	396.67
398.944	346.73
399.323	408.65
399.701	400.51
400.08	399.83
400.458	422.66
400.837	387.18
401.215	396.9
401.594	429.89
401.972	414.3
402.351	394.18
402.729	404.81
403.107	367.29
403.486	407.07
403.864	412.72
404.242	443.67
404.62	424.01
404.999	414.3
405.377	429.89
405.755	445.03
406.133	435.54
406.511	450.68
406.889	445.93
407.267	440.06
407.645	469.44
408.023	443.22
408.401	471.24
408.779	461.98
409.156	483.45
409.534	493.39
409.912	503.56
410.29	516.22
410.667	516.22
411.045	532.26
411.422	511.24
411.8	521.86
412.178	544.92
412.555	551.02
412.933	564.8
413.31	567.06
413.687	566.61
414.065	572.03
414.442	556.89
414.819	585.37
415.197	601.18
415.574	606.61
415.951	619.49
416.328	639.6
416.705	615.65
417.082	631.69
417.46	636.44
417.837	680.73
418.214	664.01
418.591	662.43
418.967	686.83
419.344	665.14
419.721	729.09
420.098	719.37
420.475	709.66
420.852	734.06
421.228	744.01
421.605	744.91
421.982	758.69
422.358	768.41
422.735	789.88
423.111	789.43
423.488	817.9
423.864	831.69
424.241	850.44
424.617	854.29
424.994	883.66
425.37	872.82
425.746	873.72
426.123	897.67
426.499	901.06
426.875	934.51
427.251	937.22
427.627	964.79
428.003	971.12
428.379	957.79
428.756	995.52
429.132	992.59
429.507	1037.11
429.883	1025.58
430.259	1045.24
430.635	1063.09
431.011	1068.29
431.387	1084.34
431.763	1095.41
432.138	1101.28
432.514	1129.08
432.89	1139.25
433.265	1190.1
433.641	1213.82
434.016	1205.01
434.392	1256.99
434.767	1268.51
435.143	1271.22
435.518	1316.87
435.894	1310.77
436.269	1336.53
436.644	1379.24
437.02	1401.16
437.395	1384.67
437.77	1438.9
438.145	1450.65
438.52	1499.92
438.895	1484.1
439.271	1545.57
439.646	1559.58
440.021	1564.1
440.395	1580.14
440.77	1578.33
441.145	1600.03
441.52	1646.81
441.895	1663.53
442.27	1677.99
442.645	1687.71
443.019	1697.2
443.394	1738.56
443.769	1745.34
444.143	1759.35
444.518	1762.96
444.892	1778.1
445.267	1828.27
445.641	1826.69
446.016	1867.14
446.39	1851.1
446.764	1893.35
447.139	1870.76
447.513	1906.46
447.887	1928.61
448.262	1918.21
448.636	1932
449.01	1969.51
449.384	2007.48
449.758	1980.36
450.132	2053.58
450.506	2053.58
450.88	2047.25
451.254	2053.58
451.628	2107.59
452.002	2151.65
452.376	2134.48
452.75	2157.3
453.123	2166.57
453.497	2224.87
453.871	2213.35
454.244	2279.33
454.618	2298.09
454.992	2312.55
455.365	2333.12
455.739	2404.3
456.112	2419.89
456.486	2437.97
456.859	2435.94
457.232	2491.53
457.606	2483.85
457.979	2511.19
458.352	2599.32
458.725	2616.05
459.099	2636.39
459.472	2668.93
459.845	2688.14
460.218	2730.85
460.591	2743.5
460.964	2778.3
461.337	2824.4
461.71	2893.1
462.083	2925.64
462.456	2908.24
462.829	2929.26
463.201	2992.76
463.574	2997.96
463.947	3055.81
464.32	3115.24
464.692	3127.22
465.065	3136.26
465.438	3258.97
465.81	3249.93
466.183	3290.61
466.555	3369.25
466.928	3379.19
467.3	3403.37
467.672	3462.58
468.045	3557.72
468.417	3535.34
468.789	3578.73
469.161	3626.42
469.534	3709.35
469.906	3772.63
470.278	3792.51
470.65	3829.8
471.022	3922.23
471.394	3969.46
471.766	3981.21
472.138	4053.3
472.51	4142.79
472.882	4202.45
473.253	4291.94
473.625	4388.66
473.997	4408.77
474.369	4420.07
474.74	4487.18
475.112	4569.44
475.484	4637.01
475.855	4764.01
476.227	4805.82
476.598	4924.23
476.97	4933.73
477.341	5065.25
477.713	5183.66
478.084	5148.41
478.455	5312.25
478.827	5349.31
479.198	5540.72
479.569	5520.6
479.94	5721.5
480.311	5709.3
480.682	5857.32
481.053	5991.55
481.424	6070.87
481.795	6134.6
482.166	6230.64
482.537	6341.37
482.908	6479
483.279	6515.83
483.65	6634.47
484.021	6768.48
484.391	6796.28
484.762	6924.86
485.133	6951.98
485.503	7005.99
485.874	7217.51
486.244	7285.3
486.615	7408.01
486.985	7446.43
487.356	7610.27
487.726	7791.05
488.097	7833.76
488.467	7879.19
488.837	8065.85
489.207	8110.37
489.578	8215
489.948	8321.89
490.318	8470.81
490.688	8467.42
491.058	8550.35
491.428	8714.42
491.798	8754.87
492.168	8944.69
492.538	8986.28
492.908	9075.76
493.278	9115.31
493.648	9072.37
494.017	9263.78
494.387	9280.05
494.757	9384.91
495.126	9424.68
495.496	9415.42
495.866	9558.01
496.235	9566.82
496.605	9722.3
496.974	9680.72
497.344	9840.72
497.713	9847.95
498.082	9925.91
498.452	9940.37
498.821	10038.9
499.19	10008.17
499.559	10120.93
499.928	10118.67
500.298	10182.63
500.667	10325.9
501.036	10233.02
501.405	10341.27
501.774	10342.62
502.143	10421.49
502.512	10404.99
502.88	10498.55
503.249	10525.9
503.618	10533.35
503.987	10598.66
504.356	10620.13
504.724	10684.54
505.093	10588.49
505.462	10692.22
505.83	10699.9
506.199	10825.32
506.567	10833.46
506.936	10837.53
507.304	10867.58
507.672	10984.87
508.041	10952.33
508.409	10977.41
508.777	11099.67
509.145	11081.36
509.514	11033.9
509.882	11097.18
510.25	11114.81
510.618	11130.63
510.986	11080.01
511.354	11176.73
511.722	11170.4
512.09	11388.92
512.458	11262.37
512.826	11283.16
513.193	11276.84
513.561	11219.89
513.929	11390.96
514.297	11377.85
514.664	11421.47
515.032	11435.93
515.4	11496.04
515.767	11446.55
516.135	11468.7
516.502	11294.69
516.869	11498.07
517.237	11488.81
517.604	11356.16
517.972	11495.14
518.339	11484.97
518.706	11431.63
519.073	11442.48
519.44	11489.03
519.808	11559.54
520.175	11509.6
520.542	11544.4
520.909	11572.42
521.276	11538.75
521.643	11475.02
522.009	11590.95
522.376	11608.13
522.743	11585.75
523.11	11647.9
523.477	11651.06
523.843	11628.01
524.21	11627.11
524.577	11758.18
524.943	11661.23
525.31	11760.44
525.676	11707.33
526.043	11636.6
526.409	11704.85
526.776	11735.36
527.142	11661.01
527.508	11666.66
527.874	11758.86
528.241	11684.96
528.607	11604.51
528.973	11737.39
529.339	11665.07
529.705	11658.3
530.071	11694.23
530.437	11609.03
530.803	11603.83
531.169	11635.47
531.535	11517.51
531.901	11545.3
532.267	11471.86
532.632	11462.82
532.998	11458.07
533.364	11472.31
533.73	11421.01
534.095	11395.25
534.461	11389.15
534.826	11343.5
535.192	11230.51
535.557	11309.38
535.923	11221.47
536.288	11150.06
536.653	11111.42
537.019	11062.6
537.384	11062.83
537.749	11043.85
538.114	10979.44
538.479	10893.34
538.845	10900.8
539.21	10806.57
539.575	10779.67
539.94	10698.77
540.305	10712.56
540.67	10683.18
541.034	10599.11
541.399	10539.45
541.764	10510.3
542.129	10471.66
542.494	10453.13
542.858	10389.63
543.223	10368.39
543.587	10309.63
543.952	10219.46
544.316	10217.66
544.681	10114.61
545.045	10105.34
545.41	10120.93
545.774	9998.23
546.138	9946.02
546.503	9924.33
546.867	9855.4
547.231	9812.92
547.595	9774.05
547.959	9727.27
548.324	9722.3
548.688	9708.97
549.052	9651.12
549.416	9573.6
549.779	9501.06
550.143	9459.71
550.507	9493.61
550.871	9429.43
551.235	9270.56
551.599	9341.97
551.962	9263.78
552.326	9172.48
552.689	9220.85
553.053	9112.83
553.417	9090.91
553.78	9114.63
554.143	8951.47
554.507	9021.3
554.87	8996.44
555.234	9023.34
555.597	8851.59
555.96	8817.69
556.323	8908.54
556.686	8810.69
557.05	8759.39
557.413	8760.52
557.776	8708.54
558.139	8747.64
558.502	8669.22
558.865	8587.64
559.228	8665.38
559.59	8654.53
559.953	8584.03
560.316	8600.07
560.679	8587.42
561.041	8559.85
561.404	8529.79
561.767	8531.37
562.129	8509.68
562.492	8518.26
562.854	8492.28
563.217	8465.84
563.579	8443.46
563.941	8470.58
564.304	8435.1
564.666	8439.85
565.028	8391.71
565.39	8446.18
565.753	8425.16
566.115	8374.99
566.477	8448.66
566.839	8431.71
567.201	8440.07
567.563	8362.11
567.925	8398.04
568.287	8406.86
568.648	8415.44
569.01	8425.84
569.372	8390.13
569.734	8378.16
570.095	8377.25
570.457	8432.17
570.819	8365.27
571.18	8412.05
571.542	8374.31
571.903	8393.52
572.265	8332.05
572.626	8350.59
572.987	8294.32
573.349	8330.02
573.71	8405.95
574.071	8350.13
574.432	8353.98
574.794	8427.19
575.155	8395.33
575.516	8299.29
575.877	8316.01
576.238	8293.86
576.599	8376.8
576.96	8340.42
577.32	8398.49
577.681	8363.01
578.042	8283.92
578.403	8326.63
578.763	8330.47
579.124	8290.93
579.485	8311.26
579.845	8317.82
580.206	8254.77
580.566	8307.87
580.927	8276.69
581.287	8283.47
581.648	8323.69
582.008	8279.4
582.368	8248.89
582.728	8249.35
583.089	8239.85
583.449	8252.51
583.809	8268.78
584.169	8223.36
584.529	8184.04
584.889	8252.51
585.249	8207.99
585.609	8158.27
585.969	8182.45
586.329	8144.04
586.688	8157.14
587.048	8171.83
587.408	8092.51
587.768	8139.07
588.127	8092.06
588.487	8091.84
588.846	8232.17
589.206	8043.02
589.565	8021.1
589.925	8116.92
590.284	8089.58
590.643	8068.79
591.003	8087.77
591.362	8101.55
591.721	8043.7
592.08	8088.67
592.44	8064.27
592.799	8044.15
593.158	8021.55
593.517	8017.03
593.876	8046.86
594.235	8005.96
594.593	7986.53
594.952	7980.2
595.311	7960.54
595.67	7973.19
596.029	8018.16
596.387	7954.89
596.746	7944.72
597.104	7947.21
597.463	7918.73
597.822	7963.7
598.18	7921.67
598.538	7916.47
598.897	7936.36
599.255	7813.42
599.613	7973.87
599.972	7927.09
600.33	7859.52
600.688	7899.98
601.046	7904.72
601.404	7917.38
601.762	7922.12
602.12	7920.54
602.478	7914.21
602.836	7899.75
603.194	7840.09
603.552	7859.07
603.91	7850.71
604.268	7925.51
604.625	7816.36
604.983	7864.27
605.341	7799.19
605.698	7849.81
606.056	7826.53
606.413	7841.67
606.771	7859.07
607.128	7797.61
607.485	7801.45
607.843	7877.6
608.2	7867.43
608.557	7894.78
608.914	7842.35
609.272	7901.78
609.629	7871.05
609.986	7876.93
610.343	7895.46
610.7	7860.43
611.057	7945.62
611.414	7933.42
611.771	7943.14
612.127	7986.75
612.484	7920.54
612.841	7950.14
613.198	7859.98
613.554	7892.29
613.911	7946.75
614.267	7934.33
614.624	7954.89
614.98	7936.59
615.337	7970.03
615.693	7993.98
616.05	7922.35
616.406	7959.41
616.762	7946.98
617.118	7949.24
617.475	7906.98
617.831	7953.08
618.187	7928.9
618.543	7950.82
618.899	7991.72
619.255	8023.36
619.611	7966.87
619.967	7991.72
620.323	7997.83
620.678	7991.95
621.034	7971.61
621.39	7933.65
621.746	7928.68
622.101	8050.25
622.457	7973.42
622.812	8022.68
623.168	7966.41
623.523	7996.02
623.879	8010.93
624.234	7950.82
624.589	7975.91
624.945	7997.83
625.3	8003.48
625.655	7963.03
626.01	8011.61
626.365	8000.76
626.72	7970.26
627.075	7996.7
627.43	7886.19
627.785	7987.21
628.14	7991.95
628.495	7947.21
628.85	7902.46
629.205	7929.81
629.559	7944.72
629.914	7928
630.269	7946.08
630.623	7899.98
630.978	7911.5
631.332	7905.4
631.687	7879.19
632.041	7882.58
632.396	7898.85
632.75	7877.38
633.104	7806.19
633.459	7869.02
633.813	7800.32
634.167	7827.21
634.521	7759.41
634.875	7859.3
635.229	7674.67
635.583	7749.25
635.937	7798.06
636.291	7735.01
636.645	7745.63
636.999	7695.01
637.352	7704.05
637.706	7713.54
638.06	7707.89
638.413	7731.39
638.767	7680.09
639.121	7633.32
639.474	7676.7
639.828	7654.56
640.181	7659.76
640.534	7613.43
640.888	7614.79
641.241	7642.81
641.594	7613.66
641.947	7651.62
642.301	7688.68
642.654	7571.62
643.007	7638.51
643.36	7640.77
643.713	7563.94
644.066	7638.51
644.419	7560.1
644.771	7551.06
645.124	7433.32
645.477	7425.41
645.83	7378.18
646.182	7370.05
646.535	7340.44
646.888	7368.01
647.24	7341.8
647.593	7388.58
647.945	7361.46
648.298	7343.15
648.65	7326.88
649.002	7284.17
649.355	7295.47
649.707	7314
650.059	7361.01
650.411	7456.6
650.763	7422.7
651.115	7499.99
651.467	7571.85
651.819	7526.2
652.171	7522.81
652.523	7529.59
652.875	7520.78
653.227	7425.86
653.578	7494.79
653.93	7465.64
654.282	7469.25
654.633	7464.51
654.985	7469.93
655.337	7528.23
655.688	7526.88
656.039	7602.58
656.391	7477.16
656.742	7518.52
657.094	7533.21
657.445	7523.26
657.796	7511.29
658.147	7461.8
658.498	7492.98
658.849	7604.62
659.2	7514.45
659.551	7510.83
659.902	7519.65
660.253	7513.77
660.604	7586.76
660.955	7540.89
661.306	7616.59
661.656	7567.33
662.007	7568.69
662.358	7599.42
662.708	7535.01
663.059	7564.84
663.409	7497.73
663.76	7605.97
664.11	7572.75
664.461	7603.26
664.811	7654.33
665.161	7619.76
665.511	7567.33
665.862	7605.29
666.212	7650.49
666.562	7631.28
666.912	7621.79
667.262	7624.95
667.612	7643.26
667.962	7608.23
668.312	7605.75
668.662	7672.64
669.011	7592.87
669.361	7578.63
669.711	7602.36
670.06	7580.89
670.41	7580.66
670.76	7557.61
671.109	7615.24
671.459	7611.62
671.808	7576.59
672.157	7599.19
672.507	7553.77
672.856	7523.94
673.205	7624.95
673.554	7527.78
673.904	7514.9
674.253	7542.25
674.602	7481.23
674.951	7423.83
675.3	7363.72
675.649	7491.85
675.998	7456.82
676.346	7471.96
676.695	7537.95
677.044	7490.95
677.393	7444.62
677.741	7462.7
678.09	7471.29
678.438	7452.53
678.787	7451.17
679.135	7468.57
679.484	7449.82
679.832	7446.43
680.181	7362.14
680.529	7412.98
680.877	7375.7
681.225	7309.48
681.573	7377.05
681.922	7306.55
682.27	7268.58
682.618	7296.38
682.966	7266.32
683.314	7327.56
683.661	7258.64
684.009	7222.25
684.357	7226.55
684.705	7257.51
685.053	7186.1
685.4	7170.73
685.748	7157.17
686.095	7183.84
686.443	7085.76
686.79	7114.46
687.138	7042.6
687.485	7135.48
687.832	7078.53
688.18	7110.17
688.527	6978.19
688.874	6989.94
689.221	7008.93
689.568	6938.19
689.915	6969.6
690.262	6970.06
690.609	6905.2
690.956	6848.93
691.303	6828.14
691.65	6787.01
691.997	6835.82
692.344	6790.63
692.69	6790.85
693.037	6808.25
693.383	6686.9
693.73	6682.83
694.077	6655.71
694.423	6649.61
694.769	6653.23
695.116	6657.07
695.462	6572.33
695.808	6528.03
696.155	6545.89
696.501	6526
696.847	6501.59
697.193	6404.65
697.539	6497.53
697.885	6417.08
698.231	6417.53
698.577	6448.26
698.923	6354.71
699.269	6307.48
699.614	6246.23
699.96	6301.37
700.306	6297.08
700.651	6199.23
700.997	6220.25
701.342	6194.26
701.688	6170.08
702.033	6145.22
702.379	6172.34
702.724	6090.76
703.069	6156.29
703.415	6051.89
703.76	5974.6
704.105	6036.75
704.45	5994.26
704.795	5986.13
705.14	5941.16
705.485	5939.8
705.83	5930.99
706.175	5912.23
706.52	5937.99
706.865	5841.5
707.209	5878.33
707.554	5826.36
707.899	5804.66
708.243	5768.51
708.588	5787.72
708.932	5773.7
709.277	5741.61
709.621	5743.65
709.966	5700.94
710.31	5715.85
710.654	5648.51
710.998	5645.35
711.342	5683.54
711.687	5623.65
712.031	5659.81
712.375	5638.57
712.719	5659.81
713.063	5658.9
713.407	5637.89
713.75	5570.55
714.094	5535.29
714.438	5545.24
714.782	5566.48
715.125	5553.82
715.469	5579.36
715.812	5532.13
716.156	5507.95
716.499	5493.94
716.843	5554.05
717.186	5495.29
717.53	5472.47
717.873	5546.14
718.216	5465.46
718.559	5467.5
718.902	5372.81
719.246	5459.36
719.589	5411.45
719.932	5390.44
720.275	5392.02
720.617	5439.93
720.96	5399.48
721.303	5429.76
721.646	5433.37
721.989	5393.38
722.331	5387.95
722.674	5354.51
723.016	5395.86
723.359	5354.51
723.701	5383.21
724.044	5372.58
724.386	5341.63
724.729	5346.37
725.071	5372.36
725.413	5322.64
725.755	5368.97
726.097	5292.13
726.439	5300.95
726.782	5304.56
727.124	5320.16
727.465	5317.44
727.807	5335.98
728.149	5278.58
728.491	5308.86
728.833	5308.18
729.175	5298.24
729.516	5255.3
729.858	5303.21
730.199	5309.99
730.541	5298.69
730.882	5266.37
731.224	5351.57
731.565	5319.48
731.906	5345.69
732.248	5286.03
732.589	5235.41
732.93	5255.98
733.271	5278.58
733.612	5322.19
733.953	5341.85
734.294	5288.75
734.635	5314.28
734.976	5318.57
735.317	5327.16
735.658	5372.58
735.999	5342.75
736.339	5328.07
736.68	5377.78
737.021	5392.7
737.361	5368.52
737.702	5383.43
738.042	5416.88
738.383	5381.85
738.723	5395.63
739.063	5384.79
739.404	5413.94
739.744	5458.46
740.084	5412.81
740.424	5478.12
740.764	5442.87
741.104	5506.37
741.444	5412.36
741.784	5439.25
742.124	5498.01
742.464	5496.2
742.804	5518.57
743.143	5553.82
743.483	5595.18
743.823	5630.21
744.162	5561.28
744.502	5682.86
744.841	5640.83
745.181	5721.28
745.52	5772.35
745.86	5706.36
746.199	5792.01
746.538	5793.36
746.877	5887.37
747.216	5919.91
747.556	5920.37
747.895	6046.01
748.234	5988.39
748.573	6060.48
748.911	6183.64
749.25	6201.94
749.589	6270.87
749.928	6336.4
750.267	6434.93
750.605	6426.79
750.944	6569.84
751.283	6579.78
751.621	6694.81
751.96	6735.71
752.298	6820
752.636	6954.01
752.975	7041.69
753.313	7041.69
753.651	7237.62
753.989	7301.35
754.327	7425.64
754.666	7519.42
755.004	7631.96
755.342	7849.81
755.679	7958.96
756.017	8033.76
756.355	8234.2
756.693	8291.6
757.031	8538.38
757.368	8599.62
757.706	8747.19
758.044	8872.15
758.381	9066.27
758.719	9199.15
759.056	9370.22
759.394	9524.34
759.731	9651.12
760.068	9813.82
760.405	9945.12
760.743	10111.67
761.08	10300.59
761.417	10472.34
761.754	10719.11
762.091	10921.14
762.428	11041.36
762.765	11146.22
763.102	11452.2
763.438	11552.31
763.775	11684.51
764.112	11931.96
764.449	12132.86
764.785	12323.14
765.122	12431.83
765.458	12620.98
765.795	12801.32
766.131	12943.91
766.467	13085.83
766.804	13212.15
767.14	13308.65
767.476	13590.9
767.812	13671.58
768.148	13851.46
768.485	13929.2
768.821	14095.75
769.157	14267.72
769.492	14372.57
769.828	14545.22
770.164	14579.57
770.5	14805.11
770.836	14943.18
771.171	14948.38
771.507	15076.06
771.842	15149.28
772.178	15289.16
772.513	15413.45
772.849	15437.4
773.184	15616.84
773.519	15662.94
773.855	15828.58
774.19	15842.82
774.525	15870.39
774.86	16039.2
775.195	16110.16
775.53	16147.89
775.865	16214.56
776.2	16105.64
776.535	16196.25
776.87	16336.36
777.205	16407.1
777.539	16487.32
777.874	16523.93
778.209	16475.8
778.543	16589.92
778.878	16496.13
779.212	16670.82
779.547	16676.24
779.881	16778.16
780.215	16720.31
780.55	16903.58
780.884	16709.69
781.218	16771.83
781.552	16917.59
781.886	16812.28
782.22	16818.16
782.554	16871.27
782.888	16784.71
783.222	16818.16
783.556	16672.17
783.889	16803.7
784.223	16714.89
784.557	16773.87
784.89	16822.23
785.224	16828.55
785.557	16823.13
785.891	16759.86
786.224	16782.23
786.558	16859.06
786.891	16743.13
787.224	16704.26
787.557	16752.4
787.891	16780.19
788.224	16756.01
788.557	16812.74
788.89	16713.3
789.223	16849.35
789.556	16697.26
789.888	16697.26
790.221	16689.35
790.554	16588.56
790.887	16652.06
791.219	16522.12
791.552	16478.51
791.884	16476.02
792.217	16562.8
792.549	16439.64
792.882	16406.42
793.214	16296.14
793.546	16534.1
793.879	16332.07
794.211	16337.27
794.543	16374.56
794.875	16259.08
795.207	16349.92
795.539	16302.24
795.871	16317.16
796.203	16114.45
796.535	16047.33
796.867	16169.81
797.198	16101.57
797.53	15993.32
797.862	16060.89
798.193	16092.75
798.525	15912.87
798.856	15952.42
799.188	15880.11
799.519	15726.66
799.85	15810.73
800.182	15745.19
800.513	15768.7
800.844	15603.73
801.175	15747.68
801.506	15687.79
801.837	15651.18
802.168	15616.61
802.499	15547.23
802.83	15563.5
803.161	15415.48
803.491	15506.1
803.822	15514.24
804.153	15422.94
804.483	15338.2
804.814	15387.01
805.145	15321.25
805.475	15264.08
805.805	15275.15
806.136	15224.53
806.466	15152.89
806.796	15190.18
807.126	15015.5
807.457	15081.48
807.787	15088.04
808.117	15022.95
808.447	14999.68
808.777	15021.6
809.107	14951.99
809.436	14904.09
809.766	14912.67
810.096	14863.86
810.426	14687.14
810.755	14766.24
811.085	14783.86
811.414	14738.89
811.744	14672
812.073	14654.83
812.403	14621.61
812.732	14547.48
813.061	14465.45
813.39	14467.94
813.719	14512.23
814.049	14534.83
814.378	14460.48
814.707	14415.06
815.036	14431.78
815.365	14332.12
815.693	14270.88
816.022	14292.58
816.351	14209.87
816.68	14197.89
817.008	14156.53
817.337	14119.02
817.665	14045.35
817.994	14148.4
818.322	14052.58
818.651	14084.45
818.979	13993.15
819.307	14056.88
819.636	14067.72
819.964	13989.99
820.292	14006.48
820.62	13990.66
820.948	13920.16
821.276	13966.94
821.604	13951.57
821.932	14006.48
822.259	13961.74
822.587	13968.06
822.915	14001.51
823.243	14008.29
823.57	13927.61
823.898	13937.11
824.225	13874.96
824.553	13906.15
824.88	13875.19
825.207	13979.82
825.535	13916.99
825.862	13953.83
826.189	13862.98
826.516	14043.77
826.843	14065.69
827.17	14029.08
827.497	14057.33
827.824	13948.86
828.151	14018.91
828.478	13996.31
828.805	14097.55
829.131	14011
829.458	13962.87
829.785	13952.47
830.111	13963.09
830.438	14048.51
830.764	14031.11
831.09	14093.49
831.417	13975.75
831.743	14051
832.069	13967.16
832.395	13923.77
832.722	14063.43
833.048	13946.37
833.374	13978.69
833.7	13885.13
834.026	13928.52
834.351	14004.45
834.677	13888.52
835.003	13969.65
835.329	13851.68
835.654	13849.2
835.98	13789.99
836.306	13798.35
836.631	13815.3
836.956	13856.88
837.282	13842.42
837.607	13730.56
837.932	13776.43
838.258	13803.32
838.583	13721.29
838.908	13612.82
839.233	13640.16
839.558	13657.56
839.883	13603.55
840.208	13615.08
840.533	13608.07
840.858	13526.72
841.182	13594.06
841.507	13542.31
841.832	13456.67
842.156	13466.84
842.481	13368.31
842.805	13369.66
843.13	13478.36
843.454	13294.64
843.778	13259.38
844.103	13273.39
844.427	13233.85
844.751	13243.79
845.075	13195.2
845.399	13154.75
845.723	13068.43
846.047	13034.76
846.371	12974.19
846.695	12986.85
847.019	12828.43
847.343	12828.89
847.666	12771.94
847.99	12737.81
848.313	12728.1
848.637	12693.3
848.96	12582.79
849.284	12551.83
849.607	12408.33
849.931	12448.33
850.254	12365.17
850.577	12373.53
850.9	12263.7
851.223	12195.68
851.546	12213.31
851.869	12107.1
852.192	12267.32
852.515	12030.04
852.838	12075.69
853.161	11985.74
853.483	11919.53
853.806	11886.54
854.129	11834.11
854.451	11750.5
854.774	11776.26
855.096	11742.36
855.419	11713.66
855.741	11671.63
856.063	11621.01
856.385	11621.46
856.708	11522.25
857.03	11489.71
857.352	11505.76
857.674	11445.19
857.996	11346.44
858.318	11330.39
858.64	11385.76
858.961	11300.34
859.283	11316.16
859.605	11219.89
859.926	11308.47
860.248	11238.65
860.57	11189.15
860.891	11171.08
861.212	11176.95
861.534	11049.72
861.855	11110.74
862.176	11077.75
862.498	11041.36
862.819	11045.88
863.14	10959.56
863.461	11009.05
863.782	10893.57
864.103	11038.65
864.424	10848.6
864.745	10922.95
865.065	10783.52
865.386	10763.63
865.707	10810.86
866.027	10798.88
866.348	10762.95
866.668	10830.52
866.989	10708.04
867.309	10697.42
867.63	10726.57
867.95	10702.61
868.27	10615.16
868.59	10757.53
868.91	10668.04
869.23	10551.43
869.55	10561.83
869.87	10607.48
870.19	10590.3
870.51	10613.35
870.83	10551.21
871.15	10515.05
871.469	10570.19
871.789	10596.4
872.109	10535.61
872.428	10501.04
872.748	10474.82
873.067	10431.43
873.386	10424.88
873.706	10458.78
874.025	10416.52
874.344	10357.76
874.663	10384.43
874.982	10384.88
875.301	10346.47
875.62	10313.7
875.939	10315.51
876.258	10356.41
876.577	10207.71
876.896	10233.02
877.214	10222.63
877.533	10198.67
877.852	10278.44
878.17	10127.94
878.489	10292
878.807	10181.95
879.125	10166.36
879.444	10200.93
879.762	10044.55
880.08	10103.08
880.398	9991.45
880.716	10056.08
881.034	10003.42
881.352	10032.12
881.67	9928.62
881.988	9998.45
882.306	9899.47
882.624	9922.3
882.941	9885.69
883.259	9795.97
883.577	9835.52
883.894	9797.55
884.212	9806.37
884.529	9766.59
884.846	9781.73
885.164	9671.45
885.481	9625.35
885.798	9686.37
886.115	9666.71
886.432	9623.09
886.75	9606.15
887.067	9570.89
887.383	9594.62
887.7	9573.38
888.017	9562.53
888.334	9492.25
888.651	9449.31
888.967	9482.76
889.284	9406.15
889.6	9424.46
889.917	9309.88
890.233	9361.63
890.55	9314.18
890.866	9273.05
891.182	9260.84
891.498	9228.08
891.815	9202.54
892.131	9197.34
892.447	9087.97
892.763	9172.71
893.079	9097.01
893.395	9037.57
893.71	8964.13
894.026	8951.7
894.342	9020.4
894.657	8895.43
894.973	8920.29
895.289	8936.11
895.604	8892.27
895.92	8790.12
896.235	8796.9
896.55	8835.54
896.865	8786.05
897.181	8697.92
897.496	8702.21
897.811	8678.03
898.126	8630.35
898.441	8604.82
898.756	8607.3
899.071	8440.3
899.386	8532.73
899.7	8478.94
900.015	8357.82
900.33	8355.78
900.644	8354.43
900.959	8382
901.273	8300.42
901.588	8272.85
901.902	8267.2
902.216	8151.95
902.531	8233.53
902.845	8193.3
903.159	8158.05
903.473	8096.35
903.787	8097.48
904.101	8066.75
904.415	8064.94
904.729	8011.61
905.042	7911.05
905.356	7913.76
905.67	7863.14
905.984	7819.75
906.297	7832.86
906.611	7829.47
906.924	7771.84
907.237	7754.67
907.551	7742.01
907.864	7681
908.177	7717.16
908.491	7596.03
908.804	7604.84
909.117	7546.76
909.43	7518.97
909.743	7490.72
910.056	7490.72
910.368	7446.88
910.681	7438.97
910.994	7366.2
911.307	7346.54
911.619	7281.24
911.932	7290.95
912.244	7193.33
912.557	7276.04
912.869	7202.14
913.181	7194.01
913.494	7120.11
913.806	7117.62
914.118	7066.55
914.43	7024.74
914.742	7065.2
915.054	6918.76
915.366	7013.67
915.678	6908.14
915.99	6930.51
916.302	6924.41
916.613	6826.33
916.925	6804.86
917.236	6807.8
917.548	6782.04
917.859	6772.1
918.171	6677.86
918.482	6653
918.794	6693
919.105	6622.72
919.416	6574.14
919.727	6561.48
920.038	6555.15
920.349	6535.94
920.66	6488.94
920.971	6467.7
921.282	6449.62
921.593	6373.24
921.903	6394.03
922.214	6389.28
922.525	6363.52
922.835	6295.05
923.146	6250.53
923.456	6244.43
923.767	6204.2
924.077	6225.9
924.387	6177.08
924.697	6133.47
925.008	6149.74
925.318	6073.36
925.628	6082.17
925.938	6103.41
926.248	6025
926.558	6016.18
926.867	5960.37
927.177	5976.18
927.487	5963.98
927.796	5865.91
928.106	5937.99
928.416	5849.86
928.725	5820.93
929.034	5819.35
929.344	5778.22
929.653	5833.14
929.962	5730.54
930.271	5702.75
930.581	5680.83
930.89	5659.81
931.199	5622.52
931.508	5637.66
931.817	5615.06
932.125	5576.65
932.434	5547.27
932.743	5542.75
933.051	5472.02
933.36	5506.82
933.669	5465.92
933.977	5445.35
934.286	5426.14
934.594	5438.12
934.902	5379.14
935.21	5384.56
935.519	5306.82
935.827	5327.61
936.135	5259.37
936.443	5272.7
936.751	5216.43
937.059	5246.94
937.367	5202.19
937.674	5232.7
937.982	5188.41
938.29	5101.18
938.597	5131.69
938.905	5070.9
939.213	5113.16
939.52	5031.8
939.827	5071.35
940.135	5002.65
940.442	4964.91
940.749	4968.08
941.056	4965.59
941.363	4938.02
941.67	4938.02
941.977	4828.87
942.284	4864.8
942.591	4913.39
942.898	4821.19
943.205	4836.78
943.511	4799.04
943.818	4790.68
944.125	4752.49
944.431	4753.39
944.738	4710.23
945.044	4707.07
945.35	4684.92
945.657	4636.78
945.963	4592.72
946.269	4589.33
946.575	4619.61
946.881	4568.31
947.187	4587.52
947.493	4533.51
947.799	4519.73
948.105	4486.96
948.41	4461.2
948.716	4452.61
949.022	4456
949.327	4423.68
949.633	4382.78
949.938	4400.86
950.244	4365.15
950.549	4338.71
950.854	4332.39
951.16	4283.35
951.465	4311.37
951.77	4252.84
952.075	4225.27
952.38	4220.3
952.685	4236.8
952.99	4190.92
953.294	4165.84
953.599	4154.09
953.904	4185.27
954.209	4112.28
954.513	4139.4
954.818	4082
955.122	4103.92
955.426	4093.3
955.731	4005.16
956.035	3985.95
956.339	4021.43
956.643	4005.84
956.948	3964.49
957.252	3972.62
957.556	3941.44
957.86	3957.48
958.163	3913.41
958.467	3833.19
958.771	3857.37
959.075	3823.47
959.378	3803.13
959.682	3820.08
959.985	3834.32
960.289	3795.68
960.592	3770.59
960.896	3744.38
961.199	3776.92
961.502	3747.09
961.805	3708.67
962.108	3654.21
962.411	3698.5
962.714	3670.48
963.017	3701.67
963.32	3611.5
963.623	3590.71
963.926	3610.82
964.228	3609.69
964.531	3555.91
964.833	3556.59
965.136	3525.63
965.438	3516.14
965.741	3485.18
966.043	3464.16
966.345	3461.45
966.648	3437.27
966.95	3456.93
967.252	3401.34
967.554	3390.72
967.856	3385.52
968.158	3400.21
968.46	3382.58
968.761	3376.03
969.063	3333.09
969.365	3314.56
969.666	3294
969.968	3288.35
970.269	3246.31
970.571	3293.09
970.872	3259.65
971.174	3192.3
971.475	3211.74
971.776	3209.93
972.077	3245.18
972.378	3183.72
972.679	3153.89
972.98	3209.93
973.281	3125.41
973.582	3138.97
973.883	3129.93
974.183	3126.32
974.484	3085.19
974.785	3093.1
975.085	3085.19
975.386	3051.74
975.686	3015.81
975.986	3030.73
976.287	3024.85
976.587	2981.69
976.887	3000.67
977.187	2961.8
977.487	2942.59
977.787	2934.46
978.087	2924.29
978.387	2927.9
978.687	2894.91
978.987	2904.85
979.286	2909.82
979.586	2875.48
979.885	2854.23
980.185	2864.63
980.484	2845.19
980.784	2782.82
981.083	2826.21
981.382	2791.64
981.682	2767.91
981.981	2797.29
982.28	2757.96
982.579	2732.88
982.878	2738.76
983.177	2754.12
983.475	2723.84
983.774	2662.37
984.073	2661.47
984.372	2630.74
984.67	2653.11
984.969	2661.47
985.267	2625.31
985.566	2621.92
985.864	2615.6
986.162	2620.57
986.461	2565.88
986.759	2578.53
987.057	2540.57
987.355	2536.5
987.653	2544.64
987.951	2546.67
988.249	2492.66
988.547	2519.33
988.844	2513.68
989.142	2465.32
989.44	2487.01
989.737	2465.77
990.035	2482.72
990.332	2394.58
990.63	2434.81
990.927	2397.75
991.224	2390.29
991.521	2382.38
991.819	2398.2
992.116	2338.54
992.413	2374.02
992.71	2348.71
993.006	2351.65
993.303	2351.2
993.6	2317.3
993.897	2302.38
994.193	2299.67
994.49	2280.91
994.787	2247.24
995.083	2239.56
995.379	2250.86
995.676	2257.86
995.972	2181.03
996.268	2225.1
996.565	2216.74
996.861	2209.05
997.157	2209.96
997.453	2171.31
997.749	2185.1
998.044	2170.86
998.34	2158.66
998.636	2134.93
998.932	2121.82
999.227	2111.43
999.523	2106.23
999.818	2108.26
1000.114	2076.17
1000.409	2052.45
1000.704	2049.28
1001	2034.14
1001.295	2008.15
1001.59	2053.8
1001.885	2012
1002.18	1985.78
1002.475	1971.32
1002.77	1976.06
1003.065	1977.42
1003.359	1954.82
1003.654	1926.12
1003.949	1927.48
1004.243	1950.3
1004.538	1889.96
1004.832	1928.61
1005.127	1888.38
1005.421	1868.27
1005.715	1871.89
1006.009	1872.79
1006.304	1870.76
1006.598	1857.2
1006.892	1844.09
1007.186	1808.61
1007.48	1810.64
1007.773	1806.12
1008.067	1783.53
1008.361	1786.24
1008.655	1762.51
1008.948	1743.08
1009.242	1756.63
1009.535	1760.25
1009.829	1722.74
1010.122	1707.82
1010.415	1715.51
1010.708	1699.46
1011.001	1707.14
1011.295	1693.36
1011.588	1689.52
1011.881	1647.94
1012.173	1674.83
1012.466	1643.19
1012.759	1661.27
1013.052	1621.04
1013.344	1630.54
1013.637	1630.99
1013.93	1605
1014.222	1597.32
1014.514	1537.43
1014.807	1590.99
1015.099	1538.79
1015.391	1565.91
1015.683	1557.32
1015.976	1524.55
1016.268	1513.25
1016.56	1521.39
1016.851	1484.78
1017.143	1488.62
1017.435	1498.56
1017.727	1471.67
1018.018	1462.18
1018.31	1446.81
1018.602	1454.5
1018.893	1448.39
1019.185	1450.2
1019.476	1412.91
1019.767	1424.67
1020.058	1422.41
1020.35	1380.6
1020.641	1409.53
1020.932	1386.25
1021.223	1340.15
1021.514	1383.31
1021.804	1354.61
1022.095	1372.01
1022.386	1362.97
1022.677	1297.44
1022.967	1304.22
1023.258	1312.13
1023.548	1294.27
1023.839	1292.47
1024.129	1281.39
1024.419	1259.92
1024.709	1247.72
1025	1266.03
1025.29	1269.42
1025.58	1259.92
1025.87	1211.34
1026.16	1235.97
1026.449	1219.7
1026.739	1178.57
1027.029	1185.35
1027.319	1207.72
1027.608	1177.67
1027.898	1188.29
1028.187	1173.83
1028.477	1143.77
1028.766	1162.98
1029.055	1137.89
1029.344	1159.36
1029.634	1160.04
1029.923	1126.82
1030.212	1144.9
1030.501	1118.69
1030.79	1109.19
1031.078	1108.74
1031.367	1121.85
1031.656	1087.5
1031.945	1064.9
1032.233	1076.2
1032.522	1069.87
1032.81	1038.69
1033.099	1057.44
1033.387	1039.14
1033.675	1048.86
1033.963	1048.63
1034.251	1032.59
1034.54	1014.73
1034.828	993.94
1035.116	994.85
1035.403	978.8
1035.691	994.62
1035.979	972.93
1036.267	976.99
1036.554	941.51
1036.842	969.31
1037.129	962.76
1037.417	940.16
1037.704	964.11
1037.992	968.63
1038.279	960.5
1038.566	926.15
1038.853	926.15
1039.14	926.15
