Data from hue_30_FLMS001491_43.txt Node
Date: Mon Feb 06 15:05:22 GMT 2017
User: dcchb
Spectrometer: FLMS00149
Trigger mode: 0
Integration Time (sec): 2.000000E-2
Scans to average: 10
Electric dark correction enabled: true
Nonlinearity correction enabled: false
Boxcar width: 0
XAxis mode: Wavelengths
Number of Pixels in Spectrum: 2048
>>>>>Begin Spectral Data<<<<<
341.393	5.45
341.776	5.45
342.16	5.45
342.543	-49.24
342.927	-51.27
343.31	-57.37
343.693	-68.44
344.077	-81.33
344.46	-55.79
344.843	-45.39
345.226	-59.18
345.61	-28.22
345.993	-24.15
346.376	4.1
346.759	26.24
347.142	31.44
347.525	36.64
347.908	60.14
348.291	66.69
348.674	85.68
349.057	108.95
349.44	132.91
349.823	160.93
350.206	154.6
350.588	188.95
350.971	205.9
351.354	212
351.737	242.51
352.119	258.1
352.502	262.17
352.884	281.15
353.267	280.47
353.65	298.55
354.032	299.91
354.414	293.58
354.797	306.69
355.179	317.31
355.562	319.79
355.944	300.81
356.326	337.42
356.709	331.54
357.091	356.63
357.473	351.43
357.855	347.14
358.238	349.4
358.62	350.08
359.002	332.9
359.384	336.29
359.766	361.83
360.148	335.84
360.53	342.62
360.912	342.39
361.294	351.21
361.676	341.71
362.057	327.25
362.439	357.08
362.821	327.03
363.203	325.22
363.584	326.35
363.966	341.49
364.348	325.67
364.729	332.67
365.111	330.64
365.493	315.05
365.874	299.91
366.256	335.84
366.637	339.68
367.019	313.47
367.4	316.86
367.781	336.52
368.163	325.67
368.544	320.47
368.925	322.96
369.306	327.48
369.688	311.66
370.069	306.23
370.45	324.54
370.831	320.7
371.212	338.1
371.593	304.65
371.974	319.34
372.355	322.51
372.736	310.3
373.117	319.34
373.498	329.29
373.879	317.76
374.26	311.43
374.641	330.87
375.021	322.73
375.402	336.97
375.783	324.31
376.163	335.16
376.544	341.94
376.925	332.45
377.305	307.59
377.686	325.22
378.066	327.25
378.447	333.8
378.827	331.32
379.208	346.46
379.588	330.42
379.968	341.49
380.349	346.91
380.729	326.8
381.109	333.58
381.489	320.7
381.87	331.54
382.25	350.3
382.63	327.25
383.01	331.32
383.39	337.42
383.77	345.33
384.15	314.14
384.53	350.3
384.91	350.08
385.29	352.34
385.67	345.56
386.049	350.08
386.429	345.78
386.809	374.48
387.189	347.14
387.568	349.85
387.948	339.45
388.328	349.4
388.707	357.76
389.087	375.84
389.466	353.47
389.846	355.5
390.225	365.22
390.605	381.26
390.984	375.61
391.363	372
391.743	357.53
392.122	368.61
392.501	371.32
392.881	393.24
393.26	371.54
393.639	376.97
394.018	367.02
394.397	381.71
394.776	357.08
395.155	397.98
395.534	376.97
395.913	371.32
396.292	396.85
396.671	389.4
397.05	385.55
397.429	402.73
397.808	370.87
398.186	404.76
398.565	382.84
398.944	355.27
399.323	390.07
399.701	407.02
400.08	377.42
400.458	380.13
400.837	375.16
401.215	395.72
401.594	420.36
401.972	391.88
402.351	403.86
402.729	388.72
403.107	405.67
403.486	412.67
403.864	420.81
404.242	419.45
404.62	406.8
404.999	402.28
405.377	407.7
405.755	425.55
406.133	417.42
406.511	411.32
406.889	419.68
407.267	407.25
407.645	425.78
408.023	426.23
408.401	420.13
408.779	434.59
409.156	433.01
409.534	431.2
409.912	450.86
410.29	453.12
410.667	446.34
411.045	454.93
411.422	443.86
411.8	430.75
412.178	461.71
412.555	470.07
412.933	455.84
413.31	472.11
413.687	461.71
414.065	485.44
414.442	452.45
414.819	458.1
415.197	468.49
415.574	475.04
415.951	492.9
416.328	494.03
416.705	479.11
417.082	503.97
417.46	485.67
417.837	517.08
418.214	490.64
418.591	472.33
418.967	491.77
419.344	502.84
419.721	514.82
420.098	501.71
420.475	529.05
420.852	510.52
421.228	510.3
421.605	520.47
421.982	536.96
422.358	520.69
422.735	517.08
423.111	516.4
423.488	532.9
423.864	539.45
424.241	545.78
424.617	545.1
424.994	533.57
425.37	537.42
425.746	551.43
426.123	555.72
426.499	552.78
426.875	563.18
427.251	552.56
427.627	580.58
428.003	561.14
428.379	575.61
428.756	597.3
429.132	574.48
429.507	584.65
429.883	595.49
430.259	599.79
430.635	600.92
431.011	598.88
431.387	629.62
431.763	614.48
432.138	603.85
432.514	624.87
432.89	620.8
433.265	652.44
433.641	667.13
434.016	661.03
434.392	653.8
434.767	638.88
435.143	627.13
435.518	668.71
435.894	664.42
436.269	677.52
436.644	697.19
437.02	686.79
437.395	691.54
437.77	694.47
438.145	688.15
438.52	685.43
438.895	707.58
439.271	715.04
439.646	716.17
440.021	738.31
440.395	703.51
440.77	705.09
441.145	734.25
441.52	753.45
441.895	743.96
442.27	745.09
442.645	760.46
443.019	779.22
443.394	742.83
443.769	730.63
444.143	776.51
444.518	761.14
444.892	773.12
445.267	768.82
445.641	764.08
446.016	775.83
446.39	793
446.764	785.09
447.139	786.22
447.513	783.74
447.887	784.87
448.262	796.17
448.636	801.36
449.01	803.62
449.384	816.05
449.758	825.77
450.132	814.7
450.506	858.54
450.88	859.21
451.254	856.73
451.628	861.7
452.002	867.58
452.376	845.88
452.75	873.68
453.123	873.9
453.497	894.24
453.871	869.61
454.244	918.65
454.618	898.99
454.992	906.67
455.365	899.21
455.739	936.95
456.112	940.12
456.486	954.35
456.859	975.14
457.232	929.72
457.606	943.51
457.979	959.33
458.352	989.83
458.725	981.92
459.099	997.29
459.472	1002.26
459.845	1017.18
460.218	1028.7
460.591	1011.3
460.964	1050.4
461.337	1078.64
461.71	1074.58
462.083	1101.24
462.456	1103.95
462.829	1101.47
463.201	1114.8
463.574	1149.15
463.947	1130.17
464.32	1142.37
464.692	1137.85
465.065	1185.08
465.438	1173.56
465.81	1216.04
466.183	1221.47
466.555	1242.26
466.928	1241.8
467.3	1231.41
467.672	1280.9
468.045	1268.02
468.417	1300.79
468.789	1314.12
469.161	1341.01
469.534	1372.2
469.906	1355.25
470.278	1379.43
470.65	1409.03
471.022	1414.68
471.394	1454.68
471.766	1468.69
472.138	1484.28
472.51	1527.9
472.882	1529.25
473.253	1564.73
473.625	1583.94
473.997	1601.57
474.369	1642.02
474.74	1666.2
475.112	1687.89
475.484	1729.93
475.855	1763.15
476.227	1781.45
476.598	1762.69
476.97	1816.03
477.341	1857.15
477.713	1925.63
478.084	1934.21
478.455	2008.79
478.827	2000.88
479.198	2067.77
479.569	2089.01
479.94	2143.02
480.311	2169.69
480.682	2226.18
481.053	2256.92
481.424	2330.14
481.795	2337.82
482.166	2365.84
482.537	2456.23
482.908	2505.5
483.279	2523.58
483.65	2593.86
484.021	2683.8
484.391	2712.5
484.762	2742.1
485.133	2762.67
485.503	2843.34
485.874	2923.34
486.244	2977.13
486.615	3030.01
486.985	3082.89
487.356	3144.35
487.726	3200.4
488.097	3230.68
488.467	3287.17
488.837	3377.11
489.207	3420.28
489.578	3486.26
489.948	3522.42
490.318	3589.76
490.688	3646.26
491.058	3713.15
491.428	3726.26
491.798	3837.67
492.168	3884.22
492.538	3934.61
492.908	4012.35
493.278	4098
493.648	4108.85
494.017	4151.56
494.387	4201.5
494.757	4264.55
495.126	4325.11
495.496	4373.92
495.866	4447.14
496.235	4439.46
496.605	4524.43
496.974	4545.67
497.344	4600.13
497.713	4609.62
498.082	4697.31
498.452	4735.5
498.821	4829.51
499.19	4825.44
499.559	4829.96
499.928	4921.48
500.298	4987.47
500.667	5008.48
501.036	5038.54
501.405	5073.57
501.774	5124.87
502.143	5135.03
502.512	5201.47
502.88	5214.35
503.249	5243.96
503.618	5296.16
503.987	5330.74
504.356	5311.75
504.724	5396.27
505.093	5385.42
505.462	5441.24
505.83	5479.66
506.199	5525.76
506.567	5595.81
506.936	5599.43
507.304	5641.46
507.672	5701.35
508.041	5685.3
508.409	5763.94
508.777	5812.53
509.145	5875.35
509.514	5872.87
509.882	5845.75
510.25	5928.46
510.618	5960.78
510.986	6007.78
511.354	6056.59
511.722	6064.95
512.09	6135.46
512.458	6121.22
512.826	6151.73
513.193	6196.7
513.561	6270.15
513.929	6254.33
514.297	6278.73
514.664	6327.77
515.032	6338.17
515.4	6392.4
515.767	6391.27
516.135	6393.31
516.502	6416.36
516.869	6555.11
517.237	6516.47
517.604	6539.74
517.972	6604.6
518.339	6626.75
518.706	6617.26
519.073	6615
519.44	6709.91
519.808	6743.35
520.175	6746.52
520.542	6806.4
520.909	6774.77
521.276	6812.5
521.643	6873.07
522.009	6925.72
522.376	6973.4
522.743	7018.6
523.11	7065.61
523.477	7077.36
523.843	7144.7
524.21	7225.83
524.577	7237.58
524.943	7278.03
525.31	7284.81
525.676	7399.83
526.043	7362.09
526.409	7476.22
526.776	7542.43
527.142	7460.85
527.508	7567.06
527.874	7616.33
528.241	7614.52
528.607	7658.58
528.973	7744.01
529.339	7772.71
529.705	7779.71
530.071	7874.85
530.437	7960.72
530.803	7927.28
531.169	7964.11
531.535	7912.36
531.901	8011.79
532.267	8059.03
532.632	8107.84
532.998	8107.61
533.364	8176.54
533.73	8167.27
534.095	8234.61
534.461	8243.43
534.826	8278.23
535.192	8331.11
535.557	8439.81
535.923	8417.43
536.288	8405
536.653	8458.56
537.019	8518.67
537.384	8551.44
537.749	8519.8
538.114	8667.37
538.479	8572.68
538.845	8670.53
539.21	8684.09
539.575	8777.42
539.94	8750.76
540.305	8807.25
540.67	8840.93
541.034	8817.2
541.399	8922.51
541.764	8954.37
542.129	8892.68
542.494	8948.27
542.858	8980.58
543.223	8985.1
543.587	9111.65
543.952	9091.54
544.316	9178.09
544.681	9173.57
545.045	9250.63
545.41	9324.75
545.774	9370.18
546.138	9344.64
546.503	9402.49
546.867	9428.93
547.231	9445.43
547.595	9478.88
547.959	9564.52
548.324	9513.9
548.688	9591.19
549.052	9609.49
549.416	9638.87
549.779	9641.58
550.143	9707.57
550.507	9738.76
550.871	9839.09
551.235	9777.4
551.599	9859.66
551.962	9954.57
552.326	9870.73
552.689	9967
553.053	9924.06
553.417	9948.24
553.78	10076.37
554.143	10025.75
554.507	10156.82
554.87	10136.48
555.234	10185.75
555.597	10121.12
555.96	10210.16
556.323	10230.72
556.686	10203.15
557.05	10249.7
557.413	10340.1
557.776	10335.12
558.139	10438.4
558.502	10462.8
558.865	10452.41
559.228	10524.05
559.59	10555.23
559.953	10622.57
560.316	10685.4
560.679	10665.96
561.041	10768.56
561.404	10750.93
561.767	10793.64
562.129	10766.52
562.492	10907.76
562.854	10894.88
563.217	10840.65
563.579	10975.78
563.941	11019.17
564.304	11007.65
564.666	11078.61
565.028	11048.33
565.39	11120.87
565.753	11214.87
566.115	11216
566.477	11267.53
566.839	11300.97
567.201	11338.49
567.563	11392.72
567.925	11396.79
568.287	11406.06
568.648	11430.01
569.01	11457.13
569.372	11618.48
569.734	11620.06
570.095	11697.35
570.457	11783.45
570.819	11798.81
571.18	11726.95
571.542	11839.72
571.903	11883.33
572.265	11975.76
572.626	12011.01
572.987	12059.82
573.349	12177.79
573.71	12268.63
574.071	12229.99
574.432	12312.92
574.794	12503.2
575.155	12488.97
575.516	12488.97
575.877	12630.43
576.238	12718.79
576.599	12792.46
576.96	12866.13
577.32	12919.24
577.681	12991.33
578.042	13103.86
578.403	13208.04
578.763	13293.24
579.124	13405.78
579.485	13526.45
579.845	13594.47
580.206	13689.16
580.566	13818.2
580.927	13929.15
581.287	14152.65
581.648	14225.42
582.008	14445.75
582.368	14476.71
582.728	14738.4
583.089	14808
583.449	15028.33
583.809	15222.68
584.169	15404.82
584.529	15513.74
584.889	15798.48
585.249	15844.58
585.609	15945.6
585.969	16240.73
586.329	16401.63
586.688	16587.39
587.048	16912.8
587.408	17021.5
587.768	17292.23
588.127	17430.76
588.487	17675.04
588.846	18026.67
589.206	18069.61
589.565	18365.87
589.925	18592.76
590.284	18829.14
590.643	19115.68
591.003	19425.51
591.362	19576.46
591.721	19862.56
592.08	20092.16
592.44	20366.27
592.799	20606.27
593.158	20795.19
593.517	21046.71
593.876	21359.47
594.235	21543.42
594.593	21766.46
594.952	22008.72
595.311	22274.24
595.67	22568.47
596.029	22834
596.387	23217.72
596.746	23307.21
597.104	23580.43
597.463	23816.8
597.822	24101.54
598.18	24261.09
598.538	24516.22
598.897	24793.05
599.255	24929.09
599.613	25385.12
599.972	25398.46
600.33	25703.31
600.688	25857.88
601.046	26287.7
601.404	26534.47
601.762	26764.97
602.12	27039.32
602.478	27293.32
602.836	27517.04
603.194	27539.87
603.552	27807.66
603.91	27970.14
604.268	28288.55
604.625	28407.42
604.983	28690.8
605.341	28677.69
605.698	29051.47
606.056	29217.11
606.413	29424.79
606.771	29719.25
607.128	29822.75
607.485	29927.83
607.843	30086.02
608.2	30426.57
608.557	30749.28
608.914	30727.81
609.272	30966.22
609.629	31276.72
609.986	31403.72
610.343	31434.91
610.7	31819.98
611.057	31833.77
611.414	31967.32
611.771	32200.76
612.127	32351.72
612.484	32535.44
612.841	32786.96
613.198	32609.57
613.554	32851.82
613.911	33240.74
614.267	33217.46
614.624	33349.66
614.98	33499.03
615.337	33760.27
615.693	33762.76
616.05	33884.56
616.406	34202.97
616.762	34136.76
617.118	34166.59
617.475	34247.49
617.831	34568.61
618.187	34544.43
618.543	34663.3
618.899	35062.61
619.255	34856.29
619.611	34917.53
619.967	35143.74
620.323	35440.23
620.678	35277.07
621.034	35323.39
621.39	35513.44
621.746	35553.22
622.101	35911.63
622.457	35769.03
622.812	35895.58
623.168	36037.27
623.523	36006.99
623.879	36091.51
624.234	35948.01
624.589	36220.09
624.945	36300.32
625.3	36429.35
625.655	36330.82
626.01	36472.52
626.365	36472.06
626.72	36476.58
627.075	36628.9
627.43	36672.06
627.785	36553.64
628.14	36812.39
628.495	36939.62
628.85	36724.03
629.205	36625.28
629.559	36949.79
629.914	36788.67
630.269	36845.16
630.623	36897.14
630.978	36721.55
631.332	36874.54
631.687	37129.9
632.041	36940.98
632.396	37007.87
632.75	36930.81
633.104	37107.53
633.459	36786.18
633.813	36892.39
634.167	36977.14
634.521	36940.53
634.875	37176.23
635.229	37055.33
635.583	36895.78
635.937	37009
636.291	36923.13
636.645	37038.83
636.999	36831.38
637.352	36929.68
637.706	36893.75
638.06	36998.83
638.413	37003.35
638.767	36816.69
639.121	36896.46
639.474	36664.6
639.828	36843.81
640.181	36794.77
640.534	36893.07
640.888	36776.91
641.241	36662.12
641.594	36835.44
641.947	36879.06
642.301	36674.32
642.654	36882.9
643.007	36764.03
643.36	36696.24
643.713	36658.27
644.066	36826.18
644.419	36475.45
644.771	36347.77
645.124	36047.89
645.477	35844.74
645.83	35772.65
646.182	35730.39
646.535	35482.03
646.888	35726.09
647.24	35513.67
647.593	35570.39
647.945	35545.08
648.298	35458.53
648.65	35507.12
649.002	35248.82
649.355	35547.57
649.707	35412.2
650.059	35606.1
650.411	36051.28
650.763	36160.89
651.115	36349.35
651.467	36314.78
651.819	36292.41
652.171	36295.57
652.523	36287.66
652.875	36244.27
653.227	36126.99
653.578	36527.88
653.93	36203.82
654.282	36095.8
654.633	36017.84
654.985	36157.72
655.337	36000.89
655.688	36166.31
656.039	36186.87
656.391	36004.73
656.742	36058.74
657.094	35981.68
657.445	36032.75
657.796	36051.06
658.147	35902.36
658.498	35902.36
658.849	35973.77
659.2	35886.32
659.551	35679.32
659.902	35941
660.253	35820.78
660.604	35981.91
660.955	35791.4
661.306	35838.63
661.656	35867.56
662.007	35913.89
662.358	35893.32
662.708	35744.85
663.059	35792.31
663.409	35745.08
663.76	35812.87
664.11	35882.93
664.461	35826.2
664.811	35791.86
665.161	35981.68
665.511	35621.92
665.862	35820.56
666.212	35802.93
666.562	35748.01
666.912	35819.2
667.262	35702.59
667.612	35700.33
667.962	35622.82
668.312	35779.88
668.662	35889.03
669.011	35799.31
669.361	35730.39
669.711	35626.89
670.06	35669.82
670.41	35705.76
670.76	35607.91
671.109	35773.78
671.459	35694.91
671.808	35724.74
672.157	35720.22
672.507	35532.2
672.856	35556.61
673.205	35523.39
673.554	35496.5
673.904	35399.78
674.253	35698.3
674.602	35505.31
674.951	35084.08
675.3	34933.35
675.649	35582.37
675.998	35378.31
676.346	35390.74
676.695	35562.48
677.044	35195.94
677.393	35415.37
677.741	35422.37
678.09	35271.87
678.438	35117.97
678.787	35314.13
679.135	35109.84
679.484	34960.92
679.832	35102.38
680.181	34906.46
680.529	35009.5
680.877	35057.19
681.225	34929.05
681.573	35101.25
681.922	34817.42
682.27	34711.88
682.618	34807.25
682.966	34667.14
683.314	34691.09
683.661	34628.5
684.009	34516.41
684.357	34437.31
684.705	34332.23
685.053	34390.08
685.4	34365.45
685.748	34172.46
686.095	34166.59
686.443	34138.34
686.79	34133.82
687.138	34216.53
687.485	34147.83
687.832	33936.54
688.18	33993.71
688.527	33733.15
688.874	33899.48
689.221	33760.72
689.568	33657.9
689.915	33670.1
690.262	33542.2
690.609	33415.19
690.956	33323.67
691.303	33343.33
691.65	33201.87
691.997	33279.61
692.344	33066.28
692.69	33021.98
693.037	32952.61
693.383	32893.63
693.73	32780.18
694.077	32640.07
694.423	32613.86
694.769	32559.17
695.116	32441.44
695.462	32402.79
695.808	32413.87
696.155	32353.53
696.501	32239.41
696.847	32115.34
697.193	31865.86
697.539	32085.51
697.885	31910.6
698.231	31748.12
698.577	31820.21
698.923	31621.12
699.269	31510.39
699.614	31333.89
699.96	31342.71
700.306	31328.24
700.651	31259.77
700.997	31174.58
701.342	31066.1
701.688	30910.85
702.033	30826.11
702.379	30927.35
702.724	30719.67
703.069	30830.63
703.415	30584.53
703.76	30548.83
704.105	30529.4
704.45	30483.29
704.795	30168.95
705.14	30166.92
705.485	30100.71
705.83	30032.68
706.175	30182.51
706.52	30098.22
706.865	29948.39
707.209	29840.83
707.554	29733.26
707.899	29834.95
708.243	29683.54
708.588	29526.26
708.932	29377.11
709.277	29446.71
709.621	29526.26
709.966	29213.05
710.31	29171.01
710.654	29085.14
710.998	29212.37
711.342	29119.49
711.687	29041.07
712.031	28914.75
712.375	28807.86
712.719	28898.03
713.063	28791.59
713.407	28783.45
713.75	28579.16
714.094	28658.71
714.438	28622.1
714.782	28571.25
715.125	28397.02
715.469	28444.7
715.812	28278.38
716.156	28259.4
716.499	28056.92
716.843	28188.44
717.186	28000.87
717.53	28123.81
717.873	28145.5
718.216	28057.82
718.559	27848.79
718.902	27692.18
719.246	27869.58
719.589	27719.53
719.932	27632.3
720.275	27729.02
720.617	27715.01
720.96	27567.89
721.303	27508.01
721.646	27641.56
721.989	27368.12
722.331	27507.55
722.674	27458.52
723.016	27417.61
723.359	27291.29
723.701	27202.93
724.044	27058.98
724.386	26988.92
724.729	27125.87
725.071	27044.97
725.413	27068.02
725.755	27063.05
726.097	26899.21
726.439	26837.06
726.782	26703.51
727.124	26866.89
727.465	26711.19
727.807	26623.73
728.149	26656.28
728.491	26583.74
728.833	26518.43
729.175	26574.24
729.516	26314.59
729.858	26421.71
730.199	26444.3
730.541	26369.05
730.882	26422.84
731.224	26474.81
731.565	26351.43
731.906	26226.46
732.248	26317.08
732.589	26173.13
732.93	25996.86
733.271	26089.96
733.612	26064.88
733.953	26013.13
734.294	26108.72
734.635	25874.6
734.976	26011.1
735.317	25838.9
735.658	25819.24
735.999	25791.21
736.339	25797.09
736.68	25719.13
737.021	25723.65
737.361	25646.59
737.702	25673.93
738.042	25565.46
738.383	25595.74
738.723	25608.39
739.063	25465.35
739.404	25494.05
739.744	25490.21
740.084	25376.08
740.424	25325.24
740.764	25351.23
741.104	25432.58
741.444	25170.21
741.784	25146.49
742.124	25284.56
742.464	25179.93
742.804	25172.02
743.143	25073.72
743.483	25103.55
743.823	24965.7
744.162	24895.19
744.502	25020.84
744.841	24970.9
745.181	24940.62
745.52	24825.82
745.86	24866.72
746.199	24761.64
746.538	24726.61
746.877	24860.17
747.216	24829.66
747.556	24675.54
747.895	24624.01
748.234	24499.27
748.573	24585.82
748.911	24597.57
749.25	24495.88
749.589	24411.59
749.928	24495.2
750.267	24464.47
750.605	24412.49
750.944	24380.18
751.283	24230.8
751.621	24421.76
751.96	24231.03
752.298	24233.06
752.636	24212.72
752.975	24156.68
753.313	23970.92
753.651	24302.44
753.989	24065.38
754.327	23970.92
754.666	23854.32
755.004	24046.18
755.342	23927.99
755.679	23942.22
756.017	23698.84
756.355	23757.14
756.693	23657.71
757.031	23624.72
757.368	23538.84
757.706	23485.96
758.044	23428.79
758.381	23447.1
758.719	23403.93
759.056	23444.84
759.394	23345.18
759.731	23148.12
760.068	23214.33
760.405	23082.81
760.743	23034.22
761.08	23025.41
761.417	22855.7
761.754	22824.06
762.091	22779.99
762.428	22728.92
762.765	22622.03
763.102	22655.25
763.438	22499.78
763.775	22430.4
764.112	22403.96
764.449	22439.89
764.785	22326.9
765.122	22186.34
765.458	22092.55
765.795	22051.2
766.131	22046.45
766.467	21952.9
766.804	21919.9
767.14	21827.48
767.476	21825.22
767.812	21655.5
768.148	21738.89
768.485	21565.34
768.821	21464.77
769.157	21463.64
769.492	21386.81
769.828	21375.74
770.164	21141.85
770.5	21088.06
770.836	21135.52
771.171	20944.79
771.507	20867.5
771.842	20761.52
772.178	20840.38
772.513	20695.08
772.849	20620.5
773.184	20655.08
773.519	20598.36
773.855	20563.78
774.19	20441.07
774.525	20333.96
774.86	20338.93
775.195	20242.43
775.53	20175.54
775.865	20096.45
776.2	19969.9
776.535	19823.46
776.87	19839.28
777.205	19735.33
777.539	19682
777.874	19685.16
778.209	19604.48
778.543	19442
778.878	19387.77
779.212	19406.98
779.547	19155
779.881	19261.89
780.215	19080.88
780.55	19113.88
780.884	18949.36
781.218	18979.42
781.552	18945.52
781.886	18878.4
782.22	18733.55
782.554	18753.89
782.888	18462.82
783.222	18498.98
783.556	18330.17
783.889	18425.53
784.223	18290.39
784.557	18270.51
784.89	18216.27
785.224	18055.37
785.557	18006.33
785.891	17956.39
786.224	17950.52
786.558	17894.47
786.891	17691.09
787.224	17579.68
787.557	17661.48
787.891	17626.46
788.224	17590.98
788.557	17609.51
788.89	17469.4
789.223	17533.8
789.556	17290.65
789.888	17258.11
790.221	17166.58
790.554	17169.52
790.887	16996.64
791.219	17079.81
791.552	17050.43
791.884	17001.39
792.217	16772.69
792.549	16832.35
792.882	16686.6
793.214	16563.43
793.546	16714.39
793.879	16549.2
794.211	16411.12
794.543	16566.37
794.875	16511.23
795.207	16525.02
795.539	16293.61
795.871	16312.59
796.203	16184.46
796.535	16157.8
796.867	16042.09
797.198	16035.31
797.53	16037.57
797.862	15917.58
798.193	15899.72
798.525	15890.46
798.856	15810.23
799.188	15657.47
799.519	15664.25
799.85	15577.92
800.182	15496.57
800.513	15516.68
800.844	15407.76
801.175	15420.87
801.506	15364.82
801.837	15323.02
802.168	15287.08
802.499	15241.44
802.83	15129.57
803.161	15096.58
803.491	15129.57
803.822	15059.52
804.153	15006.64
804.483	14869.92
804.814	14807.55
805.145	14797.83
805.475	14839.19
805.805	14745.4
806.136	14793.76
806.466	14695.46
806.796	14708.34
807.126	14619.98
807.457	14592.41
807.787	14640.55
808.117	14480.1
808.447	14398.29
808.777	14464.51
809.107	14401.46
809.436	14377.28
809.766	14336.6
810.096	14249.37
810.426	14213.44
810.755	14231.52
811.085	14176.6
811.414	14122.37
811.744	14069.26
812.073	13999.21
812.403	13923.96
812.732	13965.08
813.061	13938.19
813.39	13807.8
813.719	13806.9
814.049	13881.47
814.378	13817.07
814.707	13793.34
815.036	13702.04
815.365	13684.19
815.693	13556.73
816.022	13547.24
816.351	13485.55
816.68	13536.85
817.008	13466.57
817.337	13387.7
817.665	13328.49
817.994	13333.46
818.322	13322.84
818.651	13262.05
818.979	13295.27
819.307	13275.61
819.636	13294.37
819.964	13143.19
820.292	13216.63
820.62	13201.72
820.948	13110.87
821.276	13206.46
821.604	13195.61
821.932	13116.29
822.259	13180.92
822.587	13147.03
822.915	13104.32
823.243	13213.69
823.57	13003.08
823.898	13113.13
824.225	13012.57
824.553	13058.22
824.88	13008.73
825.207	13112.9
825.535	13031.1
825.862	13110.87
826.189	13036.07
826.516	13048.72
826.843	13145.9
827.17	13054.15
827.497	13080.81
827.824	13102.28
828.151	13094.37
828.478	13068.16
828.805	13079.01
829.131	13089.63
829.458	13012.57
829.785	12935.73
830.111	13024.77
830.438	13052.79
830.764	13006.24
831.09	12993.13
831.417	12934.15
831.743	13043.08
832.069	13023.19
832.395	12934.15
832.722	12989.74
833.048	12973.92
833.374	12928.73
833.7	12866.81
834.026	12862.51
834.351	12906.58
834.677	12848.73
835.003	12951.55
835.329	12851.89
835.654	12844.66
835.98	12736.42
836.306	12810.54
836.631	12797.21
836.956	12788.62
837.282	12755.85
837.607	12749.3
837.932	12660.26
838.258	12732.57
838.583	12722.41
838.908	12638.79
839.233	12644.22
839.558	12608.28
839.883	12541.85
840.208	12462.75
840.533	12519.7
840.858	12502.07
841.182	12528.51
841.507	12457.33
841.832	12394.5
842.156	12405.8
842.481	12288.29
842.805	12336.65
843.13	12313.15
843.454	12293.94
843.778	12260.72
844.103	12265.47
844.427	12146.83
844.751	12244
845.075	12151.8
845.399	12068.41
845.723	12065.25
846.047	12017.79
846.371	11946.38
846.695	11987.06
847.019	11910.22
847.343	11710.45
847.666	11775.76
847.99	11780.74
848.313	11720.4
848.637	11567.86
848.96	11602.66
849.284	11564.47
849.607	11461.2
849.931	11477.92
850.254	11357.24
850.577	11334.87
850.9	11299.39
851.223	11271.6
851.546	11222.33
851.869	11134.42
852.192	11190.69
852.515	11036.57
852.838	11035.67
853.161	11047.42
853.483	10945.05
853.806	10953.19
854.129	10930.14
854.451	10881.78
854.774	10816.02
855.096	10714.77
855.419	10762.46
855.741	10731.27
856.063	10653.53
856.385	10624.16
856.708	10643.59
857.03	10577.6
857.352	10606.3
857.674	10548.45
857.996	10508.9
858.318	10392.98
858.64	10376.48
858.961	10395.46
859.283	10356.14
859.605	10363.82
859.926	10384.84
860.248	10310.04
860.57	10297.61
860.891	10294.45
861.212	10159.31
861.534	10173.09
861.855	10145.75
862.176	10131.29
862.498	10187.56
862.819	10191.85
863.14	10093.32
863.461	10079.09
863.782	10026.21
864.103	10056.94
864.424	9936.94
864.745	10037.28
865.065	9900.11
865.386	9885.19
865.707	9857.85
866.027	9968.35
866.348	9935.13
866.668	9961.57
866.989	9865.53
867.309	9764.52
867.63	9785.99
867.95	9826.89
868.27	9714.58
868.59	9742.14
868.91	9749.6
869.23	9786.66
869.55	9656.95
869.87	9726.1
870.19	9651.98
870.51	9712.54
870.83	9711.41
871.15	9654.92
871.469	9609.27
871.789	9631.41
872.109	9609.49
872.428	9564.07
872.748	9586.44
873.067	9590.06
873.386	9602.04
873.706	9559.1
874.025	9542.38
874.344	9454.24
874.663	9493.56
874.982	9462.38
875.301	9393.68
875.62	9391.19
875.939	9401.14
876.258	9376.5
876.577	9357.52
876.896	9350.06
877.214	9342.38
877.533	9308.94
877.852	9299.22
878.17	9337.64
878.489	9308.26
878.807	9279.11
879.125	9286.11
879.444	9246.11
879.762	9275.72
880.08	9197.75
880.398	9203.63
880.716	9186.68
881.034	9143.74
881.352	9149.84
881.67	9090.64
881.988	9111.43
882.306	9077.08
882.624	9039.34
882.941	9000.92
883.259	9035.95
883.577	9009.96
883.894	8974.48
884.212	8934.03
884.529	8922.28
884.846	8874.37
885.164	8913.69
885.481	8892.45
885.798	8929.06
886.115	8757.54
886.432	8845.9
886.75	8763.19
887.067	8770.87
887.383	8769.29
887.7	8713.7
888.017	8688.16
888.334	8711.89
888.651	8635.28
888.967	8633.47
889.284	8534.27
889.6	8586.47
889.917	8540.37
890.233	8532.91
890.55	8471.9
890.866	8505.57
891.182	8444.55
891.498	8460.6
891.815	8369.98
892.131	8348.96
892.447	8411.78
892.763	8308.74
893.079	8297.21
893.395	8282.52
893.71	8232.81
894.026	8234.39
894.342	8204.11
894.657	8179.25
894.973	8123.43
895.289	8179.02
895.604	8140.38
895.92	8061.96
896.235	8069.65
896.55	8019.93
896.865	8042.53
897.181	7962.08
897.496	7974.51
897.811	7909.65
898.126	7912.14
898.441	7912.81
898.756	7854.51
899.071	7802.76
899.386	7836.88
899.7	7772.93
900.015	7727.73
900.33	7735.64
900.644	7684.12
900.959	7673.72
901.273	7622.43
901.588	7602.99
901.902	7547.85
902.216	7612.48
902.531	7524.12
902.845	7509.21
903.159	7438.7
903.473	7477.35
903.787	7441.87
904.101	7364.13
904.415	7421.3
904.729	7312.6
905.042	7313.73
905.356	7341.76
905.67	7224.02
905.984	7199.61
906.297	7190.12
906.611	7165.49
906.924	7224.47
907.237	7145.83
907.551	7115.32
907.864	7108.99
908.177	7074.64
908.491	7008.66
908.804	6944.48
909.117	6930.69
909.43	6872.16
909.743	6871.26
910.056	6863.12
910.368	6809.34
910.681	6792.39
910.994	6788.32
911.307	6780.64
911.619	6667.2
911.932	6756.46
912.244	6675.78
912.557	6641.89
912.869	6568.44
913.181	6583.81
913.494	6567.54
913.806	6520.76
914.118	6457.03
914.43	6456.13
914.742	6470.37
915.054	6429.24
915.366	6414.1
915.678	6331.84
915.99	6341.1
916.302	6326.42
916.613	6223.82
916.925	6240.77
917.236	6271.73
917.548	6198.74
917.859	6213.2
918.171	6120.55
918.482	6140.66
918.794	6109.7
919.105	6141.11
919.416	6106.31
919.727	6123.94
920.038	6074.44
920.349	5975.46
920.66	5973.66
920.971	6000.32
921.282	5949.7
921.593	5930.27
921.903	5827.67
922.214	5858.18
922.525	5864.28
922.835	5812.98
923.146	5811.63
923.456	5790.84
923.767	5685.53
924.077	5671.07
924.387	5698.86
924.697	5660.67
925.008	5654.12
925.318	5702.03
925.628	5640.78
925.938	5614.8
926.248	5568.02
926.558	5572.31
926.867	5490.05
927.177	5514.46
927.487	5446.66
927.796	5390.85
928.106	5424.29
928.416	5359.21
928.725	5332.09
929.034	5340.9
929.344	5337.06
929.653	5349.04
929.962	5276.05
930.271	5253.22
930.581	5219.1
930.89	5205.99
931.199	5145.66
931.508	5149.95
931.817	5158.31
932.125	5120.57
932.434	5116.5
932.743	5075.38
933.051	5034.92
933.36	5005.55
933.669	4942.05
933.977	4975.26
934.286	4967.81
934.594	4929.62
934.902	4870.41
935.21	4890.75
935.519	4906.79
935.827	4878.09
936.135	4862.95
936.443	4811.65
936.751	4790.41
937.059	4784.99
937.367	4746.12
937.674	4785.67
937.982	4715.16
938.29	4688.04
938.597	4690.53
938.905	4643.52
939.213	4643.75
939.52	4598.33
939.827	4617.31
940.135	4592.9
940.442	4534.37
940.749	4545.67
941.056	4553.58
941.363	4472.23
941.67	4518.55
941.977	4491.21
942.284	4461.38
942.591	4431.32
942.898	4394.04
943.205	4427.48
943.511	4390.2
943.818	4372.79
944.125	4336.41
944.431	4317.65
944.738	4307.71
945.044	4288.73
945.35	4293.25
945.657	4275.62
945.963	4224.78
946.269	4213.93
946.575	4204.44
946.881	4196.53
947.187	4134.61
947.493	4185.23
947.799	4150.65
948.105	4110.65
948.41	4069.75
948.716	4070.66
949.022	4067.04
949.327	4058
949.633	4028.17
949.938	4046.25
950.244	4026.36
950.549	3975.29
950.854	3975.06
951.16	3911.34
951.465	3917.44
951.77	3895.07
952.075	3888.06
952.38	3870.89
952.685	3867.05
952.99	3811
953.294	3823.66
953.599	3779.82
953.904	3794.28
954.209	3758.57
954.513	3748.63
954.818	3724.9
955.122	3742.3
955.426	3699.59
955.731	3674.96
956.035	3671.57
956.339	3642.64
956.643	3645.36
956.948	3641.74
957.252	3654.4
957.556	3608.07
957.86	3650.55
958.163	3604.23
958.467	3543.21
958.771	3524.46
959.075	3506.15
959.378	3486.26
959.682	3500.5
959.985	3503.21
960.289	3451.01
960.592	3438.81
960.896	3437.9
961.199	3382.31
961.502	3408.75
961.805	3384.12
962.108	3361.3
962.411	3358.13
962.714	3283.56
963.017	3353.84
963.32	3335.99
963.623	3262.99
963.926	3309.55
964.228	3266.84
964.531	3291.24
964.833	3260.28
965.136	3229.77
965.438	3192.03
965.741	3186.16
966.043	3179.38
966.345	3153.62
966.648	3174.18
966.95	3164.92
967.252	3133.05
967.554	3119.49
967.856	3095.31
968.158	3068.42
968.46	3066.39
968.761	3061.64
969.063	3082.21
969.365	3044.47
969.666	3045.37
969.968	2982.77
970.269	3014.19
970.571	2985.94
970.872	2977.35
971.174	2944.58
971.475	2947.52
971.776	2948.88
972.077	2934.64
972.378	2901.87
972.679	2901.19
972.98	2873.4
973.281	2874.08
973.582	2853.06
973.883	2877.24
974.183	2796.11
974.484	2822.78
974.785	2820.52
975.085	2815.77
975.386	2800.41
975.686	2764.7
975.986	2753.85
976.287	2773.51
976.587	2730.13
976.887	2732.84
977.187	2711.82
977.487	2723.35
977.787	2655.1
978.087	2699.84
978.387	2648.77
978.687	2648.77
978.987	2669.56
979.286	2650.35
979.586	2656.23
979.885	2596.57
980.185	2624.14
980.484	2597.47
980.784	2565.38
981.083	2609.9
981.382	2552.28
981.682	2557.25
981.981	2550.47
982.28	2532.39
982.579	2520.41
982.878	2518.83
983.177	2493.07
983.475	2454.65
983.774	2466.4
984.073	2457.59
984.372	2438.16
984.67	2431.15
984.969	2446.29
985.267	2450.81
985.566	2390.7
985.864	2405.39
986.162	2386.86
986.461	2390.93
986.759	2342.34
987.057	2383.92
987.355	2351.83
987.653	2347.09
987.951	2315.22
988.249	2313.41
988.547	2374.66
988.844	2286.75
989.142	2281.55
989.44	2226.18
989.737	2246.97
990.035	2234.09
990.332	2239.74
990.63	2230.03
990.927	2231.38
991.224	2204.04
991.521	2208.11
991.819	2204.04
992.116	2200.2
992.413	2192.96
992.71	2173.53
993.006	2145.06
993.303	2136.02
993.6	2158.16
993.897	2122.01
994.193	2104.38
994.49	2130.82
994.787	2080.2
995.083	2078.39
995.379	2045.4
995.676	2059.64
995.972	2076.81
996.268	2035.45
996.565	2046.3
996.861	2035
997.157	1972.86
997.453	2014.66
997.749	2017.38
998.044	2006.76
998.34	1990.48
998.636	1962.91
998.932	1966.53
999.227	1956.14
999.523	1959.98
999.818	1932.86
1000.114	1892.63
1000.409	1909.36
1000.704	1893.09
1001	1879.3
1001.295	1868.45
1001.59	1886.08
1001.885	1844.73
1002.18	1863.48
1002.475	1849.02
1002.77	1839.3
1003.065	1860.32
1003.359	1820.55
1003.654	1794.33
1003.949	1764.73
1004.243	1800.43
1004.538	1768.8
1004.832	1771.73
1005.127	1751.85
1005.421	1773.31
1005.715	1715.92
1006.009	1710.72
1006.304	1728.34
1006.598	1716.14
1006.892	1697.38
1007.186	1682.47
1007.48	1670.49
1007.773	1681.79
1008.067	1664.17
1008.361	1646.54
1008.655	1658.97
1008.948	1644.96
1009.242	1628.23
1009.535	1622.36
1009.829	1626.88
1010.122	1600.89
1010.415	1605.86
1010.708	1598.63
1011.001	1581
1011.295	1562.93
1011.588	1572.87
1011.881	1546.43
1012.173	1533.55
1012.466	1519.76
1012.759	1529.93
1013.052	1528.58
1013.344	1497.84
1013.637	1488.35
1013.93	1493.1
1014.222	1466.2
1014.514	1473.89
1014.807	1475.02
1015.099	1435.02
1015.391	1477.96
1015.683	1453.55
1015.976	1426.21
1016.268	1425.3
1016.56	1450.84
1016.851	1410.16
1017.143	1399.31
1017.435	1403.16
1017.727	1394.12
1018.018	1359.77
1018.31	1377.62
1018.602	1358.86
1018.893	1337.39
1019.185	1336.94
1019.476	1322.71
1019.767	1331.97
1020.058	1319.09
1020.35	1309.37
1020.641	1310.5
1020.932	1285.64
1021.223	1310.5
1021.514	1277.06
1021.804	1277.06
1022.095	1240.67
1022.386	1261.46
1022.677	1252.42
1022.967	1203.84
1023.258	1239.77
1023.548	1235.25
1023.839	1230.28
1024.129	1187.79
1024.419	1202.26
1024.709	1187.34
1025	1186.21
1025.29	1178.3
1025.58	1195.7
1025.87	1149.15
1026.16	1182.14
1026.449	1160.22
1026.739	1130.39
1027.029	1122.71
1027.319	1120.68
1027.608	1101.02
1027.898	1108.93
1028.187	1093.56
1028.477	1096.95
1028.766	1071.64
1029.055	1101.02
1029.344	1085.2
1029.634	1096.27
1029.923	1069.15
1030.212	1042.71
1030.501	1037.97
1030.79	1051.07
1031.078	1038.42
1031.367	1055.82
1031.656	1039.77
1031.945	1032.32
1032.233	1028.48
1032.522	1001.58
1032.81	1016.95
1033.099	1017.4
1033.387	991.19
1033.675	987.57
1033.963	966.1
1034.251	966.78
1034.54	959.33
1034.828	994.13
1035.116	953.68
1035.403	983.96
1035.691	949.83
1035.979	933.79
1036.267	941.47
1036.554	911.42
1036.842	909.16
1037.129	915.48
1037.417	903.96
1037.704	898.08
1037.992	902.83
1038.279	934.24
1038.566	891.3
1038.853	891.3
1039.14	891.3
