Data from hue_330_FLMS001491_44.txt Node
Date: Mon Feb 06 15:45:26 GMT 2017
User: dcchb
Spectrometer: FLMS00149
Trigger mode: 0
Integration Time (sec): 2.000000E-2
Scans to average: 10
Electric dark correction enabled: true
Nonlinearity correction enabled: false
Boxcar width: 0
XAxis mode: Wavelengths
Number of Pixels in Spectrum: 2048
>>>>>Begin Spectral Data<<<<<
341.393	-6.33
341.776	-6.33
342.16	-6.33
342.543	-58.98
342.927	-55.14
343.31	-65.54
343.693	-70.28
344.077	-67.57
344.46	-63.95
344.843	-57.63
345.226	-45.42
345.61	-18.98
345.993	-21.24
346.376	-13.11
346.759	11.07
347.142	22.37
347.525	35.25
347.908	53.78
348.291	78.64
348.674	93.56
349.057	129.04
349.44	155.7
349.823	146.89
350.206	174.46
350.588	183.95
350.971	221.24
351.354	215.81
351.737	226.43
352.119	270.28
352.502	244.29
352.884	263.72
353.267	263.5
353.65	296.04
354.032	326.09
354.414	322.03
354.797	331.97
355.179	325.64
355.562	316.6
355.944	321.8
356.326	337.39
356.709	354.57
357.091	336.71
357.473	333.78
357.855	338.3
358.238	353.44
358.62	340.1
359.002	370.84
359.384	347.34
359.766	341.91
360.148	329.48
360.53	321.57
360.912	353.89
361.294	341.46
361.676	349.37
362.057	354.57
362.439	334.45
362.821	333.32
363.203	344.62
363.584	351.63
363.966	352.08
364.348	336.49
364.729	339.43
365.111	306.43
365.493	320.9
365.874	325.42
366.256	327.68
366.637	322.25
367.019	308.24
367.4	313.66
367.781	318.86
368.163	324.96
368.544	317.51
368.925	305.53
369.306	305.75
369.688	316.15
370.069	310.73
370.45	297.62
370.831	299.43
371.212	321.57
371.593	330.84
371.974	328.13
372.355	312.99
372.736	320.44
373.117	308.69
373.498	314.12
373.879	317.96
374.26	315.47
374.641	317.73
375.021	320.44
375.402	318.64
375.783	324.51
376.163	328.8
376.544	341.69
376.925	337.84
377.305	327.9
377.686	334.23
378.066	320.44
378.447	312.53
378.827	324.06
379.208	311.86
379.588	315.92
379.968	306.66
380.349	326.55
380.729	343.04
381.109	348.92
381.489	335.81
381.87	355.47
382.25	337.84
382.63	323.61
383.01	340.33
383.39	353.21
383.77	342.14
384.15	355.24
384.53	320.67
384.91	352.08
385.29	360.89
385.67	336.71
386.049	350.05
386.429	356.83
386.809	336.71
387.189	352.31
387.568	342.14
387.948	365.87
388.328	369.03
388.707	356.83
389.087	359.31
389.466	351.4
389.846	351.86
390.225	379.88
390.605	375.81
390.984	357.96
391.363	362.25
391.743	359.31
392.122	369.26
392.501	370.16
392.881	371.52
393.26	362.93
393.639	361.8
394.018	396.6
394.397	389.82
394.776	394.57
395.155	376.94
395.534	384.62
395.913	390.72
396.292	403.83
396.671	383.27
397.05	368.13
397.429	396.6
397.808	398.63
398.186	408.58
398.565	390.72
398.944	387.33
399.323	397.05
399.701	389.59
400.08	396.15
400.458	403.61
400.837	404.28
401.215	406.77
401.594	412.19
401.972	392.53
402.351	409.25
402.729	398.86
403.107	411.51
403.486	437.73
403.864	420.55
404.242	418.29
404.62	426.88
404.999	412.19
405.377	449.71
405.755	428.46
406.133	432.53
406.511	430.95
406.889	440.67
407.267	445.64
407.645	445.41
408.023	461.68
408.401	437.73
408.779	481.12
409.156	454
409.534	458.07
409.912	468.24
410.29	479.99
410.667	491.96
411.045	487.44
411.422	481.8
411.8	470.5
412.178	497.16
412.555	498.97
412.933	511.17
413.31	518.63
413.687	518.18
414.065	510.95
414.442	530.61
414.819	524.96
415.197	526.99
415.574	549.59
415.951	532.42
416.328	557.5
416.705	554.34
417.082	564.96
417.46	596.59
417.837	542.36
418.214	565.63
418.591	573.77
418.967	592.07
419.344	604.96
419.721	600.21
420.098	595.92
420.475	628.91
420.852	605.18
421.228	624.16
421.605	636.14
421.982	649.7
422.358	644.73
422.735	639.31
423.111	656.71
423.488	629.81
423.864	653.99
424.241	671.39
424.617	660.1
424.994	684.5
425.37	676.14
425.746	713.88
426.123	697.16
426.499	693.99
426.875	705.29
427.251	730.38
427.627	716.37
428.003	719.3
428.379	720.21
428.756	756.14
429.132	726.76
429.507	765.86
429.883	763.82
430.259	764.5
430.635	769.92
431.011	784.16
431.387	781.67
431.763	812.18
432.138	797.49
432.514	798.4
432.89	800.43
433.265	826.87
433.641	829.13
434.016	853.31
434.392	854.21
434.767	882.91
435.143	874.55
435.518	886.53
435.894	887.89
436.269	893.99
436.644	904.61
437.02	900.77
437.395	931.27
437.77	943.25
438.145	940.54
438.52	943.03
438.895	933.31
439.271	948.68
439.646	984.83
440.021	984.15
440.395	945.74
440.77	960.88
441.145	1002.01
441.52	1014.21
441.895	981.22
442.27	1011.5
442.645	1007.66
443.019	1024.15
443.394	1021.44
443.769	1026.64
444.143	1025.06
444.518	1035.45
444.892	1066.64
445.267	1055.11
445.641	1040.65
446.016	1055.57
446.39	1073.87
446.764	1057.6
447.139	1071.16
447.513	1067.09
447.887	1071.84
448.262	1062.34
448.636	1063.7
449.01	1084.72
449.384	1085.85
449.758	1075.9
450.132	1108.67
450.506	1135.34
450.88	1098.5
451.254	1135.34
451.628	1147.99
452.002	1126.75
452.376	1133.08
452.75	1155.68
453.123	1145.05
453.497	1177.14
453.871	1134.66
454.244	1174.88
454.618	1212.4
454.992	1197.93
455.365	1186.64
455.739	1204.49
456.112	1206.97
456.486	1216.01
456.859	1218.27
457.232	1256.24
457.606	1265.05
457.979	1282.68
458.352	1284.94
458.725	1296.92
459.099	1326.07
459.472	1338.72
459.845	1306.18
460.218	1323.58
460.591	1328.33
460.964	1357.25
461.337	1351.6
461.71	1375.56
462.083	1401.77
462.456	1387.08
462.829	1384.37
463.201	1411.94
463.574	1398.38
463.947	1431.6
464.32	1456.68
464.692	1466.18
465.065	1461.88
465.438	1489.23
465.81	1519.73
466.183	1498.94
466.555	1546.4
466.928	1532.39
467.3	1534.42
467.672	1561.54
468.045	1575.78
468.417	1580.75
468.789	1575.55
469.161	1571.94
469.534	1642.44
469.906	1653.06
470.278	1674.76
470.65	1676.11
471.022	1708.2
471.394	1724.02
471.766	1747.75
472.138	1764.25
472.51	1775.32
472.882	1803.79
473.253	1800.18
473.625	1834.08
473.997	1848.31
474.369	1886.5
474.74	1929.67
475.112	1925.37
475.484	1971.25
475.855	1984.81
476.227	1997.69
476.598	2010.12
476.97	2019.83
477.341	2088.76
477.713	2085.14
478.084	2073.84
478.455	2143.45
478.827	2164.69
479.198	2215.99
479.569	2218.7
479.94	2253.27
480.311	2281.97
480.682	2341.86
481.053	2355.64
481.424	2405.59
481.795	2416.21
482.166	2444.46
482.537	2435.64
482.908	2504.57
483.279	2514.51
483.65	2530.33
484.021	2578.46
484.391	2644.45
484.762	2601.51
485.133	2621.17
485.503	2665.47
485.874	2734.84
486.244	2756.31
486.615	2790.44
486.985	2857.78
487.356	2865.69
487.726	2886.93
488.097	2945.46
488.467	2908.4
488.837	2942.07
489.207	3015.29
489.578	3069.98
489.948	3073.59
490.318	3098
490.688	3103.87
491.058	3157.21
491.428	3207.15
491.798	3236.75
492.168	3248.05
492.538	3249.86
492.908	3337.09
493.278	3341.16
493.648	3337.09
494.017	3355.84
494.387	3404.2
494.757	3417.54
495.126	3452.11
495.496	3480.59
495.866	3465.45
496.235	3560.58
496.605	3511.09
496.974	3565.1
497.344	3578.44
497.713	3577.99
498.082	3629.74
498.452	3625.22
498.821	3656.85
499.19	3679.45
499.559	3712.22
499.928	3727.81
500.298	3758.55
500.667	3804.42
501.036	3779.79
501.405	3798.77
501.774	3772.56
502.143	3847.36
502.512	3831.54
502.88	3837.19
503.249	3843.06
503.618	3910.41
503.987	3910.86
504.356	3942.04
504.724	3944.53
505.093	3936.39
505.462	3941.82
505.83	3935.72
506.199	4003.96
506.567	4053.9
506.936	4018.65
507.304	4043.74
507.672	4091.42
508.041	4089.84
508.409	4116.95
508.777	4154.92
509.145	4154.47
509.514	4142.72
509.882	4157.4
510.25	4118.08
510.618	4173.68
510.986	4216.84
511.354	4214.8
511.722	4265.42
512.09	4257.06
512.458	4240.34
512.826	4290.73
513.193	4288.47
513.561	4301.58
513.929	4356.27
514.297	4331.41
514.664	4388.59
515.032	4350.39
515.4	4361.92
515.767	4368.25
516.135	4336.84
516.502	4398.08
516.869	4442.6
517.237	4435.14
517.604	4416.61
517.972	4448.92
518.339	4442.6
518.706	4513.1
519.073	4471.07
519.44	4516.04
519.808	4534.57
520.175	4551.29
520.542	4605.3
520.909	4587
521.276	4594
521.643	4677.62
522.009	4673.32
522.376	4634.45
522.743	4664.51
523.11	4695.47
523.477	4720.1
523.843	4746.99
524.21	4754.68
524.577	4831.51
524.943	4846.2
525.31	4868.35
525.676	4842.36
526.043	4916.93
526.409	4853.43
526.776	4973.65
527.142	4949.02
527.508	4979.08
527.874	5000.77
528.241	5014.78
528.607	5048.23
528.973	5057.49
529.339	5093.43
529.705	5071.51
530.071	5169.58
530.437	5194.21
530.803	5258.62
531.169	5234.21
531.535	5231.27
531.901	5228.56
532.267	5283.48
532.632	5303.59
532.998	5331.16
533.364	5336.13
533.73	5356.24
534.095	5406.19
534.461	5417.26
534.826	5419.74
535.192	5485.05
535.557	5525.28
535.923	5540.19
536.288	5516.92
536.653	5520.31
537.019	5535
537.384	5567.31
537.749	5639.85
538.114	5599.4
538.479	5620.64
538.845	5636.91
539.21	5659.06
539.575	5690.25
539.94	5682.34
540.305	5766.18
540.67	5672.62
541.034	5743.58
541.399	5811.6
541.764	5826.06
542.129	5856.57
542.494	5901.54
542.858	5882.56
543.223	5900.18
543.587	5937.47
543.952	5935.89
544.316	5961.65
544.681	6024.25
545.045	6038.49
545.41	6019.95
545.774	6132.95
546.138	6092.27
546.503	6110.12
546.867	6150.12
547.231	6217.69
547.595	6210.91
547.959	6232.83
548.324	6229.89
548.688	6226.28
549.052	6247.75
549.416	6241.87
549.779	6308.76
550.143	6332.49
550.507	6370.91
550.871	6434.18
551.235	6353.96
551.599	6441.19
551.962	6393.05
552.326	6453.16
552.689	6524.12
553.053	6524.57
553.417	6509.66
553.78	6600.73
554.143	6578.36
554.507	6563.22
554.87	6624.91
555.234	6598.92
555.597	6602.76
555.96	6655.19
556.323	6664.23
556.686	6640.28
557.05	6654.29
557.413	6756.21
557.776	6714.17
558.139	6778.8
558.502	6809.99
558.865	6848.86
559.228	6884.11
559.59	6881.85
559.953	6935.86
560.316	6959.14
560.679	6901.29
561.041	6961.62
561.404	7039.36
561.767	7069.87
562.129	6987.84
562.492	7082.98
562.854	7094.28
563.217	7153.94
563.579	7091.11
563.941	7170.43
564.304	7157.1
564.666	7249.98
565.028	7179.47
565.39	7248.85
565.753	7290.88
566.115	7261.5
566.477	7280.71
566.839	7323.65
567.201	7382.86
567.563	7404.55
567.925	7483.87
568.287	7446.58
568.648	7432.12
569.01	7501.27
569.372	7574.72
569.734	7577.2
570.095	7591.66
570.457	7610.42
570.819	7645
571.18	7625.79
571.542	7696.07
571.903	7756.86
572.265	7807.7
572.626	7861.71
572.987	7865.56
573.349	7936.06
573.71	7944.88
574.071	8029.85
574.432	8034.37
574.794	8179.45
575.155	8171.76
575.516	8214.93
575.877	8236.85
576.238	8337.86
576.599	8364.53
576.96	8420.8
577.32	8503.51
577.681	8632.99
578.042	8708.02
578.403	8791.18
578.763	8846.32
579.124	8938.75
579.485	8981.68
579.845	9198.63
580.206	9267.33
580.566	9289.93
580.927	9405.18
581.287	9585.28
581.648	9661.21
582.008	9843.58
582.368	9953.86
582.728	10132.16
583.089	10268.2
583.449	10373.29
583.809	10564.69
584.169	10781.86
584.529	10848.53
584.889	11109.76
585.249	11243.77
585.609	11471.34
585.969	11638.79
586.329	11838.11
586.688	12089.63
587.048	12238.1
587.408	12457.3
587.768	12728.03
588.127	12932.99
588.487	13022.48
588.846	13445.07
589.206	13551.96
589.565	13833.99
589.925	14170.93
590.284	14377.7
590.643	14650.01
591.003	14815.66
591.362	15224.46
591.721	15390.78
592.08	15611.57
592.44	15991.67
592.799	16277.09
593.158	16435.73
593.517	16739.9
593.876	17080.45
594.235	17350.96
594.593	17637.95
594.952	17942.58
595.311	18164.49
595.67	18446.29
596.029	18899.16
596.387	19168.08
596.746	19419.38
597.104	19571.69
597.463	19807.61
597.822	20256.64
598.18	20448.28
598.538	20779.34
598.897	21191.99
599.255	21152.21
599.613	21791.97
599.972	21958.29
600.33	22245.52
600.688	22549.01
601.046	22833.98
601.404	23256.56
601.762	23380.4
602.12	23817.68
602.478	24073.49
602.836	24300.15
603.194	24428.74
603.552	24807.71
603.91	24922.06
604.268	25293.57
604.625	25515.71
604.983	25872.77
605.341	25883.16
605.698	26347.1
606.056	26610.6
606.413	26780.76
606.771	27048.55
607.128	27361.77
607.485	27487.86
607.843	27752.72
608.2	28051.24
608.557	28305.7
608.914	28336.2
609.272	28694.39
609.629	29045.79
609.986	29205.33
610.343	29285.78
610.7	29638.09
611.057	29661.14
611.414	29930.74
611.771	30159.66
612.127	30461.8
612.484	30585.18
612.841	30824.73
613.198	30950.37
613.554	31085.96
613.911	31292.96
614.267	31567.08
614.624	31646.63
614.98	31927.75
615.337	32228.08
615.693	32151.47
616.05	32305.37
616.406	32788.97
616.762	32698.35
617.118	32738.12
617.475	32845.01
617.831	33173.82
618.187	33330.42
618.543	33449.29
618.899	33706.01
619.255	33765.44
619.611	33853.57
619.967	34048.6
620.323	34243.17
620.678	34219.44
621.034	34355.71
621.39	34381.92
621.746	34453.78
622.101	34890.16
622.457	34718.86
622.812	35021.23
623.168	35089.02
623.523	35149.81
623.879	35269.36
624.234	35169.7
624.589	35347.77
624.945	35582.57
625.3	35517.26
625.655	35628.44
626.01	35779.17
626.365	35756.8
626.72	35816.69
627.075	35838.83
627.43	36014.65
627.785	35936.23
628.14	36044.7
628.495	36149.78
628.85	36201.31
629.205	36103.46
629.559	36313.4
629.914	36189.1
630.269	36307.52
630.623	36226.62
630.978	36220.06
631.332	36427.74
631.687	36562.2
632.041	36419.16
632.396	36570.79
632.75	36422.55
633.104	36634.07
633.459	36417.12
633.813	36430.23
634.167	36524.24
634.521	36632.03
634.875	36648.08
635.229	36571.02
635.583	36452.6
635.937	36572.37
636.291	36563.56
636.645	36604.91
636.999	36498.93
637.352	36710.9
637.706	36502.54
638.06	36694.4
638.413	36441.98
638.767	36364.47
639.121	36659.83
639.474	36364.47
639.828	36474.75
640.181	36448.08
640.534	36520.17
640.888	36544.35
641.241	36276.56
641.594	36438.36
641.947	36592.94
642.301	36451.7
642.654	36445.14
643.007	36504.58
643.36	36459.61
643.713	36475.2
644.066	36480.17
644.419	36425.71
644.771	36124.93
645.124	35810.58
645.477	35728.1
645.83	35541.44
646.182	35390.26
646.535	35383.7
646.888	35423.02
647.24	35279.75
647.593	35536.69
647.945	35431.16
648.298	35308.22
648.65	35321.11
649.002	35286.53
649.355	35368.56
649.707	35224.61
650.059	35431.16
650.411	35798.83
650.763	35788.66
651.115	36145.26
651.467	36091.48
651.819	35961.09
652.171	35976.46
652.523	35943.91
652.875	35921.99
653.227	35877.7
653.578	36045.61
653.93	35977.36
654.282	35790.25
654.633	35766.74
654.985	35956.34
655.337	35868.66
655.688	35874.31
656.039	36020.3
656.391	35662.34
656.742	35767.65
657.094	35675.67
657.445	35880.41
657.796	35733.3
658.147	35727.87
658.498	35738.27
658.849	35773.97
659.2	35711.38
659.551	35760.19
659.902	35755.22
660.253	35752.51
660.604	35719.51
660.955	35695.11
661.306	35712.51
661.656	35616.01
662.007	35658.05
662.358	35529.91
662.708	35550.03
663.059	35716.8
663.409	35477.03
663.76	35617.82
664.11	35574.88
664.461	35641.55
664.811	35582.12
665.161	35647.2
665.511	35503.25
665.862	35614.2
666.212	35705.5
666.562	35706.63
666.912	35512.96
667.262	35550.48
667.612	35724.03
667.962	35615.33
668.312	35539.86
668.662	35656.92
669.011	35611.04
669.361	35398.39
669.711	35454.89
670.06	35483.36
670.41	35334.21
670.76	35399.3
671.109	35537.6
671.459	35335.57
671.808	35430.48
672.157	35481.1
672.507	35330.6
672.856	35306.64
673.205	35396.13
673.554	35497.37
673.904	35223.48
674.253	35604.49
674.602	35237.94
674.951	34795.47
675.3	34671.86
675.649	35349.35
675.998	35176.25
676.346	35226.87
676.695	35336.25
677.044	34999.31
677.393	35148.45
677.741	35195.23
678.09	35066.65
678.438	35083.37
678.787	35092.41
679.135	35049.93
679.484	34941
679.832	34946.43
680.181	34804.51
680.529	34846.99
680.877	34804.96
681.225	34761.57
681.573	34957.72
681.922	34664.85
682.27	34649.94
682.618	34555.02
682.966	34613.1
683.314	34567
683.661	34533.56
684.009	34299.66
684.357	34389.6
684.705	34268.7
685.053	34290.4
685.4	34127.46
685.748	34169.05
686.095	34065.09
686.443	34009.73
686.79	33924.53
687.138	34037.52
687.485	33944.87
687.832	33896.96
688.18	33890.63
688.527	33711.2
688.874	33675.5
689.221	33511.44
689.568	33640.7
689.915	33476.18
690.262	33479.8
690.609	33387.82
690.956	33262.18
691.303	33257.66
691.65	33146.47
691.997	33056.08
692.344	32918.46
692.69	32956.65
693.037	32932.47
693.383	32664.68
693.73	32759.59
694.077	32638.01
694.423	32587.17
694.769	32377
695.116	32350.56
695.462	32365.7
695.808	32193.05
696.155	32262.2
696.501	32178.14
696.847	32111.25
697.193	31805.27
697.539	31924.13
697.885	31863.12
698.231	31597.14
698.577	31663.57
698.923	31539.28
699.269	31444.14
699.614	31452.73
699.96	31226.07
700.306	31327.99
700.651	31234.66
700.997	31113.98
701.342	31006.19
701.688	30931.84
702.033	30814.78
702.379	30739.76
702.724	30707.89
703.069	30707.89
703.415	30455.24
703.76	30445.98
704.105	30527.11
704.45	30422.25
704.795	30140.68
705.14	30178.19
705.485	30135.7
705.83	30089.38
706.175	30064.52
706.52	29855.26
706.865	29840.8
707.209	29848.48
707.554	29731.2
707.899	29792.66
708.243	29630.63
708.588	29649.84
708.932	29433.8
709.277	29343.86
709.621	29486.68
709.966	29139.35
710.31	29384.31
710.654	28999.24
710.998	29034.04
711.342	29052.12
711.687	28985.45
712.031	28970.54
712.375	28735.29
712.719	28794.72
713.063	28825.91
713.407	28936.87
713.75	28665.23
714.094	28646.7
714.438	28533.94
714.782	28469.76
715.125	28429.76
715.469	28484.9
715.812	28263.21
716.156	28174.17
716.499	28161.07
716.843	28125.14
717.186	27954.97
717.53	28156.77
717.873	28046.95
718.216	28035.65
718.559	27843.34
718.902	27914.75
719.246	27698.93
719.589	27646.5
719.932	27694.19
720.275	27592.95
720.617	27568.54
720.96	27498.03
721.303	27576.45
721.646	27465.27
721.989	27268.21
722.331	27459.39
722.674	27341.65
723.016	27297.59
723.359	27245.39
723.701	27321.99
724.044	26980.31
724.386	26905.28
724.729	27065.05
725.071	26973.53
725.413	26999.06
725.755	27018.72
726.097	26916.13
726.439	26837.49
726.782	26726.08
727.124	26813.08
727.465	26717.94
727.807	26548.23
728.149	26530.15
728.491	26606.31
728.833	26573.54
729.175	26432.98
729.516	26519.3
729.858	26414.22
730.199	26556.82
730.541	26297.16
730.882	26309.14
731.224	26308.69
731.565	26125.87
731.906	26164.51
732.248	26188.46
732.589	26059.43
732.93	25993.67
733.271	26056.94
733.612	26000.67
733.953	26047
734.294	25899.66
734.635	25840.68
734.976	25910.05
735.317	25655.14
735.658	25748.48
735.999	25665.77
736.339	25627.8
736.68	25738.08
737.021	25730.17
737.361	25559.78
737.702	25575.37
738.042	25504.19
738.383	25468.48
738.723	25469.16
739.063	25377.86
739.404	25485.88
739.744	25372.89
740.084	25201.6
740.424	25305.1
740.764	25291.09
741.104	25377.41
741.444	25157.3
741.784	25038.89
742.124	24995.95
742.464	25207.02
742.804	25000.47
743.143	24968.38
743.483	24973.58
743.823	24858.78
744.162	24836.41
744.502	24955.5
744.841	24769.29
745.181	24763.19
745.52	24763.64
745.86	24814.26
746.199	24633.02
746.538	24600.71
746.877	24645.45
747.216	24590.54
747.556	24477.55
747.895	24565.23
748.234	24415.63
748.573	24397.55
748.911	24398.91
749.25	24401.62
749.589	24254.28
749.928	24277.33
750.267	24220.38
750.605	24214.05
750.944	24130.21
751.283	24127.95
751.621	24090.67
751.96	23869.65
752.298	24067.16
752.636	23947.84
752.975	23929.99
753.313	23727.06
753.651	23844.8
753.989	23637.12
754.327	23621.75
754.666	23569.1
755.004	23515.54
755.342	23563
755.679	23414.53
756.017	23321.42
756.355	23494.07
756.693	23296.11
757.031	23334.53
757.368	23248.65
757.706	23138.83
758.044	23024.48
758.381	23071.26
758.719	22962.79
759.056	22963.01
759.394	22904.03
759.731	22683.47
760.068	22754.2
760.405	22545.17
760.743	22741.32
761.08	22596.47
761.417	22432.4
761.754	22530.93
762.091	22431.5
762.428	22189.25
762.765	22218.62
763.102	22266.53
763.438	22125.75
763.775	22077.84
764.112	22012.53
764.449	22035.13
764.785	21895.02
765.122	21776.15
765.458	21702.03
765.795	21645.31
766.131	21638.98
766.467	21606.66
766.804	21491.41
767.14	21301.59
767.476	21316.95
767.812	21234.24
768.148	21313.34
768.485	21211.19
768.821	21064.98
769.157	21006.23
769.492	20883.07
769.828	20879.9
770.164	20784.09
770.5	20739.34
770.836	20615.73
771.171	20650.98
771.507	20540.93
771.842	20370.31
772.178	20337.77
772.513	20378.22
772.849	20253.48
773.184	20203.54
773.519	20178.23
773.855	20066.82
774.19	19994.73
774.525	19972.58
774.86	19924
775.195	19877.44
775.53	19707.5
775.865	19602.2
776.2	19566.72
776.535	19370.56
776.87	19404.24
777.205	19381.86
777.539	19187.97
777.874	19248.76
778.209	19099.38
778.543	19007.18
778.878	18998.82
779.212	18934.19
779.547	18863.23
779.881	18899.39
780.215	18691.71
780.55	18768.77
780.884	18633.41
781.218	18532.39
781.552	18491.27
781.886	18519.29
782.22	18408.1
782.554	18189.13
782.888	18119.98
783.222	18037.94
783.556	18019.64
783.889	17975.35
784.223	17747.78
784.557	17794.79
784.89	17854.45
785.224	17663.26
785.557	17621.68
785.891	17573.78
786.224	17493.78
786.558	17527.45
786.891	17307.34
787.224	17362.71
787.557	17146.89
787.891	17242.03
788.224	17149.15
788.557	17297.4
788.89	17093.79
789.223	17059.21
789.556	16959.1
789.888	16906.45
790.221	16727.92
790.554	16695.61
790.887	16659.9
791.219	16690.63
791.552	16629.62
791.884	16560.24
792.217	16489.28
792.549	16449.74
792.882	16406.8
793.214	16306.01
793.546	16290.65
793.879	16181.95
794.211	16077.54
794.543	16165.45
794.875	15995.96
795.207	16132.23
795.539	15980.37
795.871	15908.73
796.203	15878
796.535	15722.98
796.867	15670.77
797.198	15719.13
797.53	15674.62
797.862	15515.98
798.193	15554.62
798.525	15480.5
798.856	15521.85
799.188	15279.82
799.519	15326.38
799.85	15188.3
800.182	15218.36
800.513	15250.45
800.844	15123.22
801.175	15075.54
801.506	15060.17
801.837	15039.15
802.168	14990.11
802.499	14972.26
802.83	14829.67
803.161	14827.63
803.491	14846.84
803.822	14814.75
804.153	14694.08
804.483	14548.54
804.814	14549.22
805.145	14520.97
805.475	14521.65
805.805	14459.96
806.136	14445.27
806.466	14443.91
806.796	14382.9
807.126	14201.66
807.457	14172.28
807.787	14259.06
808.117	14179.06
808.447	14078.27
808.777	14170.93
809.107	14004.15
809.436	13960.76
809.766	14008.9
810.096	13957.37
810.426	13870.6
810.755	13968.67
811.085	13872.63
811.414	13895.45
811.744	13686.87
812.073	13744.5
812.403	13676.93
812.732	13553.32
813.061	13649.13
813.39	13567.33
813.719	13491.62
814.049	13561.9
814.378	13483.04
814.707	13391.74
815.036	13516.03
815.365	13297.28
815.693	13234
816.022	13228.13
816.351	13183.38
816.68	13140.9
817.008	13217.51
817.337	13051.63
817.665	13016.38
817.994	13113.33
818.322	13001.47
818.651	12977.74
818.979	12908.36
819.307	12947.23
819.636	12973.44
819.964	12895.25
820.292	12959.66
820.62	12952.65
820.948	12741.59
821.276	12894.12
821.604	12802.6
821.932	12907.23
822.259	12828.36
822.587	12825.88
822.915	12821.36
823.243	12820.91
823.57	12773.9
823.898	12841.7
824.225	12756.5
824.553	12700.01
824.88	12776.84
825.207	12746.11
825.535	12794.24
825.862	12731.64
826.189	12665.66
826.516	12766.22
826.843	12846.89
827.17	12757.63
827.497	12792.66
827.824	12695.26
828.151	12754.01
828.478	12747.69
828.805	12758.08
829.131	12719.89
829.458	12645.77
829.785	12674.24
830.111	12665.88
830.438	12813.45
830.764	12745.88
831.09	12730.06
831.417	12622.27
831.743	12715.37
832.069	12657.52
832.395	12588.6
832.722	12648.93
833.048	12573.23
833.374	12712.43
833.7	12578.2
834.026	12572.78
834.351	12616.84
834.677	12565.77
835.003	12629.5
835.329	12594.47
835.654	12566.22
835.98	12473.34
836.306	12572.1
836.631	12518.31
836.956	12564.42
837.282	12501.14
837.607	12412.78
837.932	12420.69
838.258	12343.63
838.583	12383.86
838.908	12281.48
839.233	12376.4
839.558	12290.07
839.883	12297.98
840.208	12238.1
840.533	12245.1
840.858	12225.89
841.182	12276.74
841.507	12158.55
841.832	12155.84
842.156	12136.86
842.481	12052.34
842.805	12037.2
843.13	12053.69
843.454	12014.37
843.778	12004.2
844.103	11990.87
844.427	11900.25
844.751	11868.39
845.075	11805.79
845.399	11877.43
845.723	11740.26
846.047	11826.58
846.371	11637.43
846.695	11753.59
847.019	11638.79
847.343	11467.27
847.666	11498.23
847.99	11461.17
848.313	11485.12
848.637	11324.67
848.96	11299.14
849.284	11309.76
849.607	11199.25
849.931	11159.71
850.254	11084
850.577	11065.02
850.9	10940.28
851.223	10958.81
851.546	10912.03
851.869	10858.7
852.192	10942.76
852.515	10766.95
852.838	10748.42
853.161	10808.3
853.483	10779.83
853.806	10649.44
854.129	10640.4
854.451	10519.27
854.774	10449.89
855.096	10528.99
855.419	10444.25
855.741	10512.72
856.063	10411.7
856.385	10400.63
856.708	10415.32
857.03	10335.32
857.352	10334.87
857.674	10307.53
857.996	10230.47
858.318	10179.17
858.64	10179.39
858.961	10122.45
859.283	10103.01
859.605	10034.99
859.926	10077.02
860.248	10048.32
860.57	10048.78
860.891	10032.73
861.212	9938.5
861.534	9971.94
861.855	9927.2
862.176	9943.47
862.498	9910.7
862.819	9869.12
863.14	9891.04
863.461	9833.19
863.782	9775.79
864.103	9773.75
864.424	9787.54
864.745	9822.79
865.065	9708.22
865.386	9664.15
865.707	9655.11
866.027	9707.32
866.348	9629.35
866.668	9654.66
866.989	9580.09
867.309	9542.8
867.63	9663.7
867.95	9571.27
868.27	9491.28
868.59	9532.86
868.91	9527.21
869.23	9556.81
869.55	9433.2
869.87	9517.26
870.19	9448.34
870.51	9525.85
870.83	9435.01
871.15	9368.12
871.469	9425.74
871.789	9429.81
872.109	9405.85
872.428	9347.1
872.748	9334.44
873.067	9315.46
873.386	9399.07
873.706	9320.88
874.025	9247.44
874.344	9322.01
874.663	9225.07
874.982	9250.6
875.301	9188.01
875.62	9167.89
875.939	9222.58
876.258	9152.75
876.577	9099.2
876.896	9150.95
877.214	9101.68
877.533	9187.56
877.852	9154.56
878.17	9159.31
878.489	9158.86
878.807	9061.68
879.125	9084.73
879.444	9031.63
879.762	9070.04
880.08	8983.27
880.398	8987.33
880.716	8972.87
881.034	8929.71
881.352	8970.84
881.67	8939.88
881.988	8957.96
882.306	8902.59
882.624	8809.03
882.941	8830.5
883.259	8802.48
883.577	8733.78
883.894	8749.83
884.212	8767.23
884.529	8708.7
884.846	8723.39
885.164	8677.96
885.481	8642.71
885.798	8747.11
886.115	8670.51
886.432	8633.22
886.75	8610.62
887.067	8621.02
887.383	8535.37
887.7	8576.95
888.017	8571.3
888.334	8485.88
888.651	8515.93
888.967	8492.66
889.284	8407.46
889.6	8361.59
889.917	8290.86
890.233	8342.15
890.55	8348.48
890.866	8321.36
891.182	8296.28
891.498	8245.43
891.815	8229.16
892.131	8249.5
892.447	8222.16
892.763	8190.75
893.079	8150.52
893.395	8178.77
893.71	8084.31
894.026	8056.06
894.342	8072.33
894.657	8009.05
894.973	7983.07
895.289	7957.53
895.604	7986.68
895.92	7931.09
896.235	7861.26
896.55	7894.71
896.865	7846.8
897.181	7789.4
897.496	7838.44
897.811	7749.17
898.126	7779.46
898.441	7701.04
898.756	7710.53
899.071	7564.77
899.386	7660.59
899.7	7591.21
900.015	7558.67
900.33	7455.17
900.644	7473.02
900.959	7506.7
901.273	7466.7
901.588	7388.51
901.902	7369.07
902.216	7362.52
902.531	7349.19
902.845	7342.18
903.159	7262.18
903.473	7280.94
903.787	7261.05
904.101	7195.29
904.415	7182.86
904.729	7129.76
905.042	7081.4
905.356	7065.12
905.67	7120.04
905.984	7073.71
906.297	7070.32
906.611	6998.23
906.924	7008.4
907.237	6960.49
907.551	6928.41
907.864	6954.85
908.177	6958.24
908.491	6881.63
908.804	6880.05
909.117	6812.25
909.43	6706.72
909.743	6755.3
910.056	6722.08
910.368	6663.33
910.681	6661.75
910.994	6593.27
911.307	6586.04
911.619	6566.38
911.932	6546.27
912.244	6495.42
912.557	6504.91
912.869	6487.51
913.181	6453.39
913.494	6453.84
913.806	6409.1
914.118	6351.92
914.43	6302.89
914.742	6374.3
915.054	6277.35
915.366	6299.27
915.678	6264.92
915.99	6228.99
916.302	6184.7
916.613	6162.1
916.925	6203.9
917.236	6133.62
917.548	6100.63
917.859	6062.67
918.171	6055.43
918.482	6017.02
918.794	6003.01
919.105	6005.04
919.416	5904.03
919.727	5940.18
920.038	5876.91
920.349	5904.93
920.66	5859.96
920.971	5822.45
921.282	5783.8
921.593	5780.19
921.903	5743.13
922.214	5725.05
922.525	5718.27
922.835	5674.43
923.146	5653.86
923.456	5616.8
923.767	5605.5
924.077	5644.6
924.387	5576.35
924.697	5510.59
925.008	5531.15
925.318	5511.72
925.628	5480.53
925.938	5479.4
926.248	5450.7
926.558	5416.35
926.867	5346.53
927.177	5301.1
927.487	5355.57
927.796	5294.1
928.106	5306.98
928.416	5310.37
928.725	5287.32
929.034	5201.22
929.344	5255
929.653	5175.46
929.962	5176.14
930.271	5141.33
930.581	5166.19
930.89	5110.15
931.199	5059.53
931.508	5039.87
931.817	5029.47
932.125	5049.36
932.434	5068.12
932.743	4992.19
933.051	4976.59
933.36	4917.84
933.669	4924.62
933.977	4899.31
934.286	4890.94
934.594	4852.3
934.902	4824.73
935.21	4789.48
935.519	4798.07
935.827	4782.7
936.135	4729.59
936.443	4696.15
936.751	4675.36
937.059	4658.18
937.367	4661.35
937.674	4626.32
937.982	4607.34
938.29	4618.86
938.597	4585.42
938.905	4545.64
939.213	4581.35
939.52	4546.1
939.827	4500.67
940.135	4490.05
940.442	4438.53
940.749	4483.05
941.056	4442.6
941.363	4415.7
941.67	4415.25
941.977	4398.75
942.284	4384.97
942.591	4347.46
942.898	4281.24
943.205	4349.49
943.511	4279.89
943.818	4268.81
944.125	4222.71
944.431	4240.57
944.738	4214.35
945.044	4202.38
945.35	4125.77
945.657	4151.53
945.963	4117.86
946.269	4116.5
946.575	4127.58
946.881	4114.24
947.187	4109.27
947.493	4056.84
947.799	4041.93
948.105	3984.75
948.41	3966.9
948.716	3969.61
949.022	3948.37
949.327	3993.12
949.633	3907.24
949.938	3890.29
950.244	3920.12
950.549	3907.47
950.854	3869.95
951.16	3874.7
951.465	3839.67
951.77	3819.11
952.075	3761.26
952.38	3805.55
952.685	3791.09
952.99	3767.81
953.294	3712.9
953.599	3721.94
953.904	3694.37
954.209	3693.69
954.513	3698.89
954.818	3661.6
955.122	3663.63
955.426	3645.55
955.731	3634.03
956.035	3579.57
956.339	3613.92
956.643	3594.71
956.948	3547.7
957.252	3526.01
957.556	3518.55
957.86	3541.38
958.163	3494.15
958.467	3468.61
958.771	3480.59
959.075	3452.34
959.378	3437.2
959.682	3428.84
959.985	3401.49
960.289	3407.37
960.592	3401.72
960.896	3361.04
961.199	3360.82
961.502	3341.61
961.805	3299.12
962.108	3293.02
962.411	3263.64
962.714	3264.55
963.017	3268.16
963.32	3307.94
963.623	3243.08
963.926	3230.42
964.228	3185.68
964.531	3186.36
964.833	3165.34
965.136	3224.55
965.438	3150.88
965.741	3158.56
966.043	3142.29
966.345	3119.69
966.648	3084.44
966.95	3110.88
967.252	3069.75
967.554	3074.04
967.856	3050.77
968.158	2991.11
968.46	2996.98
968.761	3020.49
969.063	3009.86
969.365	2969.19
969.666	3006.02
969.968	2908.85
970.269	2951.56
970.571	2918.12
970.872	2895.97
971.174	2915.4
971.475	2927.38
971.776	2886.25
972.077	2846.25
972.378	2846.48
972.679	2820.72
972.98	2863.65
973.281	2812.13
973.582	2825.46
973.883	2788.85
974.183	2818.91
974.484	2744.33
974.785	2787.27
975.085	2745.46
975.386	2746.59
975.686	2709.31
975.986	2699.36
976.287	2707.27
976.587	2682.19
976.887	2693.71
977.187	2672.25
977.487	2653.26
977.787	2640.38
978.087	2624.34
978.387	2577.79
978.687	2592.93
978.987	2584.34
979.286	2564.9
979.586	2595.86
979.885	2551.35
980.185	2564.23
980.484	2536.2
980.784	2543.66
981.083	2523.1
981.382	2534.4
981.682	2509.54
981.981	2485.81
982.28	2468.86
982.579	2467.73
982.878	2455.98
983.177	2471.8
983.475	2453.49
983.774	2419.6
984.073	2395.87
984.372	2412.59
984.67	2422.54
984.969	2378.69
985.267	2376.43
985.566	2368.98
985.864	2335.98
986.162	2351.8
986.461	2352.93
986.759	2316.1
987.057	2304.57
987.355	2327.62
987.653	2276.1
987.951	2273.39
988.249	2269.09
988.547	2260.96
988.844	2239.94
989.142	2267.29
989.44	2209.66
989.737	2241.97
990.035	2230.68
990.332	2186.84
990.63	2173.05
990.927	2180.06
991.224	2175.08
991.521	2177.57
991.819	2169.89
992.116	2157.01
992.413	2133.96
992.71	2080.62
993.006	2104.13
993.303	2084.46
993.6	2083.34
993.897	2075.43
994.193	2090.57
994.49	2072.71
994.787	2035.88
995.083	2039.49
995.379	2051.47
995.676	2040.62
995.972	1992.04
996.268	2004.69
996.565	2007.63
996.861	1982.09
997.157	1970.34
997.453	1948.88
997.749	1967.41
998.044	1944.81
998.34	1930.12
998.636	1902.32
998.932	1895.77
999.227	1895.32
999.523	1896.45
999.818	1921.98
1000.114	1875.66
1000.409	1890.35
1000.704	1827.97
1001	1841.08
1001.295	1843.34
1001.59	1849.44
1001.885	1820.97
1002.18	1823.91
1002.475	1792.04
1002.77	1790.46
1003.065	1789.33
1003.359	1760.86
1003.654	1784.36
1003.949	1766.28
1004.243	1779.61
1004.538	1749.78
1004.832	1717.24
1005.127	1731.03
1005.421	1714.08
1005.715	1706.62
1006.009	1690.8
1006.304	1654.19
1006.598	1633.18
1006.892	1681.99
1007.186	1632.5
1007.48	1654.87
1007.773	1665.49
1008.067	1623.69
1008.361	1611.03
1008.655	1612.16
1008.948	1606.74
1009.242	1593.86
1009.535	1606.51
1009.829	1586.85
1010.122	1587.53
1010.415	1592.27
1010.708	1566.74
1011.001	1568.09
1011.295	1523.35
1011.588	1533.74
1011.881	1535.33
1012.173	1473.63
1012.466	1486.51
1012.759	1507.08
1013.052	1471.37
1013.344	1493.52
1013.637	1489.68
1013.93	1465.27
1014.222	1462.79
1014.514	1480.87
1014.807	1470.24
1015.099	1402
1015.391	1427.08
1015.683	1414.65
1015.976	1389.57
1016.268	1381.66
1016.56	1395.67
1016.851	1406.74
1017.143	1357.03
1017.435	1369
1017.727	1343.92
1018.018	1348.67
1018.31	1367.87
1018.602	1348.67
1018.893	1322.68
1019.185	1321.32
1019.476	1311.6
1019.767	1296.46
1020.058	1296.92
1020.35	1284.71
1020.641	1285.84
1020.932	1267.09
1021.223	1241.55
1021.514	1243.58
1021.804	1242.91
1022.095	1221.21
1022.386	1257.14
1022.677	1242.68
1022.967	1217.14
1023.258	1204.04
1023.548	1202.45
1023.839	1204.04
1024.129	1172.85
1024.419	1195.22
1024.709	1181.21
1025	1189.35
1025.29	1143.7
1025.58	1169.23
1025.87	1129.91
1026.16	1135.79
1026.449	1124.49
1026.739	1119.29
1027.029	1141.44
1027.319	1154.32
1027.608	1106.19
1027.898	1081.33
1028.187	1102.57
1028.477	1086.98
1028.766	1073.42
1029.055	1065.06
1029.344	1055.34
1029.634	1026.19
1029.923	1056.24
1030.212	1053.08
1030.501	1015.11
1030.79	1031.84
1031.078	1035.23
1031.367	1033.42
1031.656	1020.54
1031.945	1018.05
1032.233	994.1
1032.522	1002.23
1032.81	994.32
1033.099	976.47
1033.387	983.7
1033.675	957.26
1033.963	953.65
1034.251	981.22
1034.54	945.74
1034.828	931.27
1035.116	932.18
1035.403	943.7
1035.691	941.44
1035.979	930.37
1036.267	908.22
1036.554	912.97
1036.842	924.95
1037.129	901.22
1037.417	911.84
1037.704	903.25
1037.992	882.69
1038.279	883.14
1038.566	894.89
1038.853	894.89
1039.14	894.89
