Data from hue_210_FLMS001491_00098.txt Node
Date: Tue Feb 07 16:42:01 GMT 2017
User: dcchb
Spectrometer: FLMS00149
Trigger mode: 0
Integration Time (sec): 2.000000E-2
Scans to average: 10
Electric dark correction enabled: true
Nonlinearity correction enabled: false
Boxcar width: 0
XAxis mode: Wavelengths
Number of Pixels in Spectrum: 2048
>>>>>Begin Spectral Data<<<<<
341.393	-18.35
341.776	-18.35
342.16	-18.35
342.543	-80.49
342.927	-67.61
343.31	-41.85
343.693	-68.06
344.077	-68.52
344.46	-84.79
344.843	-49.98
345.226	-38.69
345.61	-32.81
345.993	-11.34
346.376	-7.27
346.759	16.68
347.142	24.82
347.525	34.76
347.908	78.83
348.291	65.49
348.674	76.57
349.057	106.17
349.44	140.74
349.823	136.45
350.206	163.34
350.588	192.49
350.971	217.81
351.354	226.84
351.737	244.47
352.119	253.96
352.502	254.19
352.884	273.62
353.267	273.17
353.65	278.14
354.032	281.76
354.414	278.82
354.797	307.75
355.179	334.86
355.562	324.24
355.944	318.37
356.326	331.25
356.709	345.49
357.091	326.28
357.473	338.48
357.855	340.29
358.238	331.25
358.62	318.14
359.002	341.19
359.384	320.18
359.766	329.89
360.148	328.31
360.53	340.97
360.912	344.36
361.294	343
361.676	321.76
362.057	345.49
362.439	344.58
362.821	323.56
363.203	315.88
363.584	315.43
363.966	313.17
364.348	315.43
364.729	322.89
365.111	304.81
365.493	314.07
365.874	322.44
366.256	311.81
366.637	312.04
367.019	317.01
367.4	315.66
367.781	309.55
368.163	318.37
368.544	291.48
368.925	307.07
369.306	319.72
369.688	308.65
370.069	298.25
370.45	315.43
370.831	314.98
371.212	288.54
371.593	313.62
371.974	324.92
372.355	322.89
372.736	307.07
373.117	333.96
373.498	322.21
373.879	324.24
374.26	304.36
374.641	328.54
375.021	313.17
375.402	299.84
375.783	316.33
376.163	331.25
376.544	303.45
376.925	331.7
377.305	324.92
377.686	324.69
378.066	316.56
378.447	330.8
378.827	320.85
379.208	345.94
379.588	300.06
379.968	308.42
380.349	337.8
380.729	334.64
381.109	329.44
381.489	331.93
381.87	346.16
382.25	357.24
382.63	347.07
383.01	342.77
383.39	329.44
383.77	330.12
384.15	354.98
384.53	342.77
384.91	348.65
385.29	343.23
385.67	353.62
386.049	351.81
386.429	353.39
386.809	350.46
387.189	357.46
387.568	343.23
387.948	350
388.328	347.07
388.707	374.41
389.087	350.68
389.466	347.07
389.846	348.2
390.225	375.99
390.605	370.12
390.984	382.77
391.363	386.39
391.743	357.46
392.122	355.2
392.501	353.17
392.881	368.31
393.26	377.57
393.639	347.75
394.018	353.17
394.397	390.23
394.776	385.03
395.155	389.78
395.534	364.24
395.913	392.26
396.292	400.63
396.671	385.26
397.05	398.82
397.429	392.26
397.808	397.46
398.186	396.11
398.565	397.01
398.944	411.92
399.323	407.18
399.701	401.98
400.08	422.32
400.458	397.91
400.837	435.2
401.215	421.42
401.594	411.7
401.972	444.01
402.351	428.87
402.729	439.95
403.107	412.6
403.486	421.42
403.864	424.81
404.242	442.21
404.62	444.01
404.999	450.12
405.377	460.06
405.755	444.69
406.133	465.71
406.511	453.05
406.889	457.35
407.267	469.78
407.645	476.78
408.023	489.21
408.401	487.85
408.779	485.82
409.156	501.19
409.534	524.01
409.912	497.57
410.29	526.05
410.667	532.37
411.045	534.18
411.422	548.64
411.8	529.66
412.178	566.27
412.555	567.63
412.933	566.04
413.31	590
413.687	589.77
414.065	590.68
414.442	615.08
414.819	624.57
415.197	641.97
415.574	625.7
415.951	658.02
416.328	636.78
416.705	665.48
417.082	679.04
417.46	658.47
417.837	676.32
418.214	672.26
418.591	691.69
418.967	691.46
419.344	698.02
419.721	729.2
420.098	730.56
420.475	755.87
420.852	773.95
421.228	751.58
421.605	801.29
421.982	791.58
422.358	810.33
422.735	811.24
423.111	823.21
423.488	864.57
423.864	874.96
424.241	898.24
424.617	874.06
424.994	890.1
425.37	912.93
425.746	919.03
426.123	914.96
426.499	946.6
426.875	987.5
427.251	998.8
427.627	1015.3
428.003	1004.9
428.379	1015.52
428.756	1022.08
429.132	1053.26
429.507	1054.39
429.883	1067.5
430.259	1109.76
430.635	1081.74
431.011	1091.23
431.387	1128.29
431.763	1143.66
432.138	1167.61
432.514	1159.93
432.89	1187.95
433.265	1213.94
433.641	1220.72
434.016	1258.23
434.392	1267.04
434.767	1319.7
435.143	1316.53
435.518	1377.55
435.894	1369.64
436.269	1363.54
436.644	1411.22
437.02	1404.89
437.395	1451.44
437.77	1473.14
438.145	1516.3
438.52	1507.49
438.895	1537.54
439.271	1539.35
439.646	1593.81
440.021	1637.2
440.395	1632.68
440.77	1625.45
441.145	1639.01
441.52	1697.09
441.895	1716.52
442.27	1728.73
442.645	1772.11
443.019	1754.71
443.394	1764.66
443.769	1832.23
444.143	1774.83
444.518	1865.45
444.892	1824.54
445.267	1871.32
445.641	1886.01
446.016	1874.03
446.39	1872.45
446.764	1939.12
447.139	1928.49
447.513	1947.25
447.887	1972.56
448.262	1980.02
448.636	1991.32
449.01	2019.57
449.384	2031.77
449.758	2018.44
450.132	2093.01
450.506	2080.81
450.88	2100.02
451.254	2087.59
451.628	2117.42
452.002	2165.1
452.376	2181.14
452.75	2200.35
453.123	2210.75
453.497	2238.09
453.871	2252.1
454.244	2288.26
454.618	2314.47
454.992	2363.74
455.365	2342.95
455.739	2393.12
456.112	2404.19
456.486	2442.15
456.859	2481.25
457.232	2515.37
457.606	2516.5
457.979	2544.75
458.352	2589.27
458.725	2629.49
459.099	2642.6
459.472	2678.53
459.845	2669.04
460.218	2725.54
460.591	2724.18
460.964	2713.11
461.337	2780.68
461.71	2848.47
462.083	2885.76
462.456	2866.77
462.829	2889.15
463.201	2908.58
463.574	2955.13
463.947	3009.37
464.32	3079.65
464.692	3045.3
465.065	3111.06
465.438	3141.34
465.81	3172.76
466.183	3224.73
466.555	3273.09
466.928	3323.03
467.3	3310.15
467.672	3341.34
468.045	3427.66
468.417	3421.34
468.789	3480.77
469.161	3529.81
469.534	3555.34
469.906	3620.88
470.278	3645.29
470.65	3700.65
471.022	3733.42
471.394	3825.39
471.766	3858.84
472.138	3870.36
472.51	3950.14
472.882	3973.64
473.253	4015.9
473.625	4098.83
473.997	4161.88
474.369	4208.66
474.74	4220.41
475.112	4327.53
475.484	4388.32
475.855	4451.59
476.227	4464.92
476.598	4570.46
476.97	4633.06
477.341	4685.26
477.713	4736.56
478.084	4788.31
478.455	4922.77
478.827	4949.43
479.198	5044.57
479.569	5078.24
479.94	5205.47
480.311	5203.66
480.682	5325.24
481.053	5454.96
481.424	5536.31
481.795	5576.08
482.166	5625.57
482.537	5711.9
482.908	5769.52
483.279	5855.62
483.65	5967.71
484.021	6047.71
484.391	6044.32
484.762	6127.03
485.133	6131.77
485.503	6235.73
485.874	6394.37
486.244	6428.26
486.615	6567.02
486.985	6621.93
487.356	6716.84
487.726	6739.44
488.097	6877.52
488.467	6873.68
488.837	6989.15
489.207	7110.51
489.578	7171.52
489.948	7249.71
490.318	7299.65
490.688	7302.82
491.058	7428.69
491.428	7480.21
491.798	7585.52
492.168	7658.51
492.538	7699.19
492.908	7808.11
493.278	7896.47
493.648	7918.85
494.017	7953.19
494.387	8009.92
494.757	8067.77
495.126	8157.48
495.496	8162
495.866	8165.62
496.235	8323.81
496.605	8313.19
496.974	8375.78
497.344	8476.12
497.713	8495.78
498.082	8505.95
498.452	8655.55
498.821	8576.91
499.19	8631.82
499.559	8696.68
499.928	8770.35
500.298	8766.28
500.667	8820.52
501.036	8804.25
501.405	8846.73
501.774	8854.64
502.143	8867.3
502.512	8946.84
502.88	9031.13
503.249	8951.36
503.618	9060.51
503.987	9064.58
504.356	9113.16
504.724	9132.82
505.093	9108.64
505.462	9191.81
505.83	9259.15
506.199	9284.46
506.567	9355.42
506.936	9275.65
507.304	9391.35
507.672	9377.11
508.041	9347.73
508.409	9483.55
508.777	9510.44
509.145	9526.26
509.514	9534.4
509.882	9574.85
510.25	9500.27
510.618	9594.28
510.986	9537.79
511.354	9658.23
511.722	9647.61
512.09	9742.3
512.458	9698.91
512.826	9752.7
513.193	9712.7
513.561	9750.44
513.929	9777.33
514.297	9891.45
514.664	9889.64
515.032	9924.22
515.4	9876.31
515.767	9972.35
516.135	9897.1
516.502	9853.48
516.869	9930.77
517.237	9969.19
517.604	9940.49
517.972	9960.37
518.339	9965.35
518.706	10009.19
519.073	10000.37
519.44	9986.14
519.808	10088.96
520.175	10027.26
520.542	10120.14
520.909	10119.01
521.276	10096.42
521.643	10182.51
522.009	10117.21
522.376	10221.61
522.743	10172.12
523.11	10269.74
523.477	10255.96
523.843	10228.62
524.21	10293.25
524.577	10379.8
524.943	10333.02
525.31	10330.08
525.676	10357.65
526.043	10389.29
526.409	10329.63
526.776	10436.97
527.142	10407.82
527.508	10420.25
527.874	10401.94
528.241	10406.01
528.607	10349.06
528.973	10448.04
529.339	10414.83
529.705	10508.83
530.071	10471.32
530.437	10370.98
530.803	10475.39
531.169	10496.4
531.535	10436.52
531.901	10395.84
532.267	10408.05
532.632	10435.62
532.998	10402.17
533.364	10487.37
533.73	10372.79
534.095	10362.17
534.461	10448.27
534.826	10427.25
535.192	10433.36
535.557	10385.22
535.923	10311.55
536.288	10389.06
536.653	10254.15
537.019	10265.22
537.384	10245.11
537.749	10186.81
538.114	10221.16
538.479	10233.13
538.845	10143.19
539.21	10109.97
539.575	10102.52
539.94	10070.43
540.305	10083.76
540.67	10076.3
541.034	10012.12
541.399	9987.04
541.764	9975.51
542.129	9906.14
542.494	9900.26
542.858	9917.89
543.223	9828.4
543.587	9881.73
543.952	9811.9
544.316	9815.07
544.681	9760.83
545.045	9773.26
545.41	9797.21
545.774	9680.83
546.138	9754.28
546.503	9681.06
546.867	9597.45
547.231	9636.09
547.595	9548.86
547.959	9574.62
548.324	9620.72
548.688	9448.07
549.052	9523.1
549.416	9470.22
549.779	9488.75
550.143	9397.22
550.507	9349.09
550.871	9369.2
551.235	9285.82
551.599	9329.66
551.962	9325.81
552.326	9324.01
552.689	9269.32
553.053	9188.42
553.417	9221.86
553.78	9298.02
554.143	9164.24
554.507	9180.51
554.87	9215.08
555.234	9180.73
555.597	9122.43
555.96	9017.12
556.323	9036.33
556.686	9061.64
557.05	9056.67
557.413	9006.5
557.776	8961.76
558.139	9059.61
558.502	8998.82
558.865	8996.33
559.228	9043.34
559.59	8983
559.953	8950.91
560.316	9098.48
560.679	8967.41
561.041	9031.36
561.404	8955.88
561.767	9053.28
562.129	8972.38
562.492	9060.06
562.854	9009.44
563.217	8949.78
563.579	8990.46
563.941	8989.78
564.304	9057.35
564.666	8972.83
565.028	8965.15
565.39	9000.62
565.753	8985.26
566.115	8998.14
566.477	9021.42
566.839	9028.42
567.201	9047.63
567.563	9053.5
567.925	9030.68
568.287	9119.04
568.648	9103.45
569.01	9143.9
569.372	9120.17
569.734	9116.33
570.095	9157.23
570.457	9076.33
570.819	9131.69
571.18	9137.12
571.542	9161.52
571.903	9143.22
572.265	9151.13
572.626	9179.6
572.987	9209.21
573.349	9152.71
573.71	9212.82
574.071	9229.32
574.432	9180.96
574.794	9272.93
575.155	9273.84
575.516	9212.6
575.877	9233.84
576.238	9271.35
576.599	9293.72
576.96	9300.96
577.32	9376.43
577.681	9277
578.042	9324.46
578.403	9302.09
578.763	9284.01
579.124	9271.58
579.485	9342.99
579.845	9353.38
580.206	9383.44
580.566	9324.23
580.927	9316.1
581.287	9449.2
581.648	9382.76
582.008	9419.37
582.368	9392.71
582.728	9501.85
583.089	9429.31
583.449	9473.83
583.809	9395.42
584.169	9486.26
584.529	9446.49
584.889	9451.01
585.249	9494.4
585.609	9457.56
585.969	9532.59
586.329	9405.36
586.688	9477.67
587.048	9513.15
587.408	9535.53
587.768	9539.59
588.127	9488.97
588.487	9468.18
588.846	9558.12
589.206	9513.83
589.565	9540.05
589.925	9578.01
590.284	9531.23
590.643	9506.15
591.003	9505.02
591.362	9559.03
591.721	9489.43
592.08	9531.23
592.44	9524.68
592.799	9587.73
593.158	9529.88
593.517	9557.67
593.876	9513.83
594.235	9519.93
594.593	9537.79
594.952	9608.07
595.311	9546.15
595.67	9582.3
596.029	9633.15
596.387	9564.23
596.746	9613.04
597.104	9558.8
597.463	9619.82
597.822	9579.59
598.18	9582.98
598.538	9514.51
598.897	9629.99
599.255	9525.13
599.613	9655.07
599.972	9552.93
600.33	9683.54
600.688	9606.48
601.046	9585.47
601.404	9638.35
601.762	9576.65
602.12	9633.38
602.478	9668.63
602.836	9624.11
603.194	9613.04
603.552	9592.02
603.91	9601.06
604.268	9625.69
604.625	9601.29
604.983	9582.08
605.341	9608.97
605.698	9657.33
606.056	9625.92
606.413	9618.91
606.771	9679.25
607.128	9674.51
607.485	9646.03
607.843	9592.47
608.2	9658.91
608.557	9701.85
608.914	9730.1
609.272	9736.42
609.629	9710.21
609.986	9674.05
610.343	9714.28
610.7	9692.13
611.057	9694.39
611.414	9710.44
611.771	9776.65
612.127	9742.3
612.484	9720.83
612.841	9791.56
613.198	9789.3
613.554	9751.79
613.911	9790.21
614.267	9737.33
614.624	9747.05
614.98	9844.22
615.337	9833.15
615.693	9886.48
616.05	9807.16
616.406	9810.77
616.762	9854.16
617.118	9846.03
617.475	9873.14
617.831	9875.63
618.187	9843.09
618.543	9866.59
618.899	9871.11
619.255	9889.42
619.611	9861.17
619.967	9905.01
620.323	9951.11
620.678	9887.38
621.034	9881.51
621.39	9848.29
621.746	9942.97
622.101	10037.43
622.457	9899.81
622.812	9947.72
623.168	9929.87
623.523	9865.46
623.879	9935.74
624.234	9892.58
624.589	9937.78
624.945	9886.48
625.3	9925.8
625.655	9928.28
626.01	9851.9
626.365	9909.3
626.72	9822.75
627.075	9841.96
627.43	9845.8
627.785	9828.17
628.14	9819.81
628.495	9876.99
628.85	9824.56
629.205	9783.2
629.559	9914.5
629.914	9796.99
630.269	9850.32
630.623	9784.11
630.978	9758.12
631.332	9841.28
631.687	9806.71
632.041	9832.47
632.396	9819.59
632.75	9772.13
633.104	9774.62
633.459	9689.42
633.813	9690.1
634.167	9714.05
634.521	9743.43
634.875	9695.75
635.229	9686.03
635.583	9628.86
635.937	9623.89
636.291	9585.92
636.645	9657.33
636.999	9589.54
637.352	9566.49
637.706	9543.89
638.06	9588.41
638.413	9539.14
638.767	9519.93
639.121	9605.35
639.474	9480.61
639.828	9512.02
640.181	9511.8
640.534	9570.78
640.888	9502.76
641.241	9469.77
641.594	9520.16
641.947	9479.26
642.301	9414.4
642.654	9395.42
643.007	9444.46
643.36	9447.39
643.713	9439.94
644.066	9427.51
644.419	9374.4
644.771	9377.56
645.124	9313.39
645.477	9262.76
645.83	9239.49
646.182	9154.97
646.535	9139.38
646.888	9140.96
647.24	9085.82
647.593	9142.32
647.945	9139.38
648.298	9048.76
648.65	9079.49
649.002	9058.02
649.355	9121.75
649.707	9113.16
650.059	9122.88
650.411	9232.03
650.763	9230.22
651.115	9257.34
651.467	9331.69
651.819	9290.11
652.171	9367.85
652.523	9279.49
652.875	9314.06
653.227	9317
653.578	9347.51
653.93	9292.82
654.282	9270
654.633	9245.14
654.985	9244.69
655.337	9335.76
655.688	9332.59
656.039	9314.29
656.391	9327.85
656.742	9279.94
657.094	9351.12
657.445	9357.9
657.796	9288.75
658.147	9274.97
658.498	9314.74
658.849	9314.51
659.2	9298.24
659.551	9314.06
659.902	9338.47
660.253	9383.21
660.604	9327.85
660.955	9297.79
661.306	9310.9
661.656	9362.65
662.007	9324.23
662.358	9350.67
662.708	9346.6
663.059	9347.96
663.409	9272.03
663.76	9419.6
664.11	9447.84
664.461	9350.22
664.811	9360.62
665.161	9323.55
665.511	9379.15
665.862	9405.81
666.212	9419.82
666.562	9362.2
666.912	9465.47
667.262	9339.83
667.612	9400.16
667.962	9370.33
668.312	9394.51
668.662	9420.05
669.011	9379.37
669.361	9361.29
669.711	9377.34
670.06	9359.49
670.41	9308.64
670.76	9334.85
671.109	9352.71
671.459	9282.88
671.808	9375.76
672.157	9343.21
672.507	9260.28
672.856	9255.08
673.205	9326.04
673.554	9363.1
673.904	9286.72
674.253	9340.28
674.602	9243.78
674.951	9177.8
675.3	9070.23
675.649	9232.26
675.998	9231.58
676.346	9203.56
676.695	9225.25
677.044	9249.43
677.393	9198.36
677.741	9189.55
678.09	9132.82
678.438	9152.94
678.787	9162.88
679.135	9173.73
679.484	9151.81
679.832	9203.11
680.181	9114.07
680.529	9074.3
680.877	9054.41
681.225	9041.08
681.573	9079.72
681.922	9038.82
682.27	9014.18
682.618	9001.53
682.966	9008.53
683.314	9039.72
683.661	8881.31
684.009	8928.31
684.357	8944.81
684.705	8853.06
685.053	8857.58
685.4	8888.54
685.748	8783.68
686.095	8774.87
686.443	8785.04
686.79	8730.58
687.138	8787.98
687.485	8740.74
687.832	8717.24
688.18	8720.63
688.527	8702.78
688.874	8658.26
689.221	8659.39
689.568	8644.7
689.915	8538.49
690.262	8517.02
690.609	8543.69
690.956	8516.34
691.303	8497.14
691.65	8458.49
691.997	8453.29
692.344	8345.5
692.69	8378.49
693.037	8424.14
693.383	8326.52
693.73	8351.15
694.077	8300.08
694.423	8291.27
694.769	8170.36
695.116	8154.55
695.462	8138.95
695.808	8156.35
696.155	8156.35
696.501	8104.6
696.847	8001.56
697.193	8032.74
697.539	7988.67
697.885	7953.42
698.231	7923.37
698.577	7862.58
698.923	7910.94
699.269	7853.31
699.614	7830.26
699.96	7741.67
700.306	7795.23
700.651	7724.95
700.997	7737.83
701.342	7653.09
701.688	7659.87
702.033	7619.87
702.379	7631.17
702.724	7589.14
703.069	7593.2
703.415	7461.23
703.76	7506.88
704.105	7450.84
704.45	7449.71
704.795	7380.1
705.14	7339.43
705.485	7327.67
705.83	7339.2
706.175	7317.05
706.52	7299.88
706.865	7257.85
707.209	7225.53
707.554	7189.83
707.899	7260.78
708.243	7163.84
708.588	7129.26
708.932	7106.66
709.277	7085.2
709.621	7154.8
709.966	7070.51
710.31	7054.69
710.654	7004.29
710.998	7012.43
711.342	7071.64
711.687	7005.65
712.031	6966.55
712.375	6887.46
712.719	6966.1
713.063	6911.19
713.407	6962.94
713.75	6889.72
714.094	6880.23
714.438	6896.73
714.782	6822.38
715.125	6813.34
715.469	6835.48
715.812	6813.79
716.156	6805.43
716.499	6762.04
716.843	6782.83
717.186	6765.43
717.53	6758.42
717.873	6707.58
718.216	6707.35
718.559	6748.71
718.902	6681.82
719.246	6703.74
719.589	6690.4
719.932	6663.29
720.275	6630.29
720.617	6616.28
720.96	6663.51
721.303	6663.96
721.646	6612.21
721.989	6613.12
722.331	6634.13
722.674	6625.55
723.016	6611.31
723.359	6556.4
723.701	6591.42
724.044	6609.95
724.386	6536.73
724.729	6621.7
725.071	6531.99
725.413	6546.68
725.755	6548.49
726.097	6527.24
726.439	6503.06
726.782	6488.15
727.124	6579.45
727.465	6527.47
727.807	6473.46
728.149	6522.5
728.491	6509.62
728.833	6490.63
729.175	6455.61
729.516	6480.69
729.858	6480.92
730.199	6482.05
730.541	6480.01
730.882	6495.38
731.224	6520.46
731.565	6400.02
731.906	6508.71
732.248	6513.91
732.589	6431.88
732.93	6409.51
733.271	6421.26
733.612	6527.24
733.953	6487.92
734.294	6468.04
734.635	6424.65
734.976	6466.91
735.317	6457.19
735.658	6485.89
735.999	6475.72
736.339	6487.7
736.68	6544.19
737.021	6450.64
737.361	6439.11
737.702	6554.81
738.042	6505.1
738.383	6499.45
738.723	6547.81
739.063	6480.92
739.404	6521.37
739.744	6510.97
740.084	6564.76
740.424	6564.3
740.764	6501.26
741.104	6561.82
741.444	6569.73
741.784	6581.93
742.124	6546.9
742.464	6619.9
742.804	6683.4
743.143	6654.25
743.483	6670.06
743.823	6680.91
744.162	6723.62
744.502	6758.2
744.841	6726.11
745.181	6863.96
745.52	6823.73
745.86	6877.52
746.199	6952.54
746.538	6929.94
746.877	7002.71
747.216	6991.41
747.556	7031.64
747.895	7146.21
748.234	7106.21
748.573	7179.43
748.911	7204.51
749.25	7280.67
749.589	7329.71
749.928	7416.49
750.267	7475.92
750.605	7496.71
750.944	7545.3
751.283	7640.43
751.621	7811.73
751.96	7829.58
752.298	7875.23
752.636	8016.92
752.975	8075.45
753.313	8179.86
753.651	8302.34
753.989	8356.57
754.327	8456.46
754.666	8551.37
755.004	8687.86
755.342	8926.28
755.679	8942.77
756.017	9056.67
756.355	9223.9
756.693	9310.22
757.031	9446.94
757.368	9589.08
757.706	9668.18
758.044	9837.44
758.381	10032.46
758.719	10179.8
759.056	10335.73
759.394	10426.58
759.731	10600.81
760.068	10708.6
760.405	10849.62
760.743	11027.24
761.08	11280.56
761.417	11358.98
761.754	11517.17
762.091	11697.96
762.428	11827.67
762.765	11984.28
763.102	12230.82
763.438	12343.81
763.775	12446.18
764.112	12605.05
764.449	12868.32
764.785	13016.34
765.122	13037.13
765.458	13191.25
765.795	13343.11
766.131	13648.64
766.467	13742.42
766.804	13847.05
767.14	13963.43
767.476	14139.02
767.812	14228.51
768.148	14439.35
768.485	14534.26
768.821	14638.44
769.157	14797.53
769.492	14927.02
769.828	15168.15
770.164	15165.66
770.5	15268.48
770.836	15309.61
771.171	15402.72
771.507	15573.56
771.842	15583.28
772.178	15729.71
772.513	15861.91
772.849	15883.38
773.184	15971.29
773.519	16133.54
773.855	16042.93
774.19	16167.89
774.525	16258.06
774.86	16466.87
775.195	16468.9
775.53	16459.86
775.865	16494.44
776.2	16521.33
776.535	16561.33
776.87	16589.13
777.205	16676.36
777.539	16672.97
777.874	16842.9
778.209	16790.7
778.543	16762.91
778.878	16797.48
779.212	16903.47
779.547	16833.87
779.881	17093.97
780.215	16928.1
780.55	17105.04
780.884	17049.68
781.218	17029.79
781.552	17105.27
781.886	17185.04
782.22	17038.83
782.554	17098.04
782.888	16959.51
783.222	16972.84
783.556	17079.06
783.889	16978.04
784.223	16940.98
784.557	17042.45
784.89	17085.38
785.224	17080.64
785.557	17093.07
785.891	16999.96
786.224	16951.83
786.558	16992.05
786.891	16928.55
787.224	16865.73
787.557	16930.13
787.891	16864.37
788.224	16906.41
788.557	16931.26
788.89	16882.23
789.223	16949.12
789.556	16877.48
789.888	16849.01
790.221	16733.75
790.554	16688.11
790.887	16747.31
791.219	16682.23
791.552	16658.5
791.884	16710.7
792.217	16623.7
792.549	16577.37
792.882	16519.07
793.214	16566.98
793.546	16526.3
793.879	16486.3
794.211	16381.22
794.543	16412.63
794.875	16392.52
795.207	16505.06
795.539	16402.92
795.871	16442.92
796.203	16301
796.535	16212.41
796.867	16204.96
797.198	16168.57
797.53	16215.12
797.862	16014.68
798.193	16134.45
798.525	15988.46
798.856	15962.02
799.188	15847.45
799.519	15914.12
799.85	15751.41
800.182	15749.37
800.513	15860.78
800.844	15722.26
801.175	15745.53
801.506	15864.63
801.837	15655.59
802.168	15659.21
802.499	15652.65
802.83	15505.54
803.161	15535.82
803.491	15467.57
803.822	15549.83
804.153	15436.84
804.483	15363.85
804.814	15332.21
805.145	15270.74
805.475	15347.35
805.805	15298.09
806.136	15237.07
806.466	15284.75
806.796	15178.77
807.126	15108.03
807.457	15064.19
807.787	15088.15
808.117	15016.96
808.447	15038.21
808.777	15006.12
809.107	14899
809.436	14897.42
809.766	14851.32
810.096	14867.59
810.426	14758.67
810.755	14802.28
811.085	14831.88
811.414	14771.77
811.744	14681.61
812.073	14669.4
812.403	14707.82
812.732	14558.67
813.061	14572.68
813.39	14546.92
813.719	14543.76
814.049	14529.07
814.378	14574.04
814.707	14399.8
815.036	14444.32
815.365	14340.82
815.693	14331.78
816.022	14285.68
816.351	14295.85
816.68	14207.49
817.008	14234.16
817.337	14145.57
817.665	14121.39
817.994	14126.59
818.322	14138.57
818.651	14126.82
818.979	14038.68
819.307	14114.84
819.636	14085.46
819.964	14034.62
820.292	14071.23
820.62	14085.69
820.948	13943.32
821.276	13960.72
821.604	13959.14
821.932	13966.14
822.259	13911
822.587	13955.07
822.915	13953.49
823.243	14001.17
823.57	13943.09
823.898	13973.15
824.225	13892.7
824.553	13848.63
824.88	13900.61
825.207	13936.09
825.535	13969.76
825.862	14038.23
826.189	13820.61
826.516	14048.85
826.843	13989.19
827.17	14009.76
827.497	13991.91
827.824	14045.69
828.151	14129.53
828.478	13969.76
828.805	14095.18
829.131	13944.45
829.458	14001.62
829.785	13910.33
830.111	14004.79
830.438	14071.45
830.764	13902.42
831.09	14003.21
831.417	13911.23
831.743	13955.97
832.069	13994.17
832.395	13927.5
832.722	14016.09
833.048	13936.31
833.374	13912.81
833.7	13904
834.026	13878.01
834.351	13849.09
834.677	13917.56
835.003	13870.1
835.329	13874.17
835.654	13817.67
835.98	13773.15
836.306	13797.11
836.631	13756.43
836.956	13835.75
837.282	13797.11
837.607	13720.73
837.932	13713.5
838.258	13708.07
838.583	13642.08
838.908	13611.8
839.233	13604.8
839.558	13612.03
839.883	13536.55
840.208	13514.4
840.533	13521.41
840.858	13564.12
841.182	13494.07
841.507	13553.73
841.832	13495.87
842.156	13382.66
842.481	13364.58
842.805	13365.26
843.13	13303.56
843.454	13315.31
843.778	13307.63
844.103	13191.48
844.427	13150.57
844.751	13148.31
845.075	13136.34
845.399	13193.06
845.723	13123
846.047	13078.26
846.371	13073.51
846.695	13038.71
847.019	12835.78
847.343	12832.84
847.666	12754.42
847.99	12639.4
848.313	12696.35
848.637	12618.38
848.96	12671.49
849.284	12560.53
849.607	12432.17
849.931	12373.64
850.254	12359.18
850.577	12330.25
850.9	12217.94
851.223	12262.46
851.546	12223.37
851.869	12078.74
852.192	12150.37
852.515	12027.89
852.838	11983.6
853.161	11998.29
853.483	11855.47
853.806	11813.43
854.129	11851.4
854.451	11813.43
854.774	11727.78
855.096	11714
855.419	11686.66
855.741	11679.88
856.063	11587.68
856.385	11593.33
856.708	11566.89
857.03	11490.05
857.352	11473.1
857.674	11488.92
857.996	11453.67
858.318	11357.63
858.64	11360.56
858.961	11326.44
859.283	11269.04
859.605	11159.89
859.926	11274.69
860.248	11149.49
860.57	11133.22
860.891	11137.74
861.212	11110.85
861.534	11052.1
861.855	11080.34
862.176	11060.68
862.498	10987.69
862.819	11028.59
863.14	10964.19
863.461	10914.92
863.782	10985.66
864.103	10958.09
864.424	10850.97
864.745	10890.52
865.065	10851.65
865.386	10897.75
865.707	10761.48
866.027	10772.1
866.348	10762.84
866.668	10784.53
866.989	10760.35
867.309	10684.87
867.63	10767.36
867.95	10667.02
868.27	10610.75
868.59	10639.23
868.91	10637.19
869.23	10584.31
869.55	10576.85
869.87	10667.25
870.19	10689.85
870.51	10548.15
870.83	10524.2
871.15	10506.8
871.469	10479.68
871.789	10559.68
872.109	10524.88
872.428	10439.91
872.748	10473.35
873.067	10466.8
873.386	10383.87
873.706	10338.44
874.025	10357.88
874.344	10356.3
874.663	10375.05
874.982	10321.04
875.301	10377.76
875.62	10269.97
875.939	10266.58
876.258	10276.3
876.577	10294.6
876.896	10282.17
877.214	10248.73
877.533	10201.27
877.852	10154.27
878.17	10128.28
878.489	10124.89
878.807	10117.21
879.125	10156.75
879.444	10122.4
879.762	10075.85
880.08	10122.63
880.398	10071.33
880.716	10026.36
881.034	9994.5
881.352	10014.84
881.67	9951.11
881.988	9966.25
882.306	9955.85
882.624	9854.61
882.941	9837.89
883.259	9817.55
883.577	9755.18
883.894	9811.68
884.212	9708.4
884.529	9740.27
884.846	9762.19
885.164	9686.03
885.481	9636.54
885.798	9641.51
886.115	9514.06
886.432	9543.21
886.75	9534.62
887.067	9574.4
887.383	9569.65
887.7	9575.3
888.017	9517.45
888.334	9560.61
888.651	9465.47
888.967	9412.14
889.284	9297.34
889.6	9378.69
889.917	9316.1
890.233	9337.34
890.55	9231.13
890.866	9258.25
891.182	9221.86
891.498	9205.82
891.815	9187.51
892.131	9096.22
892.447	9144.58
892.763	9105.93
893.079	9088.98
893.395	9022.09
893.71	8993.62
894.026	8984.58
894.342	8965.6
894.657	8933.73
894.973	8906.16
895.289	8860.97
895.604	8865.49
895.92	8755.21
896.235	8782.1
896.55	8730.35
896.865	8689.9
897.181	8721.08
897.496	8699.39
897.811	8672.05
898.126	8652.84
898.441	8578.49
898.756	8627.53
899.071	8491.71
899.386	8471.15
899.7	8440.41
900.015	8432.5
900.33	8353.41
900.644	8306.18
900.959	8331.26
901.273	8333.98
901.588	8209.46
901.902	8195.9
902.216	8164.26
902.531	8166.75
902.845	8158.61
903.159	8085.62
903.473	8032.51
903.787	8077.03
904.101	7983.7
904.415	7969.01
904.729	8003.36
905.042	7929.47
905.356	7884.95
905.67	7889.92
905.984	7776.93
906.297	7817.61
906.611	7806.53
906.924	7746.42
907.237	7705.52
907.551	7642.92
907.864	7689.92
908.177	7602.24
908.491	7585.97
908.804	7575.8
909.117	7458.29
909.43	7443.38
909.743	7449.25
910.056	7471.17
910.368	7412.42
910.681	7309.14
910.994	7358.86
911.307	7321.35
911.619	7260.11
911.932	7242.93
912.244	7170.16
912.557	7187.79
912.869	7126.55
913.181	7132.2
913.494	7058.76
913.806	7100.34
914.118	7007.91
914.43	6995.25
914.742	7021.47
915.054	6944.41
915.366	6909.38
915.678	6873
915.99	6834.13
916.302	6814.69
916.613	6833
916.925	6765.43
917.236	6769.5
917.548	6704.64
917.859	6757.75
918.171	6677.75
918.482	6628.48
918.794	6648.82
919.105	6613.57
919.416	6546.45
919.727	6571.99
920.038	6539.22
920.349	6483.85
920.66	6481.37
920.971	6457.41
921.282	6435.04
921.593	6399.79
921.903	6321.6
922.214	6357.53
922.525	6348.27
922.835	6320.47
923.146	6276.4
923.456	6291.32
923.767	6231.43
924.077	6204.77
924.387	6143.3
924.697	6147.82
925.008	6123.86
925.318	6024.21
925.628	6069.18
925.938	6031.66
926.248	6021.49
926.558	5983.3
926.867	5968.61
927.177	5989.4
927.487	5941.95
927.796	5865.79
928.106	5859.92
928.416	5901.72
928.725	5834.38
929.034	5794.16
929.344	5844.55
929.653	5803.19
929.962	5704.21
930.271	5673.25
930.581	5692.69
930.89	5641.39
931.199	5595.29
931.508	5649.75
931.817	5589.19
932.125	5594.84
932.434	5571.56
932.743	5508.74
933.051	5508.74
933.36	5458.57
933.669	5448.85
933.977	5407.05
934.286	5431.68
934.594	5503.54
934.902	5367.95
935.21	5351.91
935.519	5329.54
935.827	5290.67
936.135	5241.4
936.443	5245.24
936.751	5271.46
937.059	5271.46
937.367	5186.26
937.674	5193.72
937.982	5173.61
938.29	5115.53
938.597	5141.07
938.905	5086.6
939.213	5038.7
939.52	5026.94
939.827	5042.99
940.135	4986.72
940.442	4989.2
940.749	4992.59
941.056	4962.99
941.363	4921.18
941.67	4904.69
941.977	4838.7
942.284	4883.67
942.591	4797.35
942.898	4841.41
943.205	4848.19
943.511	4752.83
943.818	4779.94
944.125	4690
944.431	4733.17
944.738	4714.41
945.044	4644.36
945.35	4631.25
945.657	4637.58
945.963	4639.16
946.269	4614.98
946.575	4568.88
946.881	4566.84
947.187	4538.14
947.493	4521.87
947.799	4475.77
948.105	4457.24
948.41	4420.63
948.716	4413.17
949.022	4404.59
949.327	4400.75
949.633	4378.37
949.938	4357.36
950.244	4369.11
950.549	4337.7
950.854	4295.21
951.16	4260.64
951.465	4260.41
951.77	4283.46
952.075	4241.2
952.38	4207.98
952.685	4206.4
952.99	4134.76
953.294	4099.51
953.599	4123.01
953.904	4129.79
954.209	4084.14
954.513	4129.11
954.818	4042.11
955.122	4065.16
955.426	4054.99
955.731	4017.93
956.035	3986.07
956.339	3973.41
956.643	3928.44
956.948	3950.36
957.252	3958.5
957.556	3890.93
957.86	3873.98
958.163	3954.43
958.467	3839.18
958.771	3828.33
959.075	3835.11
959.378	3820.42
959.682	3829.46
959.985	3782.68
960.289	3785.17
960.592	3750.59
960.896	3725.28
961.199	3735.45
961.502	3679.18
961.805	3770.03
962.108	3687.32
962.411	3656.81
962.714	3637.15
963.017	3607.09
963.32	3633.53
963.623	3621.33
963.926	3563.93
964.228	3545.85
964.531	3517.38
964.833	3553.54
965.136	3514.89
965.438	3531.84
965.741	3492.52
966.043	3492.3
966.345	3432.18
966.648	3446.42
966.95	3445.97
967.252	3465.18
967.554	3402.58
967.856	3386.76
968.158	3389.47
968.46	3352.86
968.761	3363.94
969.063	3352.64
969.365	3295.01
969.666	3306.99
969.968	3272.19
970.269	3301.34
970.571	3256.82
970.872	3274.67
971.174	3274.67
971.475	3233.54
971.776	3225.64
972.077	3207.33
972.378	3174.79
972.679	3158.07
972.98	3182.7
973.281	3133.21
973.582	3150.16
973.883	3122.81
974.183	3113.77
974.484	3080.33
974.785	3077.39
975.085	3031.97
975.386	3066.09
975.686	3042.59
975.986	3022.03
976.287	3033.78
976.587	2993.55
976.887	2975.02
977.187	2980.9
977.487	2952.65
977.787	2947.9
978.087	2883.5
978.387	2929.6
978.687	2931.63
978.987	2854.8
979.286	2866.32
979.586	2897.51
979.885	2829.04
980.185	2798.98
980.484	2816.15
980.784	2795.14
981.083	2779.09
981.382	2783.16
981.682	2780.68
981.981	2753.78
982.28	2757.17
982.579	2707.91
982.878	2723.95
983.177	2689.15
983.475	2715.59
983.774	2685.76
984.073	2688.7
984.372	2667.68
984.67	2699.1
984.969	2625.2
985.267	2595.37
985.566	2609.15
985.864	2594.92
986.162	2602.83
986.461	2587.23
986.759	2600.79
987.057	2556.05
987.355	2518.08
987.653	2538.87
987.951	2528.03
988.249	2514.92
988.547	2524.86
988.844	2460.01
989.142	2482.83
989.44	2451.64
989.737	2443.74
990.035	2456.62
990.332	2442.83
990.63	2406.9
990.927	2423.17
991.224	2365.09
991.521	2394.92
991.819	2400.57
992.116	2387.92
992.413	2323.74
992.71	2356.51
993.006	2357.86
993.303	2331.87
993.6	2331.2
993.897	2271.31
994.193	2272.67
994.49	2269.95
994.787	2256.4
995.083	2264.53
995.379	2232.67
995.676	2229.73
995.972	2256.4
996.268	2203.52
996.565	2195.83
996.861	2203.29
997.157	2206.91
997.453	2166.91
997.749	2146.57
998.044	2155.83
998.34	2149.28
998.636	2151.31
998.932	2132.78
999.227	2091.65
999.523	2097.53
999.818	2096.85
1000.114	2067.02
1000.409	2058.66
1000.704	2040.81
1001	2074.93
1001.295	2026.8
1001.59	2028.6
1001.885	2035.61
1002.18	1952.22
1002.475	2011.43
1002.77	1983.63
1003.065	1990.64
1003.359	1975.95
1003.654	1950.19
1003.949	1950.41
1004.243	1946.12
1004.538	1914.71
1004.832	1909.29
1005.127	1894.15
1005.421	1861.38
1005.715	1878.33
1006.009	1858.21
1006.304	1819.57
1006.598	1809.63
1006.892	1821.6
1007.186	1810.31
1007.48	1841.72
1007.773	1795.62
1008.067	1768.72
1008.361	1747.03
1008.655	1742.96
1008.948	1743.41
1009.242	1745.67
1009.535	1742.06
1009.829	1780.7
1010.122	1740.25
1010.415	1726.69
1010.708	1686.01
1011.001	1691.66
1011.295	1673.36
1011.588	1659.35
1011.881	1672
1012.173	1621.16
1012.466	1618.9
1012.759	1616.64
1013.052	1614.6
1013.344	1591.1
1013.637	1602.18
1013.93	1601.95
1014.222	1602.18
1014.514	1566.24
1014.807	1588.16
1015.099	1559.24
1015.391	1565.79
1015.683	1559.92
1015.976	1518.34
1016.268	1520.37
1016.56	1503.87
1016.851	1521.95
1017.143	1478.79
1017.435	1492.35
1017.727	1469.52
1018.018	1433.82
1018.31	1451.22
1018.602	1442.63
1018.893	1430.88
1019.185	1442.18
1019.476	1420.03
1019.767	1422.29
1020.058	1372.35
1020.35	1405.8
1020.641	1392.46
1020.932	1356.31
1021.223	1358.57
1021.514	1371
1021.804	1358.34
1022.095	1331.9
1022.386	1323.76
1022.677	1325.57
1022.967	1313.14
1023.258	1303.2
1023.548	1304.1
1023.839	1315.18
1024.129	1287.38
1024.419	1246.93
1024.709	1267.04
1025	1248.29
1025.29	1251.45
1025.58	1260.72
1025.87	1238.12
1026.16	1238.57
1026.449	1202.64
1026.739	1203.54
1027.029	1228.63
1027.319	1185.92
1027.608	1189.53
1027.898	1178.23
1028.187	1171
1028.477	1154.96
1028.766	1156.99
1029.055	1161.51
1029.344	1142.53
1029.634	1119.93
1029.923	1129.42
1030.212	1128.52
1030.501	1093.94
1030.79	1094.62
1031.078	1112.7
1031.367	1093.71
1031.656	1069.53
1031.945	1079.93
1032.233	1060.72
1032.522	1073.83
1032.81	1091.45
1033.099	1051.23
1033.387	1055.52
1033.675	1021.63
1033.963	1030.21
1034.251	1010.55
1034.54	1014.39
1034.828	1027.73
1035.116	1021.17
1035.403	998.58
1035.691	994.73
1035.979	1007.61
1036.267	969.65
1036.554	973.27
1036.842	974.4
1037.129	961.97
1037.417	959.25
1037.704	953.15
1037.992	946.83
1038.279	929.65
1038.566	931.68
1038.853	931.68
1039.14	931.68
