Data from hue_00_FLMS001491_47.txt Node
Date: Mon Feb 06 15:29:46 GMT 2017
User: dcchb
Spectrometer: FLMS00149
Trigger mode: 0
Integration Time (sec): 2.000000E-2
Scans to average: 10
Electric dark correction enabled: true
Nonlinearity correction enabled: false
Boxcar width: 0
XAxis mode: Wavelengths
Number of Pixels in Spectrum: 2048
>>>>>Begin Spectral Data<<<<<
341.393	0.65
341.776	0.65
342.16	0.65
342.543	-78.44
342.927	-90.42
343.31	-61.95
343.693	-68.5
344.077	-61.04
344.46	-52.23
344.843	-51.78
345.226	-35.51
345.61	-51.1
345.993	5.62
346.376	-5.9
346.759	-4.55
347.142	25.96
347.525	51.72
347.908	50.14
348.291	66.18
348.674	102.79
349.057	90.14
349.44	126.97
349.823	150.93
350.206	144.6
350.588	193.86
350.971	206.29
351.354	209.23
351.737	223.69
352.119	245.62
352.502	248.33
352.884	253.52
353.267	271.83
353.65	285.16
354.032	304.14
354.414	303.92
354.797	291.49
355.179	292.17
355.562	334.65
355.944	324.03
356.326	318.83
356.709	298.49
357.091	342.34
357.473	345.27
357.855	327.65
358.238	342.11
358.62	329
359.002	334.2
359.384	329
359.766	338.72
360.148	354.09
360.53	344.14
360.912	341.66
361.294	323.35
361.676	325.61
362.057	325.84
362.439	330.58
362.821	324.26
363.203	321.09
363.584	348.44
363.966	293.52
364.348	307.99
364.729	317.48
365.111	305.73
365.493	305.05
365.874	296.01
366.256	329
366.637	312.73
367.019	313.86
367.4	292.85
367.781	273.64
368.163	319.96
368.544	303.47
368.925	305.95
369.306	299.17
369.688	324.71
370.069	284.48
370.45	308.89
370.831	319.74
371.212	314.77
371.593	302.34
371.974	317.25
372.355	299.85
372.736	298.49
373.117	313.18
373.498	300.75
373.879	312.28
374.26	305.5
374.641	292.85
375.021	306.63
375.402	316.8
375.783	319.29
376.163	321.77
376.544	330.36
376.925	302.79
377.305	300.98
377.686	322
378.066	303.92
378.447	307.76
378.827	330.81
379.208	320.64
379.588	315.22
379.968	343.47
380.349	322.22
380.729	313.41
381.109	323.58
381.489	333.75
381.87	335.1
382.25	342.11
382.63	318.38
383.01	326.29
383.39	299.17
383.77	350.02
384.15	338.49
384.53	334.43
384.91	317.03
385.29	327.65
385.67	349.57
386.049	358.38
386.429	330.81
386.809	332.84
387.189	349.34
387.568	341.43
387.948	342.11
388.328	343.24
388.707	374.2
389.087	340.98
389.466	343.24
389.846	358.83
390.225	359.06
390.605	329.68
390.984	344.6
391.363	335.78
391.743	362.22
392.122	351.83
392.501	357.25
392.881	355.44
393.26	347.31
393.639	361.32
394.018	350.7
394.397	375.56
394.776	375.33
395.155	370.36
395.534	383.01
395.913	367.42
396.292	380.07
396.671	362.45
397.05	379.62
397.429	394.54
397.808	357.25
398.186	356.8
398.565	385.27
398.944	366.29
399.323	371.49
399.701	365.16
400.08	389.79
400.458	394.76
400.837	383.24
401.215	378.49
401.594	400.64
401.972	405.61
402.351	406.74
402.729	385.95
403.107	374.43
403.486	385.05
403.864	396.8
404.242	407.64
404.62	404.03
404.999	388.66
405.377	420.98
405.755	382.56
406.133	408.55
406.511	382.33
406.889	397.25
407.267	420.98
407.645	400.87
408.023	417.59
408.401	436.8
408.779	436.12
409.156	403.8
409.534	430.47
409.912	406.51
410.29	425.27
410.667	426.18
411.045	427.53
411.422	436.34
411.8	425.95
412.178	469.34
412.555	451.94
412.933	449.9
413.31	459.85
413.687	467.76
414.065	450.13
414.442	450.81
414.819	458.72
415.197	465.95
415.574	454.2
415.951	460.75
416.328	473.86
416.705	484.25
417.082	471.6
417.46	457.36
417.837	467.08
418.214	491.71
418.591	518.38
418.967	505.27
419.344	501.2
419.721	506.17
420.098	507.53
420.475	496.23
420.852	525.61
421.228	523.12
421.605	518.15
421.982	500.07
422.358	505.27
422.735	515.44
423.111	525.83
423.488	519.96
423.864	544.59
424.241	531.03
424.617	533.74
424.994	534.19
425.37	544.82
425.746	546.85
426.123	528.55
426.499	547.75
426.875	547.98
427.251	540.52
427.627	568.32
428.003	590.01
428.379	576.91
428.756	576.91
429.132	577.81
429.507	568.09
429.883	597.02
430.259	601.54
430.635	587.98
431.011	581.88
431.387	618.94
431.763	607.41
432.138	583.01
432.514	642.21
432.89	624.14
433.265	631.59
433.641	644.93
434.016	628.43
434.392	627.75
434.767	643.57
435.143	629.11
435.518	658.03
435.894	669.33
436.269	678.15
436.644	676.56
437.02	690.35
437.395	671.82
437.77	697.35
438.145	704.59
438.52	687.41
438.895	697.58
439.271	694.64
439.646	713.17
440.021	693.96
440.395	710.91
440.77	712.72
441.145	738.26
441.52	744.36
441.895	734.19
442.27	741.2
442.645	747.07
443.019	756.79
443.394	748.88
443.769	735.55
444.143	726.05
444.518	757.92
444.892	757.69
445.267	765.15
445.641	747.3
446.016	757.69
446.39	767.41
446.764	790.46
447.139	798.59
447.513	805.6
447.887	780.29
448.262	812.83
448.636	807.41
449.01	820.06
449.384	802.89
449.758	810.12
450.132	836.56
450.506	817.58
450.88	824.13
451.254	833.62
451.628	835.43
452.002	857.35
452.376	836.33
452.75	823.68
453.123	859.84
453.497	853.73
453.871	878.14
454.244	906.84
454.618	903.68
454.992	892.15
455.365	896.67
455.739	919.72
456.112	917.01
456.486	917.91
456.859	938.48
457.232	938.03
457.606	966.5
457.979	967.4
458.352	960.85
458.725	989.32
459.099	980.06
459.472	999.27
459.845	1020.96
460.218	1031.36
460.591	1011.24
460.964	1028.42
461.337	1048.98
461.71	1072.49
462.083	1058.47
462.456	1118.81
462.829	1085.59
463.201	1098.93
463.574	1119.94
463.947	1102.77
464.32	1110.68
464.692	1133.28
465.065	1142.09
465.438	1173.73
465.81	1181.41
466.183	1169.88
466.555	1185.48
466.928	1204.91
467.3	1198.81
467.672	1219.6
468.045	1222.31
468.417	1237
468.789	1287.17
469.161	1301.63
469.534	1317.23
469.906	1332.37
470.278	1303.89
470.65	1360.84
471.022	1356.09
471.394	1377.56
471.766	1392.93
472.138	1394.96
472.51	1394.96
472.882	1477
473.253	1460.05
473.625	1485.13
473.997	1542.98
474.369	1556.54
474.74	1552.7
475.112	1582.98
475.484	1601.06
475.855	1631.12
476.227	1611.23
476.598	1706.59
476.97	1730.55
477.341	1751.34
477.713	1763.99
478.084	1787.72
478.455	1827.04
478.827	1862.07
479.198	1879.24
479.569	1926.02
479.94	1951.33
480.311	2001.05
480.682	2017.09
481.053	2058.45
481.424	2114.49
481.795	2105.23
482.166	2149.75
482.537	2195.17
482.908	2232.23
483.279	2256.64
483.65	2304.09
484.021	2384.54
484.391	2369.63
484.762	2371.89
485.133	2434.94
485.503	2503.18
485.874	2481.04
486.244	2526.91
486.615	2592.45
486.985	2612.11
487.356	2647.13
487.726	2659.11
488.097	2713.57
488.467	2766.45
488.837	2831.08
489.207	2867.02
489.578	2909.05
489.948	2907.69
490.318	2931.19
490.688	3029.04
491.058	3003.51
491.428	3084.64
491.798	3124.18
492.168	3166.67
492.538	3171.64
492.908	3257.97
493.278	3265.42
493.648	3299.77
494.017	3334.12
494.387	3356.72
494.757	3404.18
495.126	3389.04
495.496	3432.42
495.866	3521.24
496.235	3492.31
496.605	3571.63
496.974	3543.83
497.344	3604.4
497.713	3596.71
498.082	3618.41
498.452	3657.5
498.821	3707.9
499.19	3737.5
499.559	3748.12
499.928	3818.63
500.298	3755.13
500.667	3795.58
501.036	3823.83
501.405	3823.6
501.774	3895.46
502.143	3880.55
502.512	3924.61
502.88	3935.01
503.249	3962.35
503.618	3985.86
503.987	4007.78
504.356	3988.57
504.724	4035.35
505.093	4045.74
505.462	4086.87
505.83	4103.37
506.199	4171.84
506.567	4167.09
506.936	4170.94
507.304	4212.29
507.672	4235.34
508.041	4210.26
508.409	4227.88
508.777	4269.92
509.145	4301.33
509.514	4237.15
509.882	4319.18
510.25	4386.3
510.618	4366.86
510.986	4371.38
511.354	4394.21
511.722	4404.83
512.09	4438.95
512.458	4401.89
512.826	4455.9
513.193	4496.8
513.561	4510.14
513.929	4540.42
514.297	4560.08
514.664	4610.02
515.032	4595.56
515.4	4582.45
515.767	4628.78
516.135	4596.24
516.502	4603.24
516.869	4696.35
517.237	4690.92
517.604	4709.45
517.972	4718.72
518.339	4747.64
518.706	4728.21
519.073	4781.31
519.44	4790.35
519.808	4862.44
520.175	4833.29
520.542	4841.2
520.909	4843.91
521.276	4885.04
521.643	4907.87
522.009	4941.54
522.376	4970.91
522.743	4958.26
523.11	5022.44
523.477	5064.7
523.843	5066.96
524.21	5119.39
524.577	5141.76
524.943	5111.25
525.31	5165.94
525.676	5176.56
526.043	5200.29
526.409	5253.62
526.776	5304.24
527.142	5348.53
527.508	5349.44
527.874	5388.08
528.241	5426.04
528.607	5412.26
528.973	5465.82
529.339	5461.07
529.705	5470.56
530.071	5510.56
530.437	5522.31
530.803	5556.44
531.169	5615.87
531.535	5597.56
531.901	5635.53
532.267	5649.09
532.632	5688.41
532.998	5736.54
533.364	5710.78
533.73	5775.87
534.095	5789.88
534.461	5828.29
534.826	5795.98
535.192	5864.45
535.557	5893.83
535.923	5923.43
536.288	5904.45
536.653	5999.14
537.019	5956.65
537.384	5948.74
537.749	6055.18
538.114	6042.52
538.479	6073.03
538.845	6045.24
539.21	6057.44
539.575	6083.88
539.94	6115.74
540.305	6160.71
540.67	6193.48
541.034	6246.59
541.399	6220.83
541.764	6228.96
542.129	6220.15
542.494	6361.16
542.858	6336.98
543.223	6305.12
543.587	6404.1
543.952	6414.94
544.316	6464.89
544.681	6450.2
545.045	6427.37
545.41	6450.2
545.774	6540.14
546.138	6538.33
546.503	6580.82
546.867	6577.65
547.231	6638.22
547.595	6610.19
547.959	6649.06
548.324	6693.13
548.688	6710.3
549.052	6767.25
549.416	6699.23
549.779	6738.78
550.143	6836.85
550.507	6826.91
550.871	6844.76
551.235	6846.57
551.599	6914.37
551.962	6926.34
552.326	6941.71
552.689	7002.05
553.053	7014.48
553.417	6979.22
553.78	7079.79
554.143	7037.98
554.507	7089.28
554.87	7119.56
555.234	7190.52
555.597	7103.74
555.96	7143.06
556.323	7177.18
556.686	7178.54
557.05	7257.18
557.413	7246.79
557.776	7223.06
558.139	7309.38
558.502	7316.39
558.865	7336.28
559.228	7394.13
559.59	7402.71
559.953	7338.54
560.316	7456.5
560.679	7466.22
561.041	7543.95
561.404	7531.75
561.767	7610.85
562.129	7554.8
562.492	7603.84
562.854	7633.9
563.217	7611.97
563.579	7642.03
563.941	7678.64
564.304	7770.16
564.666	7738.53
565.028	7825.3
565.39	7829.6
565.753	7883.15
566.115	7893.1
566.477	7861.69
566.839	7925.19
567.201	7954.11
567.563	7994.11
567.925	8044.28
568.287	8049.7
568.648	8062.13
569.01	8101.45
569.372	8146.2
569.734	8166.76
570.095	8173.54
570.457	8213.54
570.819	8299.64
571.18	8275.46
571.542	8310.26
571.903	8340.32
572.265	8391.39
572.626	8367.66
572.987	8496.92
573.349	8537.6
573.71	8588.45
574.071	8614.66
574.432	8673.87
574.794	8721.32
575.155	8767.42
575.516	8723.13
575.877	8897.82
576.238	8938.49
576.599	9004.03
576.96	9052.84
577.32	9093.07
577.681	9245.38
578.042	9208.32
578.403	9343.23
578.763	9440.4
579.124	9499.38
579.485	9675.42
579.845	9766.72
580.206	9832.03
580.566	9925.36
580.927	10014.17
581.287	10177.33
581.648	10255.52
582.008	10382.52
582.368	10570.54
582.728	10607.38
583.089	10814.83
583.449	10935.5
583.809	11083.52
584.169	11280.13
584.529	11351.54
584.889	11590.85
585.249	11677.63
585.609	11875.59
585.969	12124.17
586.329	12327.78
586.688	12497.72
587.048	12652.97
587.408	12882.12
587.768	13079.18
588.127	13221.55
588.487	13428.09
588.846	13748.31
589.206	13914.86
589.565	14135.19
589.925	14498.35
590.284	14689.53
590.643	14893.14
591.003	15208.16
591.362	15492.9
591.721	15640.69
592.08	15907.8
592.44	16198.42
592.799	16459.2
593.158	16703.26
593.517	17019.64
593.876	17306.86
594.235	17617.59
594.593	17757.24
594.952	18263.22
595.311	18391.35
595.67	18674.73
596.029	19154.95
596.387	19468.61
596.746	19639.68
597.104	19874.48
597.463	20175.26
597.822	20498.42
598.18	20730.95
598.538	21020.21
598.897	21359.86
599.255	21383.36
599.613	22051.14
599.972	22128.43
600.33	22470.57
600.688	22663.1
601.046	23036.43
601.404	23334.73
601.762	23538.79
602.12	23932.22
602.478	24158.21
602.836	24423.06
603.194	24645.43
603.552	24863.27
603.91	25050.84
604.268	25415.35
604.625	25487.89
604.983	25963.36
605.341	25973.07
605.698	26315.89
606.056	26723.11
606.413	26819.15
606.771	27241.52
607.128	27359.7
607.485	27486.03
607.843	27829.3
608.2	28060.7
608.557	28428.83
608.914	28565.77
609.272	28721.7
609.629	29033.78
609.986	29384.74
610.343	29356.26
610.7	29883.93
611.057	29888.23
611.414	30106.98
611.771	30223.13
612.127	30693.85
612.484	30907.86
612.841	30920.51
613.198	31093.62
613.554	31292.93
613.911	31560.5
614.267	31758.46
614.624	31766.14
614.98	31858.57
615.337	32323.64
615.693	32298.33
616.05	32403.41
616.406	32794.36
616.762	32776.51
617.118	32861.48
617.475	33059.89
617.831	33164.07
618.187	33469.15
618.543	33460.56
618.899	33844.73
619.255	33886.31
619.611	34051.96
619.967	34168.11
620.323	34440.42
620.678	34298.96
621.034	34358.39
621.39	34444.49
621.746	34558.84
622.101	35007.64
622.457	34750.92
622.812	34841.54
623.168	35140.74
623.523	35124.47
623.879	35427.74
624.234	35305.26
624.589	35386.84
624.945	35551.58
625.3	35592.26
625.655	35702.08
626.01	35756.32
626.365	35853.49
626.72	35825.24
627.075	35982.53
627.43	35950.66
627.785	35930.33
628.14	36165.57
628.495	36271.56
628.85	36207.61
629.205	36120.83
629.559	36468.39
629.914	36317.21
630.269	36419.58
630.623	36364.67
630.978	36370.09
631.332	36495.28
631.687	36659.12
632.041	36547.49
632.396	36424.32
632.75	36529.86
633.104	36633.36
633.459	36474.94
633.813	36648.27
634.167	36514.04
634.521	36683.75
634.875	36603.76
635.229	36627.03
635.583	36379.58
635.937	36629.74
636.291	36591.33
636.645	36638.56
636.999	36600.82
637.352	36763.3
637.706	36460.93
638.06	36688.05
638.413	36661.15
638.767	36545.68
639.121	36690.53
639.474	36403.99
639.828	36539.12
640.181	36564.66
640.534	36584.55
640.888	36532.57
641.241	36354.5
641.594	36485.11
641.947	36637.88
642.301	36473.81
642.654	36593.36
643.007	36549.75
643.36	36441.73
643.713	36328.96
644.066	36619.35
644.419	36359.02
644.771	36062.53
645.124	35710.67
645.477	35892.14
645.83	35482.2
646.182	35377.35
646.535	35453.5
646.888	35403.79
647.24	35299.16
647.593	35514.97
647.945	35315.65
648.298	35177.35
648.65	35310.23
649.002	35209.67
649.355	35313.62
649.707	35304.13
650.059	35473.62
650.411	35817.79
650.763	35875.41
651.115	36208.06
651.467	36156.99
651.819	36120.83
652.171	36098.68
652.523	36083.09
652.875	36126.48
653.227	35879.03
653.578	36098.23
653.93	36014.39
654.282	35953.38
654.633	35952.02
654.985	35957.67
655.337	35932.81
655.688	35926.94
656.039	35893.27
656.391	35659.37
656.742	35829.54
657.094	35751.35
657.445	35961.51
657.796	35907.95
658.147	35764.46
658.498	35624.57
658.849	35841.97
659.2	35791.57
659.551	35758.81
659.902	35835.64
660.253	35845.81
660.604	35877.45
660.955	35628.19
661.306	35824.11
661.656	35587.06
662.007	35821.85
662.358	35735.53
662.708	35712.48
663.059	35699.37
663.409	35446.72
663.76	35760.39
664.11	35680.62
664.461	35847.62
664.811	35633.61
665.161	35744.57
665.511	35526.27
665.862	35633.16
666.212	35689.43
666.562	35726.72
666.912	35606.49
667.262	35614.18
667.612	35684.68
667.962	35730.78
668.312	35687.62
668.662	35840.61
669.011	35707.28
669.361	35571.92
669.711	35623.89
670.06	35568.53
670.41	35504.57
670.76	35459.15
671.109	35672.93
671.459	35634.52
671.808	35473.39
672.157	35520.62
672.507	35279.5
672.856	35418.7
673.205	35404.01
673.554	35430.68
673.904	35455.54
674.253	35457.12
674.602	35349.78
674.951	34966.74
675.3	34803.8
675.649	35304.13
675.998	35237.46
676.346	35190.68
676.695	35296.44
677.044	35170.8
677.393	35209.89
677.741	35270.68
678.09	35092.16
678.438	35120.4
678.787	35090.8
679.135	35093.74
679.484	34813.07
679.832	35101.65
680.181	34897.13
680.529	35079.95
680.877	34844.48
681.225	34884.93
681.573	35100.97
681.922	34945.49
682.27	34705.27
682.618	34690.13
682.966	34574.88
683.314	34772.62
683.661	34565.16
684.009	34603.13
684.357	34458.5
684.705	34381.89
685.053	34443.81
685.4	34352.74
685.748	34315.23
686.095	34034.11
686.443	34099.19
686.79	33915.01
687.138	34182.8
687.485	34040.43
687.832	33969.93
688.18	33943.94
688.527	33727.22
688.874	33775.58
689.221	33562.93
689.568	33505.53
689.915	33524.06
690.262	33461.01
690.609	33410.39
690.956	33250.4
691.303	33194.13
691.65	33123.17
691.997	33124.75
692.344	32979.9
692.69	32959.56
693.037	32949.39
693.383	32640.47
693.73	32845.66
694.077	32656.97
694.423	32602.96
694.769	32562.05
695.116	32416.52
695.462	32405.45
695.808	32283.87
696.155	32374.94
696.501	32060.82
696.847	32157.54
697.193	31798.91
697.539	32047.94
697.885	31796.2
698.231	31747.84
698.577	31672.81
698.923	31504.23
699.269	31426.04
699.614	31292.48
699.96	31189.43
700.306	31264.46
700.651	31200.28
700.997	31049.78
701.342	30889.78
701.688	30890.68
702.033	30942.21
702.379	30824.47
702.724	30760.97
703.069	30779.95
703.415	30458.38
703.76	30562.11
704.105	30427.19
704.45	30401.43
704.795	30251.38
705.14	30201.21
705.485	30108.11
705.83	30001.67
706.175	30059.52
706.52	29966.42
706.865	29913.08
707.209	29875.8
707.554	29585.18
707.899	29779.98
708.243	29436.26
708.588	29583.15
708.932	29425.41
709.277	29304.74
709.621	29334.12
709.966	29232.2
710.31	29235.59
710.654	29018.64
710.998	29062.94
711.342	29055.7
711.687	28904.52
712.031	28841.47
712.375	28753.57
712.719	28822.04
713.063	28714.02
713.407	28760.8
713.75	28557.41
714.094	28662.72
714.438	28505.66
714.782	28480.13
715.125	28396.06
715.469	28437.64
715.812	28218.89
716.156	28174.15
716.499	28260.47
716.843	28246.23
717.186	28005.34
717.53	28151.55
717.873	28064.09
718.216	27886.47
718.559	27854.61
718.902	27669.98
719.246	27748.85
719.589	27651
719.932	27624.56
720.275	27534.16
720.617	27565.12
720.96	27472.47
721.303	27510.21
721.646	27418.91
721.989	27314.51
722.331	27364
722.674	27077.9
723.016	27308.18
723.359	27249.65
723.701	27223.44
724.044	27052.59
724.386	26904.58
724.729	27054.18
725.071	26882.2
725.413	27049.88
725.755	26917
726.097	26888.98
726.439	26743.9
726.782	26695.32
727.124	26830.45
727.465	26720.63
727.807	26652.15
728.149	26717.69
728.491	26571.93
728.833	26631.36
729.175	26473.4
729.516	26352.27
729.858	26436.79
730.199	26458.03
730.541	26362.44
730.882	26281.54
731.224	26396.34
731.565	26107.76
731.906	26116.35
732.248	26241.99
732.589	26096.23
732.93	25922
733.271	26128.1
733.612	25987.31
733.953	26010.36
734.294	25816.69
734.635	25877.71
734.976	25852.85
735.317	25722.69
735.658	25743.02
735.999	25681.78
736.339	25666.42
736.68	25743.93
737.021	25549.36
737.361	25505.29
737.702	25573.31
738.042	25521.11
738.383	25434.78
738.723	25509.81
739.063	25491.73
739.404	25495.8
739.744	25363.37
740.084	25342.13
740.424	25418.29
740.764	25265.07
741.104	25350.04
741.444	25313.66
741.784	25171.97
742.124	25127.9
742.464	25094
742.804	25086.54
743.143	25028.69
743.483	25080.89
743.823	24835.93
744.162	24856.95
744.502	24958.64
744.841	24866.66
745.181	24824.18
745.52	24727.91
745.86	24790.05
746.199	24764.52
746.538	24763.84
746.877	24698.31
747.216	24827.57
747.556	24715.48
747.895	24649.27
748.234	24614.92
748.573	24567.46
748.911	24457.18
749.25	24510.29
749.589	24411.53
749.928	24349.84
750.267	24427.13
750.605	24220.35
750.944	24323.17
751.283	24102.84
751.621	24224.19
751.96	24082.5
752.298	24157.75
752.636	24023.75
752.975	23951.43
753.313	23846.58
753.651	23972
753.989	23862.85
754.327	23841.38
754.666	23710.08
755.004	23727.03
755.342	23693.36
755.679	23717.77
756.017	23580.82
756.355	23520.03
756.693	23544.21
757.031	23598.67
757.368	23375.63
757.706	23341.96
758.044	23300.83
758.381	23357.78
758.719	23174.5
759.056	23286.59
759.394	23120.27
759.731	22965.24
760.068	22985.58
760.405	22841.63
760.743	22793.5
761.08	22906.49
761.417	22652.71
761.754	22793.04
762.091	22671.92
762.428	22589.66
762.765	22462.21
763.102	22683.44
763.438	22441.87
763.775	22310.8
764.112	22271.25
764.449	22441.87
764.785	22212.27
765.122	22073.52
765.458	21966.63
765.795	22039.62
766.131	21993.07
766.467	21866.06
766.804	21771.15
767.14	21612.74
767.476	21674.2
767.812	21557.82
768.148	21480.31
768.485	21513.3
768.821	21396.25
769.157	21345.17
769.492	21304.5
769.828	21194.44
770.164	20998.06
770.5	21023.6
770.836	21015.24
771.171	20811.4
771.507	20874.68
771.842	20578.64
772.178	20688.92
772.513	20614.57
772.849	20519.66
773.184	20498.19
773.519	20389.27
773.855	20269.27
774.19	20205.77
774.525	20195.15
774.86	20254.35
775.195	20113.57
775.53	20028.15
775.865	19903.4
776.2	19721.94
776.535	19729.85
776.87	19642.62
777.205	19640.13
777.539	19516.07
777.874	19594.94
778.209	19327.37
778.543	19283.76
778.878	19189.52
779.212	19192.46
779.547	19152.24
779.881	19133.48
780.215	18992.92
780.55	19072.69
780.884	18905.24
781.218	18857.1
781.552	18900.94
781.886	18794.51
782.22	18637.9
782.554	18615.75
782.888	18367.4
783.222	18394.06
783.556	18371.92
783.889	18318.36
784.223	18138.03
784.557	18064.81
784.89	18045.82
785.224	18024.81
785.557	17903.46
785.891	17917.01
786.224	17813.97
786.558	17743.23
786.891	17652.61
787.224	17540.08
787.557	17525.39
787.891	17534.2
788.224	17444.26
788.557	17416.91
788.89	17326.75
789.223	17354.32
789.556	17157.26
789.888	17201.55
790.221	17106.64
790.554	17048.56
790.887	16973.08
791.219	16824.39
791.552	16829.36
791.884	16818.51
792.217	16724.73
792.549	16712.3
792.882	16553.43
793.214	16516.37
793.546	16463.27
793.879	16314.12
794.211	16262.82
794.543	16452.19
794.875	16238.87
795.207	16245.19
795.539	16171.52
795.871	16147.12
796.203	16016.95
796.535	15933.79
796.867	15875.26
797.198	15867.8
797.53	15917.97
797.862	15792.55
798.193	15825.09
798.525	15640.24
798.856	15708.26
799.188	15535.16
799.519	15409.28
799.85	15482.28
800.182	15487.93
800.513	15515.72
800.844	15345.33
801.175	15350.08
801.506	15315.5
801.837	15214.49
802.168	15114.15
802.499	15160.48
802.83	15052.46
803.161	15087.71
803.491	15002.29
803.822	14932.23
804.153	14871.9
804.483	14744.22
804.814	14762.75
805.145	14777.21
805.475	14693.37
805.805	14673.48
806.136	14729.98
806.466	14645.91
806.796	14649.76
807.126	14535.41
807.457	14425.36
807.787	14519.36
808.117	14388.97
808.447	14328.86
808.777	14384.9
809.107	14340.84
809.436	14272.82
809.766	14261.52
810.096	14137
810.426	14082.31
810.755	14117.34
811.085	14079.83
811.414	14090.45
811.744	13975.42
812.073	13951.47
812.403	13915.99
812.732	13897.91
813.061	13868.08
813.39	13794.86
813.719	13720.51
814.049	13730.68
814.378	13739.27
814.707	13696.11
815.036	13633.51
815.365	13621.99
815.693	13504.25
816.022	13481.65
816.351	13465.83
816.68	13371.15
817.008	13447.98
817.337	13277.59
817.665	13244.37
817.994	13305.61
818.322	13286.4
818.651	13195.33
818.979	13151.49
819.307	13149.68
819.636	13129.34
819.964	13056.8
820.292	13105.62
820.62	13113.98
820.948	12992.62
821.276	13094.09
821.604	12963.47
821.932	13061.55
822.259	13000.53
822.587	13007.09
822.915	12956.02
823.243	12937.26
823.57	13011.16
823.898	12980.87
824.225	12949.24
824.553	12920.76
824.88	13013.41
825.207	12947.2
825.535	12888.67
825.862	12974.55
826.189	12952.17
826.516	13010.7
826.843	13015
827.17	13053.64
827.497	13063.58
827.824	13060.19
828.151	12972.51
828.478	13012.51
828.805	13018.61
829.131	12984.49
829.458	12964.38
829.785	12816.36
830.111	12919.41
830.438	12907.88
830.764	12922.34
831.09	12906.53
831.417	12929.8
831.743	12949.46
832.069	12904.27
832.395	12848.45
832.722	12896.58
833.048	12755.12
833.374	12844.15
833.7	12810.26
834.026	12796.47
834.351	12860.65
834.677	12772.74
835.003	12836.47
835.329	12783.36
835.654	12785.85
835.98	12702.69
836.306	12731.39
836.631	12664.5
836.956	12715.57
837.282	12695.46
837.607	12553.09
837.932	12590.83
838.258	12604.39
838.583	12646.87
838.908	12525.97
839.233	12558.96
839.558	12534.56
839.883	12572.07
840.208	12431.51
840.533	12508.12
840.858	12430.15
841.182	12397.39
841.507	12404.17
841.832	12323.04
842.156	12358.52
842.481	12273.77
842.805	12319.87
843.13	12312.19
843.454	12253.89
843.778	12132.53
844.103	12093.21
844.427	12201.23
844.751	12159.65
845.075	12080.78
845.399	12047.11
845.723	12005.53
846.047	11943.61
846.371	11870.85
846.695	11847.34
847.019	11846.21
847.343	11797.4
847.666	11682.38
847.99	11695.26
848.313	11619.1
848.637	11536.17
848.96	11494.58
849.284	11481.03
849.607	11427.47
849.931	11429.05
850.254	11298.21
850.577	11259.11
850.9	11196.97
851.223	11165.33
851.546	11075.84
851.869	11100.47
852.192	11184.31
852.515	11035.39
852.838	10959.91
853.161	10989.51
853.483	10905.22
853.806	10840.14
854.129	10879.23
854.451	10866.13
854.774	10789.97
855.096	10707.26
855.419	10717.88
855.741	10677.66
856.063	10658.9
856.385	10609.86
856.708	10627.49
857.03	10500.26
857.352	10514.5
857.674	10493.26
857.996	10396.08
858.318	10405.8
858.64	10377.1
858.961	10335.07
859.283	10312.69
859.605	10335.97
859.926	10305.01
860.248	10253.49
860.57	10192.02
860.891	10218.69
861.212	10196.99
861.534	10192.7
861.855	10091.23
862.176	10131.68
862.498	10166.26
862.819	10176.43
863.14	10041.52
863.461	10044.68
863.782	9971.91
864.103	10059.14
864.424	9959.26
864.745	9958.81
865.065	9880.39
865.386	9915.64
865.707	9856.21
866.027	9868.86
866.348	9780.28
866.668	9787.96
866.989	9790
867.309	9739.15
867.63	9757
867.95	9707.06
868.27	9675.42
868.59	9745.7
868.91	9736.44
869.23	9707.74
869.55	9620.96
869.87	9602.88
870.19	9603.34
870.51	9682.2
870.83	9608.31
871.15	9568.31
871.469	9550.68
871.789	9618.93
872.109	9597.91
872.428	9519.27
872.748	9505.03
873.067	9474.07
873.386	9536.9
873.706	9497.8
874.025	9436.11
874.344	9425.94
874.663	9412.15
874.982	9419.39
875.301	9416.9
875.62	9393.85
875.939	9425.49
876.258	9347.97
876.577	9311.59
876.896	9333.51
877.214	9297.58
877.533	9289.22
877.852	9244.25
878.17	9303.23
878.489	9268.2
878.807	9205.61
879.125	9179.39
879.444	9219.62
879.762	9215.77
880.08	9170.58
880.398	9170.13
880.716	9221.65
881.034	9085.61
881.352	9094.87
881.67	9006.29
881.988	9060.75
882.306	9085.16
882.624	8947.99
882.941	9045.16
883.259	8942.11
883.577	8939.17
883.894	8882.9
884.212	8943.47
884.529	8934.88
884.846	8846.74
885.164	8791.15
885.481	8878.83
885.798	8851.72
886.115	8810.81
886.432	8718.84
886.75	8730.59
887.067	8778.5
887.383	8722.45
887.7	8674.32
888.017	8670.25
888.334	8669.12
888.651	8650.59
888.967	8639.07
889.284	8511.39
889.6	8596.13
889.917	8469.81
890.233	8486.08
890.55	8516.81
890.866	8510.71
891.182	8448.79
891.498	8407.89
891.815	8397.27
892.131	8324.05
892.447	8304.16
892.763	8266.65
893.079	8302.13
893.395	8307.78
893.71	8272.97
894.026	8201.79
894.342	8183.03
894.657	8118.63
894.973	8143.03
895.289	8105.75
895.604	8084.73
895.92	8012.64
896.235	7998.18
896.55	7987.56
896.865	7983.49
897.181	7927.22
897.496	7972.64
897.811	7925.19
898.126	7843.83
898.441	7857.17
898.756	7820.56
899.071	7767.68
899.386	7804.06
899.7	7672.76
900.015	7712.31
900.33	7619.43
900.644	7606.78
900.959	7698.07
901.273	7600
901.588	7564.52
901.902	7478.42
902.216	7496.5
902.531	7491.98
902.845	7440.23
903.159	7385.77
903.473	7374.92
903.787	7353
904.101	7294.47
904.415	7310.29
904.729	7284.07
905.042	7251.31
905.356	7188.94
905.67	7219.67
905.984	7228.71
906.297	7140.57
906.611	7127.69
906.924	7160.46
907.237	7070.97
907.551	7070.29
907.864	6984.65
908.177	6997.98
908.491	6996.85
908.804	6938.77
909.117	6914.82
909.43	6907.81
909.743	6848.61
910.056	6872.33
910.368	6820.81
910.681	6751.21
910.994	6773.35
911.307	6766.57
911.619	6675.05
911.932	6714.37
912.244	6664.2
912.557	6567.03
912.869	6618.78
913.181	6592.57
913.494	6555.73
913.806	6506.24
914.118	6481.38
914.43	6433.47
914.742	6483.64
915.054	6427.83
915.366	6392.12
915.678	6341.05
915.99	6288.85
916.302	6282.52
916.613	6244.78
916.925	6236.87
917.236	6210.88
917.548	6187.38
917.859	6204.78
918.171	6177.66
918.482	6112.81
918.794	6061.73
919.105	6114.16
919.416	6065.12
919.727	6022.86
920.038	5975.86
920.349	6004.11
920.66	5923.66
920.971	5894.28
921.282	5950.55
921.593	5828.29
921.903	5830.33
922.214	5810.44
922.525	5797.79
922.835	5842.98
923.146	5731.35
923.456	5691.35
923.767	5708.07
924.077	5673.95
924.387	5647.96
924.697	5625.36
925.008	5621.07
925.318	5574.74
925.628	5570.9
925.938	5522.99
926.248	5504.46
926.558	5477.12
926.867	5506.95
927.177	5472.6
927.487	5426.27
927.796	5342.66
928.106	5344.46
928.416	5349.66
928.725	5346.27
929.034	5373.62
929.344	5311.02
929.653	5263.34
929.962	5200.96
930.271	5220.17
930.581	5193.96
930.89	5245.71
931.199	5118.71
931.508	5114.64
931.817	5144.92
932.125	5093.4
932.434	5109.44
932.743	5030.12
933.051	5043.91
933.36	5041.2
933.669	4921.88
933.977	4963.01
934.286	4938.6
934.594	4937.7
934.902	4848.66
935.21	4867.64
935.519	4852.5
935.827	4884.36
936.135	4820.18
936.443	4779.06
936.751	4779.28
937.059	4749
937.367	4758.72
937.674	4754.42
937.982	4709.45
938.29	4666.06
938.597	4690.24
938.905	4654.09
939.213	4588.33
939.52	4608.44
939.827	4629.91
940.135	4581.77
940.442	4534.54
940.749	4536.12
941.056	4504.49
941.363	4494.09
941.67	4459.74
941.977	4452.06
942.284	4463.13
942.591	4428.56
942.898	4377.03
943.205	4392.62
943.511	4347.43
943.818	4314.43
944.125	4297.94
944.431	4315.11
944.738	4280.09
945.044	4300.65
945.35	4206.19
945.657	4280.54
945.963	4154.66
946.269	4172.74
946.575	4187.88
946.881	4172.07
947.187	4133.65
947.493	4119.19
947.799	4114.89
948.105	4066.76
948.41	4082.35
948.716	4056.14
949.022	4038.74
949.327	4038.06
949.633	3979.3
949.938	3975.23
950.244	3980.88
950.549	3939.76
950.854	3890.94
951.16	3944.73
951.465	3871.28
951.77	3853.66
952.075	3879.87
952.38	3873.09
952.685	3817.5
952.99	3798.97
953.294	3787.67
953.599	3810.04
953.904	3762.58
954.209	3753.32
954.513	3751.74
954.818	3741.57
955.122	3689.37
955.426	3706.31
955.731	3680.55
956.035	3631.29
956.339	3610.95
956.643	3650.05
956.948	3600.78
957.252	3641.01
957.556	3602.14
957.86	3566.21
958.163	3608.46
958.467	3502.7
958.771	3523.95
959.075	3478.98
959.378	3527.79
959.682	3483.5
959.985	3442.37
960.289	3449.37
960.592	3427.23
960.896	3405.76
961.199	3393.55
961.502	3381.58
961.805	3363.5
962.108	3328.7
962.411	3346.55
962.714	3319.66
963.017	3295.93
963.32	3327.79
963.623	3275.37
963.926	3227.01
964.228	3258.87
964.531	3220.23
964.833	3210.96
965.136	3198.31
965.438	3181.81
965.741	3193.56
966.043	3180.45
966.345	3178.19
966.648	3177.52
966.95	3161.92
967.252	3119.89
967.554	3064.52
967.856	3111.3
968.158	3078.08
968.46	3062.04
968.761	3085.09
969.063	3015.94
969.365	2988.14
969.666	2994.7
969.968	2986.11
970.269	2937.97
970.571	2976.62
970.872	2938.65
971.174	2938.88
971.475	2951.76
971.776	2886.9
972.077	2888.71
972.378	2897.07
972.679	2846.9
972.98	2847.13
973.281	2848.26
973.582	2859.33
973.883	2806.9
974.183	2825.89
974.484	2805.1
974.785	2778.2
975.085	2781.37
975.386	2811.88
975.686	2728.94
975.986	2716.28
976.287	2734.14
976.587	2721.48
976.887	2674.93
977.187	2743.18
977.487	2689.84
977.787	2699.79
978.087	2661.37
978.387	2681.94
978.687	2643.29
978.987	2618.89
979.286	2594.71
979.586	2602.62
979.885	2599.45
980.185	2574.37
980.484	2552
980.784	2559.45
981.083	2544.76
981.382	2529.17
981.682	2529.62
981.981	2513.13
982.28	2523.52
982.579	2525.33
982.878	2451.66
983.177	2471.32
983.475	2477.65
983.774	2454.82
984.073	2437.2
984.372	2459.79
984.67	2447.14
984.969	2398.55
985.267	2405.56
985.566	2401.04
985.864	2376.18
986.162	2391.1
986.461	2359.46
986.759	2358.1
987.057	2359.01
987.355	2340.25
987.653	2313.58
987.951	2315.84
988.249	2317.42
988.547	2310.65
988.844	2280.14
989.142	2286.01
989.44	2267.26
989.737	2268.84
990.035	2265.67
990.332	2224.32
990.63	2237.2
990.927	2197.88
991.224	2169.18
991.521	2169.41
991.819	2206.24
992.116	2190.87
992.413	2181.61
992.71	2119.46
993.006	2143.87
993.303	2125.34
993.6	2131.22
993.897	2112.46
994.193	2100.71
994.49	2082.18
994.787	2071.33
995.083	2061.39
995.379	2048.51
995.676	2043.76
995.972	2046.25
996.268	2029.07
996.565	2025
996.861	1998.79
997.157	2003.76
997.453	1993.37
997.749	1978
998.044	1993.82
998.34	1953.82
998.636	1952.24
998.932	1950.88
999.227	1948.17
999.523	1947.27
999.818	1896.87
1000.114	1902.07
1000.409	1883.76
1000.704	1872.01
1001	1900.94
1001.295	1849.64
1001.59	1851
1001.885	1828.62
1002.18	1839.7
1002.475	1827.72
1002.77	1813.03
1003.065	1794.27
1003.359	1803.54
1003.654	1775.07
1003.949	1804.44
1004.243	1785.01
1004.538	1755.18
1004.832	1741.85
1005.127	1763.32
1005.421	1720.83
1005.715	1736.88
1006.009	1687.84
1006.304	1703.88
1006.598	1698.23
1006.892	1698.46
1007.186	1673.83
1007.48	1644.22
1007.773	1660.04
1008.067	1638.8
1008.361	1642.64
1008.655	1612.81
1008.948	1599.48
1009.242	1589.08
1009.535	1578.69
1009.829	1613.04
1010.122	1573.04
1010.415	1568.74
1010.708	1558.57
1011.001	1551.8
1011.295	1570.1
1011.588	1505.24
1011.881	1512.47
1012.173	1537.78
1012.466	1519.71
1012.759	1504.56
1013.052	1504.11
1013.344	1480.61
1013.637	1486.49
1013.93	1473.38
1014.222	1458.24
1014.514	1482.42
1014.807	1439.48
1015.099	1444.91
1015.391	1429.76
1015.683	1432.25
1015.976	1407.84
1016.268	1405.36
1016.56	1401.06
1016.851	1403.1
1017.143	1378.92
1017.435	1371.01
1017.727	1375.98
1018.018	1341.18
1018.31	1352.03
1018.602	1346.83
1018.893	1358.81
1019.185	1341.86
1019.476	1320.16
1019.767	1307.51
1020.058	1311.8
1020.35	1322.2
1020.641	1298.02
1020.932	1273.84
1021.223	1269.32
1021.514	1288.53
1021.804	1274.06
1022.095	1257.11
1022.386	1245.81
1022.677	1219.6
1022.967	1201.97
1023.258	1241.07
1023.548	1226.61
1023.839	1193.16
1024.129	1195.19
1024.419	1173.27
1024.709	1156.33
1025	1173.73
1025.29	1161.3
1025.58	1169.66
1025.87	1122.43
1026.16	1142.54
1026.449	1124.01
1026.739	1161.98
1027.029	1136.89
1027.319	1129.21
1027.608	1127.4
1027.898	1105.25
1028.187	1097.8
1028.477	1098.93
1028.766	1066.61
1029.055	1077.46
1029.344	1073.16
1029.634	1040.85
1029.923	1048.53
1030.212	1056.67
1030.501	1068.42
1030.79	1051.02
1031.078	1050.79
1031.367	1027.74
1031.656	1009.21
1031.945	1022.32
1032.233	1025.03
1032.522	1023.22
1032.81	1006.72
1033.099	1001.08
1033.387	987.52
1033.675	958.14
1033.963	981.64
1034.251	943.45
1034.54	953.17
1034.828	950.23
1035.116	947.74
1035.403	937.12
1035.691	952.94
1035.979	940.74
1036.267	948.87
1036.554	923.34
1036.842	930.79
1037.129	912.04
1037.417	907.74
1037.704	884.24
1037.992	881.76
1038.279	869.78
1038.566	881.53
1038.853	881.53
1039.14	881.53
