Data from hue_38_FLMS001491_00025.txt Node
Date: Tue Feb 07 17:31:17 GMT 2017
User: dcchb
Spectrometer: FLMS00149
Trigger mode: 0
Integration Time (sec): 2.000000E-2
Scans to average: 10
Electric dark correction enabled: true
Nonlinearity correction enabled: false
Boxcar width: 0
XAxis mode: Wavelengths
Number of Pixels in Spectrum: 2048
>>>>>Begin Spectral Data<<<<<
341.393	4.65
341.776	4.65
342.16	4.65
342.543	-50.94
342.927	-77.61
343.31	-56.82
343.693	-82.58
344.077	-44.17
344.46	-68.8
344.843	-38.74
345.226	-50.49
345.61	-26.76
345.993	-36.71
346.376	-0.55
346.759	2.61
347.142	37.41
347.525	53.91
347.908	60.46
348.291	71.99
348.674	75.38
349.057	103.85
349.44	138.88
349.823	157.86
350.206	175.72
350.588	203.06
350.971	227.01
351.354	229.27
351.737	246
352.119	275.37
352.502	281.25
352.884	280.12
353.267	297.07
353.65	288.48
354.032	306.56
354.414	329.38
354.797	321.25
355.179	324.64
355.562	331.87
355.944	346.56
356.326	343.17
356.709	333.9
357.091	337.52
357.473	341.81
357.855	351.76
358.238	362.83
358.62	348.14
359.002	337.29
359.384	359.44
359.766	353.34
360.148	334.13
360.53	351.3
360.912	350.4
361.294	338.42
361.676	325.99
362.057	356.28
362.439	336.62
362.821	338.42
363.203	345.2
363.584	331.42
363.966	336.16
364.348	339.1
364.729	328.71
365.111	325.32
365.493	321.47
365.874	344.07
366.256	338.42
366.637	330.51
367.019	327.35
367.4	342.72
367.781	317.63
368.163	289.16
368.544	322.38
368.925	325.54
369.306	340.23
369.688	342.49
370.069	329.61
370.45	322.83
370.831	316.95
371.212	321.25
371.593	321.7
371.974	318.54
372.355	335.94
372.736	329.84
373.117	339.55
373.498	332.32
373.879	337.29
374.26	330.51
374.641	329.61
375.021	334.13
375.402	334.13
375.783	333.9
376.163	332.1
376.544	333.45
376.925	331.87
377.305	342.49
377.686	342.72
378.066	316.28
378.447	322.38
378.827	332.1
379.208	343.85
379.588	347.46
379.968	344.3
380.349	365.99
380.729	328.48
381.109	335.49
381.489	364.64
381.87	336.84
382.25	352.43
382.63	348.14
383.01	369.83
383.39	359.44
383.77	363.51
384.15	351.08
384.53	365.09
384.91	354.69
385.29	356.5
385.67	358.99
386.049	339.78
386.429	344.75
386.809	358.76
387.189	366.45
387.568	341.36
387.948	374.13
388.328	351.76
388.707	377.52
389.087	361.7
389.466	374.13
389.846	368.93
390.225	379.55
390.605	365.54
390.984	388.14
391.363	371.64
391.743	389.95
392.122	377.07
392.501	363.28
392.881	399.44
393.26	375.03
393.639	383.85
394.018	404.86
394.397	399.66
394.776	406.9
395.155	396.73
395.534	382.94
395.913	364.19
396.292	396.5
396.671	412.09
397.05	398.31
397.429	426.1
397.808	389.5
398.186	393.34
398.565	403.96
398.944	400.57
399.323	389.04
399.701	408.03
400.08	424.97
400.458	425.2
400.837	421.58
401.215	404.64
401.594	410.29
401.972	405.31
402.351	395.6
402.729	425.2
403.107	410.06
403.486	410.96
403.864	434.47
404.242	411.19
404.62	410.74
404.999	405.77
405.377	427.91
405.755	444.64
406.133	436.73
406.511	444.41
406.889	447.57
407.267	435.14
407.645	435.14
408.023	462.04
408.401	445.77
408.779	451.19
409.156	461.58
409.534	453.45
409.912	476.05
410.29	444.41
410.667	469.72
411.045	455.71
411.422	456.39
411.8	486.89
412.178	478.08
412.555	481.24
412.933	496.16
413.31	485.76
413.687	476.05
414.065	481.47
414.442	487.12
414.819	505.2
415.197	504.75
415.574	525.99
415.951	494.35
416.328	517.18
416.705	527.8
417.082	512.88
417.46	523.05
417.837	518.08
418.214	530.73
418.591	523.5
418.967	506.78
419.344	532.99
419.721	536.84
420.098	528.93
420.475	556.27
420.852	533.9
421.228	547.23
421.605	557.85
421.982	561.24
422.358	551.3
422.735	556.95
423.111	583.39
423.488	559.43
423.864	572.32
424.241	576.38
424.617	586.1
424.994	571.86
425.37	570.51
425.746	571.86
426.123	580.22
426.499	621.81
426.875	591.75
427.251	599.89
427.627	618.87
428.003	638.08
428.379	617.51
428.756	627.68
429.132	624.97
429.507	629.04
429.883	639.88
430.259	657.06
430.635	649.6
431.011	627.91
431.387	655.03
431.763	664.52
432.138	648.7
432.514	647.12
432.89	668.13
433.265	688.47
433.641	679.88
434.016	687.79
434.392	717.17
434.767	723.95
435.143	721.92
435.518	727.11
435.894	717.17
436.269	724.85
436.644	726.89
437.02	739.77
437.395	726.44
437.77	743.38
438.145	763.5
438.52	767.56
438.895	749.71
439.271	769.15
439.646	766.89
440.021	792.87
440.395	781.58
440.77	797.62
441.145	810.05
441.52	792.42
441.895	818.86
442.27	821.12
442.645	815.7
443.019	831.52
443.394	832.87
443.769	824.06
444.143	836.72
444.518	851.4
444.892	840.56
445.267	849.37
445.641	838.75
446.016	854.57
446.39	861.35
446.764	848.92
447.139	839.43
447.513	846.43
447.887	869.93
448.262	860.9
448.636	878.97
449.01	913.1
449.384	906.77
449.758	892.31
450.132	904.51
450.506	903.38
450.88	925.53
451.254	929.82
451.628	931.18
452.002	929.59
452.376	957.16
452.75	972.76
453.123	978.41
453.497	975.92
453.871	988.12
454.244	992.19
454.618	1002.36
454.992	1003.72
455.365	1023.6
455.739	1023.38
456.112	1015.02
456.486	1014.56
456.859	1054.11
457.232	1056.6
457.606	1067.9
457.979	1099.08
458.352	1096.14
458.725	1109.48
459.099	1099.53
459.472	1145.86
459.845	1162.36
460.218	1166.65
460.591	1154.22
460.964	1183.82
461.337	1208.68
461.71	1222.92
462.083	1210.94
462.456	1228.34
462.829	1236.48
463.201	1243.71
463.574	1264.95
463.947	1285.74
464.32	1340.66
464.692	1310.38
465.065	1341.56
465.438	1341.56
465.81	1362.8
466.183	1392.86
466.555	1427.66
466.928	1431.95
467.3	1416.14
467.672	1460.88
468.045	1502.46
468.417	1513.99
468.789	1511.73
469.161	1523.02
469.534	1558.05
469.906	1591.5
470.278	1609.12
470.65	1640.99
471.022	1641.67
471.394	1689.8
471.766	1716.24
472.138	1732.51
472.51	1790.14
472.882	1823.13
473.253	1826.75
473.625	1878.5
473.997	1915.11
474.369	1959.17
474.74	1964.6
475.112	1991.94
475.484	2055.44
475.855	2078.49
476.227	2107.19
476.598	2201.88
476.97	2229
477.341	2272.84
477.713	2339.73
478.084	2424.7
478.455	2452.72
478.827	2490.23
479.198	2555.99
479.569	2617.23
479.94	2685.03
480.311	2747.17
480.682	2829.43
481.053	2917.79
481.424	2999.14
481.795	3023.1
482.166	3089.09
482.537	3151.68
482.908	3256.76
483.279	3315.29
483.65	3393.03
484.021	3487.04
484.391	3551.67
484.762	3609.07
485.133	3685
485.503	3795.51
485.874	3892.45
486.244	3983.75
486.615	4074.14
486.985	4179.45
487.356	4292.22
487.726	4343.97
488.097	4510.74
488.467	4516.17
488.837	4644.3
489.207	4760.68
489.578	4837.74
489.948	4962.48
490.318	5091.52
490.688	5156.38
491.058	5256.94
491.428	5382.81
491.798	5449.02
492.168	5656.25
492.538	5699.41
492.908	5788
493.278	5947.54
493.648	5958.16
494.017	6130.14
494.387	6232.28
494.757	6339.62
495.126	6376
495.496	6493.74
495.866	6568.54
496.235	6667.52
496.605	6800.17
496.974	6849.44
497.344	6962.66
497.713	7033.84
498.082	7090.56
498.452	7275.42
498.821	7288.98
499.19	7351.12
499.559	7492.13
499.928	7580.27
500.298	7618.23
500.667	7760.15
501.036	7850.32
501.405	7998.79
501.774	7948.62
502.143	8074.49
502.512	8168.95
502.88	8313.58
503.249	8316.29
503.618	8365.33
503.987	8493.24
504.356	8567.13
504.724	8634.02
505.093	8732.78
505.462	8752.89
505.83	8845.54
506.199	8959.21
506.567	9107.23
506.936	9133.67
507.304	9206.89
507.672	9225.87
508.041	9414.34
508.409	9382.03
508.777	9478.3
509.145	9589.71
509.514	9622.47
509.882	9713.32
510.25	9759.87
510.618	9791.28
510.986	9913.76
511.354	10016.13
511.722	10044.38
512.09	10159.63
512.458	10183.81
512.826	10292.06
513.193	10300.42
513.561	10416.58
513.929	10489.79
514.297	10537.7
514.664	10661.09
515.032	10652.28
515.4	10812.5
515.767	10823.12
516.135	10882.1
516.502	10874.64
516.869	11124.13
517.237	11072.38
517.604	11084.13
517.972	11201.19
518.339	11278.7
518.706	11301.75
519.073	11331.58
519.44	11431.69
519.808	11586.26
520.175	11525.7
520.542	11714.17
520.909	11772.47
521.276	11785.81
521.643	11917.55
522.009	11989.19
522.376	11957.78
522.743	12139.47
523.11	12194.38
523.477	12344.21
523.843	12424.89
524.21	12555.5
524.577	12609.29
524.943	12660.13
525.31	12717.98
525.676	12809.51
526.043	12866.91
526.409	12991.65
526.776	13073
527.142	13125.88
527.508	13161.59
527.874	13363.17
528.241	13350.96
528.607	13430.28
528.973	13533.78
529.339	13505.53
529.705	13729.94
530.071	13849.93
530.437	13825.07
530.803	13926.09
531.169	14048.57
531.535	14023.71
531.901	14069.14
532.267	14124.05
532.632	14176.7
532.998	14378.28
533.364	14418.05
533.73	14463.48
534.095	14495.79
534.461	14650.36
534.826	14658.27
535.192	14661.89
535.557	14822.79
535.923	14742.34
536.288	14896.46
536.653	14992.05
537.019	14920.19
537.384	15032.05
537.749	15095.32
538.114	15091.93
538.479	15226.85
538.845	15240.4
539.21	15282.21
539.575	15360.4
539.94	15347.29
540.305	15576.21
540.67	15480.62
541.034	15594.29
541.399	15641.98
541.764	15707.51
542.129	15804.91
542.494	15890.78
542.858	15846.49
543.223	15887.39
543.587	16087.61
543.952	15984.79
544.316	16109.99
544.681	16213.71
545.045	16221.85
545.41	16252.81
545.774	16394.95
546.138	16376.19
546.503	16425.01
546.867	16418.23
547.231	16578.67
547.595	16615.51
547.959	16725.34
548.324	16734.83
548.688	16749.97
549.052	16794.94
549.416	16902.06
549.779	16908.16
550.143	17061.83
550.507	17065.67
550.871	17190.86
551.235	17144.31
551.599	17298.43
551.962	17247.58
552.326	17420.46
552.689	17491.19
553.053	17382.04
553.417	17363.29
553.78	17682.37
554.143	17579.55
554.507	17646.22
554.87	17847.12
555.234	17999.2
555.597	17770.73
555.96	17969.6
556.323	18019.77
556.686	18032.87
557.05	18155.13
557.413	18259.53
557.776	18201.23
558.139	18370.04
558.502	18426.31
558.865	18299.53
559.228	18569.36
559.59	18644.61
559.953	18641.22
560.316	18812.74
560.679	18831.04
561.041	18895.68
561.404	18977.03
561.767	19100.19
562.129	19081.21
562.492	19217.7
562.854	19298.38
563.217	19280.3
563.579	19301.54
563.941	19422.89
564.304	19579.95
564.666	19681.42
565.028	19751.7
565.39	19720.51
565.753	19873.73
566.115	19871.02
566.477	19958.47
566.839	20008.41
567.201	20097.68
567.563	20233.27
567.925	20240.5
568.287	20290.89
568.648	20387.61
569.01	20451.57
569.372	20631.22
569.734	20577.44
570.095	20785.34
570.457	20835.96
570.819	20910.99
571.18	20992.34
571.542	21039.35
571.903	21181.72
572.265	21247.48
572.626	21301.04
572.987	21337.19
573.349	21504.65
573.71	21536.06
574.071	21763.62
574.432	21663.06
574.794	21982.83
575.155	22011.53
575.516	21980.57
575.877	22035.03
576.238	22211.29
576.599	22379.43
576.96	22438.86
577.32	22585.75
577.681	22731.28
578.042	22805.18
578.403	22895.8
578.763	23009.69
579.124	23152.06
579.485	23303.47
579.845	23480.19
580.206	23507.53
580.566	23630.69
580.927	23806.96
581.287	23976.9
581.648	24114.3
582.008	24430.45
582.368	24457.11
582.728	24702.08
583.089	24821.85
583.449	24872.47
583.809	25092.57
584.169	25361.72
584.529	25370.08
584.889	25825.21
585.249	25737.98
585.609	25900.24
585.969	26266.78
586.329	26496.61
586.688	26650.27
587.048	26837.61
587.408	26954.45
587.768	27140.66
588.127	27333.87
588.487	27499.07
588.846	27924.82
589.206	27909.22
589.565	28112.83
589.925	28492.26
590.284	28561.86
590.643	28747.62
591.003	29015.41
591.362	29254.5
591.721	29491.78
592.08	29635.73
592.44	29912.11
592.799	30256.51
593.158	30308.71
593.517	30584.18
593.876	30802.03
594.235	30858.75
594.593	31191.4
594.952	31440.2
595.311	31581.22
595.67	31751.16
596.029	32087.87
596.387	32373.97
596.746	32490.12
597.104	32427.3
597.463	32677.23
597.822	32996.1
598.18	33130.56
598.538	33158.35
598.897	33567.83
599.255	33556.98
599.613	34121.49
599.972	34051.44
600.33	34357.64
600.688	34371.65
601.046	34682.15
601.404	34971.41
601.762	35008.02
602.12	35284.17
602.478	35471.06
602.836	35577.04
603.194	35653.65
603.552	35708.34
603.91	35784.95
604.268	36198.05
604.625	36241.43
604.983	36450.24
605.341	36337.25
605.698	36778.14
606.056	36793.28
606.413	36969.78
606.771	37292.71
607.128	37425.36
607.485	37327.06
607.843	37470.33
608.2	37729.08
608.557	37885.91
608.914	37909.86
609.272	38141.95
609.629	38362.51
609.986	38511.2
610.343	38528.15
610.7	38991.64
611.057	38840.01
611.414	39013.79
611.771	39163.84
612.127	39385.98
612.484	39348.02
612.841	39560.22
613.198	39449.49
613.554	39713.21
613.911	40011.28
614.267	39898.97
614.624	40027.78
614.98	40068
615.337	40392.96
615.693	40330.37
616.05	40389.12
616.406	40656.91
616.762	40709.79
617.118	40747.3
617.475	40815.1
617.831	41001.76
618.187	41099.84
618.543	41230.68
618.899	41462.77
619.255	41475.87
619.611	41424.57
619.967	41618.02
620.323	41535.53
620.678	41739.59
621.034	41601.07
621.39	41640.61
621.746	41735.07
622.101	42209.86
622.457	41917.67
622.812	42027.27
623.168	42327.6
623.523	42164.67
623.879	42399.69
624.234	42188.4
624.589	42372.12
624.945	42407.37
625.3	42325.34
625.655	42510.2
626.01	42478.56
626.365	42585
626.72	42487.6
627.075	42650.31
627.43	42624.54
627.785	42580.02
628.14	42735.73
628.495	42654.82
628.85	42649.63
629.205	42591.32
629.559	42870.41
629.914	42596.97
630.269	42767.82
630.623	42574.6
630.978	42668.16
631.332	42793.8
631.687	42913.35
632.041	42783.18
632.396	42837.42
632.75	42754.26
633.104	42900.24
633.459	42609.4
633.813	42630.64
634.167	42670.87
634.521	42635.84
634.875	42982.5
635.229	42815.5
635.583	42643.75
635.937	42677.42
636.291	42663.86
636.645	42567.6
636.999	42541.16
637.352	42747.48
637.706	42505
638.06	42524.43
638.413	42567.37
638.767	42502.74
639.121	42461.61
639.474	42467.94
639.828	42474.72
640.181	42491.89
640.534	42522.4
640.888	42305.46
641.241	42209.41
641.594	42360.82
641.947	42505.9
642.301	42443.98
642.654	42382.52
643.007	42399.92
643.36	42435.4
643.713	42322.18
644.066	42309.3
644.419	42241.5
644.771	41947.72
645.124	41510
645.477	41579.37
645.83	41282.66
646.182	41092.15
646.535	41050.8
646.888	41217.12
647.24	41062.1
647.593	41173.73
647.945	41187.74
648.298	40879.28
648.65	40850.35
649.002	40865.49
649.355	40980.07
649.707	41024.36
650.059	41049.9
650.411	41459.38
650.763	41432.03
651.115	41910.44
651.467	41827.5
651.819	41857.78
652.171	41717.9
652.523	41731.69
652.875	41580.73
653.227	41475.19
653.578	41855.98
653.93	41727.17
654.282	41654.4
654.633	41462.09
654.985	41625.02
655.337	41521.3
655.688	41590.9
656.039	41681.97
656.391	41304.13
656.742	41459.83
657.094	41466.16
657.445	41589.99
657.796	41395.65
658.147	41452.37
658.498	41398.81
658.849	41491.92
659.2	41552.25
659.551	41207.18
659.902	41496.44
660.253	41269.55
660.604	41337.8
660.955	41244.24
661.306	41352.71
661.656	41325.14
662.007	41344.35
662.358	41266.16
662.708	41350.9
663.059	41249.89
663.409	40969.9
663.76	41406.95
664.11	41269.78
664.461	41411.02
664.811	41371.92
665.161	41319.94
665.511	41188.2
665.862	41371.02
666.212	41402.43
666.562	41345.93
666.912	41208.99
667.262	41116.79
667.612	41196.33
667.962	41265.26
668.312	41210.34
668.662	41505.93
669.011	41265.03
669.361	41240.62
669.711	41162.21
670.06	41029.33
670.41	40932.38
670.76	40995.66
671.109	41115.66
671.459	41094.19
671.808	40817.13
672.157	41031.82
672.507	40749.11
672.856	40875.44
673.205	40995.21
673.554	41020.07
673.904	40922.21
674.253	41094.64
674.602	40922.67
674.951	40390.03
675.3	40131.05
675.649	40777.59
675.998	40848.77
676.346	40763.8
676.695	40947.98
677.044	40592.96
677.393	40711.6
677.741	40742.33
678.09	40737.14
678.438	40607.19
678.787	40519.74
679.135	40675.22
679.484	40412.62
679.832	40472.51
680.181	40218.5
680.529	40496.24
680.877	40481.32
681.225	40393.42
681.573	40560.64
681.922	40165.4
682.27	40162.91
682.618	40236.13
682.966	40028
683.314	40154.55
683.661	39938.06
684.009	39938.06
684.357	39767.22
684.705	39775.8
685.053	39771.96
685.4	39673.21
685.748	39505.08
686.095	39482.93
686.443	39376.94
686.79	39309.83
687.138	39407.23
687.485	39390.96
687.832	39221.47
688.18	39317.96
688.527	39019.89
688.874	38983.51
689.221	38952.1
689.568	38988.48
689.915	38828.03
690.262	38730.41
690.609	38820.35
690.956	38645.66
691.303	38525.44
691.65	38331.77
691.997	38379.68
692.344	38174.04
692.69	38127.71
693.037	38239.12
693.383	37998.68
693.73	38048.62
694.077	37779.7
694.423	37843.65
694.769	37703.32
695.116	37651.11
695.462	37532.47
695.808	37354.85
696.155	37473.49
696.501	37118.02
696.847	37221.97
697.193	36958.93
697.539	37003
697.885	36830.57
698.231	36748.09
698.577	36700.86
698.923	36767.75
699.269	36464.71
699.614	36403.92
699.96	36381.77
700.306	36248.89
700.651	36042.57
700.997	36013.19
701.342	35965.74
701.688	35937.04
702.033	35792.18
702.379	35944.94
702.724	35595.8
703.069	35694.33
703.415	35315.81
703.76	35516.03
704.105	35473.54
704.45	35323.04
704.795	35122.59
705.14	35000.11
705.485	35018.87
705.83	34943.62
706.175	35001.47
706.52	34845.31
706.865	34795.14
707.209	34696.62
707.554	34668.59
707.899	34706.33
708.243	34436.06
708.588	34451.42
708.932	34188.38
709.277	34231.32
709.621	34054.82
709.966	33963.53
710.31	34010.08
710.654	33787.94
710.998	33754.27
711.342	33777.09
711.687	33768.05
712.031	33581.17
712.375	33461.62
712.719	33533.48
713.063	33437.89
713.407	33397.67
713.75	33075.42
714.094	33266.6
714.438	33141.63
714.782	33227.95
715.125	33008.52
715.469	33012.82
715.812	32833.39
716.156	32733.96
716.499	32896.44
716.843	32888.3
717.186	32683.79
717.53	32740.74
717.873	32680.62
718.216	32597.46
718.559	32557.46
718.902	32261.2
719.246	32347.75
719.589	32247.87
719.932	32032.28
720.275	32208.55
720.617	32064.37
720.96	32165.38
721.303	32021.21
721.646	31959.06
721.989	31740.54
722.331	31889.68
722.674	31832.06
723.016	31732.63
723.359	31624.15
723.701	31743.7
724.044	31467.55
724.386	31496.93
724.729	31462.35
725.071	31401.11
725.413	31457.61
725.755	31333.09
726.097	31184.62
726.439	31056.49
726.782	31176.93
727.124	31230.04
727.465	31074.79
727.807	31121.12
728.149	31018.52
728.491	30857.39
728.833	31047.67
729.175	30840.45
729.516	30734.23
729.858	30719.77
730.199	30734.69
730.541	30590.28
730.882	30643.16
731.224	30718.19
731.565	30409.95
731.906	30506.67
732.248	30588.48
732.589	30263.29
732.93	30245.21
733.271	30276.39
733.612	30264.64
733.953	30345.32
734.294	30174.93
734.635	30108.04
734.976	30238.65
735.317	29919.11
735.658	30025.1
735.999	29940.13
736.339	29909.62
736.68	29960.92
737.021	29921.83
737.361	29729.29
737.702	29852.45
738.042	29803.86
738.383	29844.09
738.723	29799.34
739.063	29662.62
739.404	29713.7
739.744	29574.04
740.084	29417.43
740.424	29469.41
740.764	29372.24
741.104	29567.26
741.444	29412.46
741.784	29259.7
742.124	29409.3
742.464	29310.54
742.804	29212.47
743.143	29086.14
743.483	29170.21
743.823	29001.4
744.162	29108.06
744.502	29103.77
744.841	28911.46
745.181	29011.79
745.52	28785.36
745.86	28960.72
746.199	28782.42
746.538	28749.43
746.877	28864.68
747.216	28788.3
747.556	28695.19
747.895	28687.06
748.234	28656.32
748.573	28353.51
748.911	28598.7
749.25	28466.72
749.589	28310.57
749.928	28349.44
750.267	28310.57
750.605	28377.23
750.944	28184.47
751.283	28113.74
751.621	28220.18
751.96	28058.15
752.298	27981.31
752.636	28046.4
752.975	27863.12
753.313	27717.36
753.651	27903.8
753.989	27700.42
754.327	27702.22
754.666	27524.38
755.004	27570.48
755.342	27495.9
755.679	27550.14
756.017	27365.28
756.355	27535.9
756.693	27278.73
757.031	27386.98
757.368	27180.66
757.706	27216.81
758.044	27092.97
758.381	27156.48
758.719	26885.52
759.056	26926.2
759.394	26914
759.731	26652.53
760.068	26651.4
760.405	26584.06
760.743	26542.71
761.08	26508.58
761.417	26320.34
761.754	26256.39
762.091	26193.11
762.428	26228.36
762.765	26045.77
763.102	26180.68
763.438	25882.38
763.775	25830.18
764.112	25874.02
764.449	25837.64
764.785	25746.79
765.122	25614.82
765.458	25545.9
765.795	25424.77
766.131	25389.29
766.467	25206.7
766.804	25198.33
767.14	25102.52
767.476	25157.43
767.812	24968.51
768.148	24952.69
768.485	24879.47
768.821	24596.32
769.157	24648.74
769.492	24532.82
769.828	24540.72
770.164	24347.06
770.5	24382.54
770.836	24316.1
771.171	24107.52
771.507	24185.93
771.842	23881.99
772.178	24042.21
772.513	23813.51
772.849	23814.42
773.184	23725.83
773.519	23731.93
773.855	23555.89
774.19	23523.12
774.525	23354.32
774.86	23353.64
775.195	23317.25
775.53	23145.51
775.865	23109.58
776.2	22831.39
776.535	22746.87
776.87	22738.51
777.205	22623.26
777.539	22564.73
777.874	22653.77
778.209	22459.65
778.543	22381.46
778.878	22252.65
779.212	22304.85
779.547	22232.54
779.881	22163.61
780.215	21999.32
780.55	22065.08
780.884	21742.61
781.218	21740.57
781.552	21807.24
781.886	21735.37
782.22	21549.62
782.554	21436.17
782.888	21231.66
783.222	21131.32
783.556	21151.21
783.889	21159.8
784.223	21086.13
784.557	20839.13
784.89	20929.75
785.224	20744.21
785.557	20679.36
785.891	20723.42
786.224	20594.61
786.558	20650.66
786.891	20387.61
787.224	20394.62
787.557	20283.89
787.891	20271.01
788.224	20168.41
788.557	20203.66
788.89	20143.1
789.223	20165.02
789.556	19918.02
789.888	19916.89
790.221	19846.16
790.554	19690.23
790.887	19578.14
791.219	19565.71
791.552	19561.65
791.884	19447.98
792.217	19336.12
792.549	19311.94
792.882	19075.11
793.214	19159.17
793.546	19078.04
793.879	18977.03
794.211	18961.89
794.543	18967.99
794.875	18845.06
795.207	18958.27
795.539	18758.28
795.871	18818.39
796.203	18622.46
796.535	18379.53
796.867	18514.89
797.198	18457.27
797.53	18453.65
797.862	18313.32
798.193	18336.59
798.525	18144.51
798.856	18235.35
799.188	17907.9
799.519	18001.91
799.85	17950.16
800.182	17853.67
800.513	17875.14
800.844	17708.36
801.175	17764.18
801.506	17726.44
801.837	17615.71
802.168	17588.37
802.499	17480.8
802.83	17499.33
803.161	17429.73
803.491	17427.47
803.822	17466.33
804.153	17279.45
804.483	17160.58
804.814	17111.99
805.145	17041.49
805.475	17035.16
805.805	17069.51
806.136	17013.24
806.466	16958.55
806.796	16888.5
807.126	16829.52
807.457	16749.52
807.787	16752.45
808.117	16700.7
808.447	16669.97
808.777	16535.29
809.107	16515.4
809.436	16495.06
809.766	16436.98
810.096	16446.47
810.426	16350.43
810.755	16302.07
811.085	16288.51
811.414	16276.99
811.744	16102.08
812.073	16053.49
812.403	16129.65
812.732	15953.38
813.061	16070.67
813.39	15959.71
813.719	15944.34
814.049	15950.67
814.378	15905.92
814.707	15841.29
815.036	15833.84
815.365	15661.64
815.693	15612.37
816.022	15544.35
816.351	15546.84
816.68	15437.46
817.008	15548.42
817.337	15308.43
817.665	15384.13
817.994	15350.46
818.322	15379.84
818.651	15240.18
818.979	15152.5
819.307	15305.04
819.636	15242.21
819.964	15179.39
820.292	15286.96
820.62	15164.47
820.948	15107.98
821.276	15062.1
821.604	15028.43
821.932	15124.25
822.259	15032.27
822.587	15004.25
822.915	15101.88
823.243	15075.21
823.57	15090.8
823.898	15030.24
824.225	15012.16
824.553	14936.91
824.88	14981.43
825.207	15070.92
825.535	15039.73
825.862	15089.67
826.189	14985.5
826.516	15145.27
826.843	15073.86
827.17	15083.8
827.497	15032.5
827.824	14980.52
828.151	15074.53
828.478	15087.87
828.805	15076.79
829.131	15022.11
829.458	14916.35
829.785	14880.41
830.111	14952.73
830.438	15015.33
830.764	14931.49
831.09	14982.56
831.417	14832.51
831.743	14930.13
832.069	14929.9
832.395	14957.02
832.722	14907.08
833.048	14809.46
833.374	14868.44
833.7	14786.86
834.026	14754.09
834.351	14846.97
834.677	14778.72
835.003	14850.13
835.329	14789.12
835.654	14722.23
835.98	14666.86
836.306	14684.03
836.631	14747.54
836.956	14692.4
837.282	14748.44
837.607	14659.18
837.932	14598.61
838.258	14562
838.583	14598.39
838.908	14460.31
839.233	14481.33
839.558	14392.29
839.883	14409.24
840.208	14383.25
840.533	14443.14
840.858	14347.32
841.182	14327.21
841.507	14339.86
841.832	14230.71
842.156	14271.16
842.481	14254.67
842.805	14220.32
843.13	14175.8
843.454	14159.08
843.778	14082.02
844.103	14064.62
844.427	14042.02
844.751	14005.86
845.075	13962.47
845.399	13912.3
845.723	13844.51
846.047	13911.63
846.371	13811.52
846.695	13805.87
847.019	13682.93
847.343	13541.47
847.666	13412.43
847.99	13440.23
848.313	13419.44
848.637	13409.27
848.96	13308.7
849.284	13361.58
849.607	13236.16
849.931	13196.16
850.254	13088.6
850.577	12992.1
850.9	12916.85
851.223	12956.17
851.546	12934.93
851.869	12883.63
852.192	12904.19
852.515	12760.92
852.838	12686.8
853.161	12702.84
853.483	12618.55
853.806	12646.8
854.129	12514.6
854.451	12450.65
854.774	12420.82
855.096	12370.88
855.419	12363.64
855.741	12349.18
856.063	12195.06
856.385	12293.14
856.708	12200.03
857.03	12198.22
857.352	12139.02
857.674	12088.4
857.996	12050.88
858.318	11967.27
858.64	11983.31
858.961	11897.89
859.283	11905.8
859.605	11818.12
859.926	11924.11
860.248	11807.05
860.57	11772.92
860.891	11767.28
861.212	11729.31
861.534	11654.28
861.855	11706.49
862.176	11682.08
862.498	11669.2
862.819	11634.85
863.14	11519.37
863.461	11592.59
863.782	11562.76
864.103	11498.58
864.424	11502.2
864.745	11548.3
865.065	11354.86
865.386	11405.48
865.707	11352.82
866.027	11460.84
866.348	11380.62
866.668	11410.22
866.989	11263.56
867.309	11251.58
867.63	11226.05
867.95	11334.52
868.27	11217.01
868.59	11214.52
868.91	11233.5
869.23	11214.52
869.55	11131.59
869.87	11205.48
870.19	11138.82
870.51	11151.25
870.83	11172.49
871.15	11047.52
871.469	11064.24
871.789	11055.66
872.109	11061.08
872.428	11032.15
872.748	11029.67
873.067	11008.88
873.386	10905.6
873.706	10906.96
874.025	10861.54
874.344	10868.77
874.663	10963.23
874.982	10918.26
875.301	10838.49
875.62	10844.36
875.939	10844.36
876.258	10818.15
876.577	10746.74
876.896	10760.52
877.214	10814.53
877.533	10701.99
877.852	10701.77
878.17	10713.07
878.489	10659.06
878.807	10677.13
879.125	10653.86
879.444	10627.19
879.762	10656.34
880.08	10620.19
880.398	10585.61
880.716	10548.78
881.034	10464.48
881.352	10483.24
881.67	10464.26
881.988	10437.14
882.306	10435.11
882.624	10370.48
882.941	10352.17
883.259	10346.97
883.577	10323.47
883.894	10301.1
884.212	10303.13
884.529	10216.36
884.846	10213.64
885.164	10196.24
885.481	10208.22
885.798	10242.34
886.115	10184.72
886.432	10115.34
886.75	10089.35
887.067	10093.2
887.383	10086.64
887.7	10056.36
888.017	10061.11
888.334	10011.84
888.651	9913.09
888.967	9869.92
889.284	9885.29
889.6	9803.94
889.917	9721.91
890.233	9807.33
890.55	9781.56
890.866	9786.99
891.182	9750.83
891.498	9683.49
891.815	9756.48
892.131	9669.25
892.447	9638.74
892.763	9606.43
893.079	9536.37
893.395	9490.73
893.71	9454.12
894.026	9466.77
894.342	9491.18
894.657	9383.38
894.973	9367.11
895.289	9276.04
895.604	9331.86
895.92	9257.74
896.235	9253.22
896.55	9220.45
896.865	9161.69
897.181	9099.32
897.496	9238.53
897.811	9108.59
898.126	9112.66
898.441	9048.48
898.756	9038.31
899.071	8964.64
899.386	8961.7
899.7	8907.46
900.015	8897.52
900.33	8806.45
900.644	8836.5
900.959	8828.82
901.273	8683.29
901.588	8716.06
901.902	8643.74
902.216	8653.91
902.531	8680.58
902.845	8578.88
903.159	8575.95
903.473	8500.92
903.787	8458.89
904.101	8440.81
904.415	8450.07
904.729	8422.73
905.042	8386.12
905.356	8326.91
905.67	8322.39
905.984	8305.67
906.297	8262.51
906.611	8248.72
906.924	8242.4
907.237	8123.08
907.551	8212.34
907.864	8102.06
908.177	8104.55
908.491	8035.4
908.804	8024.1
909.117	8014.38
909.43	7954.04
909.743	7899.35
910.056	7856.42
910.368	7808.96
910.681	7792.24
910.994	7786.14
911.307	7728.51
911.619	7706.14
911.932	7769.87
912.244	7621.85
912.557	7617.55
912.869	7566.03
913.181	7523.32
913.494	7543.43
913.806	7494.62
914.118	7452.81
914.43	7406.26
914.742	7402.64
915.054	7366.71
915.366	7369.65
915.678	7318.58
915.99	7333.95
916.302	7182.31
916.613	7226.6
916.925	7210.56
917.236	7165.59
917.548	7121.75
917.859	7140.5
918.171	7103.67
918.482	7060.96
918.794	7032.71
919.105	7002.43
919.416	6956.33
919.727	6956.78
920.038	6884.01
920.349	6875.88
920.66	6834.3
920.971	6855.54
921.282	6823.68
921.593	6750.91
921.903	6725.6
922.214	6723.11
922.525	6741.19
922.835	6665.04
923.146	6609.44
923.456	6561.99
923.767	6529.67
924.077	6587.07
924.387	6507.07
924.697	6451.93
925.008	6397.7
925.318	6462.56
925.628	6393.86
925.938	6360.19
926.248	6329.68
926.558	6322.67
926.867	6329.45
927.177	6252.17
927.487	6211.94
927.796	6170.81
928.106	6185.05
928.416	6106.41
928.725	6136.24
929.034	6091.04
929.344	6114.99
929.653	6033.41
929.962	6023.7
930.271	5990.25
930.581	5934.66
930.89	5933.76
931.199	5864.61
931.508	5907.77
931.817	5908.22
932.125	5858.73
932.434	5826.19
932.743	5780.77
933.051	5742.8
933.36	5733.08
933.669	5689.92
933.977	5693.76
934.286	5680.43
934.594	5637.49
934.902	5623.71
935.21	5622.8
935.519	5629.13
935.827	5609.02
936.135	5523.6
936.443	5436.14
936.751	5517.72
937.059	5484.28
937.367	5436.14
937.674	5410.15
937.982	5412.87
938.29	5362.02
938.597	5366.54
938.905	5304.39
939.213	5318.18
939.52	5265.53
939.827	5256.26
940.135	5194.57
940.442	5185.08
940.749	5166.77
941.056	5186.66
941.363	5143.04
941.67	5090.16
941.977	5100.33
942.284	5058.75
942.591	5090.39
942.898	5009.49
943.205	4993.44
943.511	5002.03
943.818	4919.32
944.125	4922.48
944.431	4931.97
944.738	4901.24
945.044	4864.63
945.35	4860.79
945.657	4819.89
945.963	4806.78
946.269	4750.96
946.575	4780.79
946.881	4801.13
947.187	4736.27
947.493	4730.85
947.799	4707.12
948.105	4673.9
948.41	4694.92
948.716	4652.66
949.022	4618.08
949.327	4599.1
949.633	4524.75
949.938	4578.76
950.244	4534.92
950.549	4517.3
950.854	4489.95
951.16	4472.78
951.465	4499.44
951.77	4432.1
952.075	4399.79
952.38	4404.98
952.685	4380.12
952.99	4387.36
953.294	4347.81
953.599	4361.37
953.904	4272.78
954.209	4288.15
954.513	4294.25
954.818	4262.61
955.122	4213.58
955.426	4251.09
955.731	4211.77
956.035	4156.85
956.339	4167.25
956.643	4132.45
956.948	4119.79
957.252	4150.3
957.556	4093.35
957.86	4057.2
958.163	4059.91
958.467	4043.86
958.771	4007.03
959.075	4014.94
959.378	4006.8
959.682	3986.24
959.985	3955.05
960.289	3960.47
960.592	3913.92
960.896	3889.29
961.199	3907.59
961.502	3863.3
961.805	3825.56
962.108	3839.35
962.411	3824.89
962.714	3815.39
963.017	3784.66
963.32	3776.98
963.623	3740.14
963.926	3718.67
964.228	3718.67
964.531	3697.43
964.833	3665.57
965.136	3658.11
965.438	3610.43
965.741	3625.57
966.043	3598.22
966.345	3601.39
966.648	3558.68
966.95	3588.06
967.252	3536.76
967.554	3512.58
967.856	3537.66
968.158	3486.14
968.46	3493.82
968.761	3481.17
969.063	3425.57
969.365	3414.95
969.666	3399.36
969.968	3415.18
970.269	3387.38
970.571	3374.95
970.872	3391.68
971.174	3355.75
971.475	3361.17
971.776	3313.94
972.077	3350.77
972.378	3303.32
972.679	3282.98
972.98	3271.45
973.281	3234.84
973.582	3240.04
973.883	3227.16
974.183	3273.26
974.484	3209.76
974.785	3153.49
975.085	3169.08
975.386	3209.08
975.686	3143.55
975.986	3147.84
976.287	3108.75
976.587	3104.23
976.887	3097.9
977.187	3087.5
977.487	3065.81
977.787	3097.9
978.087	3053.38
978.387	3049.54
978.687	3016.09
978.987	3003.89
979.286	2965.25
979.586	2968.41
979.885	2977.45
980.185	2951.46
980.484	2934.74
980.784	2912.59
981.083	2904.01
981.382	2866.94
981.682	2883.44
981.981	2869.43
982.28	2845.7
982.579	2828.53
982.878	2861.97
983.177	2800.96
983.475	2810.22
983.774	2814.06
984.073	2783.33
984.372	2762.09
984.67	2723.9
984.969	2738.59
985.267	2700.17
985.566	2722.09
985.864	2741.52
986.162	2658.36
986.461	2633.96
986.759	2670.11
987.057	2632.6
987.355	2623.56
987.653	2599.83
987.951	2596.22
988.249	2604.13
988.547	2618.59
988.844	2564.58
989.142	2564.35
989.44	2539.5
989.737	2551.02
990.035	2539.04
990.332	2523
990.63	2511.7
990.927	2505.6
991.224	2460.85
991.521	2472.83
991.819	2479.16
992.116	2467.86
992.413	2419.27
992.71	2469.89
993.006	2424.92
993.303	2396
993.6	2403.23
993.897	2398.71
994.193	2391.25
994.49	2364.58
994.787	2348.54
995.083	2332.95
995.379	2345.83
995.676	2316.9
995.972	2316.9
996.268	2307.41
996.565	2295.66
996.861	2270.12
997.157	2251.37
997.453	2267.19
997.749	2244.81
998.044	2224.7
998.34	2223.12
998.636	2224.48
998.932	2214.53
999.227	2180.63
999.523	2164.59
999.818	2153.06
1000.114	2140.86
1000.409	2087.76
1000.704	2116.46
1001	2118.26
1001.295	2116.68
1001.59	2101.31
1001.885	2059.51
1002.18	2061.99
1002.475	2038.27
1002.77	2029.9
1003.065	2032.16
1003.359	2017.48
1003.654	2010.47
1003.949	2000.53
1004.243	1985.16
1004.538	1994.2
1004.832	1972.28
1005.127	1967.08
1005.421	1934.77
1005.715	1931.83
1006.009	1941.09
1006.304	1925.05
1006.598	1910.59
1006.892	1896.12
1007.186	1891.6
1007.48	1874.43
1007.773	1858.61
1008.067	1859.74
1008.361	1825.62
1008.655	1834.66
1008.948	1811.83
1009.242	1820.87
1009.535	1798.5
1009.829	1793.98
1010.122	1801.21
1010.415	1772.74
1010.708	1786.97
1011.001	1747.88
1011.295	1769.35
1011.588	1749.23
1011.881	1727.77
1012.173	1700.2
1012.466	1704.72
1012.759	1711.95
1013.052	1673.3
1013.344	1691.16
1013.637	1651.16
1013.93	1646.19
1014.222	1645.73
1014.514	1645.96
1014.807	1630.82
1015.099	1633.53
1015.391	1622.68
1015.683	1610.71
1015.976	1590.14
1016.268	1568.67
1016.56	1576.81
1016.851	1572.97
1017.143	1604.38
1017.435	1538.62
1017.727	1546.53
1018.018	1534.32
1018.31	1502.23
1018.602	1525.06
1018.893	1500.88
1019.185	1503.36
1019.476	1496.81
1019.767	1463.14
1020.058	1454.33
1020.35	1438.28
1020.641	1435.8
1020.932	1451.61
1021.223	1409.36
1021.514	1423.82
1021.804	1405.97
1022.095	1403.25
1022.386	1408
1022.677	1371.62
1022.967	1376.81
1023.258	1349.7
1023.548	1331.62
1023.839	1350.37
1024.129	1343.14
1024.419	1359.64
1024.709	1324.16
1025	1305.18
1025.29	1328.91
1025.58	1288.91
1025.87	1292.52
1026.16	1272.18
1026.449	1291.17
1026.739	1245.97
1027.029	1258.17
1027.319	1244.84
1027.608	1221.79
1027.898	1182.69
1028.187	1217.72
1028.477	1202.58
1028.766	1197.84
1029.055	1193.77
1029.344	1178.63
1029.634	1153.09
1029.923	1171.85
1030.212	1175.92
1030.501	1165.97
1030.79	1163.94
1031.078	1158.51
1031.367	1142.24
1031.656	1134.56
1031.945	1134.56
1032.233	1114.67
1032.522	1095.47
1032.81	1095.69
1033.099	1116.48
1033.387	1084.84
1033.675	1071.96
1033.963	1063.83
1034.251	1068.12
1034.54	1037.39
1034.828	1055.69
1035.116	1038.52
1035.403	1024.73
1035.691	1026.09
1035.979	1006.2
1036.267	1014.11
1036.554	1011.17
1036.842	1012.76
1037.129	1024.51
1037.417	994.68
1037.704	1009.59
1037.992	957.84
1038.279	994.45
1038.566	975.47
1038.853	975.47
1039.14	975.47
