Data from hue_350_FLMS001491_90.txt Node
Date: Mon Feb 06 15:38:39 GMT 2017
User: dcchb
Spectrometer: FLMS00149
Trigger mode: 0
Integration Time (sec): 2.000000E-2
Scans to average: 10
Electric dark correction enabled: true
Nonlinearity correction enabled: false
Boxcar width: 0
XAxis mode: Wavelengths
Number of Pixels in Spectrum: 2048
>>>>>Begin Spectral Data<<<<<
341.393	-3.19
341.776	-3.19
342.16	-3.19
342.543	-58.11
342.927	-67.15
343.31	-77.31
343.693	-61.04
344.077	-75.73
344.46	-48.16
344.843	-54.94
345.226	-52.46
345.61	-31.44
345.993	-12.01
346.376	-5.45
346.759	2.46
347.142	36.81
347.525	41.55
347.908	52.17
348.291	89.01
348.674	91.95
349.057	104.6
349.44	137.82
349.823	145.05
350.206	176.01
350.588	173.75
350.971	225.05
351.354	227.08
351.737	250.59
352.119	263.47
352.502	266.41
352.884	278.83
353.267	272.05
353.65	282
354.032	301.66
354.414	303.47
354.797	307.08
355.179	317.93
355.562	324.71
355.944	321.55
356.326	333.3
356.709	321.32
357.091	323.58
357.473	320.64
357.855	345.95
358.238	349.34
358.62	331.49
359.002	331.26
359.384	315.22
359.766	339.17
360.148	354.09
360.53	334.2
360.912	347.76
361.294	329.45
361.676	340.53
362.057	337.14
362.439	311.38
362.821	311.83
363.203	301.88
363.584	324.26
363.966	324.26
364.348	300.3
364.729	316.57
365.111	296.91
365.493	323.58
365.874	299.4
366.256	305.95
366.637	312.96
367.019	327.87
367.4	304.14
367.781	303.69
368.163	323.35
368.544	305.05
368.925	305.27
369.306	314.77
369.688	293.75
370.069	308.44
370.45	296.91
370.831	296.24
371.212	308.66
371.593	308.44
371.974	337.14
372.355	323.58
372.736	314.99
373.117	317.03
373.498	319.51
373.879	299.17
374.26	306.18
374.641	317.48
375.021	328.1
375.402	317.03
375.783	320.64
376.163	329.45
376.544	346.86
376.925	329.68
377.305	317.7
377.686	296.69
378.066	317.93
378.447	324.71
378.827	327.19
379.208	334.88
379.588	325.39
379.968	321.77
380.349	310.02
380.729	328.32
381.109	329.91
381.489	348.89
381.87	323.35
382.25	326.97
382.63	338.72
383.01	329
383.39	338.27
383.77	340.08
384.15	339.17
384.53	332.39
384.91	314.31
385.29	344.14
385.67	329.23
386.049	329.68
386.429	331.94
386.809	345.27
387.189	354.31
387.568	338.49
387.948	358.38
388.328	353.63
388.707	355.44
389.087	358.83
389.466	359.51
389.846	358.15
390.225	356.35
390.605	346.18
390.984	357.02
391.363	353.41
391.743	372.62
392.122	378.49
392.501	362.9
392.881	361.32
393.26	364.03
393.639	365.84
394.018	356.35
394.397	365.84
394.776	363.58
395.155	364.71
395.534	360.19
395.913	362.9
396.292	369.45
396.671	374.2
397.05	367.87
397.429	387.98
397.808	390.7
398.186	373.07
398.565	382.79
398.944	380.98
399.323	376.46
399.701	392.73
400.08	373.3
400.458	414.88
400.837	403.35
401.215	395.67
401.594	398.83
401.972	376.01
402.351	398.83
402.729	401.54
403.107	396.12
403.486	395.89
403.864	394.09
404.242	398.61
404.62	405.38
404.999	406.06
405.377	420.53
405.755	417.81
406.133	420.75
406.511	419.4
406.889	440.19
407.267	420.75
407.645	404.93
408.023	427.31
408.401	425.95
408.779	441.77
409.156	436.12
409.534	434.31
409.912	463.24
410.29	448.77
410.667	450.36
411.045	441.77
411.422	424.37
411.8	463.24
412.178	457.36
412.555	456.91
412.933	477.02
413.31	466.85
413.687	484.03
414.065	484.03
414.442	469.56
414.819	483.12
415.197	465.5
415.574	469.34
415.951	478.83
416.328	507.53
416.705	493.97
417.082	489.9
417.46	490.35
417.837	490.81
418.214	476.34
418.591	523.12
418.967	499.39
419.344	485.38
419.721	499.62
420.098	530.58
420.475	524.25
420.852	533.07
421.228	524.7
421.605	516.34
421.982	543.01
422.358	516.57
422.735	536.68
423.111	536.68
423.488	547.98
423.864	546.4
424.241	530.58
424.617	556.57
424.994	545.49
425.37	560.86
425.746	560.63
426.123	568.32
426.499	577.36
426.875	587.07
427.251	600.86
427.627	609.45
428.003	602.67
428.379	572.39
428.756	606.74
429.132	590.01
429.507	598.15
429.883	594.76
430.259	604.02
430.635	628.43
431.011	632.05
431.387	655.1
431.763	629.56
432.138	654.42
432.514	628.66
432.89	643.34
433.265	665.49
433.641	676.79
434.016	651.03
434.392	663.01
434.767	686.96
435.143	673.85
435.518	690.8
435.894	687.19
436.269	704.59
436.644	705.26
437.02	719.27
437.395	721.99
437.77	710.69
438.145	724.92
438.52	717.47
438.895	746.84
439.271	737.58
439.646	755.43
440.021	758.37
440.395	761.53
440.77	755.21
441.145	798.14
441.52	779.61
441.895	771.48
442.27	764.92
442.645	766.96
443.019	777.35
443.394	800.4
443.769	802.66
444.143	805.83
444.518	798.82
444.892	820.52
445.267	798.37
445.641	823.45
446.016	806.05
446.39	823.9
446.764	823.23
447.139	829.55
447.513	831.81
447.887	824.13
448.262	823
448.636	842.21
449.01	851.93
449.384	842.21
449.758	858.03
450.132	848.54
450.506	865.49
450.88	850.8
451.254	856.22
451.628	862.32
452.002	883.79
452.376	865.71
452.75	894.86
453.123	900.74
453.497	919.72
453.871	914.3
454.244	915.43
454.618	944.58
454.992	947.74
455.365	931.25
455.739	943.22
456.112	964.69
456.486	971.7
456.859	987.29
457.232	1014.18
457.606	1020.96
457.979	1007.63
458.352	1006.95
458.725	1025.93
459.099	1014.41
459.472	1034.75
459.845	1070.9
460.218	1063.22
460.591	1062.77
460.964	1073.16
461.337	1094.18
461.71	1092.82
462.083	1115.65
462.456	1081.98
462.829	1117
463.201	1127.4
463.574	1137.34
463.947	1130.56
464.32	1157.46
464.692	1177.79
465.065	1193.16
465.438	1198.13
465.81	1230
466.183	1214.63
466.555	1228.19
466.928	1246.27
467.3	1269.77
467.672	1245.14
468.045	1283.55
468.417	1308.64
468.789	1308.19
469.161	1313.61
469.534	1329.65
469.906	1355.42
470.278	1391.35
470.65	1398.58
471.022	1416.88
471.394	1422.08
471.766	1437.22
472.138	1471.8
472.51	1450.33
472.882	1498.69
473.253	1532.59
473.625	1525.13
473.997	1589.53
474.369	1588.18
474.74	1580.5
475.112	1599.25
475.484	1642.64
475.855	1683.09
476.227	1698.91
476.598	1709.98
476.97	1723.32
477.341	1786.14
477.713	1805.57
478.084	1830.88
478.455	1849.19
478.827	1869.3
479.198	1956.76
479.569	1955.4
479.94	1957.89
480.311	1998.56
480.682	2051.9
481.053	2074.72
481.424	2118.79
481.795	2152.23
482.166	2175.06
482.537	2217.09
482.908	2247.6
483.279	2275.62
483.65	2306.35
484.021	2345.9
484.391	2337.99
484.762	2399.68
485.133	2461.6
485.503	2439
485.874	2516.97
486.244	2562.39
486.615	2588.83
486.985	2604.88
487.356	2654.37
487.726	2700.24
488.097	2741.82
488.467	2729.84
488.837	2801.25
489.207	2846
489.578	2875.15
489.948	2922.15
490.318	2952.89
490.688	2951.31
491.058	3029.72
491.428	3024.07
491.798	3085.99
492.168	3141.58
492.538	3152.21
492.908	3184.07
493.278	3212.77
493.648	3206.22
494.017	3256.84
494.387	3286.89
494.757	3310.62
495.126	3379.77
495.496	3402.82
495.866	3418.64
496.235	3451.86
496.605	3470.39
496.974	3451.18
497.344	3519.43
497.713	3597.17
498.082	3556.04
498.452	3629.71
498.821	3628.35
499.19	3683.72
499.559	3676.71
499.928	3710.83
500.298	3730.04
500.667	3745.86
501.036	3756.94
501.405	3794.22
501.774	3803.71
502.143	3840.1
502.512	3865.86
502.88	3843.26
503.249	3833.77
503.618	3902.69
503.987	3912.86
504.356	3927.1
504.724	3984.5
505.093	3932.3
505.462	3962.81
505.83	3984.5
506.199	4019.53
506.567	4072.86
506.936	4106.3
507.304	4088.9
507.672	4132.52
508.041	4142.24
508.409	4172.52
508.777	4246.87
509.145	4239.18
509.514	4209.35
509.882	4236.47
510.25	4271.72
510.618	4259.29
510.986	4262.46
511.354	4295.23
511.722	4324.38
512.09	4384.72
512.458	4337.03
512.826	4400.53
513.193	4390.59
513.561	4422.23
513.929	4449.35
514.297	4447.09
514.664	4474.88
515.032	4477.14
515.4	4527.76
515.767	4535.22
516.135	4501.1
516.502	4499.97
516.869	4573.18
517.237	4550.36
517.604	4564.82
517.972	4603.47
518.339	4625.61
518.706	4661.54
519.073	4629.45
519.44	4678.94
519.808	4681.66
520.175	4696.35
520.542	4765.5
520.909	4801.2
521.276	4762.56
521.643	4822.44
522.009	4830.81
522.376	4813.63
522.743	4864.48
523.11	4844.14
523.477	4919.62
523.843	4961.65
524.21	4966.85
524.577	5016.79
524.943	5051.82
525.31	5018.37
525.676	5070.12
526.043	5084.81
526.409	5094.53
526.776	5129.1
527.142	5134.3
527.508	5153.51
527.874	5237.8
528.241	5212.26
528.607	5288.42
528.973	5344.01
529.339	5285.26
529.705	5367.29
530.071	5400.96
530.437	5404.8
530.803	5423.33
531.169	5480.51
531.535	5464.23
531.901	5494.29
532.267	5527.51
532.632	5570.67
532.998	5509.43
533.364	5627.62
533.73	5624
534.095	5633.95
534.461	5642.76
534.826	5714.17
535.192	5712.36
535.557	5704.68
535.923	5746.71
536.288	5752.59
536.653	5775.19
537.019	5763.21
537.384	5828.07
537.749	5845.69
538.114	5884.79
538.479	5862.87
538.845	5968.4
539.21	5922.3
539.575	5953.71
539.94	6002.75
540.305	6028.51
540.67	6000.72
541.034	6059.47
541.399	6020.15
541.764	6080.49
542.129	6126.36
542.494	6166.59
542.858	6186.02
543.223	6111.9
543.587	6230.09
543.952	6209.3
544.316	6282.52
544.681	6272.12
545.045	6335.62
545.41	6381.05
545.774	6367.04
546.138	6353.48
546.503	6382.85
546.867	6445.45
547.231	6460.59
547.595	6508.5
547.959	6489.07
548.324	6476.41
548.688	6545.11
549.052	6627.14
549.416	6614.04
549.779	6595.96
550.143	6582.62
550.507	6687.03
550.871	6733.35
551.235	6609.29
551.599	6741.04
551.962	6727.93
552.326	6753.69
552.689	6759.34
553.053	6747.82
553.417	6819.91
553.78	6876.4
554.143	6874.82
554.507	6939.68
554.87	6901.49
555.234	6967.7
555.597	6914.82
555.96	6973.8
556.323	7046.34
556.686	7008.38
557.05	7037.53
557.413	7038.43
557.776	7096.28
558.139	7148.71
558.502	7105.77
558.865	7177.86
559.228	7190.52
559.59	7202.95
559.953	7274.13
560.316	7372.43
560.679	7316.84
561.041	7301.7
561.404	7309.16
561.767	7364.98
562.129	7379.44
562.492	7440.45
562.854	7440.23
563.217	7425.31
563.579	7508.7
563.941	7562.03
564.304	7555.25
564.666	7566.1
565.028	7570.17
565.39	7595.7
565.753	7567.23
566.115	7651.52
566.477	7710.73
566.839	7705.98
567.201	7838.86
567.563	7768.58
567.925	7841.8
568.287	7891.74
568.648	7915.47
569.01	7892.42
569.372	7969.71
569.734	7980.33
570.095	7983.26
570.457	8047.22
570.819	8063.49
571.18	8107.78
571.542	8136.03
571.903	8141.68
572.265	8189.59
572.626	8241.79
572.987	8324.05
573.349	8306.65
573.71	8405.63
574.071	8435.23
574.432	8505.51
574.794	8550.03
575.155	8547.54
575.516	8613.76
575.877	8656.92
576.238	8743.47
576.599	8799.51
576.96	8866.86
577.32	8876.12
577.681	8953.41
578.042	9046.29
578.403	9145.49
578.763	9243.8
579.124	9290.57
579.485	9368.76
579.845	9544.81
580.206	9559.27
580.566	9710.68
580.927	9742.09
581.287	9901.41
581.648	9959.03
582.008	10209.65
582.368	10253.94
582.728	10383.88
583.089	10518.57
583.449	10693.02
583.809	10842.17
584.169	10977.31
584.529	11136.63
584.889	11386.79
585.249	11526
585.609	11501.14
585.969	11812.77
586.329	11937.96
586.688	12144.29
587.048	12340.89
587.408	12647.1
587.768	12834.66
588.127	12979.07
588.487	13151.26
588.846	13511.48
589.206	13642.32
589.565	13823.79
589.925	14183.55
590.284	14350.1
590.643	14683.65
591.003	14862.86
591.362	15207.26
591.721	15371.54
592.08	15713.23
592.44	15950.74
592.799	16258.75
593.158	16376.72
593.517	16774.67
593.876	17060.77
594.235	17359.97
594.593	17635.89
594.952	17915.88
595.311	18236.55
595.67	18514.74
596.029	18952.47
596.387	19097.32
596.746	19489.18
597.104	19664.09
597.463	20040.35
597.822	20385.65
598.18	20484.18
598.538	20781.35
598.897	21177.04
599.255	21339.07
599.613	21916.91
599.972	22101.54
600.33	22315.54
600.688	22555.08
601.046	22899.93
601.404	23221.28
601.762	23353.48
602.12	23799.57
602.478	24003.86
602.836	24284.76
603.194	24446.33
603.552	24745.08
603.91	24856.27
604.268	25436.14
604.625	25450.38
604.983	25865.51
605.341	25982.11
605.698	26466.62
606.056	26675.88
606.413	26877.91
606.771	27188.64
607.128	27414.39
607.485	27481.28
607.843	27686.93
608.2	28152
608.557	28338.44
608.914	28523.52
609.272	28815.71
609.629	29098.42
609.986	29304.96
610.343	29451.85
610.7	29866.76
611.057	29992.63
611.414	30193.3
611.771	30236.46
612.127	30666.96
612.484	30841.65
612.841	31072.38
613.198	31159.15
613.554	31351.01
613.911	31635.98
614.267	31770.21
614.624	31907.38
614.98	32061.73
615.337	32428.27
615.693	32458.78
616.05	32628.04
616.406	32881.37
616.762	32930.86
617.118	33049.95
617.475	33210.85
617.831	33389.15
618.187	33649.26
618.543	33718.63
618.899	34069.58
619.255	34062.8
619.611	34129.02
619.967	34492.85
620.323	34484.04
620.678	34507.99
621.034	34525.39
621.39	34691.26
621.746	34800.19
622.101	35241.31
622.457	35127.86
622.812	35212.83
623.168	35400.4
623.523	35494.41
623.879	35786.38
624.234	35394.3
624.589	35796.09
624.945	35843.55
625.3	35943.66
625.655	35943.66
626.01	36058.46
626.365	36218.68
626.72	36261.17
627.075	36230.66
627.43	36275.85
627.785	36271.11
628.14	36457.09
628.495	36574.38
628.85	36595.39
629.205	36539.12
629.559	36704.54
629.914	36624.32
630.269	36678.56
630.623	36735.5
630.978	36763.52
631.332	36895.5
631.687	36978.66
632.041	36879.91
632.396	36947.25
632.75	36850.53
633.104	37016.4
633.459	36836.07
633.813	36939.57
634.167	36975.72
634.521	37102.72
634.875	37017.08
635.229	37100.01
635.583	36918.55
635.937	36992.67
636.291	37053.01
636.645	36910.64
636.999	37057.53
637.352	37177.98
637.706	36876.97
638.06	37194.02
638.413	37052.1
638.767	36883.75
639.121	37064.08
639.474	36810.53
639.828	37021.37
640.181	36920.58
640.534	37029.51
640.888	37031.54
641.241	36815.05
641.594	36884.65
641.947	36995.84
642.301	36923.52
642.654	36809.85
643.007	37001.26
643.36	36940.02
643.713	36894.14
644.066	37022.05
644.419	36789.51
644.771	36568.95
645.124	36329.86
645.477	36216.87
645.83	35957.22
646.182	35817.79
646.535	35806.71
646.888	35817.34
647.24	35764.46
647.593	35888.75
647.945	35881.06
648.298	35792.48
648.65	35623.89
649.002	35556.1
649.355	35757.68
649.707	35597
650.059	35800.39
650.411	36317.66
650.763	36265.91
651.115	36746.12
651.467	36594.72
651.819	36507.26
652.171	36547.49
652.523	36397.66
652.875	36474.04
653.227	36457.54
653.578	36606.92
653.93	36403.76
654.282	36196.08
654.633	36303.2
654.985	36396.08
655.337	36374.61
655.688	36365.34
656.039	36467.04
656.391	36119.02
656.742	36322.86
657.094	36347.26
657.445	36479.46
657.796	36258.91
658.147	36201.28
658.498	36281.28
658.849	36161.28
659.2	36340.94
659.551	36137.1
659.902	36224.56
660.253	36274.05
660.604	36207.83
660.955	36065.24
661.306	36226.14
661.656	36200.15
662.007	36131
662.358	36244.22
662.708	36060.27
663.059	36124.9
663.409	35997.67
663.76	36274.5
664.11	36179.36
664.461	36333.71
664.811	36138.46
665.161	36084.45
665.511	36168.51
665.862	36138
666.212	36223.65
666.562	36185.91
666.912	36087.84
667.262	36109.53
667.612	36166.93
667.962	36046.26
668.312	36024.34
668.662	36260.26
669.011	36140.72
669.361	36119.02
669.711	36007.61
670.06	35992.02
670.41	35976.43
670.76	35838.58
671.109	36045.13
671.459	35903.43
671.808	36046.93
672.157	36043.32
672.507	35820.27
672.856	35948.18
673.205	35893.72
673.554	35940.04
673.904	35854.17
674.253	35951.12
674.602	35926.94
674.951	35345.48
675.3	35268.87
675.649	35731.69
675.998	35754.06
676.346	35787.05
676.695	35895.75
677.044	35528.98
677.393	35723.1
677.741	35714.06
678.09	35646.49
678.438	35494.41
678.787	35623.89
679.135	35533.5
679.484	35409.89
679.832	35395.43
680.181	35309.55
680.529	35434.07
680.877	35449.21
681.225	35301.42
681.573	35432.03
681.922	35301.87
682.27	35084.92
682.618	35106.39
682.966	35030.01
683.314	35242.66
683.661	34979.62
684.009	34820.75
684.357	34781.2
684.705	34725.61
685.053	34837.93
685.4	34600.42
685.748	34616.24
686.095	34558.84
686.443	34476.81
686.79	34502.34
687.138	34396.13
687.485	34421.21
687.832	34296.47
688.18	34363.81
688.527	34195
688.874	34223.48
689.221	34156.36
689.568	34036.82
689.915	33891.74
690.262	33900.55
690.609	33867.56
690.956	33705.07
691.303	33614
691.65	33531.07
691.997	33538.3
692.344	33351.19
692.69	33332.2
693.037	33425.31
693.383	33210.62
693.73	33374.01
694.077	33037.75
694.423	33127.91
694.769	32877.98
695.116	32797.98
695.462	32919.78
695.808	32812.67
696.155	32813.12
696.501	32504.88
696.847	32485.67
697.193	32273.7
697.539	32420.14
697.885	32236.64
698.231	32122.97
698.577	32097.88
698.923	31987.61
699.269	31917.32
699.614	31687.5
699.96	31756.88
700.306	31650.44
700.651	31511.23
700.997	31461.52
701.342	31406.15
701.688	31369.99
702.033	31274.86
702.379	31168.87
702.724	31078.02
703.069	31255.65
703.415	30856.56
703.76	30833.51
704.105	30894.75
704.45	30780.63
704.795	30583.12
705.14	30546.06
705.485	30593.74
705.83	30403.69
706.175	30443.69
706.52	30256.58
706.865	30347.87
707.209	30214.54
707.554	30078.28
707.899	30135.22
708.243	29955.12
708.588	29992.86
708.932	29757.38
709.277	29775.91
709.621	29696.59
709.966	29663.6
710.31	29813.2
710.654	29358.75
710.998	29456.15
711.342	29488.69
711.687	29384.51
712.031	29234.23
712.375	29167.34
712.719	29179.32
713.063	29140.9
713.407	29086.89
713.75	28978.64
714.094	28983.39
714.438	28928.02
714.782	28905.2
715.125	28758.99
715.469	28838.54
715.812	28647.58
716.156	28570.75
716.499	28463.18
716.843	28665.43
717.186	28456.17
717.53	28519.45
717.873	28418.66
718.216	28366.68
718.559	28333.46
718.902	28056.86
719.246	28254.82
719.589	28044.21
719.932	27992.68
720.275	28008.05
720.617	27833.82
720.96	27892.8
721.303	27848.96
721.646	27819.35
721.989	27625.46
722.331	27846.92
722.674	27659.36
723.016	27798.79
723.359	27589.53
723.701	27666.59
724.044	27505.24
724.386	27448.29
724.729	27476.76
725.071	27419.82
725.413	27401.51
725.755	27393.83
726.097	27315.86
726.439	27232.25
726.782	27153.61
727.124	27195.41
727.465	27090.56
727.807	27057.57
728.149	27055.08
728.491	26958.58
728.833	27045.81
729.175	26884.91
729.516	26708.42
729.858	26830.9
730.199	26752.04
730.541	26681.3
730.882	26758.59
731.224	26654.86
731.565	26598.59
731.906	26602.66
732.248	26584.36
732.589	26409.45
732.93	26409.22
733.271	26396.57
733.612	26352.5
733.953	26454.87
734.294	26376.23
734.635	26318.38
734.976	26317.02
735.317	26232.05
735.658	26131.26
735.999	26136.91
736.339	26065.5
736.68	26146.63
737.021	26062.11
737.361	25948.22
737.702	25892.4
738.042	25970.59
738.383	25842.68
738.723	25964.26
739.063	25744.15
739.404	25716.13
739.744	25753.64
740.084	25652.63
740.424	25701.22
740.764	25586.64
741.104	25696.25
741.444	25502.8
741.784	25465.74
742.124	25476.82
742.464	25462.13
742.804	25439.08
743.143	25420.55
743.483	25323.6
743.823	25242.25
744.162	25237.05
744.502	25245.41
744.841	25130.61
745.181	25249.03
745.52	25115.7
745.86	25144.62
746.199	25082.02
746.538	25083.83
746.877	25094.68
747.216	25066.21
747.556	24934.91
747.895	24955.02
748.234	24900.11
748.573	24803.84
748.911	24800.9
749.25	24711.64
749.589	24722.03
749.928	24801.35
750.267	24779.66
750.605	24621.7
750.944	24604.07
751.283	24480.68
751.621	24592.09
751.96	24397.75
752.298	24502.15
752.636	24365.88
752.975	24312.33
753.313	24210.18
753.651	24228.04
753.989	24192.78
754.327	24145.33
754.666	24016.74
755.004	24097.87
755.342	24017.65
755.679	24033.69
756.017	23821.94
756.355	23877.54
756.693	23707.15
757.031	23777.2
757.368	23703.98
757.706	23674.38
758.044	23568.84
758.381	23578.56
758.719	23499.01
759.056	23525.23
759.394	23407.27
759.731	23334.05
760.068	23172.7
760.405	23097.44
760.743	23176.54
761.08	23168.4
761.417	23000.5
761.754	22963.89
762.091	22915.08
762.428	22932.48
762.765	22764.12
763.102	22735.19
763.438	22592.37
763.775	22518.02
764.112	22486.61
764.449	22514.41
764.785	22420.4
765.122	22303.57
765.458	22208.88
765.795	22185.15
766.131	22227.41
766.467	22065.83
766.804	22063.35
767.14	21857.7
767.476	21884.37
767.812	21733.64
768.148	21767.99
768.485	21629.69
768.821	21561.44
769.157	21458.39
769.492	21485.51
769.828	21389.24
770.164	21149.92
770.5	21113.31
770.836	21224.72
771.171	21111.73
771.507	21001.68
771.842	20862.25
772.178	20839.88
772.513	20829.93
772.849	20792.87
773.184	20617.28
773.519	20670.61
773.855	20558.53
774.19	20447.34
774.525	20423.16
774.86	20403.96
775.195	20176.62
775.53	20163.96
775.865	20129.16
776.2	19977.98
776.535	19817.08
776.87	19883.06
777.205	19761.49
777.539	19664.99
777.874	19674.93
778.209	19530.53
778.543	19531.66
778.878	19403.53
779.212	19309.97
779.547	19239.69
779.881	19268.84
780.215	19075.18
780.55	19231.1
780.884	18991.56
781.218	19075.63
781.552	18955.63
781.886	18861.4
782.22	18792.92
782.554	18622.08
782.888	18608.75
783.222	18454.85
783.556	18498.47
783.889	18414.85
784.223	18204.69
784.557	18218.48
784.89	18221.41
785.224	18159.49
785.557	18041.31
785.891	18077.01
786.224	17948.43
786.558	17947.3
786.891	17709.11
787.224	17615.55
787.557	17615.78
787.891	17667.53
788.224	17626.63
788.557	17605.61
788.89	17424.15
789.223	17527.42
789.556	17250.14
789.888	17252.17
790.221	17202.91
790.554	17132.4
790.887	17038.62
791.219	17040.65
791.552	16978.96
791.884	17005.63
792.217	16852.18
792.549	16773.99
792.882	16765.41
793.214	16578.07
793.546	16691.28
793.879	16645.64
794.211	16485.19
794.543	16388.69
794.875	16432.99
795.207	16491.52
795.539	16279.77
795.871	16313.22
796.203	16122.03
796.535	16184.4
796.867	16100.34
797.198	16053.79
797.53	16129.04
797.862	15859.89
798.193	15973.79
798.525	15903.51
798.856	15923.62
799.188	15744.87
799.519	15619.22
799.85	15597.75
800.182	15599.56
800.513	15573.8
800.844	15439.79
801.175	15528.38
801.506	15453.58
801.837	15431.88
802.168	15333.81
802.499	15312.79
802.83	15197.99
803.161	15193.47
803.491	15154.83
803.822	15136.97
804.153	15047.49
804.483	14965.23
804.814	14884.1
805.145	14838.68
805.475	14877.09
805.805	14795.29
806.136	14790.77
806.466	14785.12
806.796	14686.82
807.126	14666.93
807.457	14618.34
807.787	14533.37
808.117	14465.58
808.447	14489.53
808.777	14459.93
809.107	14465.58
809.436	14372.02
809.766	14362.53
810.096	14356.2
810.426	14222.42
810.755	14278.92
811.085	14244.79
811.414	14139.94
811.744	14088.64
812.073	14075.99
812.403	13945.14
812.732	13903.56
813.061	13885.71
813.39	13892.71
813.719	13774.07
814.049	13970
814.378	13878.7
814.707	13799.16
815.036	13734.3
815.365	13760.97
815.693	13542.44
816.022	13562.1
816.351	13514.42
816.68	13396
817.008	13461.31
817.337	13358.94
817.665	13344.93
817.994	13370.69
818.322	13376.8
818.651	13240.3
818.979	13288.89
819.307	13274.65
819.636	13160.08
819.964	13132.73
820.292	13137.48
820.62	13195.33
820.948	13118.72
821.276	13164.82
821.604	13107.2
821.932	13217.25
822.259	13127.76
822.587	13100.19
822.915	13088.67
823.243	13144.26
823.57	13036.47
823.898	13082.79
824.225	13030.82
824.553	13062.45
824.88	13024.04
825.207	13064.94
825.535	13125.5
825.862	13196.46
826.189	13050.7
826.516	13169.57
826.843	13127.76
827.17	13099.29
827.497	13210.92
827.824	13173.18
828.151	13156.46
828.478	13011.61
828.805	13060.19
829.131	13081.89
829.458	13027.65
829.785	12892.29
830.111	13059.52
830.438	13096.58
830.764	13068.33
831.09	13067.42
831.417	13037.14
831.743	12999.4
832.069	13016.35
832.395	13013.87
832.722	13017.48
833.048	12926.64
833.374	12951.95
833.7	12877.37
834.026	12932.29
834.351	12974.09
834.677	12888.22
835.003	12920.31
835.329	12866.07
835.654	12909.24
835.98	12784.49
836.306	12813.87
836.631	12751.73
836.956	12841.22
837.282	12839.41
837.607	12782.91
837.932	12674.89
838.258	12724.16
838.583	12682.58
838.908	12650.03
839.233	12702.69
839.558	12627.89
839.883	12542.24
840.208	12598.06
840.533	12526.87
840.858	12576.59
841.182	12500.43
841.507	12455.46
841.832	12410.27
842.156	12422.7
842.481	12378.18
842.805	12349.48
843.13	12343.15
843.454	12258.63
843.778	12303.38
844.103	12261.34
844.427	12236.49
844.751	12265.19
845.075	12230.84
845.399	12186.09
845.723	12070.84
846.047	12075.36
846.371	12001.92
846.695	11962.82
847.019	11856.38
847.343	11815.71
847.666	11741.13
847.99	11722.83
848.313	11760.34
848.637	11697.07
848.96	11647.35
849.284	11617.97
849.607	11501.82
849.931	11444.19
850.254	11435.83
850.577	11359.22
850.9	11390.63
851.223	11252.33
851.546	11257.3
851.869	11154.03
852.192	11258.43
852.515	11095.73
852.838	11024.99
853.161	11017.76
853.483	11003.52
853.806	10977.54
854.129	10928.95
854.451	10855.96
854.774	10827.71
855.096	10710.65
855.419	10833.13
855.741	10696.64
856.063	10657.54
856.385	10650.77
856.708	10658.45
857.03	10596.3
857.352	10560.37
857.674	10509.07
857.996	10482.41
858.318	10522.86
858.64	10401.51
858.961	10392.47
859.283	10351.34
859.605	10312.92
859.926	10341.39
860.248	10273.6
860.57	10207.84
860.891	10278.35
861.212	10246.03
861.534	10180.5
861.855	10163.32
862.176	10217.78
862.498	10163.32
862.819	10210.1
863.14	10113.6
863.461	10121.74
863.782	10056.2
864.103	9975.75
864.424	10004.91
864.745	9998.35
865.065	9997.22
865.386	9951.12
865.707	9938.92
866.027	9948.86
866.348	9906.6
866.668	9848.53
866.989	9857.57
867.309	9828.64
867.63	9848.75
867.95	9832.93
868.27	9761.3
868.59	9789.09
868.91	9799.04
869.23	9782.77
869.55	9752.26
869.87	9803.56
870.19	9710.9
870.51	9702.54
870.83	9681.07
871.15	9607.63
871.469	9591.58
871.789	9643.33
872.109	9617.35
872.428	9571.47
872.748	9602.88
873.067	9585.03
873.386	9576.22
873.706	9556.56
874.025	9472.04
874.344	9479.5
874.663	9459.16
874.982	9522.89
875.301	9498.25
875.62	9464.36
875.939	9451.7
876.258	9380.97
876.577	9372.83
876.896	9338.26
877.214	9333.29
877.533	9378.03
877.852	9276.34
878.17	9377.35
878.489	9310.91
878.807	9305.04
879.125	9252.16
879.444	9220.52
879.762	9226.4
880.08	9282.44
880.398	9206.51
880.716	9220.97
881.034	9166.06
881.352	9213.06
881.67	9088.55
881.988	9183.01
882.306	9072.28
882.624	9077.25
882.941	9039.73
883.259	9005.84
883.577	8983.24
883.894	8958.61
884.212	8946.63
884.529	8887.87
884.846	8962.67
885.164	8941.21
885.481	8921.77
885.798	8880.19
886.115	8825.28
886.432	8804.94
886.75	8792.28
887.067	8821.21
887.383	8759.74
887.7	8770.14
888.017	8703.92
888.334	8712.51
888.651	8701.89
888.967	8616.24
889.284	8642.91
889.6	8596.58
889.917	8459.64
890.233	8487.66
890.55	8555.9
890.866	8540.76
891.182	8457.38
891.498	8474.55
891.815	8441.11
892.131	8314.56
892.447	8393.65
892.763	8316.59
893.079	8337.83
893.395	8296.25
893.71	8210.83
894.026	8251.28
894.342	8242.24
894.657	8205.63
894.973	8195.46
895.289	8168.8
895.604	8117.5
895.92	8117.05
896.235	8037.05
896.55	8023.49
896.865	7987.56
897.181	7962.25
897.496	7951.18
897.811	7982.13
898.126	7909.14
898.441	7932.19
898.756	7882.7
899.071	7823.27
899.386	7818.75
899.7	7766.1
900.015	7722.71
900.33	7696.04
900.644	7635.7
900.959	7690.62
901.273	7670.73
901.588	7617.85
901.902	7517.51
902.216	7568.59
902.531	7569.26
902.845	7480.45
903.159	7448.82
903.473	7443.62
903.787	7455.14
904.101	7384.64
904.415	7399.78
904.729	7369.04
905.042	7254.47
905.356	7236.17
905.67	7264.64
905.984	7317.07
906.297	7193.68
906.611	7171.08
906.924	7144.64
907.237	7124.3
907.551	7091.31
907.864	7063.97
908.177	7044.08
908.491	7052.44
908.804	7013.35
909.117	6929.73
909.43	6943.52
909.743	6875.05
910.056	6833.01
910.368	6847.02
910.681	6823.52
910.994	6771.09
911.307	6738.55
911.619	6744.65
911.932	6737.65
912.244	6656.75
912.557	6700.59
912.869	6647.48
913.181	6635.96
913.494	6576.3
913.806	6509.18
914.118	6505.56
914.43	6519.57
914.742	6510.99
915.054	6427.37
915.366	6401.39
915.678	6378.34
915.99	6387.37
916.302	6306.02
916.613	6328.17
916.925	6303.31
917.236	6296.3
917.548	6303.31
917.859	6236.42
918.171	6125.23
918.482	6157.55
918.794	6167.72
919.105	6101.28
919.416	6096.08
919.727	6086.59
920.038	6023.99
920.349	5995.97
920.66	5984.22
920.971	6021.51
921.282	5952.36
921.593	5883.43
921.903	5918.23
922.214	5881.85
922.525	5816.32
922.835	5818.58
923.146	5801.63
923.456	5760.5
923.767	5761.85
924.077	5779.71
924.387	5696.32
924.697	5679.6
925.008	5648.18
925.318	5637.79
925.628	5602.31
925.938	5629.43
926.248	5540.39
926.558	5502.65
926.867	5545.81
927.177	5460.62
927.487	5486.38
927.796	5447.51
928.106	5435.31
928.416	5355.54
928.725	5381.98
929.034	5311.24
929.344	5379.27
929.653	5347.18
929.962	5261.3
930.271	5240.06
930.581	5241.42
930.89	5246.84
931.199	5196.45
931.508	5130.46
931.817	5156.22
932.125	5124.36
932.434	5125.49
932.743	5042.1
933.051	5084.13
933.36	5053.4
933.669	4985.38
933.977	4999.61
934.286	4970.01
934.594	4977.47
934.902	4922.55
935.21	4901.99
935.519	4913.51
935.827	4868.54
936.135	4823.8
936.443	4760.75
936.751	4805.27
937.059	4786.96
937.367	4793.29
937.674	4754.42
937.982	4722.11
938.29	4691.37
938.597	4705.84
938.905	4691.83
939.213	4659.51
939.52	4697.25
939.827	4641.43
940.135	4628.1
940.442	4568.89
940.749	4554.65
941.056	4556.24
941.363	4498.84
941.67	4496.58
941.977	4493.86
942.284	4459.52
942.591	4468.1
942.898	4421.32
943.205	4394.66
943.511	4351.27
943.818	4389.01
944.125	4337.26
944.431	4310.82
944.738	4290.93
945.044	4293.19
945.35	4274.21
945.657	4231.05
945.963	4224.95
946.269	4201.67
946.575	4188.34
946.881	4188.34
947.187	4144.27
947.493	4161.44
947.799	4151.5
948.105	4121.22
948.41	4061.33
948.716	4098.62
949.022	4084.61
949.327	4047.1
949.633	4029.24
949.938	3982.69
950.244	4002.13
950.549	3994.89
950.854	3963.03
951.16	3946.08
951.465	3946.31
951.77	3903.6
952.075	3896.14
952.38	3832.64
952.685	3849.59
952.99	3815.92
953.294	3807.78
953.599	3760.1
953.904	3787.67
954.209	3733.66
954.513	3772.08
954.818	3784.51
955.122	3727.33
955.426	3713.55
955.731	3721.68
956.035	3720.55
956.339	3665.86
956.643	3636.03
956.948	3652.31
957.252	3623.61
957.556	3637.39
957.86	3576.6
958.163	3548.35
958.467	3526.21
958.771	3594.45
959.075	3506.77
959.378	3537.51
959.682	3490.05
959.985	3483.95
960.289	3438.3
960.592	3449.37
960.896	3433.78
961.199	3393.33
961.502	3436.04
961.805	3393.55
962.108	3349.94
962.411	3384.97
962.714	3385.42
963.017	3334.12
963.32	3317.4
963.623	3290.96
963.926	3316.95
964.228	3228.14
964.531	3253.67
964.833	3212.09
965.136	3251.64
965.438	3227.01
965.741	3169.38
966.043	3182.94
966.345	3201.47
966.648	3170.06
966.95	3143.39
967.252	3133.67
967.554	3137.29
967.856	3101.36
968.158	3109.95
968.46	3086.22
968.761	3111.08
969.063	3070.85
969.365	3046.9
969.666	3008.48
969.968	2973.45
970.269	2989.05
970.571	2964.64
970.872	2940.01
971.174	2962.15
971.475	3010.29
971.776	2935.26
972.077	2947.01
972.378	2920.57
972.679	2909.5
972.98	2899.33
973.281	2864.08
973.582	2854.13
973.883	2836.28
974.183	2859.56
974.484	2807.36
974.785	2814.81
975.085	2817.3
975.386	2788.6
975.686	2764.19
975.986	2743.63
976.287	2772.1
976.587	2765.1
976.887	2753.12
977.187	2736.85
977.487	2717.87
977.787	2686
978.087	2701.14
978.387	2679.22
978.687	2679.22
978.987	2710.41
979.286	2618.89
979.586	2592.45
979.885	2585.44
980.185	2616.85
980.484	2559.45
980.784	2569.17
981.083	2534.59
981.382	2573.01
981.682	2526.91
981.981	2535.5
982.28	2536.18
982.579	2466.57
982.878	2493.47
983.177	2503.18
983.475	2473.35
983.774	2457.08
984.073	2427.03
984.372	2436.52
984.67	2466.12
984.969	2434.26
985.267	2406.46
985.566	2420.7
985.864	2390.87
986.162	2437.2
986.461	2389.51
986.759	2398.1
987.057	2369.4
987.355	2340.02
987.653	2309.74
987.951	2336.86
988.249	2323.98
988.547	2314.26
988.844	2297.31
989.142	2290.53
989.44	2285.34
989.737	2289.86
990.035	2249.18
990.332	2256.64
990.63	2234.94
990.927	2207.37
991.224	2224.32
991.521	2218.9
991.819	2192.91
992.116	2215.96
992.413	2198.11
992.71	2139.35
993.006	2175.06
993.303	2138.45
993.6	2142.51
993.897	2120.59
994.193	2150.42
994.49	2102.74
994.787	2098.9
995.083	2074.27
995.379	2050.99
995.676	2085.11
995.972	2040.37
996.268	2047.38
996.565	2024.78
996.861	2039.24
997.157	2026.59
997.453	2026.59
997.749	2012.12
998.044	2009.86
998.34	1978.9
998.636	1933.93
998.932	1951.78
999.227	1941.62
999.523	1953.37
999.818	1934.16
1000.114	1919.24
1000.409	1899.13
1000.704	1904.1
1001	1881.28
1001.295	1859.13
1001.59	1868.4
1001.885	1893.71
1002.18	1837.21
1002.475	1823.88
1002.77	1825.23
1003.065	1811
1003.359	1814.61
1003.654	1789.53
1003.949	1771.9
1004.243	1777.33
1004.538	1776.42
1004.832	1773.94
1005.127	1779.59
1005.421	1757.67
1005.715	1675.41
1006.009	1727.16
1006.304	1726.71
1006.598	1716.54
1006.892	1724.45
1007.186	1693.94
1007.48	1678.8
1007.773	1671.34
1008.067	1665.69
1008.361	1652.36
1008.655	1655.07
1008.948	1622.98
1009.242	1618.91
1009.535	1655.75
1009.829	1607.61
1010.122	1602.42
1010.415	1617.56
1010.708	1584.11
1011.001	1543.66
1011.295	1548.86
1011.588	1570.33
1011.881	1546.15
1012.173	1527.84
1012.466	1523.77
1012.759	1512.25
1013.052	1510.21
1013.344	1512.93
1013.637	1475.64
1013.93	1500.05
1014.222	1473.38
1014.514	1462.08
1014.807	1461.63
1015.099	1431.12
1015.391	1452.59
1015.683	1450.1
1015.976	1421.86
1016.268	1413.04
1016.56	1407.39
1016.851	1404.68
1017.143	1395.87
1017.435	1375.53
1017.727	1377.79
1018.018	1364.91
1018.31	1379.37
1018.602	1360.84
1018.893	1325.81
1019.185	1329.43
1019.476	1321.29
1019.767	1317.68
1020.058	1309.54
1020.35	1293.05
1020.641	1284.91
1020.932	1295.53
1021.223	1275.64
1021.514	1265.93
1021.804	1256.66
1022.095	1223.44
1022.386	1252.82
1022.677	1249.2
1022.967	1217.11
1023.258	1224.12
1023.548	1212.37
1023.839	1208.98
1024.129	1219.83
1024.419	1178.25
1024.709	1189.54
1025	1183.67
1025.29	1183.22
1025.58	1154.29
1025.87	1143.44
1026.16	1148.64
1026.449	1135.08
1026.739	1161.07
1027.029	1125.37
1027.319	1131.47
1027.608	1125.37
1027.898	1102.99
1028.187	1082.2
1028.477	1085.14
1028.766	1070.45
1029.055	1067.51
1029.344	1070
1029.634	1097.34
1029.923	1049.44
1030.212	1049.66
1030.501	1015.09
1030.79	1021.41
1031.078	1036.55
1031.367	1035.65
1031.656	1056.44
1031.945	996.33
1032.233	1000.85
1032.522	1001.98
1032.81	1005.6
1033.099	987.29
1033.387	981.64
1033.675	957.01
1033.963	975.54
1034.251	988.42
1034.54	967.4
1034.828	952.04
1035.116	924.92
1035.403	949.1
1035.691	954.07
1035.979	950.46
1036.267	931.25
1036.554	941.64
1036.842	908.2
1037.129	928.08
1037.417	909.55
1037.704	919.27
1037.992	882.21
1038.279	886.95
1038.566	895.54
1038.853	895.54
1039.14	895.54
