Data from hue_90_FLMS001491_51.txt Node
Date: Mon Feb 06 15:25:19 GMT 2017
User: dcchb
Spectrometer: FLMS00149
Trigger mode: 0
Integration Time (sec): 2.000000E-2
Scans to average: 10
Electric dark correction enabled: true
Nonlinearity correction enabled: false
Boxcar width: 0
XAxis mode: Wavelengths
Number of Pixels in Spectrum: 2048
>>>>>Begin Spectral Data<<<<<
341.393	-7.63
341.776	-7.63
342.16	-7.63
342.543	-55.08
342.927	-57.57
343.31	-67.74
343.693	-84.01
344.077	-84.91
344.46	-55.54
344.843	-54.18
345.226	-26.84
345.61	-43.33
345.993	-2.43
346.376	-6.95
346.759	-2.2
347.142	34.63
347.525	56.55
347.908	66.5
348.291	68.08
348.674	88.64
349.057	113.73
349.44	130.45
349.823	151.46
350.206	156.89
350.588	209.54
350.971	218.36
351.354	223.33
351.737	247.51
352.119	245.93
352.502	253.84
352.884	281.18
353.267	263.55
353.65	271.46
354.032	285.25
354.414	311.23
354.797	309.65
355.179	297.9
355.562	317.79
355.944	326.6
356.326	320.5
356.709	346.26
357.091	315.53
357.473	343.32
357.855	340.84
358.238	332.25
358.62	345.13
359.002	345.36
359.384	340.39
359.766	349.43
360.148	316.88
360.53	342.65
360.912	319.82
361.294	329.77
361.676	317.79
362.057	311.91
362.439	343.55
362.821	318.01
363.203	319.82
363.584	321.4
363.966	309.88
364.348	316.21
364.729	320.5
365.111	315.08
365.493	318.47
365.874	302.2
366.256	315.53
366.637	307.39
367.019	300.16
367.4	312.36
367.781	298.81
368.163	304.46
368.544	308.75
368.925	309.2
369.306	328.41
369.688	307.17
370.069	303.78
370.45	289.09
370.831	317.56
371.212	335.64
371.593	312.59
371.974	308.75
372.355	330.44
372.736	320.95
373.117	320.05
373.498	297.68
373.879	324.12
374.26	318.92
374.641	297.9
375.021	315.75
375.402	323.44
375.783	315.98
376.163	342.65
376.544	326.15
376.925	341.29
377.305	314.62
377.686	322.31
378.066	329.31
378.447	311.01
378.827	327.73
379.208	324.12
379.588	320.73
379.968	325.92
380.349	332.48
380.729	333.38
381.109	339.26
381.489	323.66
381.87	338.8
382.25	333.61
382.63	332.48
383.01	340.61
383.39	325.7
383.77	339.93
384.15	329.09
384.53	364.57
384.91	324.12
385.29	334.06
385.67	325.92
386.049	348.75
386.429	349.2
386.809	354.85
387.189	355.75
387.568	356.43
387.948	363.21
388.328	348.97
388.707	344.23
389.087	356.21
389.466	355.53
389.846	371.35
390.225	366.6
390.605	343.32
390.984	355.98
391.363	375.19
391.743	361.85
392.122	360.95
392.501	366.37
392.881	367.96
393.26	361.63
393.639	360.27
394.018	379.48
394.397	366.37
394.776	359.6
395.155	344.45
395.534	372.7
395.913	361.63
396.292	394.4
396.671	395.98
397.05	386.94
397.429	371.8
397.808	374.06
398.186	372.93
398.565	383.32
398.944	389.65
399.323	376.09
399.701	383.78
400.08	391.46
400.458	402.76
400.837	399.82
401.215	415.64
401.594	413.83
401.972	373.15
402.351	416.54
402.729	390.78
403.107	391.68
403.486	398.92
403.864	409.54
404.242	405.24
404.62	402.98
404.999	400.72
405.377	422.19
405.755	411.8
406.133	411.57
406.511	424.45
406.889	435.07
407.267	436.43
407.645	410.89
408.023	422.19
408.401	418.58
408.779	415.41
409.156	440.95
409.534	426.49
409.912	427.84
410.29	438.46
410.667	419.03
411.045	436.2
411.422	448.41
411.8	466.48
412.178	448.63
412.555	463.77
412.933	443.89
413.31	453.15
413.687	454.51
414.065	467.16
414.442	462.42
414.819	459.71
415.197	485.69
415.574	485.92
415.951	484.56
416.328	489.76
416.705	476.65
417.082	493.15
417.46	480.72
417.837	492.92
418.214	485.24
418.591	493.83
418.967	496.99
419.344	523.21
419.721	513.04
420.098	506.26
420.475	517.78
420.852	521.62
421.228	527.05
421.605	522.08
421.982	515.07
422.358	512.36
422.735	539.93
423.111	524.56
423.488	521.17
423.864	526.14
424.241	553.26
424.617	546.48
424.994	541.74
425.37	526.6
425.746	564.56
426.123	577.22
426.499	529.08
426.875	573.6
427.251	560.49
427.627	581.74
428.003	581.51
428.379	576.09
428.756	590.78
429.132	601.62
429.507	593.94
429.883	599.59
430.259	605.01
430.635	633.49
431.011	628.06
431.387	608.85
431.763	628.97
432.138	635.29
432.514	630.77
432.89	652.24
433.265	658.34
433.641	648.63
434.016	662.64
434.392	666.93
434.767	663.32
435.143	646.37
435.518	676.65
435.894	684.11
436.269	680.94
436.644	697.67
437.02	692.02
437.395	683.65
437.77	699.47
438.145	705.8
438.52	719.36
438.895	722.98
439.271	734.5
439.646	717.55
440.021	739.02
440.395	748.96
440.77	727.04
441.145	732.01
441.52	764.78
441.895	753.71
442.27	760.26
442.645	754.39
443.019	760.04
443.394	768.85
443.769	786.25
444.143	814.5
444.518	784.44
444.892	787.61
445.267	792.58
445.641	800.49
446.016	812.24
446.39	816.08
446.764	814.05
447.139	805.01
447.513	831.9
447.887	827.61
448.262	818.79
448.636	843.42
449.01	842.07
449.384	843.65
449.758	878.23
450.132	889.98
450.506	862.18
450.88	868.73
451.254	882.75
451.628	888.17
452.002	918.22
452.376	890.65
452.75	891.11
453.123	913.03
453.497	937.21
453.871	938.56
454.244	944.44
454.618	951.44
454.992	967.26
455.365	950.99
455.739	954.61
456.112	983.99
456.486	1019.01
456.859	1003.19
457.232	1029.63
457.606	1013.82
457.979	1031.89
458.352	1051.33
458.725	1068.5
459.099	1072.57
459.472	1070.76
459.845	1100.37
460.218	1091.78
460.591	1112.12
460.964	1127.48
461.337	1179.01
461.71	1134.04
462.083	1198.22
462.456	1182.17
462.829	1198.9
463.201	1222.4
463.574	1220.59
463.947	1247.03
464.32	1267.37
464.692	1270.31
465.065	1280.25
465.438	1325.22
465.81	1329.06
466.183	1360.25
466.555	1382.62
466.928	1386.23
467.3	1382.17
467.672	1402.05
468.045	1441.15
468.417	1448.83
468.789	1490.41
469.161	1512.79
469.534	1539.9
469.906	1553.24
470.278	1607.47
470.65	1602.73
471.022	1635.49
471.394	1656.28
471.766	1680.92
472.138	1718.2
472.51	1760.24
472.882	1812.44
473.253	1842.49
473.625	1856.73
473.997	1935.82
474.369	1910.06
474.74	1985.99
475.112	1997.07
475.484	2102.83
475.855	2155.93
476.227	2214.01
476.598	2231.18
476.97	2284.97
477.341	2331.52
477.713	2391.18
478.084	2426.66
478.455	2546.66
478.827	2551.4
479.198	2660.33
479.569	2744.84
479.94	2801.79
480.311	2839.76
480.682	2947.32
481.053	3055.8
481.424	3105.06
481.795	3194.32
482.166	3246.52
482.537	3342.12
482.908	3458.5
483.279	3551.38
483.65	3650.81
484.021	3735.55
484.391	3843.57
484.762	3889.67
485.133	3948.2
485.503	4094.41
485.874	4236.33
486.244	4324.69
486.615	4481.75
486.985	4554.74
487.356	4688.75
487.726	4774.85
488.097	4914.73
488.467	4998.8
488.837	5128.06
489.207	5245.57
489.578	5400.14
489.948	5488.5
490.318	5626.58
490.688	5707.25
491.058	5817.98
491.428	6005.55
491.798	6113.79
492.168	6306.78
492.538	6373.45
492.908	6520.79
493.278	6626.1
493.648	6699.54
494.017	6880.33
494.387	7037.61
494.757	7142.02
495.126	7238.06
495.496	7353.31
495.866	7433.31
496.235	7590.14
496.605	7698.39
496.974	7789.46
497.344	7928.44
497.713	7988.1
498.082	8157.36
498.452	8228.99
498.821	8323.68
499.19	8420.63
499.559	8535.2
499.928	8648.64
500.298	8785.59
500.667	8890.67
501.036	8906.71
501.405	9049.08
501.774	9122.75
502.143	9186.48
502.512	9291.79
502.88	9351.68
503.249	9447.72
503.618	9493.37
503.987	9599.13
504.356	9699.24
504.724	9712.57
505.093	9754.38
505.462	9906.91
505.83	9967.25
506.199	10035.95
506.567	10148.94
506.936	10197.53
507.304	10332.67
507.672	10398.65
508.041	10448.6
508.409	10467.8
508.777	10525.2
509.145	10633.9
509.514	10649.72
509.882	10691.53
510.25	10708.48
510.618	10871.64
510.986	10880.45
511.354	10947.11
511.722	11015.36
512.09	11151.18
512.458	11096.94
512.826	11160.89
513.193	11285.86
513.561	11237.5
513.929	11412.41
514.297	11432.52
514.664	11392.98
515.032	11532.63
515.4	11601.33
515.767	11565.18
516.135	11651.95
516.502	11505.74
516.869	11738.5
517.237	11725.85
517.604	11775.34
517.972	11847.43
518.339	11848.78
518.706	11812.18
519.073	11843.36
519.44	11898.05
519.808	12008.33
520.175	11974.43
520.542	12103.92
520.909	12090.59
521.276	12074.77
521.643	12240.19
522.009	12222.33
522.376	12305.04
522.743	12312.05
523.11	12275.44
523.477	12409
523.843	12514.53
524.21	12514.08
524.577	12574.87
524.943	12615.54
525.31	12595.66
525.676	12692.83
526.043	12692.6
526.409	12689.89
526.776	12727.18
527.142	12767.18
527.508	12711.13
527.874	12799.27
528.241	12825.93
528.607	12780.51
528.973	12905.93
529.339	12815.09
529.705	12898.02
530.071	12945.93
530.437	13052.59
530.803	12969.21
531.169	12922.43
531.535	12916.33
531.901	12924.46
532.267	12938.93
532.632	12992.71
532.998	12945.48
533.364	12921.98
533.73	12952.48
534.095	12924.69
534.461	12972.6
534.826	12976.44
535.192	12877.01
535.557	12950.68
535.923	12866.38
536.288	12830.45
536.653	12870.9
537.019	12809.21
537.384	12787.06
537.749	12849.89
538.114	12874.97
538.479	12802.21
538.845	12808.99
539.21	12768.53
539.575	12718.14
539.94	12634.3
540.305	12637.69
540.67	12625.71
541.034	12640.85
541.399	12689.67
541.764	12647.41
542.129	12532.61
542.494	12545.26
542.858	12544.36
543.223	12540.07
543.587	12563.57
543.952	12396.34
544.316	12488.77
544.681	12368.32
545.045	12382.33
545.41	12360.41
545.774	12264.37
546.138	12324.03
546.503	12247.19
546.867	12279.28
547.231	12229.57
547.595	12210.81
547.959	12240.41
548.324	12154.54
548.688	12209.23
549.052	12159.51
549.416	12157.02
549.779	12066.18
550.143	12122
550.507	12168.1
550.871	12079.29
551.235	11947.99
551.599	12110.7
551.962	11960.65
552.326	11963.36
552.689	12000.19
553.053	11865.51
553.417	11880.87
553.78	11953.64
554.143	11906.64
554.507	11791.16
554.87	11804.94
555.234	11931.95
555.597	11750.03
555.96	11757.04
556.323	11812.18
556.686	11736.47
557.05	11787.77
557.413	11798.39
557.776	11728.34
558.139	11817.6
558.502	11767.2
558.865	11825.28
559.228	11761.56
559.59	11742.57
559.953	11740.54
560.316	11839.75
560.679	11717.49
561.041	11855.79
561.404	11876.13
561.767	11813.08
562.129	11765.62
562.492	11858.95
562.854	11756.13
563.217	11771.95
563.579	11763.81
563.941	11846.07
564.304	11822.12
564.666	11907.99
565.028	11895.79
565.39	11891.95
565.753	11940.53
566.115	11878.16
566.477	11937.82
566.839	11927.65
567.201	11985.73
567.563	11971.95
567.925	12025.28
568.287	11978.5
568.648	11954.77
569.01	12016.92
569.372	12056.46
569.734	11990.02
570.095	12033.41
570.457	11976.24
570.819	11980.76
571.18	12045.84
571.542	12084.48
571.903	12050.81
572.265	12137.14
572.626	12134.43
572.987	12163.35
573.349	12115.22
573.71	12144.82
574.071	12221.66
574.432	12186.18
574.794	12232.28
575.155	12212.62
575.516	12149.12
575.877	12234.31
576.238	12134.88
576.599	12267.76
576.96	12135.1
577.32	12157.25
577.681	12317.02
578.042	12239.51
578.403	12262.56
578.763	12335.78
579.124	12299.62
579.485	12208.78
579.845	12332.39
580.206	12278.15
580.566	12281.54
580.927	12251.94
581.287	12329.9
581.648	12205.39
582.008	12248.77
582.368	12279.06
582.728	12270.69
583.089	12281.32
583.449	12267.76
583.809	12239.51
584.169	12296.68
584.529	12266.17
584.889	12263.46
585.249	12244.48
585.609	12136.23
585.969	12260.53
586.329	12190.02
586.688	12194.31
587.048	12148.44
587.408	12139.85
587.768	12102.11
588.127	12114.31
588.487	12027.76
588.846	12233.41
589.206	12103.47
589.565	12087.65
589.925	12126.74
590.284	12012.17
590.643	12090.36
591.003	12125.84
591.362	12169.23
591.721	12072.51
592.08	12092.85
592.44	12128.78
592.799	12090.13
593.158	12033.41
593.517	12112.05
593.876	12074.09
594.235	12014.88
594.593	12085.84
594.952	11963.13
595.311	12059.85
595.67	12067.08
596.029	12089.91
596.387	12103.69
596.746	11948.44
597.104	11992.96
597.463	11996.35
597.822	11993.41
598.18	12031.83
598.538	11963.13
598.897	12034.99
599.255	11946.64
599.613	12040.64
599.972	11988.89
600.33	12008.55
600.688	11872.29
601.046	11919.97
601.404	12121.32
601.762	11981.44
602.12	12035.9
602.478	12012.85
602.836	11997.71
603.194	11976.46
603.552	11970.59
603.91	11966.07
604.268	12023.7
604.625	11949.35
604.983	11929.91
605.341	11943.92
605.698	11943.47
606.056	11999.74
606.413	11946.18
606.771	11994.77
607.128	12024.37
607.485	11963.36
607.843	12024.6
608.2	12079.74
608.557	12066.41
608.914	12038.84
609.272	12075.45
609.629	12093.52
609.986	12166.74
610.343	12120.42
610.7	12038.61
611.057	12139.17
611.414	12050.59
611.771	12112.73
612.127	12165.84
612.484	12120.42
612.841	12119.96
613.198	12084.03
613.554	12124.48
613.911	12108.89
614.267	12143.01
614.624	12108.44
614.98	12192.96
615.337	12251.49
615.693	12238.83
616.05	12177.59
616.406	12293.07
616.762	12177.59
617.118	12273.41
617.475	12190.02
617.831	12275.89
618.187	12258.49
618.543	12249
618.899	12351.37
619.255	12337.13
619.611	12281.32
619.967	12338.26
620.323	12357.47
620.678	12287.19
621.034	12307.53
621.39	12237.93
621.746	12226.85
622.101	12406.28
622.457	12239.06
622.812	12277.7
623.168	12371.26
623.523	12310.92
623.879	12435.89
624.234	12284.48
624.589	12309.56
624.945	12298.04
625.3	12304.37
625.655	12249.9
626.01	12336.91
626.365	12405.83
626.72	12339.17
627.075	12277.7
627.43	12305.04
627.785	12227.53
628.14	12315.21
628.495	12339.62
628.85	12194.09
629.205	12247.19
629.559	12411.71
629.914	12329.45
630.269	12320.41
630.623	12213.75
630.978	12258.49
631.332	12211.26
631.687	12224.82
632.041	12203.58
632.396	12194.54
632.75	12169.68
633.104	12168.32
633.459	12119.96
633.813	12157.48
634.167	12095.78
634.521	12035.67
634.875	12093.3
635.229	12108.21
635.583	12018.72
635.937	11979.85
636.291	12024.83
636.645	11986.63
636.999	11973.3
637.352	12009.01
637.706	11952.51
638.06	12002
638.413	12015.56
638.767	11921.1
639.121	11972.85
639.474	11885.17
639.828	11954.32
640.181	11823.02
640.534	11912.06
640.888	11865.96
641.241	11762.46
641.594	11794.1
641.947	11893.76
642.301	11766.75
642.654	11844.72
643.007	11863.02
643.36	11820.08
643.713	11818.95
644.066	11801.55
644.419	11740.31
644.771	11696.25
645.124	11535.12
645.477	11522.69
645.83	11467.1
646.182	11406.99
646.535	11396.14
646.888	11397.95
647.24	11337.39
647.593	11416.48
647.945	11428.23
648.298	11359.53
648.65	11256.03
649.002	11276.14
649.355	11346.65
649.707	11350.94
650.059	11374.9
650.411	11481.34
650.763	11469.59
651.115	11646.76
651.467	11633.65
651.819	11555.46
652.171	11596.36
652.523	11549.81
652.875	11529.02
653.227	11607.66
653.578	11611.05
653.93	11527.66
654.282	11577.61
654.633	11532.41
654.985	11559.07
655.337	11576.7
655.688	11531.96
656.039	11628.68
656.391	11507.1
656.742	11585.97
657.094	11644.27
657.445	11526.08
657.796	11555.23
658.147	11564.95
658.498	11526.31
658.849	11586.42
659.2	11599.75
659.551	11592.97
659.902	11634.78
660.253	11606.3
660.604	11623.03
660.955	11615.12
661.306	11607.66
661.656	11579.87
662.007	11614.44
662.358	11664.83
662.708	11660.09
663.059	11656.25
663.409	11612.86
663.76	11696.47
664.11	11704.16
664.461	11735.12
664.811	11647.43
665.161	11588.9
665.511	11631.84
665.862	11663.25
666.212	11652.86
666.562	11701.9
666.912	11633.2
667.262	11694.44
667.612	11611.5
667.962	11670.48
668.312	11596.36
668.662	11757.26
669.011	11680.2
669.361	11600.43
669.711	11669.58
670.06	11624.84
670.41	11564.72
670.76	11592.29
671.109	11715
671.459	11615.8
671.808	11609.24
672.157	11627.55
672.507	11537.61
672.856	11528.34
673.205	11550.71
673.554	11604.72
673.904	11514.1
674.253	11621.45
674.602	11626.64
674.951	11441.56
675.3	11402.24
675.649	11522.69
675.998	11527.44
676.346	11460.77
676.695	11524.95
677.044	11479.53
677.393	11538.74
677.741	11487.44
678.09	11438.4
678.438	11414.9
678.787	11458.96
679.135	11432.52
679.484	11336.48
679.832	11364.5
680.181	11291.06
680.529	11387.78
680.877	11332.64
681.225	11273.66
681.573	11267.78
681.922	11288.57
682.27	11185.07
682.618	11185.07
682.966	11222.36
683.314	11214.68
683.661	11179.88
684.009	11065.3
684.357	11099.88
684.705	11120.67
685.053	11162.93
685.4	11012.65
685.748	10958.41
686.095	10944.4
686.443	10957.06
686.79	10876.15
687.138	10915.25
687.485	10887.91
687.832	10911.41
688.18	10844.29
688.527	10808.13
688.874	10803.61
689.221	10838.87
689.568	10773.33
689.915	10707.12
690.262	10696.27
690.609	10698.76
690.956	10590.29
691.303	10578.54
691.65	10596.61
691.997	10528.59
692.344	10573.34
692.69	10397.07
693.037	10517.29
693.383	10372.21
693.73	10339.9
694.077	10318.43
694.423	10278.2
694.769	10299.22
695.116	10213.57
695.462	10209.96
695.808	10127.7
696.155	10195.27
696.501	10060.13
696.847	10045.89
697.193	9940.13
697.539	9997.76
697.885	9915.5
698.231	9861.49
698.577	9854.03
698.923	9854.94
699.269	9831.66
699.614	9732.91
699.96	9717.99
700.306	9666.47
700.651	9683.87
700.997	9626.47
701.342	9593.25
701.688	9546.92
702.033	9588.96
702.379	9550.54
702.724	9508.06
703.069	9503.54
703.415	9389.41
703.76	9442.75
704.105	9400.26
704.45	9314.61
704.795	9306.25
705.14	9262.19
705.485	9218.12
705.83	9193.49
706.175	9163.66
706.52	9142.41
706.865	9193.04
707.209	9130.66
707.554	9133.83
707.899	9128.18
708.243	9048.18
708.588	9064.9
708.932	8969.31
709.277	8948.07
709.621	8948.52
709.966	8921.18
710.31	8897.9
710.654	8822.88
710.998	8861.97
711.342	8843.89
711.687	8784.23
712.031	8721.41
712.375	8708.08
712.719	8781.52
713.063	8680.73
713.407	8754.85
713.75	8700.84
714.094	8665.82
714.438	8649.77
714.782	8626.27
715.125	8570.23
715.469	8607.97
715.812	8593.95
716.156	8551.47
716.499	8600.28
716.843	8521.19
717.186	8471.47
717.53	8524.8
717.873	8487.06
718.216	8468.53
718.559	8440.06
718.902	8401.87
719.246	8416.33
719.589	8429.67
719.932	8440.74
720.275	8375.88
720.617	8358.71
720.96	8311.02
721.303	8335.88
721.646	8328.43
721.989	8247.75
722.331	8299.95
722.674	8259.05
723.016	8308.76
723.359	8273.06
723.701	8272.16
724.044	8234.42
724.386	8183.8
724.729	8267.86
725.071	8232.61
725.413	8216.56
725.755	8271.7
726.097	8224.7
726.439	8132.05
726.782	8153.29
727.124	8127.3
727.465	8169.79
727.807	8170.92
728.149	8113.29
728.491	8142.22
728.833	8197.13
729.175	8181.54
729.516	8140.86
729.858	8126.62
730.199	8166.85
730.541	8150.35
730.882	8113.97
731.224	8196.45
731.565	8123.01
731.906	8193.51
732.248	8143.35
732.589	8094.31
732.93	8066.51
733.271	8151.03
733.612	8141.99
733.953	8131.37
734.294	8118.26
734.635	8117.58
734.976	8151.03
735.317	8101.54
735.658	8158.94
735.999	8109.22
736.339	8095.21
736.68	8167.07
737.021	8116.91
737.361	8083.46
737.702	8217.02
738.042	8142.67
738.383	8138.6
738.723	8120.75
739.063	8171.37
739.404	8199.61
739.744	8150.58
740.084	8150.58
740.424	8205.49
740.764	8187.86
741.104	8219.73
741.444	8178.15
741.784	8180.41
742.124	8210.01
742.464	8236
742.804	8225.38
743.143	8237.81
743.483	8278.48
743.823	8287.75
744.162	8293.62
744.502	8346.05
744.841	8368.2
745.181	8407.29
745.52	8433.73
745.86	8440.06
746.199	8452.26
746.538	8533.84
746.877	8565.26
747.216	8612.71
747.556	8653.84
747.895	8697.23
748.234	8721.86
748.573	8803.89
748.911	8818.13
749.25	8856.09
749.589	8860.61
749.928	8992.36
750.267	9048.63
750.605	9103.77
750.944	9123.88
751.283	9253.15
751.621	9348.29
751.96	9392.13
752.298	9419.02
752.636	9552.57
752.975	9581.73
753.313	9613.82
753.651	9757.31
753.989	9845
754.327	9983.07
754.666	10082.5
755.004	10143.29
755.342	10249.73
755.679	10357.07
756.017	10495.6
756.355	10581.7
756.693	10702.15
757.031	10894.01
757.368	10953.67
757.706	11067.34
758.044	11135.58
758.381	11369.25
758.719	11510.94
759.056	11636.81
759.394	11671.39
759.731	11813.53
760.068	11937.37
760.405	12121.09
760.743	12195.89
761.08	12412.84
761.417	12509.78
761.754	12665.94
762.091	12722.21
762.428	12873.84
762.765	13026.15
763.102	13142.08
763.438	13258.69
763.775	13388.86
764.112	13496.42
764.449	13784.78
764.785	13823.87
765.122	13974.38
765.458	14058.22
765.795	14189.29
766.131	14330.3
766.467	14449.39
766.804	14532.33
767.14	14595.15
767.476	14747.24
767.812	14862.49
768.148	15015.71
768.485	15085.76
768.821	15160.79
769.157	15257.06
769.492	15344.51
769.828	15487.78
770.164	15484.85
770.5	15562.59
770.836	15669.02
771.171	15664.96
771.507	15815.23
771.842	15856.81
772.178	15929.81
772.513	15911.28
772.849	16036.7
773.184	16097.03
773.519	16201.89
773.855	16231.72
774.19	16332.28
774.525	16259.52
774.86	16457.93
775.195	16388.55
775.53	16416.57
775.865	16465.16
776.2	16466.97
776.535	16442.11
776.87	16446.86
777.205	16438.27
777.539	16453.86
777.874	16605.95
778.209	16518.49
778.543	16657.02
778.878	16556.91
779.212	16682.33
779.547	16654.53
779.881	16594.65
780.215	16619.73
780.55	16622.9
780.884	16594.42
781.218	16726.62
781.552	16677.36
781.886	16623.12
782.22	16650.69
782.554	16625.83
782.888	16491.15
783.222	16523.92
783.556	16516.01
783.889	16497.93
784.223	16442.34
784.557	16409.79
784.89	16529.34
785.224	16355.33
785.557	16451.83
785.891	16307.2
786.224	16312.62
786.558	16373.64
786.891	16330.7
787.224	16284.6
787.557	16252.51
787.891	16235.56
788.224	16225.39
788.557	16169.8
788.89	16283.24
789.223	16252.51
789.556	16118.05
789.888	16080.99
790.221	16076.47
790.554	15949.69
790.887	16018.17
791.219	15977.94
791.552	15909.47
791.884	15918.28
792.217	15893.2
792.549	15827.21
792.882	15797.61
793.214	15659.08
793.546	15802.35
793.879	15756.48
794.211	15510.16
794.543	15691.85
794.875	15559.87
795.207	15675.35
795.539	15605.52
795.871	15570.72
796.203	15393.32
796.535	15325.76
796.867	15373.44
797.198	15304.74
797.53	15324.63
797.862	15217.96
798.193	15313.1
798.525	15181.13
798.856	15249.83
799.188	15092.09
799.519	14980.23
799.85	14968.25
800.182	15008.48
800.513	15029.27
800.844	14951.98
801.175	14979.1
801.506	15009.61
801.837	14888.48
802.168	14804.64
802.499	14751.98
802.83	14695.72
803.161	14611.2
803.491	14693
803.822	14564.19
804.153	14590.18
804.483	14485.1
804.814	14446
805.145	14467.92
805.475	14395.84
805.805	14365.55
806.136	14429.28
806.466	14393.8
806.796	14267.93
807.126	14295.27
807.457	14274.48
807.787	14240.81
808.117	14214.37
808.447	14132.11
808.777	14190.19
809.107	14061.83
809.436	14052.57
809.766	14014.15
810.096	14013.02
810.426	13968.5
810.755	13981.84
811.085	13903.42
811.414	13917.2
811.744	13801.28
812.073	13793.82
812.403	13788.85
812.732	13674.95
813.061	13754.72
813.39	13626.14
813.719	13674.05
814.049	13690.09
814.378	13641.96
814.707	13594.73
815.036	13535.97
815.365	13481.74
815.693	13314.96
816.022	13403.55
816.351	13437.67
816.68	13417.1
817.008	13341.85
817.337	13233.61
817.665	13194.74
817.994	13320.16
818.322	13149.32
818.651	13238.35
818.979	13143.44
819.307	13173.27
819.636	13122.42
819.964	13141.18
820.292	13126.27
820.62	13182.53
820.948	13096.21
821.276	13091.24
821.604	13080.84
821.932	13058.47
822.259	13075.42
822.587	13072.48
822.915	13041.07
823.243	13117.45
823.57	13052.59
823.898	13030.22
824.225	13013.73
824.553	12968.08
824.88	13082.2
825.207	13102.99
825.535	13072.93
825.862	13066.61
826.189	13056.89
826.516	13099.37
826.843	13090.56
827.17	13072.71
827.497	13060.96
827.824	13067.28
828.151	13095.53
828.478	13115.42
828.805	13117.45
829.131	13086.49
829.458	13029.32
829.785	13077.45
830.111	13004.23
830.438	13098.02
830.764	13063.67
831.09	13112.48
831.417	12997
831.743	13062.31
832.069	13080.84
832.395	12977.57
832.722	13086.27
833.048	12954.97
833.374	13017.12
833.7	12979.38
834.026	12978.7
834.351	13018.92
834.677	12934.86
835.003	12936.44
835.329	13002.43
835.654	12927.4
835.98	12879.72
836.306	12888.76
836.631	12879.04
836.956	12874.52
837.282	12846.72
837.607	12779.38
837.932	12729.89
838.258	12740.29
838.583	12798.14
838.908	12711.13
839.233	12736.9
839.558	12717.91
839.883	12674.07
840.208	12732.6
840.533	12666.16
840.858	12618.71
841.182	12672.04
841.507	12578.71
841.832	12500.74
842.156	12509.78
842.481	12554.98
842.805	12484.93
843.13	12471.82
843.454	12438.83
843.778	12431.82
844.103	12327.19
844.427	12353.63
844.751	12328.55
845.075	12320.64
845.399	12205.61
845.723	12267.53
846.047	12242.67
846.371	12159.06
846.695	12097.14
847.019	11986.18
847.343	11930.82
847.666	11853.08
847.99	11896.01
848.313	11846.07
848.637	11726.98
848.96	11759.75
849.284	11689.24
849.607	11618.51
849.931	11524.27
850.254	11564.5
850.577	11442.02
850.9	11328.35
851.223	11395.92
851.546	11321.57
851.869	11301.23
852.192	11313.43
852.515	11261.46
852.838	11149.59
853.161	11172.87
853.483	11100.33
853.806	11019.88
854.129	11130.39
854.451	11003.61
854.774	10993.67
855.096	10943.27
855.419	10902.59
855.741	10801.58
856.063	10853.78
856.385	10821.01
856.708	10770.85
857.03	10697.18
857.352	10693.56
857.674	10689.72
857.996	10660.79
858.318	10655.6
858.64	10559.1
858.961	10605.43
859.283	10514.36
859.605	10425.09
859.926	10447.01
860.248	10484.75
860.57	10424.42
860.891	10474.81
861.212	10341.48
861.534	10272.33
861.855	10296.28
862.176	10314.36
862.498	10199.79
862.819	10250.18
863.14	10193.23
863.461	10229.62
863.782	10154.37
864.103	10187.59
864.424	10162.5
864.745	10143.29
865.065	10054.71
865.386	10084.76
865.707	10036.85
866.027	10082.28
866.348	10004.09
866.668	10041.6
866.989	9962.96
867.309	9946.24
867.63	10000.02
867.95	9931.77
868.27	9819.46
868.59	9935.39
868.91	9904.43
869.23	9856.07
869.55	9725.22
869.87	9903.52
870.19	9771.1
870.51	9805
870.83	9772
871.15	9802.06
871.469	9755.05
871.789	9768.61
872.109	9778.78
872.428	9663.98
872.748	9749.18
873.067	9687.49
873.386	9741.04
873.706	9699.46
874.025	9671.67
874.344	9626.47
874.663	9587.15
874.982	9628.28
875.301	9596.87
875.62	9575.4
875.939	9552.12
876.258	9560.48
876.577	9469.19
876.896	9455.63
877.214	9422.63
877.533	9525
877.852	9462.86
878.17	9412.01
878.489	9431.9
878.807	9443.2
879.125	9462.18
879.444	9406.59
879.762	9298.34
880.08	9337.66
880.398	9339.25
880.716	9306.03
881.034	9314.61
881.352	9303.99
881.67	9204.11
881.988	9242.3
882.306	9256.08
882.624	9200.72
882.941	9193.71
883.259	9089.31
883.577	9117.1
883.894	9107.39
884.212	9095.41
884.529	9074.39
884.846	9043.43
885.164	9039.14
885.481	8995.07
885.798	9059.03
886.115	8986.49
886.432	8990.1
886.75	8959.14
887.067	8942.87
887.383	8875.3
887.7	8858.58
888.017	8886.15
888.334	8847.28
888.651	8749.43
888.967	8774.06
889.284	8769.54
889.6	8746.27
889.917	8680.28
890.233	8640.73
890.55	8632.6
890.866	8588.76
891.182	8593.95
891.498	8576.33
891.815	8524.35
892.131	8527.52
892.447	8488.19
892.763	8470.57
893.079	8460.62
893.395	8363.23
893.71	8470.34
894.026	8335.88
894.342	8332.49
894.657	8274.87
894.973	8334.98
895.289	8270.12
895.604	8294.75
895.92	8201.87
896.235	8135.89
896.55	8155.77
896.865	8117.13
897.181	8148.09
897.496	8076
897.811	8013.63
898.126	8044.82
898.441	7993.74
898.756	7944.93
899.071	7917.14
899.386	7951.03
899.7	7915.33
900.015	7864.71
900.33	7750.14
900.644	7770.93
900.959	7774.77
901.273	7716.46
901.588	7662
901.902	7609.8
902.216	7622.91
902.531	7667.2
902.845	7612.74
903.159	7536.58
903.473	7490.26
903.787	7528.22
904.101	7529.35
904.415	7460.43
904.729	7435.79
905.042	7349.24
905.356	7336.36
905.67	7353.08
905.984	7359.19
906.297	7272.86
906.611	7233.09
906.924	7180.43
907.237	7233.09
907.551	7140.43
907.864	7135.24
908.177	7165.29
908.491	7055.24
908.804	7041.23
909.117	7020.44
909.43	6951.96
909.743	6960.55
910.056	6907.45
910.368	6984.05
910.681	6927.33
910.994	6865.41
911.307	6834.23
911.619	6779.77
911.932	6795.13
912.244	6724.17
912.557	6737.96
912.869	6690.05
913.181	6676.72
913.494	6661.35
913.806	6636.49
914.118	6583.84
914.43	6547.23
914.742	6582.48
915.054	6510.17
915.366	6492.77
915.678	6425.2
915.99	6417.29
916.302	6316.95
916.613	6340.45
916.925	6313.56
917.236	6319.44
917.548	6282.15
917.859	6285.99
918.171	6247.35
918.482	6210.29
918.794	6197.18
919.105	6220.23
919.416	6164.19
919.727	6132.1
920.038	6067.24
920.349	6092.33
920.66	6042.61
920.971	6031.31
921.282	6028.6
921.593	5923.74
921.903	5933.46
922.214	5921.48
922.525	5863.41
922.835	5840.58
923.146	5840.81
923.456	5813.01
923.767	5813.91
924.077	5822.05
924.387	5748.61
924.697	5727.82
925.008	5751.54
925.318	5763.52
925.628	5686.91
925.938	5663.18
926.248	5591.77
926.558	5527.59
926.867	5573.92
927.177	5550.65
927.487	5547.03
927.796	5517.88
928.106	5454.83
928.416	5427.26
928.725	5376.86
929.034	5401.95
929.344	5435.62
929.653	5404.43
929.962	5318.56
930.271	5343.42
930.581	5348.16
930.89	5241.27
931.199	5238.56
931.508	5201.95
931.817	5222.07
932.125	5208.06
932.434	5214.16
932.743	5119.24
933.051	5076.08
933.36	5110.66
933.669	5082.18
933.977	5091
934.286	5090.09
934.594	5058
934.902	5027.72
935.21	4981.62
935.519	5036.31
935.827	4965.35
936.135	4942.07
936.443	4879.48
936.751	4848.52
937.059	4878.12
937.367	4844
937.674	4806.26
937.982	4816.2
938.29	4824.11
938.597	4808.29
938.905	4764.45
939.213	4719.48
939.52	4696.66
939.827	4695.53
940.135	4685.58
940.442	4626.38
940.749	4636.32
941.056	4664.11
941.363	4589.99
941.67	4591.12
941.977	4525.59
942.284	4528.3
942.591	4475.87
942.898	4519.94
943.205	4493.5
943.511	4438.58
943.818	4429.54
944.125	4411.01
944.431	4400.17
944.738	4385.93
945.044	4390.45
945.35	4298.47
945.657	4295.76
945.963	4299.83
946.269	4261.19
946.575	4274.97
946.881	4236.78
947.187	4244.69
947.493	4202.88
947.799	4163.34
948.105	4152.04
948.41	4129.67
948.716	4116.33
949.022	4116.78
949.327	4083.56
949.633	4049.89
949.938	4046.5
950.244	4046.73
950.549	4024.36
950.854	4043.11
951.16	3999.5
951.465	3950.46
951.77	3972.61
952.075	3929.9
952.38	3930.12
952.685	3926.51
952.99	3909.78
953.294	3868.43
953.599	3863.68
953.904	3837.47
954.209	3860.97
954.513	3851.48
954.818	3830.01
955.122	3753.18
955.426	3803.35
955.731	3758.6
956.035	3726.06
956.339	3710.24
956.643	3702.33
956.948	3693.29
957.252	3661.66
957.556	3635.44
957.86	3655.78
958.163	3669.34
958.467	3635.67
958.771	3599.06
959.075	3644.71
959.378	3561.09
959.682	3574.88
959.985	3601.54
960.289	3500.53
960.592	3519.06
960.896	3475.9
961.199	3464.37
961.502	3470.47
961.805	3472.73
962.108	3434.77
962.411	3448.1
962.714	3389.8
963.017	3399.74
963.32	3445.16
963.623	3330.36
963.926	3313.64
964.228	3334.66
964.531	3299.4
964.833	3333.3
965.136	3263.93
965.438	3283.36
965.741	3254.89
966.043	3249.69
966.345	3235.45
966.648	3247.65
966.95	3202.23
967.252	3179.86
967.554	3192.29
967.856	3176.92
968.158	3140.09
968.46	3130.82
968.761	3114.32
969.063	3078.17
969.365	3109.35
969.666	3112.52
969.968	3028.45
970.269	3038.39
970.571	3024.84
970.872	3055.57
971.174	3041.11
971.475	3019.86
971.776	2991.84
972.077	2945.29
972.378	2978.74
972.679	2937.15
972.98	2912.97
973.281	2913.43
973.582	2947.78
973.883	2922.47
974.183	2882.01
974.484	2865.52
974.785	2908
975.085	2857.83
975.386	2857.61
975.686	2825.74
975.986	2841.34
976.287	2839.3
976.587	2782.81
976.887	2787.78
977.187	2814.9
977.487	2777.84
977.787	2739.87
978.087	2782.36
978.387	2729.02
978.687	2698.74
978.987	2685.64
979.286	2675.69
979.586	2705.75
979.885	2663.26
980.185	2610.84
980.484	2587.11
980.784	2628.01
981.083	2634.11
981.382	2620.55
981.682	2592.76
981.981	2601.34
982.28	2549.14
982.579	2543.04
982.878	2554.34
983.177	2552.76
983.475	2516.83
983.774	2498.52
984.073	2526.54
984.372	2512.53
984.67	2439.31
984.969	2428.92
985.267	2473.21
985.566	2473.66
985.864	2480.44
986.162	2416.94
986.461	2443.61
986.759	2421.91
987.057	2413.33
987.355	2375.59
987.653	2383.95
987.951	2362.03
988.249	2364.74
988.547	2342.82
988.844	2335.36
989.142	2288.36
989.44	2291.97
989.737	2302.82
990.035	2282.93
990.332	2267.34
990.63	2253.1
990.927	2262.82
991.224	2272.09
991.521	2219.21
991.819	2198.42
992.116	2239.55
992.413	2179.43
992.71	2220.79
993.006	2190.06
993.303	2176.95
993.6	2155.03
993.897	2148.93
994.193	2143.73
994.49	2115.93
994.787	2134.24
995.083	2106.22
995.379	2117.97
995.676	2106.22
995.972	2099.66
996.268	2080.91
996.565	2074.58
996.861	2047.69
997.157	2070.06
997.453	2038.19
997.749	2020.12
998.044	2022.6
998.34	1996.16
998.636	2000.46
998.932	1969.72
999.227	1974.47
999.523	1954.58
999.818	1933.79
1000.114	1939.21
1000.409	1941.7
1000.704	1927.46
1001	1901.25
1001.295	1870.52
1001.59	1913.68
1001.885	1894.02
1002.18	1882.49
1002.475	1876.39
1002.77	1826
1003.065	1828.71
1003.359	1841.36
1003.654	1814.7
1003.949	1802.72
1004.243	1807.01
1004.538	1777.64
1004.832	1787.13
1005.127	1783.29
1005.421	1760.91
1005.715	1782.61
1006.009	1766.56
1006.304	1754.36
1006.598	1714.81
1006.892	1728.6
1007.186	1697.19
1007.48	1709.39
1007.773	1715.94
1008.067	1677.98
1008.361	1682.27
1008.655	1674.81
1008.948	1641.82
1009.242	1647.7
1009.535	1650.63
1009.829	1631.88
1010.122	1602.27
1010.415	1624.65
1010.708	1619.9
1011.001	1603.18
1011.295	1599.79
1011.588	1570.41
1011.881	1580.58
1012.173	1536.29
1012.466	1549.85
1012.759	1546
1013.052	1524.54
1013.344	1519.11
1013.637	1509.4
1013.93	1524.54
1014.222	1508.27
1014.514	1471.43
1014.807	1487.02
1015.099	1465.33
1015.391	1471.2
1015.683	1445.67
1015.976	1455.61
1016.268	1416.52
1016.56	1427.59
1016.851	1415.84
1017.143	1411.77
1017.435	1387.59
1017.727	1409.28
1018.018	1391.43
1018.31	1375.84
1018.602	1391.88
1018.893	1388.27
1019.185	1353.02
1019.476	1344.2
1019.767	1336.52
1020.058	1314.37
1020.35	1298.55
1020.641	1291.77
1020.932	1311.66
1021.223	1299.46
1021.514	1273.7
1021.804	1303.3
1022.095	1277.99
1022.386	1275.28
1022.677	1258.78
1022.967	1237.09
1023.258	1225.34
1023.548	1245.9
1023.839	1209.29
1024.129	1225.11
1024.419	1190.99
1024.709	1178.33
1025	1199.8
1025.29	1176.97
1025.58	1171.33
1025.87	1149.63
1026.16	1174.94
1026.449	1136.52
1026.739	1141.72
1027.029	1129.52
1027.319	1144.89
1027.608	1120.48
1027.898	1110.54
1028.187	1106.24
1028.477	1120.7
1028.766	1109.86
1029.055	1098.56
1029.344	1083.19
1029.634	1069.18
1029.923	1053.81
1030.212	1066.92
1030.501	1054.27
1030.79	1061.5
1031.078	1031.67
1031.367	1033.7
1031.656	1022.85
1031.945	1033.48
1032.233	995.28
1032.522	1013.59
1032.81	988.05
1033.099	994.61
1033.387	1005.91
1033.675	990.54
1033.963	987.6
1034.251	987.6
1034.54	951.67
1034.828	958.9
1035.116	953.03
1035.403	964.55
1035.691	939.69
1035.979	936.53
1036.267	939.69
1036.554	941.5
1036.842	929.75
1037.129	932.01
1037.417	887.26
1037.704	898.34
1037.992	902.41
1038.279	886.36
1038.566	890.43
1038.853	890.43
1039.14	890.43
