Data from hue_270_FLMS001491_00085.txt Node
Date: Tue Feb 07 15:57:49 GMT 2017
User: dcchb
Spectrometer: FLMS00149
Trigger mode: 0
Integration Time (sec): 2.000000E-2
Scans to average: 10
Electric dark correction enabled: true
Nonlinearity correction enabled: false
Boxcar width: 0
XAxis mode: Wavelengths
Number of Pixels in Spectrum: 2048
>>>>>Begin Spectral Data<<<<<
341.393	-12.01
341.776	-12.01
342.16	-12.01
342.543	-50.2
342.927	-59.46
343.31	-59.46
343.693	-76.86
344.077	-67.82
344.46	-49.07
344.843	-60.82
345.226	-54.26
345.61	-29.18
345.993	-18.11
346.376	-8.84
346.759	13.3
347.142	24.15
347.525	48.33
347.908	70.48
348.291	63.25
348.674	89.46
349.057	115.45
349.44	112.29
349.823	138.05
350.206	152.51
350.588	192.51
350.971	192.28
351.354	220.76
351.737	239.06
352.119	249.91
352.502	251.94
352.884	272.96
353.267	263.69
353.65	284.26
354.032	288.33
354.414	302.56
354.797	292.62
355.179	298.72
355.562	321.55
355.944	322
356.326	347.31
356.709	307.08
357.091	330.81
357.473	335.56
357.855	330.58
358.238	345.05
358.62	353.41
359.002	340.53
359.384	321.32
359.766	346.18
360.148	329.91
360.53	331.49
360.912	323.13
361.294	338.49
361.676	330.58
362.057	328.32
362.439	321.77
362.821	331.71
363.203	326.06
363.584	322.22
363.966	326.74
364.348	316.35
364.729	323.35
365.111	309.12
365.493	324.71
365.874	324.48
366.256	306.4
366.637	286.29
367.019	312.51
367.4	301.43
367.781	286.74
368.163	322.22
368.544	307.53
368.925	312.51
369.306	291.04
369.688	322.68
370.069	301.43
370.45	291.72
370.831	290.59
371.212	303.01
371.593	311.38
371.974	314.09
372.355	303.69
372.736	336.91
373.117	308.44
373.498	312.28
373.879	324.26
374.26	310.7
374.641	326.74
375.021	314.09
375.402	320.19
375.783	309.12
376.163	318.16
376.544	312.05
376.925	344.6
377.305	303.69
377.686	341.21
378.066	323.81
378.447	313.41
378.827	330.58
379.208	338.49
379.588	324.26
379.968	337.82
380.349	338.95
380.729	342.79
381.109	338.72
381.489	355.44
381.87	328.1
382.25	329.45
382.63	366.97
383.01	338.49
383.39	345.05
383.77	335.78
384.15	357.02
384.53	352.96
384.91	342.11
385.29	342.79
385.67	329.45
386.049	344.6
386.429	356.12
386.809	344.14
387.189	347.31
387.568	356.35
387.948	350.7
388.328	360.19
388.707	364.71
389.087	360.64
389.466	348.89
389.846	363.13
390.225	359.96
390.605	368.1
390.984	358.61
391.363	356.12
391.743	374.88
392.122	390.47
392.501	358.83
392.881	394.76
393.26	371.94
393.639	400.64
394.018	387.31
394.397	387.53
394.776	383.46
395.155	397.48
395.534	376.01
395.913	384.37
396.292	394.31
396.671	408.77
397.05	391.15
397.429	408.55
397.808	401.77
398.186	407.87
398.565	407.42
398.944	413.29
399.323	410.81
399.701	411.94
400.08	390.47
400.458	388.44
400.837	423.01
401.215	440.64
401.594	432.5
401.972	446.29
402.351	431.37
402.729	419.17
403.107	438.83
403.486	434.54
403.864	445.84
404.242	436.57
404.62	423.92
404.999	436.34
405.377	451.03
405.755	463.91
406.133	462.11
406.511	444.71
406.889	463.91
407.267	484.7
407.645	498.26
408.023	484.93
408.401	473.41
408.779	496.91
409.156	497.81
409.534	504.82
409.912	500.52
410.29	532.61
410.667	537.13
411.045	514.08
411.422	518.15
411.8	533.74
412.178	553.63
412.555	543.23
412.933	551.6
413.31	580.75
413.687	586.62
414.065	592.72
414.442	586.17
414.819	598.83
415.197	587.53
415.574	580.75
415.951	599.05
416.328	619.39
416.705	623.68
417.082	622.78
417.46	641.99
417.837	646.51
418.214	644.47
418.591	635.89
418.967	638.37
419.344	644.02
419.721	658.03
420.098	663.68
420.475	684.93
420.852	714.3
421.228	693.51
421.605	707.3
421.982	733.51
422.358	738.48
422.735	753.4
423.111	771.48
423.488	787.07
423.864	783.68
424.241	813.74
424.617	796.11
424.994	786.84
425.37	804.24
425.746	828.88
426.123	831.36
426.499	843.34
426.875	837.69
427.251	881.3
427.627	882.21
428.003	869.55
428.379	901.19
428.756	914.52
429.132	928.53
429.507	928.76
429.883	930.34
430.259	960.62
430.635	962.88
431.011	935.99
431.387	1003.34
431.763	991.81
432.138	1033.16
432.514	1017.57
432.89	1009.66
433.265	1059.83
433.641	1066.16
434.016	1082.2
434.392	1095.76
434.767	1111.13
435.143	1123.33
435.518	1131.47
435.894	1170.11
436.269	1176.21
436.644	1177.79
437.02	1212.82
437.395	1212.37
437.77	1256.44
438.145	1257.34
438.52	1280.39
438.895	1284.23
439.271	1284.68
439.646	1333.5
440.021	1349.99
440.395	1365.36
440.77	1327.62
441.145	1362.87
441.52	1365.81
441.895	1410.78
442.27	1378.24
442.645	1423.89
443.019	1456.43
443.394	1435.87
443.769	1446.26
444.143	1467.28
444.518	1481.97
444.892	1479.93
445.267	1496.66
445.641	1499.14
446.016	1532.13
446.39	1511.57
446.764	1550.89
447.139	1539.14
447.513	1535.52
447.887	1529.2
448.262	1582.98
448.636	1594.28
449.01	1584.11
449.384	1594.73
449.758	1610.32
450.132	1650.55
450.506	1632.47
450.88	1610.55
451.254	1648.74
451.628	1663.88
452.002	1656.2
452.376	1675.86
452.75	1726.03
453.123	1713.6
453.497	1759.93
453.871	1754.05
454.244	1775.07
454.618	1787.04
454.992	1779.59
455.365	1777.78
455.739	1839.02
456.112	1849.41
456.486	1866.59
456.859	1902.75
457.232	1926.02
457.606	1935.74
457.979	1926.47
458.352	1946.14
458.725	1961.73
459.099	2010.99
459.472	2039.24
459.845	2050.77
460.218	2065.45
460.591	2061.39
460.964	2059.35
461.337	2115.17
461.71	2140.93
462.083	2147.71
462.456	2163.08
462.829	2179.35
463.201	2209.86
463.574	2227.71
463.947	2246.69
464.32	2279.91
464.692	2299.35
465.065	2293.7
465.438	2322.4
465.81	2384.54
466.183	2388.38
466.555	2434.03
466.928	2429.96
467.3	2437.42
467.672	2429.29
468.045	2504.31
468.417	2516.29
468.789	2565.78
469.161	2565.33
469.534	2590.19
469.906	2635.83
470.278	2639.68
470.65	2650.75
471.022	2708.15
471.394	2755.38
471.766	2751.99
472.138	2789.95
472.51	2832.89
472.882	2848.03
473.253	2950.85
473.625	2907.01
473.997	3001.25
474.369	3031.98
474.74	3041.25
475.112	3068.59
475.484	3130.51
475.855	3120.57
476.227	3149.04
476.598	3261.13
476.97	3260.45
477.341	3296.61
477.713	3345.19
478.084	3353.56
478.455	3431.52
478.827	3419.09
479.198	3511.74
479.569	3532.99
479.94	3636.94
480.311	3639.65
480.682	3714.9
481.053	3784.51
481.424	3771.17
481.795	3811.85
482.166	3914.9
482.537	3911.96
482.908	3984.05
483.279	4034.22
483.65	4065.85
484.021	4137.04
484.391	4199.18
484.762	4195.57
485.133	4229.24
485.503	4265.4
485.874	4328.9
486.244	4359.63
486.615	4454.77
486.985	4452.06
487.356	4538.16
487.726	4560.98
488.097	4630.81
488.467	4683.24
488.837	4762.11
489.207	4789.68
489.578	4782.22
489.948	4856.12
490.318	4904.48
490.688	4918.03
491.058	4981.99
491.428	5039.39
491.798	5052.27
492.168	5156.67
492.538	5161.42
492.908	5203.9
493.278	5251.36
493.648	5275.09
494.017	5315.54
494.387	5356.44
494.757	5328.65
495.126	5427.4
495.496	5418.59
495.866	5436.66
496.235	5492.48
496.605	5526.15
496.974	5527.51
497.344	5610.9
497.713	5628.75
498.082	5659.48
498.452	5743.1
498.821	5757.33
499.19	5694.96
499.559	5788.07
499.928	5775.19
500.298	5812.02
500.667	5870.1
501.036	5865.35
501.405	5904.22
501.774	5906.48
502.143	5913.94
502.512	5905.13
502.88	5999.14
503.249	5975.18
503.618	5992.81
503.987	6004.33
504.356	6050.43
504.724	6035.97
505.093	6084.78
505.462	6082.52
505.83	6154.39
506.199	6152.13
506.567	6165.91
506.936	6174.5
507.304	6249.52
507.672	6250.88
508.041	6264.89
508.409	6281.39
508.777	6310.99
509.145	6349.41
509.514	6321.61
509.882	6330.88
510.25	6366.13
510.618	6428.28
510.986	6373.14
511.354	6432.57
511.722	6470.76
512.09	6536.07
512.458	6516.18
512.826	6522.51
513.193	6496.52
513.561	6579.23
513.929	6594.6
514.297	6601.38
514.664	6608.84
515.032	6594.37
515.4	6687.03
515.767	6642.06
516.135	6708.04
516.502	6630.53
516.869	6736.97
517.237	6670.53
517.604	6684.54
517.972	6749.17
518.339	6764.09
518.706	6803.41
519.073	6805.89
519.44	6785.78
519.808	6843.18
520.175	6798.66
520.542	6851.77
520.909	6847.48
521.276	6837.08
521.643	6848.83
522.009	6959.56
522.376	6960.24
522.743	6969.96
523.11	7002.95
523.477	7047.7
523.843	7091.54
524.21	7053.12
524.577	7061.03
524.943	7108.03
525.31	7181.7
525.676	7204.53
526.043	7202.95
526.409	7227.8
526.776	7288.37
527.142	7271.87
527.508	7322.72
527.874	7299.67
528.241	7390.96
528.607	7421.25
528.973	7445.43
529.339	7309.16
529.705	7454.01
530.071	7412.21
530.437	7451.3
530.803	7469.15
531.169	7498.08
531.535	7485.65
531.901	7489.49
532.267	7537.4
532.632	7570.17
532.998	7553.9
533.364	7513.67
533.73	7596.83
534.095	7652.2
534.461	7638.19
534.826	7675.02
535.192	7702.59
535.557	7657.17
535.923	7682.93
536.288	7703.05
536.653	7694.23
537.019	7644.29
537.384	7748.02
537.749	7742.37
538.114	7711.63
538.479	7738.75
538.845	7724.74
539.21	7739.88
539.575	7761.58
539.94	7730.39
540.305	7823.49
540.67	7734.91
541.034	7803.38
541.399	7785.76
541.764	7741.69
542.129	7835.02
542.494	7795.25
542.858	7813.55
543.223	7821.01
543.587	7855.58
543.952	7872.53
544.316	7875.02
544.681	7831.63
545.045	7848.58
545.41	7886.54
545.774	7939.42
546.138	7903.49
546.503	7861.69
546.867	7892.65
547.231	7961.12
547.595	7907.33
547.959	7965.19
548.324	7931.97
548.688	7970.84
549.052	8034.34
549.416	7976.03
549.779	7978.52
550.143	7966.32
550.507	8035.47
550.871	7979.42
551.235	8049.93
551.599	8036.6
551.962	8003.15
552.326	8042.47
552.689	8057.16
553.053	8061.23
553.417	8080.89
553.78	8149.14
554.143	8050.16
554.507	8142.13
554.87	8168.57
555.234	8196.59
555.597	8188.23
555.96	8186.2
556.323	8195.69
556.686	8156.82
557.05	8261.9
557.413	8290.15
557.776	8303.03
558.139	8274.33
558.502	8263.48
558.865	8257.83
559.228	8342.35
559.59	8355.23
559.953	8394.55
560.316	8426.64
560.679	8385.51
561.041	8520.2
561.404	8463.03
561.767	8525.17
562.129	8485.85
562.492	8557.26
562.854	8581.44
563.217	8523.14
563.579	8588.67
563.941	8654.21
564.304	8655.56
564.666	8771.49
565.028	8815.33
565.39	8730.14
565.753	8828.44
566.115	8790.02
566.477	8860.3
566.839	8853.52
567.201	8980.75
567.563	9024.37
567.925	9006.97
568.287	8983.01
568.648	8976.01
569.01	9062.78
569.372	9052.62
569.734	9053.74
570.095	9076.34
570.457	9156.57
570.819	9148.88
571.18	9186.4
571.542	9277.24
571.903	9291.03
572.265	9353.85
572.626	9319.73
572.987	9380.74
573.349	9408.54
573.71	9406.73
574.071	9379.61
574.432	9470.46
574.794	9594.97
575.155	9554.07
575.516	9562.21
575.877	9564.69
576.238	9582.54
576.599	9665.71
576.96	9661.86
577.32	9632.26
577.681	9755.65
578.042	9700.96
578.403	9792.71
578.763	9778.47
579.124	9879.71
579.485	9867.28
579.845	9897.34
580.206	9956.09
580.566	9943.67
580.927	9946.6
581.287	10047.17
581.648	10014.4
582.008	10087.16
582.368	10065.24
582.728	10130.55
583.089	10151.57
583.449	10232.02
583.809	10239.7
584.169	10232.47
584.529	10193.6
584.889	10317.89
585.249	10335.52
585.609	10247.39
585.969	10388.17
586.329	10330.1
586.688	10375.07
587.048	10373.26
587.408	10378.46
587.768	10440.83
588.127	10494.61
588.487	10456.65
588.846	10527.6
589.206	10537.32
589.565	10507.94
589.925	10643.31
590.284	10655.06
590.643	10623.42
591.003	10681.5
591.362	10758.11
591.721	10691.44
592.08	10714.27
592.44	10730.99
592.799	10787.03
593.158	10761.72
593.517	10816.41
593.876	10780.93
594.235	10720.14
594.593	10824.32
594.952	10905.9
595.311	10909.52
595.67	10901.15
596.029	11020.02
596.387	10912.68
596.746	11016.18
597.104	10947.25
597.463	10946.35
597.822	11070.42
598.18	11001.94
598.538	10967.59
598.897	11073.35
599.255	11011.66
599.613	11144.31
599.972	11057.08
600.33	11113.8
600.688	11098.21
601.046	11187.02
601.404	11192.9
601.762	11237.42
602.12	11301.37
602.478	11244.65
602.836	11196.29
603.194	11252.11
603.552	11268.83
603.91	11228.38
604.268	11244.42
604.625	11285.78
604.983	11331.2
605.341	11214.82
605.698	11376.4
606.056	11305.44
606.413	11336.17
606.771	11371.2
607.128	11377.07
607.485	11393.12
607.843	11375.49
608.2	11533.23
608.557	11430.18
608.914	11378.88
609.272	11467.24
609.629	11509.73
609.986	11521.93
610.343	11467.01
610.7	11559.89
611.057	11454.13
611.414	11522.61
611.771	11554.92
612.127	11595.6
612.484	11607.12
612.841	11585.88
613.198	11631.53
613.554	11625.2
613.911	11710.85
614.267	11691.19
614.624	11646.9
614.98	11695.71
615.337	11696.84
615.693	11653.22
616.05	11704.75
616.406	11742.04
616.762	11719.66
617.118	11756.05
617.475	11737.06
617.831	11746.78
618.187	11801.47
618.543	11774.13
618.899	11857.29
619.255	11847.8
619.611	11874.01
619.967	11820.23
620.323	11862.26
620.678	11811.86
621.034	11727.8
621.39	11747.01
621.746	11771.19
622.101	11953.1
622.457	11769.61
622.812	11864.29
623.168	11920.34
623.523	11896.61
623.879	11882.6
624.234	11831.07
624.589	11892.54
624.945	11835.82
625.3	11876.72
625.655	11923.73
626.01	11874.69
626.365	11926.89
626.72	11798.76
627.075	11857.51
627.43	11830.62
627.785	11808.47
628.14	11872.2
628.495	11850.73
628.85	11810.06
629.205	11792.66
629.559	11782.26
629.914	11804.63
630.269	11832.88
630.623	11743.84
630.978	11805.09
631.332	11788.59
631.687	11808.25
632.041	11738.19
632.396	11811.19
632.75	11676.73
633.104	11703.62
633.459	11641.7
633.813	11620.01
634.167	11697.29
634.521	11672.21
634.875	11682.38
635.229	11535.94
635.583	11621.14
635.937	11617.97
636.291	11622.94
636.645	11549.27
636.999	11559.44
637.352	11596.28
637.706	11496.62
638.06	11580.68
638.413	11553.57
638.767	11521.02
639.121	11581.14
639.474	11425.89
639.828	11460.01
640.181	11420.69
640.534	11498.88
640.888	11447.13
641.241	11301.37
641.594	11338.2
641.947	11464.98
642.301	11422.27
642.654	11458.65
643.007	11403.97
643.36	11382.72
643.713	11335.94
644.066	11396.96
644.419	11302.27
644.771	11260.01
645.124	11117.42
645.477	11195.84
645.83	11097.08
646.182	11056.18
646.535	10968.27
646.888	10994.03
647.24	10953.13
647.593	11050.98
647.945	10984.09
648.298	10916.52
648.65	10891.21
649.002	10851.66
649.355	10974.37
649.707	10899.8
650.059	10959.91
650.411	11127.14
650.763	11088.49
651.115	11219.79
651.467	11226.57
651.819	11195.84
652.171	11189.73
652.523	11199.68
652.875	11212.11
653.227	11114.48
653.578	11269.96
653.93	11263.63
654.282	11138.89
654.633	11095.73
654.985	11174.37
655.337	11220.02
655.688	11134.59
656.039	11155.84
656.391	11105.89
656.742	11102.5
657.094	11121.04
657.445	11221.82
657.796	11171.88
658.147	11108.83
658.498	11172.79
658.849	11221.82
659.2	11142.28
659.551	11133.46
659.902	11144.31
660.253	11225.21
660.604	11248.49
660.955	11084.2
661.306	11194.03
661.656	11080.81
662.007	11215.95
662.358	11170.98
662.708	11230.64
663.059	11226.57
663.409	11103.41
663.76	11266.12
664.11	11141.6
664.461	11191.54
664.811	11193.35
665.161	11185.89
665.511	11165.55
665.862	11183.86
666.212	11321.48
666.562	11252.78
666.912	11224.08
667.262	11191.99
667.612	11151.54
667.962	11219.79
668.312	11181.37
668.662	11177.53
669.011	11192.9
669.361	11173.01
669.711	11120.81
670.06	11093.01
670.41	11080.58
670.76	11117.19
671.109	11094.6
671.459	11076.52
671.808	11055.05
672.157	11196.51
672.507	11055.95
672.856	11061.38
673.205	11043.07
673.554	11068.16
673.904	11083.52
674.253	11030.64
674.602	11055.05
674.951	10900.7
675.3	10847.14
675.649	10996.52
675.998	10942.73
676.346	11012.34
676.695	11072
677.044	10893.47
677.393	11017.31
677.741	10996.29
678.09	10959.01
678.438	10921.72
678.787	10844.21
679.135	10933.02
679.484	10862.29
679.832	10893.92
680.181	10855.05
680.529	10894.6
680.877	10760.14
681.225	10791.1
681.573	10916.75
681.922	10686.47
682.27	10740.48
682.618	10713.14
682.966	10705.23
683.314	10711.33
683.661	10734.6
684.009	10593.82
684.357	10646.47
684.705	10556.53
685.053	10622.97
685.4	10554.5
685.748	10504.1
686.095	10546.36
686.443	10484.89
686.79	10447.83
687.138	10408.51
687.485	10463.88
687.832	10414.39
688.18	10443.31
688.527	10360.38
688.874	10402.18
689.221	10308.85
689.568	10218.46
689.915	10199.93
690.262	10290.55
690.609	10142.3
690.956	10156.77
691.303	10208.29
691.65	10118.8
691.997	10106.15
692.344	10019.6
692.69	10084.9
693.037	10049.65
693.383	9940.05
693.73	9924.91
694.077	9854.63
694.423	9948.41
694.769	9925.13
695.116	9796.55
695.462	9756.55
695.808	9790.9
696.155	9820.28
696.501	9721.3
696.847	9676.33
697.193	9537.35
697.539	9613.05
697.885	9603.11
698.231	9482.43
698.577	9533.96
698.923	9530.57
699.269	9419.39
699.614	9400.4
699.96	9401.98
700.306	9337.58
700.651	9301.42
700.997	9228.2
701.342	9224.59
701.688	9275.89
702.033	9165.61
702.379	9187.75
702.724	9157.02
703.069	9180.52
703.415	9049.68
703.76	9107.3
704.105	9005.38
704.45	9020.07
704.795	8947.99
705.14	8969.45
705.485	8914.99
705.83	8923.8
706.175	8852.17
706.52	8825.73
706.865	8816.24
707.209	8800.42
707.554	8802.23
707.899	8737.37
708.243	8691.27
708.588	8693.3
708.932	8644.26
709.277	8644.04
709.621	8656.69
709.966	8544.15
710.31	8622.57
710.654	8474.33
710.998	8489.47
711.342	8559.29
711.687	8515.68
712.031	8512.06
712.375	8432.97
712.719	8366.98
713.063	8494.89
713.407	8437.94
713.75	8363.37
714.094	8380.09
714.438	8317.49
714.782	8394.1
715.125	8344.61
715.469	8283.82
715.812	8253.09
716.156	8231.17
716.499	8199.08
716.843	8276.14
717.186	8235.69
717.53	8284.73
717.873	8260.77
718.216	8197.95
718.559	8174.22
718.902	8123.6
719.246	8216.03
719.589	8108.23
719.932	8104.39
720.275	8111.4
720.617	8095.13
720.96	8113.2
721.303	8092.41
721.646	8098.29
721.989	8122.02
722.331	8085.18
722.674	8066.43
723.016	8002.25
723.359	8007.44
723.701	7994.79
724.044	7938.97
724.386	7907.56
724.729	8016.03
725.071	7957.5
725.413	7967.22
725.755	7956.6
726.097	7919.54
726.439	7866.21
726.782	7914.79
727.124	7970.84
727.465	7885.64
727.807	7954.79
728.149	7843.83
728.491	7924.51
728.833	7905.75
729.175	7818.98
729.516	7865.3
729.858	7895.36
730.199	7889.71
730.541	7898.07
730.882	7859.2
731.224	7921.35
731.565	7811.29
731.906	7846.55
732.248	7849.26
732.589	7802.25
732.93	7817.17
733.271	7816.94
733.612	7866.88
733.953	7797.51
734.294	7827.34
734.635	7849.93
734.976	7869.6
735.317	7775.81
735.658	7820.33
735.999	7777.39
736.339	7783.5
736.68	7817.17
737.021	7755.7
737.361	7761.12
737.702	7858.97
738.042	7810.61
738.383	7804.96
738.723	7895.36
739.063	7837.05
739.404	7838.86
739.744	7840.44
740.084	7786.89
740.424	7844.29
740.764	7831.4
741.104	7906.2
741.444	7843.16
741.784	7837.05
742.124	7919.54
742.464	7896.94
742.804	7959.54
743.143	7877.96
743.483	7930.61
743.823	7912.98
744.162	7987.56
744.502	8020.1
744.841	7995.47
745.181	8011.74
745.52	8042.02
745.86	8117.72
746.199	8140.1
746.538	8118.4
746.877	8236.14
747.216	8243.6
747.556	8173.32
747.895	8301.67
748.234	8359.98
748.573	8391.16
748.911	8427.55
749.25	8484.49
749.589	8524.27
749.928	8550.71
750.267	8657.37
750.605	8619.86
750.944	8718.16
751.283	8807.42
751.621	8891.72
751.96	8893.75
752.298	9032.73
752.636	9148.88
752.975	9157.92
753.313	9230.24
753.651	9385.04
753.989	9448.31
754.327	9488.08
754.666	9597.91
755.004	9747.29
755.342	9861.41
755.679	9988.18
756.017	10026.83
756.355	10235.41
756.693	10265.69
757.031	10486.25
757.368	10560.37
757.706	10717.2
758.044	10826.13
758.381	10991.55
758.719	11010.76
759.056	11352.67
759.394	11350.86
759.731	11515.38
760.068	11683.28
760.405	11754.46
760.743	11914.69
761.08	12179.76
761.417	12306.31
761.754	12366.88
762.091	12610.71
762.428	12639.87
762.765	12895.9
763.102	13036.24
763.438	13166.86
763.775	13260.87
764.112	13497.02
764.449	13666.28
764.785	13807.52
765.122	13900.62
765.458	14005.93
765.795	14147.85
766.131	14389.42
766.467	14367.05
766.804	14526.14
767.14	14667.38
767.476	14802.07
767.812	14861.05
768.148	15166.8
768.485	15239.12
768.821	15198.67
769.157	15563.63
769.492	15627.81
769.828	15694.47
770.164	15771.99
770.5	15876.39
770.836	16024.86
771.171	16037.74
771.507	16110.06
771.842	16156.38
772.178	16381.69
772.513	16354.34
772.849	16568.8
773.184	16558.63
773.519	16699.42
773.855	16698.74
774.19	16875.01
774.525	16927.89
774.86	16996.36
775.195	17148.45
775.53	17099.64
775.865	17091.95
776.2	17083.82
776.535	17107.32
776.87	17220.31
777.205	17324.71
777.539	17262.34
777.874	17385.73
778.209	17266.41
778.543	17336.01
778.878	17265.51
779.212	17472.96
779.547	17465.28
779.881	17559.06
780.215	17543.24
780.55	17702.33
780.884	17423.02
781.218	17561.77
781.552	17579.62
781.886	17581.2
782.22	17501.21
782.554	17591.83
782.888	17407.88
783.222	17425.28
783.556	17428.21
783.889	17533.97
784.223	17391.6
784.557	17377.14
784.89	17543.92
785.224	17487.42
785.557	17436.35
785.891	17458.95
786.224	17423.24
786.558	17441.77
786.891	17275.9
787.224	17353.87
787.557	17300.99
787.891	17349.8
788.224	17374.43
788.557	17349.12
788.89	17360.19
789.223	17307.99
789.556	17233.42
789.888	17286.75
790.221	17175.79
790.554	17077.04
790.887	17189.12
791.219	17039.98
791.552	17203.36
791.884	17174.21
792.217	17070.71
792.549	17035
792.882	16940.54
793.214	16866.42
793.546	16968.57
793.879	16808.57
794.211	16868.23
794.543	16867.55
794.875	16834.11
795.207	16856.25
795.539	16748.68
795.871	16721.57
796.203	16690.61
796.535	16622.81
796.867	16591.63
797.198	16551.63
797.53	16499.2
797.862	16370.61
798.193	16465.98
798.525	16350.5
798.856	16397.05
799.188	16271.18
799.519	16250.39
799.85	16185.08
800.182	16265.76
800.513	16204.29
800.844	16138.76
801.175	16121.58
801.506	16169.04
801.837	15998.42
802.168	16039.55
802.499	15889.5
802.83	15853.11
803.161	15947.58
803.491	15880.46
803.822	15901.7
804.153	15749.84
804.483	15709.16
804.814	15708.71
805.145	15697.19
805.475	15658.54
805.805	15596.4
806.136	15602.95
806.466	15639.79
806.796	15544.65
807.126	15404.31
807.457	15389.85
807.787	15402.05
808.117	15379.23
808.447	15314.82
808.777	15358.66
809.107	15329.06
809.436	15295.61
809.766	15286.58
810.096	15174.04
810.426	15211.1
810.755	15147.6
811.085	15144.21
811.414	15044.32
811.744	14955.06
812.073	15014.72
812.403	15023.08
812.732	14962.74
813.061	14979.69
813.39	14845.46
813.719	14814.72
814.049	14923.2
814.378	14836.87
814.707	14771.56
815.036	14780.37
815.365	14739.7
815.693	14565.01
816.022	14651.34
816.351	14569.08
816.68	14579.7
817.008	14595.97
817.337	14445.69
817.665	14419.93
817.994	14468.97
818.322	14448.41
818.651	14330.44
818.979	14329.09
819.307	14423.77
819.636	14366.15
819.964	14188.98
820.292	14359.59
820.62	14303.32
820.948	14269.65
821.276	14337.22
821.604	14290.67
821.932	14294.51
822.259	14371.57
822.587	14279.37
822.915	14246.38
823.243	14272.82
823.57	14279.6
823.898	14276.43
824.225	14270.11
824.553	14297
824.88	14257.45
825.207	14340.84
825.535	14268.07
825.862	14362.98
826.189	14182.88
826.516	14224.91
826.843	14366.6
827.17	14334.06
827.497	14329.99
827.824	14325.92
828.151	14337.45
828.478	14344.68
828.805	14400.5
829.131	14333.61
829.458	14302.42
829.785	14328.18
830.111	14387.16
830.438	14391.68
830.764	14413.38
831.09	14344.68
831.417	14265.81
831.743	14341.06
832.069	14290.22
832.395	14183.33
832.722	14292.48
833.048	14243.44
833.374	14257
833.7	14127.28
834.026	14252.25
834.351	14222.65
834.677	14214.51
835.003	14275.3
835.329	14182.42
835.654	14124.12
835.98	14136.55
836.306	14129.54
836.631	14026.5
836.956	14095.42
837.282	14139.94
837.607	14045.03
837.932	13991.69
838.258	14027.63
838.583	14009.32
838.908	13973.84
839.233	13940.17
839.558	13918.93
839.883	13867.4
840.208	13894.52
840.533	13800.74
840.858	13855.65
841.182	13796.9
841.507	13862.21
841.832	13683.23
842.156	13724.36
842.481	13729.33
842.805	13686.84
843.13	13582.44
843.454	13656.11
843.778	13554.87
844.103	13631.7
844.427	13483.91
844.751	13550.35
845.075	13402.78
845.399	13495.44
845.723	13327.98
846.047	13364.37
846.371	13297.02
846.695	13262
847.019	13158.72
847.343	13141.77
847.666	13057.93
847.99	13059.97
848.313	12971.83
848.637	12888.22
848.96	12855.45
849.284	12887.09
849.607	12756.25
849.931	12668.11
850.254	12651.84
850.577	12593.99
850.9	12418.63
851.223	12458.85
851.546	12410.94
851.869	12351.74
852.192	12461.79
852.515	12322.13
852.838	12218.41
853.161	12254.56
853.483	12183.15
853.806	12113.1
854.129	12118.07
854.451	12102.03
854.774	12070.84
855.096	12017.06
855.419	11963.95
855.741	11985.87
856.063	11785.2
856.385	11827.68
856.708	11870.85
857.03	11774.8
857.352	11773
857.674	11707.69
857.996	11608.71
858.318	11585.66
858.64	11610.06
858.961	11498.43
859.283	11527.58
859.605	11476.05
859.926	11521.48
860.248	11431.31
860.57	11424.98
860.891	11450.97
861.212	11314.02
861.534	11245.55
861.855	11242.84
862.176	11279
862.498	11263.63
862.819	11272.44
863.14	11293.69
863.461	11238.32
863.782	11211.2
864.103	11211.88
864.424	11141.83
864.745	11206
865.065	11062.05
865.386	11073.8
865.707	11069.96
866.027	11129.62
866.348	11088.27
866.668	11033.13
866.989	11001.26
867.309	10938.89
867.63	10867.48
867.95	11006.24
868.27	10824.32
868.59	10920.81
868.91	10863.64
869.23	10826.58
869.55	10758.56
869.87	10839.23
870.19	10759.24
870.51	10832.23
870.83	10817.99
871.15	10715.17
871.469	10650.77
871.789	10694.15
872.109	10687.83
872.428	10656.19
872.748	10697.54
873.067	10664.78
873.386	10686.24
873.706	10583.42
874.025	10540.26
874.344	10498.9
874.663	10505.23
874.982	10505.01
875.301	10528.28
875.62	10515.4
875.939	10470.43
876.258	10421.39
876.577	10463.88
876.896	10429.08
877.214	10386.59
877.533	10463.88
877.852	10385.24
878.17	10403.54
878.489	10391.34
878.807	10402.86
879.125	10294.62
879.444	10270.44
879.762	10260.27
880.08	10315.63
880.398	10248.52
880.716	10293.26
881.034	10194.28
881.352	10200.16
881.67	10122.19
881.988	10105.47
882.306	10096.43
882.624	10084.9
882.941	10047.39
883.259	10044.68
883.577	9983.44
883.894	9985.02
884.212	9988.41
884.529	9939.15
884.846	9901.63
885.164	9941.63
885.481	9878.36
885.798	9899.82
886.115	9822.99
886.432	9819.15
886.75	9797.45
887.067	9747.74
887.383	9737.34
887.7	9754.29
888.017	9671.81
888.334	9732.6
888.651	9652.37
888.967	9684.01
889.284	9564.24
889.6	9563.79
889.917	9480.17
890.233	9472.94
890.55	9479.72
890.866	9479.5
891.182	9463
891.498	9407.63
891.815	9413.74
892.131	9300.74
892.447	9255.1
892.763	9247.64
893.079	9241.08
893.395	9276.56
893.71	9220.75
894.026	9183.23
894.342	9168.54
894.657	9097.81
894.973	9128.32
895.289	9069.34
895.604	9057.13
895.92	8934.43
896.235	8945.5
896.55	8937.14
896.865	8836.8
897.181	8861.21
897.496	8869.8
897.811	8869.57
898.126	8742.79
898.441	8733.08
898.756	8744.37
899.071	8667.31
899.386	8695.56
899.7	8612.4
900.015	8577.37
900.33	8505.74
900.644	8531.95
900.959	8538.05
901.273	8453.99
901.588	8406.08
901.902	8439.75
902.216	8359.75
902.531	8446.3
902.845	8317.49
903.159	8277.27
903.473	8235.91
903.787	8206.76
904.101	8232.3
904.415	8161.11
904.729	8126.99
905.042	8080.21
905.356	8028.46
905.67	8025.52
905.984	8092.87
906.297	7997.95
906.611	7937.84
906.924	7917.5
907.237	7833.44
907.551	7858.75
907.864	7850.16
908.177	7816.94
908.491	7716.15
908.804	7731.97
909.117	7647.91
909.43	7640
909.743	7689.49
910.056	7609.04
910.368	7595.48
910.681	7565.87
910.994	7459.89
911.307	7472.54
911.619	7377.18
911.932	7409.72
912.244	7392.55
912.557	7359.1
912.869	7289.27
913.181	7247.46
913.494	7291.53
913.806	7227.35
914.118	7197.52
914.43	7171.31
914.742	7119.33
915.054	7095.15
915.366	7078.43
915.678	7086.57
915.99	7049.28
916.302	6956.85
916.613	6900.13
916.925	6920.92
917.236	6941.03
917.548	6847.93
917.859	6868.94
918.171	6830.98
918.482	6786.91
918.794	6762.28
919.105	6710.76
919.416	6660.59
919.727	6688.38
920.038	6668.27
920.349	6606.13
920.66	6669.17
920.971	6571.32
921.282	6553.47
921.593	6514.6
921.903	6517.99
922.214	6506.24
922.525	6395.51
922.835	6388.73
923.146	6341.5
923.456	6370.2
923.767	6323.87
924.077	6351.9
924.387	6259.92
924.697	6280.03
925.008	6251.33
925.318	6259.24
925.628	6229.41
925.938	6203.65
926.248	6114.39
926.558	6136.99
926.867	6095.18
927.177	6090.89
927.487	6061.51
927.796	5980.61
928.106	5965.69
928.416	5940.15
928.725	5946.93
929.034	5856.77
929.344	5951.68
929.653	5898.12
929.962	5797.56
930.271	5781.51
930.581	5800.72
930.89	5841.17
931.199	5711.01
931.508	5737.22
931.817	5690.9
932.125	5725.7
932.434	5697.9
932.743	5643.44
933.051	5616.32
933.36	5530
933.669	5539.71
933.977	5525.25
934.286	5555.98
934.594	5481.64
934.902	5472.37
935.21	5483.44
935.519	5451.81
935.827	5411.35
936.135	5364.58
936.443	5364.8
936.751	5352.6
937.059	5327.06
937.367	5263.34
937.674	5290
937.982	5245.94
938.29	5229.89
938.597	5191.47
938.905	5191.93
939.213	5128.88
939.52	5160.97
939.827	5137.46
940.135	5106.96
940.442	5084.36
940.749	5044.58
941.056	5057.24
941.363	5023.79
941.67	5020.86
941.977	4930.69
942.284	4891.14
942.591	4912.84
942.898	4864.02
943.205	4910.35
943.511	4875.78
943.818	4854.53
944.125	4772.05
944.431	4829.45
944.738	4791.94
945.044	4742.45
945.35	4711.26
945.657	4709.23
945.963	4718.72
946.269	4662.22
946.575	4683.92
946.881	4617.48
947.187	4630.13
947.493	4579.06
947.799	4565.73
948.105	4557.59
948.41	4525.73
948.716	4481.21
949.022	4517.59
949.327	4480.31
949.633	4468.33
949.938	4441.66
950.244	4393.53
950.549	4407.99
950.854	4351.95
951.16	4367.09
951.465	4295.23
951.77	4349.01
952.075	4309.24
952.38	4255.68
952.685	4265.4
952.99	4245.06
953.294	4211.39
953.599	4191.5
953.904	4173.87
954.209	4156.25
954.513	4165.06
954.818	4130.71
955.122	4154.89
955.426	4089.36
955.731	4114.44
956.035	4095.46
956.339	4095.46
956.643	4044.16
956.948	4024.72
957.252	4006.42
957.556	3999.19
957.86	3981.56
958.163	3965.74
958.467	3935.46
958.771	3914.45
959.075	3878.97
959.378	3901.79
959.682	3890.49
959.985	3866.08
960.289	3874.9
960.592	3788.12
960.896	3777.5
961.199	3814.33
961.502	3750.16
961.805	3787.89
962.108	3745.18
962.411	3730.95
962.714	3690.04
963.017	3683.72
963.32	3706.77
963.623	3685.52
963.926	3667.22
964.228	3637.16
964.531	3615.02
964.833	3617.96
965.136	3593.55
965.438	3539.99
965.741	3554.68
966.043	3546.77
966.345	3509.94
966.648	3515.13
966.95	3480.78
967.252	3497.51
967.554	3490.95
967.856	3438.07
968.158	3434.91
968.46	3446.66
968.761	3396.49
969.063	3344.74
969.365	3352.43
969.666	3343.16
969.968	3335.25
970.269	3328.25
970.571	3346.55
970.872	3315.14
971.174	3291.18
971.475	3297.06
971.776	3225.88
972.077	3255.93
972.378	3227.91
972.679	3226.78
972.98	3188.36
973.281	3191.53
973.582	3166.44
973.883	3143.62
974.183	3128.25
974.484	3109.72
974.785	3073.56
975.085	3108.59
975.386	3118.99
975.686	3083.05
975.986	3063.62
976.287	3077.4
976.587	2981.59
976.887	3020.23
977.187	3024.3
977.487	2975.94
977.787	2978.42
978.087	2976.39
978.387	2964.64
978.687	2992.89
978.987	2925.54
979.286	2900.69
979.586	2876.96
979.885	2900.46
980.185	2879.22
980.484	2826.11
980.784	2883.51
981.083	2836.28
981.382	2828.82
981.682	2830.86
981.981	2849.84
982.28	2799.9
982.579	2772.55
982.878	2727.58
983.177	2725.1
983.475	2745.21
983.774	2719.22
984.073	2721.48
984.372	2724.65
984.67	2681.48
984.969	2688.71
985.267	2653.46
985.566	2631.99
985.864	2622.5
986.162	2617.53
986.461	2655.95
986.759	2600.81
987.057	2606.23
987.355	2587.25
987.653	2573.01
987.951	2573.01
988.249	2537.08
988.547	2550.41
988.844	2501.15
989.142	2474.93
989.44	2496.4
989.737	2480.13
990.035	2498.21
990.332	2450.75
990.63	2449.17
990.927	2447.59
991.224	2424.54
991.521	2439
991.819	2397.87
992.116	2407.37
992.413	2389.74
992.71	2368.95
993.006	2380.93
993.303	2341.15
993.6	2360.59
993.897	2332.57
994.193	2341.38
994.49	2302.06
994.787	2289.18
995.083	2322.62
995.379	2270.19
995.676	2264.09
995.972	2257.77
996.268	2262.74
996.565	2237.43
996.861	2209.63
997.157	2189.52
997.453	2209.18
997.749	2201.95
998.044	2167.37
998.34	2162.17
998.636	2166.69
998.932	2132.8
999.227	2134.6
999.523	2113.59
999.818	2094.61
1000.114	2098.22
1000.409	2088.05
1000.704	2085.11
1001	2075.62
1001.295	2058.22
1001.59	2040.37
1001.885	2047.6
1002.18	1996.98
1002.475	2000.15
1002.77	1987.94
1003.065	1985
1003.359	1996.98
1003.654	1935.74
1003.949	1940.03
1004.243	1942.97
1004.538	1930.77
1004.832	1928.51
1005.127	1916.76
1005.421	1869.98
1005.715	1890.54
1006.009	1874.95
1006.304	1843.77
1006.598	1852.8
1006.892	1850.54
1007.186	1826.36
1007.48	1790.21
1007.773	1823.2
1008.067	1803.31
1008.361	1761.28
1008.655	1816.65
1008.948	1782.98
1009.242	1743.2
1009.535	1754.28
1009.829	1704.33
1010.122	1715.86
1010.415	1724.45
1010.708	1705.92
1011.001	1693.49
1011.295	1697.33
1011.588	1699.36
1011.881	1665.24
1012.173	1680.83
1012.466	1643.09
1012.759	1644.22
1013.052	1659.82
1013.344	1607.61
1013.637	1620.95
1013.93	1592.92
1014.222	1611.91
1014.514	1577.33
1014.807	1577.78
1015.099	1553.15
1015.391	1584.11
1015.683	1546.6
1015.976	1529.88
1016.268	1542.08
1016.56	1510.21
1016.851	1509.54
1017.143	1486.26
1017.435	1498.92
1017.727	1499.14
1018.018	1471.35
1018.31	1489.42
1018.602	1484.9
1018.893	1461.4
1019.185	1446.49
1019.476	1427.05
1019.767	1410.78
1020.058	1427.5
1020.35	1425.02
1020.641	1391.8
1020.932	1399.93
1021.223	1389.09
1021.514	1368.98
1021.804	1359.03
1022.095	1328.75
1022.386	1329.88
1022.677	1315.19
1022.967	1302.31
1023.258	1330.11
1023.548	1313.16
1023.839	1314.74
1024.129	1300.73
1024.419	1291.24
1024.709	1295.76
1025	1240.84
1025.29	1279.94
1025.58	1239.26
1025.87	1227.06
1026.16	1226.15
1026.449	1245.14
1026.739	1246.27
1027.029	1210.79
1027.319	1204.46
1027.608	1211.47
1027.898	1187.06
1028.187	1189.77
1028.477	1172.6
1028.766	1156.78
1029.055	1168.75
1029.344	1111.13
1029.634	1144.12
1029.923	1133.28
1030.212	1142.77
1030.501	1142.09
1030.79	1093.95
1031.078	1105.03
1031.367	1081.3
1031.656	1095.99
1031.945	1092.37
1032.233	1060.51
1032.522	1095.54
1032.81	1063.45
1033.099	1052.37
1033.387	1044.92
1033.675	1046.72
1033.963	1050.79
1034.251	1027.52
1034.54	1032.94
1034.828	1017.35
1035.116	1001.53
1035.403	979.16
1035.691	996.1
1035.979	983
1036.267	972.38
1036.554	968.08
1036.842	970.12
1037.129	958.59
1037.417	978.7
1037.704	948.87
1037.992	940.29
1038.279	954.07
1038.566	929.21
1038.853	929.21
1039.14	929.21
