Data from hue_60_FLMS001491_1.txt Node
Date: Mon Feb 06 15:11:50 GMT 2017
User: dcchb
Spectrometer: FLMS00149
Trigger mode: 0
Integration Time (sec): 2.000000E-2
Scans to average: 10
Electric dark correction enabled: true
Nonlinearity correction enabled: false
Boxcar width: 0
XAxis mode: Wavelengths
Number of Pixels in Spectrum: 2048
>>>>>Begin Spectral Data<<<<<
341.393	-7.64
341.776	-7.64
342.16	-7.64
342.543	-65.27
342.927	-46.51
343.31	-72.27
343.693	-74.76
344.077	-69.33
344.46	-32.95
344.843	-65.72
345.226	-34.76
345.61	-34.76
345.993	-20.97
346.376	-6.29
346.759	24.9
347.142	26.48
347.525	61.06
347.908	51.57
348.291	85.01
348.674	85.01
349.057	77.78
349.44	124.78
349.823	147.61
350.206	169.53
350.588	196.65
350.971	202.97
351.354	220.6
351.737	229.64
352.119	245.69
352.502	254.05
352.884	276.42
353.267	283.2
353.65	294.27
354.032	302.63
354.414	308.51
354.797	318
355.179	320.71
355.562	331.56
355.944	318.45
356.326	338.34
356.709	348.96
357.091	345.12
357.473	348.28
357.855	336.53
358.238	348.96
358.62	348.28
359.002	351.9
359.384	344.44
359.766	341.5
360.148	333.82
360.53	336.3
360.912	348.28
361.294	354.38
361.676	343.76
362.057	339.69
362.439	349.64
362.821	336.53
363.203	322.75
363.584	317.1
363.966	341.95
364.348	323.88
364.729	314.84
365.111	320.94
365.493	334.72
365.874	316.64
366.256	317.32
366.637	315.97
367.019	336.08
367.4	313.03
367.781	338.79
368.163	320.71
368.544	297.21
368.925	313.03
369.306	339.24
369.688	323.2
370.069	306.47
370.45	309.41
370.831	332.24
371.212	321.16
371.593	323.65
371.974	336.53
372.355	317.1
372.736	318.68
373.117	315.74
373.498	309.64
373.879	309.86
374.26	325.23
374.641	336.53
375.021	336.76
375.402	310.32
375.783	325.91
376.163	334.95
376.544	311.22
376.925	321.62
377.305	333.82
377.686	342.41
378.066	335.4
378.447	339.47
378.827	329.3
379.208	331.11
379.588	335.85
379.968	332.69
380.349	327.72
380.729	353.25
381.109	361.39
381.489	339.24
381.87	338.11
382.25	337.21
382.63	334.27
383.01	339.02
383.39	367.04
383.77	345.12
384.15	343.99
384.53	352.35
384.91	345.12
385.29	359.81
385.67	366.59
386.049	359.13
386.429	361.16
386.809	348.51
387.189	371.33
387.568	380.6
387.948	365.46
388.328	359.35
388.707	371.11
389.087	380.15
389.466	369.75
389.846	362.52
390.225	364.33
390.605	347.6
390.984	371.78
391.363	369.52
391.743	365.46
392.122	346.93
392.501	374.95
392.881	381.95
393.26	387.15
393.639	369.52
394.018	372.91
394.397	394.83
394.776	369.07
395.155	379.02
395.534	385.34
395.913	379.92
396.292	386.02
396.671	362.52
397.05	382.63
397.429	382.41
397.808	377.66
398.186	391.67
398.565	383.99
398.944	395.74
399.323	395.06
399.701	407.26
400.08	426.25
400.458	390.77
400.837	407.94
401.215	409.07
401.594	379.02
401.972	394.83
402.351	418.79
402.729	421.5
403.107	418.79
403.486	408.62
403.864	429.64
404.242	386.7
404.62	398.68
404.999	420.82
405.377	411.56
405.755	431.44
406.133	441.61
406.511	424.21
406.889	455.17
407.267	435.96
407.645	414.95
408.023	421.27
408.401	421.73
408.779	413.59
409.156	446.58
409.534	447.26
409.912	468.96
410.29	435.96
410.667	441.16
411.045	447.71
411.422	456.75
411.8	462.4
412.178	463.53
412.555	470.76
412.933	481.61
413.31	464.66
413.687	481.61
414.065	479.58
414.442	469.86
414.819	488.39
415.197	467.83
415.574	470.99
415.951	505.79
416.328	484.32
416.705	475.06
417.082	488.39
417.46	497.88
417.837	503.08
418.214	526.58
418.591	484.1
418.967	514.83
419.344	528.62
419.721	524.1
420.098	504.66
420.475	523.19
420.852	544.43
421.228	537.88
421.605	505.34
421.982	526.36
422.358	546.47
422.735	555.96
423.111	543.98
423.488	525.9
423.864	549.18
424.241	538.79
424.617	548.73
424.994	568.84
425.37	560.93
425.746	553.02
426.123	553.93
426.499	565.9
426.875	569.97
427.251	574.26
427.627	581.72
428.003	583.98
428.379	590.76
428.756	600.93
429.132	598.22
429.507	598.44
429.883	609.29
430.259	594.6
430.635	621.27
431.011	610.42
431.387	633.92
431.763	638.22
432.138	644.77
432.514	648.61
432.89	636.41
433.265	641.38
433.641	645.22
434.016	663.98
434.392	655.17
434.767	670.08
435.143	661.72
435.518	695.84
435.894	680.02
436.269	695.84
436.644	697.43
437.02	705.56
437.395	685.22
437.77	700.36
438.145	719.57
438.52	722.96
438.895	708.72
439.271	737.65
439.646	735.62
440.021	748.95
440.395	727.93
440.77	734.03
441.145	740.59
441.52	758.89
441.895	748.05
442.27	755.95
442.645	777.42
443.019	777.65
443.394	796.63
443.769	784.43
444.143	754.15
444.518	772
444.892	774.26
445.267	790.98
445.641	776.97
446.016	790.98
446.39	772.68
446.764	816.74
447.139	804.54
447.513	830.08
447.887	829.63
448.262	823.75
448.636	826.24
449.01	847.03
449.384	840.7
449.758	818.1
450.132	866.69
450.506	854.94
450.88	839.12
451.254	883.63
451.628	870.3
452.002	869.62
452.376	903.3
452.75	886.35
453.123	889.96
453.497	897.19
453.871	881.6
454.244	915.5
454.618	948.27
454.992	955.27
455.365	962.05
455.739	971.09
456.112	964.99
456.486	964.08
456.859	1000.69
457.232	987.14
457.606	990.75
457.979	1006.8
458.352	1047.7
458.725	1045.89
459.099	1025.55
459.472	1071.65
459.845	1086.79
460.218	1095.61
460.591	1075.27
460.964	1102.84
461.337	1124.76
461.71	1140.8
462.083	1137.64
462.456	1166.11
462.829	1144.65
463.201	1198.88
463.574	1221.48
463.947	1223.06
464.32	1219.45
464.692	1251.08
465.065	1276.39
465.438	1260.8
465.81	1274.36
466.183	1312.1
466.555	1334.92
466.928	1356.62
467.3	1346.45
467.672	1392.32
468.045	1400.68
468.417	1404.53
468.789	1413.11
469.161	1456.73
469.534	1493.79
469.906	1539.21
470.278	1573.11
470.65	1587.35
471.022	1610.85
471.394	1664.63
471.766	1680.45
472.138	1687.23
472.51	1728.81
472.882	1762.26
473.253	1809.94
473.625	1837.73
473.997	1904.63
474.369	1925.64
474.74	2005.64
475.112	2033.21
475.484	2067.56
475.855	2123.6
476.227	2192.08
476.598	2205.18
476.97	2265.07
477.341	2347.78
477.713	2406.76
478.084	2455.8
478.455	2526.53
478.827	2605.4
479.198	2689.24
479.569	2768.78
479.94	2818.73
480.311	2923.58
480.682	3018.95
481.053	3112.05
481.424	3162.9
481.795	3307.75
482.166	3386.85
482.537	3462.78
482.908	3568.31
483.279	3716.55
483.65	3781.41
484.021	3898.02
484.391	4012.59
484.762	4095.75
485.133	4180.5
485.503	4300.49
485.874	4495.97
486.244	4581.84
486.615	4723.53
486.985	4867.26
487.356	5059.8
487.726	5161.26
488.097	5300.02
488.467	5386.12
488.837	5608.48
489.207	5750.17
489.578	5867.91
489.948	6061.13
490.318	6244.17
490.688	6370.04
491.058	6529.59
491.428	6715.35
491.798	6819.07
492.168	7033.08
492.538	7216.35
492.908	7410.92
493.278	7587.87
493.648	7615.44
494.017	7854.75
494.387	8046.61
494.757	8160.51
495.126	8337
495.496	8550.78
495.866	8657.89
496.235	8881.62
496.605	9079.35
496.974	9145.56
497.344	9422.85
497.713	9542.62
498.082	9738.54
498.452	9928.59
498.821	10021.25
499.19	10213.56
499.559	10360.9
499.928	10513.66
500.298	10741.23
500.667	10863.03
501.036	10999.08
501.405	11207.43
501.774	11259.63
502.143	11505.05
502.512	11608.55
502.88	11800.64
503.249	11920.41
503.618	12014.19
503.987	12257.35
504.356	12477.68
504.724	12632.03
505.093	12717.67
505.462	12894.62
505.83	13016.42
506.199	13169.19
506.567	13387.04
506.936	13538.9
507.304	13763.97
507.672	13886.68
508.041	13967.58
508.409	14164.19
508.777	14295.94
509.145	14469.94
509.514	14669.49
509.882	14845.75
510.25	14873.32
510.618	15086.65
510.986	15226.08
511.354	15443.48
511.722	15540.88
512.09	15729.8
512.458	15876.46
512.826	15999.4
513.193	16080.07
513.561	16311.48
513.929	16412.72
514.297	16601.41
514.664	16806.83
515.032	16845.02
515.4	17062.42
515.767	17210.44
516.135	17383.54
516.502	17334.28
516.869	17682.74
517.237	17850.42
517.604	17842.51
517.972	18092.67
518.339	18279.34
518.706	18300.8
519.073	18421.25
519.44	18642.26
519.808	18865.31
520.175	18781.92
520.542	19127.9
520.909	19327.9
521.276	19340.32
521.643	19628.9
522.009	19746.42
522.376	19928.56
522.743	20058.5
523.11	20242.22
523.477	20458.04
523.843	20618.94
524.21	20867.29
524.577	20965.82
524.943	21025.25
525.31	21258.01
525.676	21533.94
526.043	21668.4
526.409	21676.08
526.776	21960.37
527.142	22057.99
527.508	22188.16
527.874	22394.26
528.241	22523.07
528.607	22562.16
528.973	22881.7
529.339	22820.69
529.705	23106.78
530.071	23338.41
530.437	23387.9
530.803	23420.44
531.169	23636.71
531.535	23865.63
531.901	23862.69
532.267	23927.32
532.632	24149.46
532.998	24251.83
533.364	24416.12
533.73	24424.48
534.095	24736.34
534.461	24720.97
534.826	24894.3
535.192	25038.71
535.557	25104.69
535.923	25071.25
536.288	25305.82
536.653	25512.14
537.019	25330.9
537.384	25644.57
537.749	25671.46
538.114	25787.39
538.479	25819.25
538.845	25959.36
539.21	25897.44
539.575	26059.7
539.94	26242.97
540.305	26270.76
540.67	26265.34
541.034	26461.49
541.399	26644.31
541.764	26659.68
542.129	26851.99
542.494	26837.3
542.858	26968.37
543.223	26929.73
543.587	27146.22
543.952	27150.97
544.316	27359.1
544.681	27192.55
545.045	27439.77
545.41	27551.86
545.774	27508.02
546.138	27630.73
546.503	27724.06
546.867	27801.57
547.231	27926.09
547.595	28083.15
547.959	28094.67
548.324	28120.66
548.688	28303.25
549.052	28329.69
549.416	28454.89
549.779	28448.56
550.143	28672.06
550.507	28800.87
550.871	28997.02
551.235	28860.07
551.599	29085.38
551.962	29093.29
552.326	29320.18
552.689	29410.34
553.053	29344.13
553.417	29509.32
553.78	29793.38
554.143	29613.73
554.507	30008.52
554.87	29904.79
555.234	30222.52
555.597	30122.64
555.96	30194.95
556.323	30469.75
556.686	30406.7
557.05	30719.01
557.413	30713.36
557.776	30883.3
558.139	31050.98
558.502	31108.38
558.865	31220.46
559.228	31458.42
559.59	31472.21
559.953	31581.36
560.316	31944.29
560.679	31924.4
561.041	32080.78
561.404	32156.03
561.767	32395.12
562.129	32322.81
562.492	32795.56
562.854	32659.97
563.217	32718.05
563.579	32925.73
563.941	33097.25
564.304	33221.99
564.666	33440.97
565.028	33463.57
565.39	33588.09
565.753	33796.67
566.115	33928.64
566.477	34015.65
566.839	34218.58
567.201	34391.45
567.563	34328.41
567.925	34690.66
568.287	34567.95
568.648	34781.5
569.01	34876.64
569.372	35113.24
569.734	35111.89
570.095	35379.45
570.457	35513.01
570.819	35476.4
571.18	35542.61
571.542	35712.32
571.903	35806.56
572.265	35969.49
572.626	36058.98
572.987	36076.38
573.349	36256.04
573.71	36447.22
574.071	36496.48
574.432	36537.61
574.794	36758.4
575.155	36774.89
575.516	36779.41
575.877	36849.24
576.238	36990.71
576.599	37044.04
576.96	37053.98
577.32	37149.8
577.681	37269.34
578.042	37303.47
578.403	37365.84
578.763	37419.62
579.124	37554.08
579.485	37650.35
579.845	37720.18
580.206	37715.21
580.566	37766.06
580.927	37772.38
581.287	37895.32
581.648	37887.63
582.008	37975.99
582.368	37926.95
582.728	38151.81
583.089	38011.47
583.449	37871.36
583.809	38023.68
584.169	38190.68
584.529	38094.86
584.889	38551.12
585.249	38193.61
585.609	38199.26
585.969	38406.49
586.329	38275.87
586.688	38300.5
587.048	38303.67
587.408	38247.62
587.768	38237
588.127	38398.58
588.487	38318.81
588.846	38455.53
589.206	38292.82
589.565	38371.69
589.925	38484
590.284	38416.89
590.643	38449.65
591.003	38503.44
591.362	38678.57
591.721	38634.05
592.08	38587.05
592.44	38721.28
592.799	38769.87
593.158	38652.13
593.517	38678.12
593.876	38774.39
594.235	38721.96
594.593	38730.55
594.952	38989.75
595.311	38738.01
595.67	38852.35
596.029	39219.12
596.387	39070.65
596.746	39119.92
597.104	38925.8
597.463	38944.33
597.822	39074.5
598.18	38964.89
598.538	38964.44
598.897	39193.36
599.255	38915.86
599.613	39489.85
599.972	39274.72
600.33	39415.05
600.688	39125.34
601.046	39426.58
601.404	39568.27
601.762	39453.69
602.12	39694.82
602.478	39622.73
602.836	39632.45
603.194	39418.21
603.552	39603.52
603.91	39543.86
604.268	39835.61
604.625	39719.9
604.983	39722.61
605.341	39790.18
605.698	39978.2
606.056	40041.02
606.413	39968.71
606.771	40117.63
607.128	40195.6
607.485	40005.77
607.843	40193.56
608.2	40479.88
608.557	40572.99
608.914	40377.96
609.272	40474.23
609.629	40700.44
609.986	40756.48
610.343	40619.09
610.7	40981.11
611.057	40930.72
611.414	40750.16
611.771	40938.85
612.127	41030.38
612.484	41099.53
612.841	41146.98
613.198	41091.39
613.554	41268.11
613.911	41448.44
614.267	41366.86
614.624	41299.75
614.98	41361.89
615.337	41745.16
615.693	41602.34
616.05	41625.39
616.406	41838.26
616.762	41506.52
617.118	41616.58
617.475	41709
617.831	41801.88
618.187	41899.05
618.543	41920.52
618.899	42240.29
619.255	42203.45
619.611	42100.18
619.967	42349.66
620.323	42394.63
620.678	42299.04
621.034	42154.19
621.39	42189.44
621.746	42173.17
622.101	42647.06
622.457	42465.59
622.812	42449.55
623.168	42498.59
623.523	42615.42
623.879	42677.11
624.234	42419.04
624.589	42805.47
624.945	42621.29
625.3	42759.82
625.655	42744.68
626.01	42715.53
626.365	42669.43
626.72	42551.47
627.075	42676.43
627.43	42637.11
627.785	42765.7
628.14	42790.1
628.495	42703.33
628.85	42763.21
629.205	42773.38
629.559	42895.64
629.914	42669.65
630.269	42727.73
630.623	42627.17
630.978	42576.1
631.332	42726.6
631.687	42779.48
632.041	42639.6
632.396	42777.67
632.75	42465.37
633.104	42612.48
633.459	42359.15
633.813	42391.24
634.167	42363.9
634.521	42466.27
634.875	42546.27
635.229	42391.7
635.583	42261.76
635.937	42242.1
636.291	42218.59
636.645	42350.12
636.999	42253.17
637.352	42346.5
637.706	42096.34
638.06	42216.56
638.413	42215.2
638.767	42116.22
639.121	42321.64
639.474	41907.42
639.828	42028.32
640.181	42030.35
640.534	42027.64
640.888	41997.36
641.241	41905.61
641.594	41908.77
641.947	41940.41
642.301	41806.63
642.654	41900.18
643.007	41742.67
643.36	41956.91
643.713	41633.52
644.066	41902.9
644.419	41634.2
644.771	41277.15
645.124	40975.91
645.477	40955.8
645.83	40725.98
646.182	40501.58
646.535	40329.6
646.888	40595.59
647.24	40284.41
647.593	40607.79
647.945	40505.64
648.298	40357.17
648.65	40268.36
649.002	40147.01
649.355	40338.64
649.707	40298.87
650.059	40364.4
650.411	40669.48
650.763	40946.31
651.115	41285.28
651.467	41139.98
651.819	41153.76
652.171	40986.31
652.523	41001
652.875	41079.41
653.227	40805.98
653.578	41180.43
653.93	40983.82
654.282	40694.57
654.633	40746.99
654.985	40825.64
655.337	40841.45
655.688	40787.9
656.039	40985.41
656.391	40584.06
656.742	40705.86
657.094	40618.86
657.445	40800.33
657.796	40714.23
658.147	40487.34
658.498	40595.59
658.849	40653.89
659.2	40591.29
659.551	40330.96
659.902	40645.75
660.253	40502.03
660.604	40598.3
660.955	40336.83
661.306	40551.07
661.656	40453.22
662.007	40371.86
662.358	40501.8
662.708	40437.62
663.059	40397.85
663.409	40177.07
663.76	40516.94
664.11	40355.14
664.461	40343.39
664.811	40474.23
665.161	40373.67
665.511	40284.63
665.862	40316.95
666.212	40487.34
666.562	40389.94
666.912	40390.62
667.262	40350.62
667.612	40282.15
667.962	40328.47
668.312	40121.47
668.662	40268.36
669.011	40347.91
669.361	40224.3
669.711	40251.19
670.06	40221.13
670.41	40050.51
670.76	39971.87
671.109	40048.25
671.459	40034.24
671.808	39890.52
672.157	40017.75
672.507	39945.66
672.856	39903.85
673.205	40040.8
673.554	40072.44
673.904	39864.3
674.253	40118.54
674.602	39977.97
674.951	39400.59
675.3	39139.8
675.649	39816.85
675.998	39842.38
676.346	39719.22
676.695	40013.68
677.044	39471.09
677.393	39759.22
677.741	39808.71
678.09	39647.36
678.438	39647.14
678.787	39776.17
679.135	39670.64
679.484	39451.43
679.832	39696.17
680.181	39401.72
680.529	39566.46
680.877	39338.44
681.225	39325.56
681.573	39566.91
681.922	39248.95
682.27	39144.1
682.618	39252.12
682.966	39100.03
683.314	39207.15
683.661	38832.47
684.009	38912.24
684.357	38883.54
684.705	38740.27
685.053	38899.36
685.4	38675.18
685.748	38539.37
686.095	38440.84
686.443	38299.83
686.79	38329.88
687.138	38407.85
687.485	38359.49
687.832	38222.54
688.18	38206.95
688.527	38086.72
688.874	38049.21
689.221	37977.12
689.568	37935.09
689.915	37628.43
690.262	37752.27
690.609	37633.86
690.956	37416.91
691.303	37584.59
691.65	37291.72
691.997	37394.09
692.344	37102.12
692.69	37174.21
693.037	37166.75
693.383	36748.45
693.73	36975.34
694.077	36667.55
694.423	36731.73
694.769	36357.28
695.116	36579.65
695.462	36446.99
695.808	36370.61
696.155	36446.99
696.501	36039.32
696.847	36124.29
697.193	35921.81
697.539	36080.68
697.885	35803.85
698.231	35770.85
698.577	35717.3
698.923	35654.02
699.269	35372.9
699.614	35351.88
699.96	35336.97
700.306	35341.26
700.651	35079.57
700.997	34975.85
701.342	35023.53
701.688	35013.36
702.033	34771.78
702.379	34881.84
702.724	34623.76
703.069	34743.76
703.415	34465.58
703.76	34480.49
704.105	34352.36
704.45	34446.37
704.795	34174.74
705.14	34062.88
705.485	33911.69
705.83	33882.77
706.175	33939.26
706.52	33821.98
706.865	33637.58
707.209	33683.68
707.554	33627.18
707.899	33474.64
708.243	33445.94
708.588	33335.89
708.932	33212.05
709.277	33138.61
709.621	33159.85
709.966	32861.1
710.31	32939.97
710.654	32883.47
710.998	32748.79
711.342	32736.58
711.687	32627.21
712.031	32489.13
712.375	32466.08
712.719	32497.72
713.063	32332.98
713.407	32356.93
713.75	32321
714.094	32166.88
714.438	32100.89
714.782	32133.89
715.125	31936.15
715.469	32036.26
715.812	31880.56
716.156	31717.63
716.499	31749.49
716.843	31688.47
717.186	31589.27
717.53	31638.08
717.873	31662.49
718.216	31426.56
718.559	31502.49
718.902	31178.66
719.246	31233.35
719.589	31139.56
719.932	31132.78
720.275	31013.01
720.617	31064.99
720.96	30948.38
721.303	30935.95
721.646	30944.31
721.989	30834.03
722.331	30827.48
722.674	30767.14
723.016	30839.23
723.359	30682.17
723.701	30689.4
724.044	30487.38
724.386	30377.77
724.729	30563.53
725.071	30314.73
725.413	30385.23
725.755	30431.11
726.097	30145.01
726.439	30086.48
726.782	30046.71
727.124	30248.51
727.465	29956.77
727.807	29920.61
728.149	29923.1
728.491	29957.9
728.833	29793.16
729.175	29752.25
729.516	29707.96
729.858	29698.92
730.199	29609.43
730.541	29660.28
730.882	29548.64
731.224	29711.13
731.565	29441.08
731.906	29443.79
732.248	29431.58
732.589	29283.11
732.93	29168.09
733.271	29192.27
733.612	29298.26
733.953	29200.86
734.294	29074.98
734.635	29058.49
734.976	29043.57
735.317	28919.73
735.658	28881.32
735.999	28923.12
736.339	28836.57
736.68	28997.02
737.021	28889
737.361	28714.77
737.702	28880.86
738.042	28689.46
738.383	28773.07
738.723	28738.95
739.063	28691.94
739.404	28644.94
739.744	28524.94
740.084	28420.09
740.424	28554.55
740.764	28379.41
741.104	28507.77
741.444	28253.76
741.784	28261.45
742.124	28242.46
742.464	28224.61
742.804	28088.8
743.143	28002.7
743.483	28053.99
743.823	27936.26
744.162	27937.61
744.502	27901.68
744.841	27798.63
745.181	27899.65
745.52	27804.51
745.86	27749.6
746.199	27590.96
746.538	27473.67
746.877	27689.26
747.216	27685.19
747.556	27501.24
747.895	27533.1
748.234	27340.57
748.573	27369.49
748.911	27301.92
749.25	27325.65
749.589	27185.54
749.928	27267.57
750.267	27221.25
750.605	27202.04
750.944	27111.65
751.283	26882.95
751.621	27141.25
751.96	26874.59
752.298	26926.34
752.636	26915.27
752.975	26721.37
753.313	26591.43
753.651	26689.74
753.989	26650.42
754.327	26589.17
754.666	26448.16
755.004	26461.95
755.342	26389.86
755.679	26340.14
756.017	26251.1
756.355	26355.06
756.693	26081.84
757.031	26116.19
757.368	25973.82
757.706	25993.26
758.044	25832.58
758.381	25846.82
758.719	25869.19
759.056	25736.31
759.394	25659.48
759.731	25491.12
760.068	25614.96
760.405	25509.2
760.743	25346.04
761.08	25401.18
761.417	25175.65
761.754	25181.53
762.091	25135.65
762.428	25047.75
762.765	24914.42
763.102	24986.73
763.438	24779.96
763.775	24543.35
764.112	24646.17
764.449	24755.55
764.785	24599.62
765.122	24433.98
765.458	24253.87
765.795	24272.62
766.131	24407.99
766.467	24173.64
766.804	23956.93
767.14	23975.46
767.476	23907.66
767.812	23790.15
768.148	23872.64
768.485	23657.5
768.821	23563.94
769.157	23467.22
769.492	23380.22
769.828	23457.28
770.164	23100.23
770.5	23156.95
770.836	23194.91
771.171	23075.82
771.507	22917.41
771.842	22769.39
772.178	22803.51
772.513	22748.37
772.849	22705.21
773.184	22612.78
773.519	22625.44
773.855	22466.8
774.19	22342.51
774.525	22323.3
774.86	22276.52
775.195	22214.83
775.53	22021.16
775.865	21964.66
776.2	21762.18
776.535	21699.13
776.87	21712.92
777.205	21608.29
777.539	21503.43
777.874	21509.76
778.209	21375.3
778.543	21373.27
778.878	21151.35
779.212	21172.37
779.547	21099.15
779.881	21132.37
780.215	20924.46
780.55	21038.81
780.884	20842.21
781.218	20811.7
781.552	20680.4
781.886	20708.2
782.22	20572.38
782.554	20374.65
782.888	20218.27
783.222	20195.44
783.556	20176.69
783.889	20051.49
784.223	19980.76
784.557	19962.91
784.89	19961.78
785.224	19822.8
785.557	19669.58
785.891	19627.32
786.224	19670.26
786.558	19630.94
786.891	19392.98
787.224	19314.56
787.557	19236.6
787.891	19187.33
788.224	19248.12
788.557	19125.42
788.89	19071.41
789.223	19076.6
789.556	18919.32
789.888	18897.17
790.221	18742.83
790.554	18739.66
790.887	18649.72
791.219	18609.5
791.552	18502.83
791.884	18405.66
792.217	18350.29
792.549	18330.86
792.882	18178.32
793.214	18075.27
793.546	18145.1
793.879	18058.32
794.211	17856.3
794.543	17985.78
794.875	17846.35
795.207	17976.29
795.539	17815.39
795.871	17815.39
796.203	17641.16
796.535	17562.52
796.867	17545.57
797.198	17466.25
797.53	17496.53
797.862	17336.08
798.193	17298.12
798.525	17287.95
798.856	17327.72
799.188	17156.43
799.519	17065.81
799.85	17021.06
800.182	16969.77
800.513	16942.42
800.844	16812.03
801.175	16867.4
801.506	16847.51
801.837	16805.48
802.168	16660.17
802.499	16615.65
802.83	16566.16
803.161	16498.14
803.491	16544.69
803.822	16551.47
804.153	16440.51
804.483	16226.73
804.814	16219.05
805.145	16215.21
805.475	16230.8
805.805	16118.04
806.136	16128.43
806.466	16138.38
806.796	16049.79
807.126	15985.61
807.457	15903.58
807.787	15926.63
808.117	15902.9
808.447	15713.98
808.777	15810.93
809.107	15671.49
809.436	15643.02
809.766	15607.99
810.096	15593.3
810.426	15512.4
810.755	15560.54
811.085	15459.52
811.414	15354.21
811.744	15345.18
812.073	15358.28
812.403	15345.18
812.732	15163.26
813.061	15192.41
813.39	15138.85
813.719	15098.85
814.049	15168.68
814.378	15083.26
814.707	14944.28
815.036	14949.71
815.365	14923.27
815.693	14700.22
816.022	14776.38
816.351	14703.16
816.68	14608.25
817.008	14655.7
817.337	14617.29
817.665	14548.59
817.994	14608.25
818.322	14555.82
818.651	14489.38
818.979	14409.16
819.307	14467.23
819.636	14398.99
819.964	14320.12
820.292	14469.04
820.62	14409.61
820.948	14344.98
821.276	14400.57
821.604	14324.41
821.932	14279.67
822.259	14270.85
822.587	14290.51
822.915	14251.65
823.243	14236.5
823.57	14271.08
823.898	14227.01
824.225	14184.75
824.553	14217.75
824.88	14181.14
825.207	14207.8
825.535	14192.44
825.862	14244.87
826.189	14108.15
826.516	14227.69
826.843	14272.89
827.17	14254.81
827.497	14262.04
827.824	14229.72
828.151	14261.14
828.478	14191.76
828.805	14318.76
829.131	14187.24
829.458	14123.74
829.785	14123.74
830.111	14207.8
830.438	14223.62
830.764	14222.27
831.09	14187.69
831.417	14113.12
831.743	14205.54
832.069	14217.52
832.395	14102.95
832.722	14141.82
833.048	14017.53
833.374	14090.97
833.7	13995.83
834.026	14077.64
834.351	14132.55
834.677	13987.7
835.003	13956.29
835.329	14003.06
835.654	13936.85
835.98	14000.8
836.306	13977.98
836.631	13954.48
836.956	13902.05
837.282	13881.71
837.607	13787.48
837.932	13756.74
838.258	13755.61
838.583	13729.4
838.908	13717.87
839.233	13792
839.558	13750.64
839.883	13706.57
840.208	13590.65
840.533	13569.86
840.858	13609.85
841.182	13661.83
841.507	13636.52
841.832	13583.19
842.156	13417.99
842.481	13480.37
842.805	13403.98
843.13	13398.56
843.454	13417.09
843.778	13434.94
844.103	13256.19
844.427	13286.7
844.751	13329.41
845.075	13224.1
845.399	13152.01
845.723	13183.42
846.047	13125.35
846.371	13046.93
846.695	12942.75
847.019	12854.17
847.343	12928.52
847.666	12760.16
847.99	12760.61
848.313	12726.49
848.637	12671.8
848.96	12686.04
849.284	12658.24
849.607	12510.45
849.931	12460.73
850.254	12423.9
850.577	12311.81
850.9	12316.1
851.223	12244.01
851.546	12173.28
851.869	12127.18
852.192	12120.63
852.515	11996.79
852.838	12010.35
853.161	12113.62
853.483	11946.39
853.806	11935.1
854.129	11916.34
854.451	11831.82
854.774	11746.4
855.096	11712.05
855.419	11668.21
855.741	11582.11
856.063	11687.19
856.385	11584.6
856.708	11560.64
857.03	11575.33
857.352	11479.06
857.674	11433.41
857.996	11457.59
858.318	11420.08
858.64	11367.88
858.961	11344.6
859.283	11272.29
859.605	11230.48
859.926	11255.34
860.248	11244.49
860.57	11147.77
860.891	11172.63
861.212	11089.92
861.534	11101.22
861.855	11056.47
862.176	11088.79
862.498	11032.29
862.819	11106.19
863.14	10964.5
863.461	10930.15
863.782	10944.84
864.103	10924.5
864.424	10919.53
864.745	10854.9
865.065	10806.09
865.386	10811.06
865.707	10752.08
866.027	10875.01
866.348	10720.89
866.668	10705.52
866.989	10767.67
867.309	10642.47
867.63	10682.02
867.95	10652.64
868.27	10556.83
868.59	10607
868.91	10550.05
869.23	10607.67
869.55	10502.37
869.87	10584.4
870.19	10588.46
870.51	10597.96
870.83	10513.89
871.15	10454.91
871.469	10550.27
871.789	10440.67
872.109	10447.9
872.428	10368.36
872.748	10396.61
873.067	10415.14
873.386	10376.27
873.706	10391.86
874.025	10363.16
874.344	10294.01
874.663	10322.26
874.982	10359.54
875.301	10296.72
875.62	10275.7
875.939	10192.54
876.258	10266.44
876.577	10148.02
876.896	10141.02
877.214	10156.16
877.533	10146.22
877.852	10114.8
878.17	10148.02
878.489	10183.28
878.807	10084.52
879.125	10094.69
879.444	10025.09
879.762	10059.44
880.08	9996.62
880.398	9923.85
880.716	9936.05
881.034	9992.32
881.352	9900.12
881.67	9962.04
881.988	9887.47
882.306	9841.82
882.624	9936.28
882.941	9766.57
883.259	9774.93
883.577	9736.28
883.894	9684.99
884.212	9718.43
884.529	9671.88
884.846	9642.5
885.164	9702.61
885.481	9685.44
885.798	9573.8
886.115	9574.71
886.432	9570.64
886.75	9499.91
887.067	9577.42
887.383	9504.65
887.7	9529.06
888.017	9474.6
888.334	9440.25
888.651	9391.89
888.967	9374.03
889.284	9308.05
889.6	9231.21
889.917	9330.87
890.233	9268.27
890.55	9287.48
890.866	9231.89
891.182	9180.14
891.498	9109.41
891.815	9094.72
892.131	9082.06
892.447	9126.81
892.763	9010.2
893.079	9040.03
893.395	9015.62
893.71	8894.72
894.026	8975.4
894.342	8914.84
894.657	8888.85
894.973	8848.17
895.289	8812.47
895.604	8834.61
895.92	8789.87
896.235	8782.64
896.55	8748.29
896.865	8726.14
897.181	8652.24
897.496	8650.66
897.811	8560.5
898.126	8593.04
898.441	8515.75
898.756	8513.26
899.071	8436.2
899.386	8455.41
899.7	8391.46
900.015	8368.41
900.33	8315.98
900.644	8331.57
900.959	8281.63
901.273	8280.28
901.588	8185.82
901.902	8191.47
902.216	8151.69
902.531	8171.8
902.845	8143.33
903.159	8095.42
903.473	8053.84
903.787	8026.27
904.101	7957.8
904.415	7993.28
904.729	7967.29
905.042	7888.87
905.356	7888.65
905.67	7879.61
905.984	7832.83
906.297	7826.28
906.611	7777.46
906.924	7719.39
907.237	7660.86
907.551	7722.78
907.864	7674.64
908.177	7644.81
908.491	7605.72
908.804	7595.32
909.117	7532.5
909.43	7513.74
909.743	7459.73
910.056	7431.26
910.368	7445.04
910.681	7391.71
910.994	7367.08
911.307	7352.84
911.619	7269.91
911.932	7255.9
912.244	7187.2
912.557	7261.55
912.869	7188.33
913.181	7186.97
913.494	7132.74
913.806	7104.71
914.118	7042.8
914.43	7040.08
914.742	7026.07
915.054	7015.45
915.366	6900.43
915.678	6906.98
915.99	6852.74
916.302	6799.41
916.613	6795.12
916.925	6830.37
917.236	6770.71
917.548	6787.21
917.859	6764.38
918.171	6664.5
918.482	6643.94
918.794	6644.16
919.105	6607.78
919.416	6548.57
919.727	6576.14
920.038	6505.63
920.349	6538.4
920.66	6465.64
920.971	6409.59
921.282	6355.81
921.593	6350.84
921.903	6342.47
922.214	6369.82
922.525	6302.7
922.835	6256.83
923.146	6244.85
923.456	6214.12
923.767	6186.55
924.077	6194.23
924.387	6181.12
924.697	6114.46
925.008	6118.07
925.318	6069.71
925.628	6031.3
925.938	6038.3
926.248	5943.61
926.558	5959.21
926.867	5932.77
927.177	5887.8
927.487	5902.71
927.796	5818.19
928.106	5832.43
928.416	5802.15
928.725	5814.58
929.034	5780.91
929.344	5763.05
929.653	5708.37
929.962	5681.25
930.271	5657.97
930.581	5663.62
930.89	5651.65
931.199	5546.34
931.508	5633.79
931.817	5565.55
932.125	5506.79
932.434	5531.87
932.743	5419.11
933.051	5477.19
933.36	5420.92
933.669	5410.52
933.977	5387.02
934.286	5379.56
934.594	5346.34
934.902	5309.73
935.21	5309.73
935.519	5293.69
935.827	5267.02
936.135	5212.56
936.443	5192.9
936.751	5135.27
937.059	5126.69
937.367	5136.86
937.674	5122.62
937.982	5078.55
938.29	5081.26
938.597	5043.07
938.905	5023.64
939.213	5024.54
939.52	4950.19
939.827	4979.8
940.135	4944.55
940.442	4919.46
940.749	4928.73
941.056	4900.25
941.363	4823.64
941.67	4860.25
941.977	4835.62
942.284	4798.56
942.591	4786.36
942.898	4765.34
943.205	4746.81
943.511	4722.18
943.818	4726.92
944.125	4654.16
944.431	4685.79
944.738	4642.18
945.044	4622.97
945.35	4580.49
945.657	4570.77
945.963	4525.57
946.269	4543.65
946.575	4508.17
946.881	4455.29
947.187	4519.92
947.493	4466.59
947.799	4411.9
948.105	4397.89
948.41	4389.98
948.716	4408.29
949.022	4397.21
949.327	4342.08
949.633	4279.25
949.938	4285.13
950.244	4305.24
950.549	4276.31
950.854	4279.03
951.16	4222.76
951.465	4213.26
951.77	4197.22
952.075	4199.93
952.38	4157.45
952.685	4140.95
952.99	4073.16
953.294	4096.21
953.599	4058.69
953.904	4054.63
954.209	4030.9
954.513	4060.73
954.818	4032.7
955.122	3987.73
955.426	3969.43
955.731	3989.99
956.035	3930.11
956.339	3933.5
956.643	3875.42
956.948	3894.18
957.252	3925.81
957.556	3927.17
957.86	3853.95
958.163	3824.12
958.467	3846.49
958.771	3781.19
959.075	3798.81
959.378	3788.42
959.682	3764.01
959.985	3724.69
960.289	3724.01
960.592	3738.48
960.896	3693.05
961.199	3690.79
961.502	3690.34
961.805	3679.95
962.108	3630.46
962.411	3582.32
962.714	3608.54
963.017	3551.14
963.32	3599.04
963.623	3566.5
963.926	3517.92
964.228	3516.33
964.531	3508.42
964.833	3493.51
965.136	3432.27
965.438	3413.96
965.741	3471.36
966.043	3472.04
966.345	3445.15
966.648	3361.08
966.95	3387.98
967.252	3401.08
967.554	3334.42
967.856	3355.89
968.158	3307.53
968.46	3292.84
968.761	3311.59
969.063	3292.39
969.365	3230.92
969.666	3257.81
969.968	3188.43
970.269	3219.62
970.571	3187.3
970.872	3234.53
971.174	3195.44
971.475	3174.42
971.776	3158.6
972.077	3110.24
972.378	3121.09
972.679	3095.78
972.98	3094.42
973.281	3077.25
973.582	3116.57
973.883	3057.59
974.183	3051.49
974.484	3032.96
974.785	3044.26
975.085	3032.51
975.386	3005.39
975.686	2973.98
975.986	2975.11
976.287	2944.37
976.587	2916.35
976.887	2906.86
977.187	2934.43
977.487	2912.73
977.787	2892.17
978.087	2865.05
978.387	2846.3
978.687	2838.39
978.987	2821.89
979.286	2815.11
979.586	2811.04
979.885	2808.33
980.185	2782.12
980.484	2776.92
980.784	2781.21
981.083	2740.08
981.382	2745.28
981.682	2745.96
981.981	2714.32
982.28	2698.73
982.579	2662.8
982.878	2674.1
983.177	2672.97
983.475	2686.75
983.774	2670.48
984.073	2592.29
984.372	2580.77
984.67	2603.82
984.969	2618.5
985.267	2598.62
985.566	2573.99
985.864	2575.57
986.162	2558.62
986.461	2543.03
986.759	2552.52
987.057	2533.76
987.355	2481.56
987.653	2458.06
987.951	2522.24
988.249	2457.6
988.547	2454.89
988.844	2439.07
989.142	2400.21
989.44	2421.45
989.737	2416.48
990.035	2403.37
990.332	2392.52
990.63	2394.56
990.927	2391.84
991.224	2345.29
991.521	2341.45
991.819	2350.72
992.116	2328.79
992.413	2320.66
992.71	2276.59
993.006	2293.32
993.303	2317.5
993.6	2293.99
993.897	2260.1
994.193	2237.95
994.49	2249.93
994.787	2213.54
995.083	2213.09
995.379	2210.38
995.676	2207.67
995.972	2214
996.268	2187.78
996.565	2153.43
996.861	2155.69
997.157	2122.02
997.453	2136.48
997.749	2107.56
998.044	2137.84
998.34	2109.14
998.636	2106.65
998.932	2072.98
999.227	2079.31
999.523	2083.6
999.818	2089.7
1000.114	2091.29
1000.409	2046.09
1000.704	2054
1001	2028.46
1001.295	1991.18
1001.59	1994.34
1001.885	1987.33
1002.18	1965.87
1002.475	1955.02
1002.77	1947.34
1003.065	1914.79
1003.359	1910.27
1003.654	1929.94
1003.949	1898.75
1004.243	1909.14
1004.538	1894.46
1004.832	1877.96
1005.127	1907.11
1005.421	1845.87
1005.715	1835.7
1006.009	1830.28
1006.304	1837.96
1006.598	1822.82
1006.892	1812.2
1007.186	1824.85
1007.48	1785.53
1007.773	1771.75
1008.067	1754.35
1008.361	1734.01
1008.655	1719.55
1008.948	1775.14
1009.242	1744.63
1009.535	1705.99
1009.829	1704.63
1010.122	1685.87
1010.415	1697.62
1010.708	1664.18
1011.001	1667.34
1011.295	1656.27
1011.588	1607.23
1011.881	1615.37
1012.173	1653.78
1012.466	1619.66
1012.759	1618.53
1013.052	1599.1
1013.344	1594.8
1013.637	1558.19
1013.93	1577.4
1014.222	1574.24
1014.514	1555.48
1014.807	1565.88
1015.099	1557.52
1015.391	1507.12
1015.683	1538.98
1015.976	1500.79
1016.268	1528.82
1016.56	1487.23
1016.851	1494.24
1017.143	1492.43
1017.435	1475.94
1017.727	1472.09
1018.018	1465.99
1018.31	1437.52
1018.602	1431.87
1018.893	1431.42
1019.185	1450.63
1019.476	1395.03
1019.767	1403.17
1020.058	1394.81
1020.35	1371.08
1020.641	1369.5
1020.932	1361.14
1021.223	1350.06
1021.514	1349.39
1021.804	1339.44
1022.095	1306.22
1022.386	1332.89
1022.677	1315.49
1022.967	1293.57
1023.258	1280.46
1023.548	1289.95
1023.839	1277.07
1024.129	1267.13
1024.419	1246.11
1024.709	1247.69
1025	1264.42
1025.29	1243.85
1025.58	1222.38
1025.87	1231.65
1026.16	1215.83
1026.449	1195.94
1026.739	1196.17
1027.029	1200.46
1027.319	1193.68
1027.608	1180.58
1027.898	1177.41
1028.187	1188.49
1028.477	1156.85
1028.766	1148.03
1029.055	1129.73
1029.344	1153.23
1029.634	1134.7
1029.923	1135.38
1030.212	1123.18
1030.501	1106.45
1030.79	1084.53
1031.078	1103.52
1031.367	1092.67
1031.656	1081.37
1031.945	1074.59
1032.233	1046.34
1032.522	1064.2
1032.81	1044.08
1033.099	1042.73
1033.387	1022.16
1033.675	1052.9
1033.963	1026.46
1034.251	1056.51
1034.54	1002.5
1034.828	992.11
1035.116	1002.73
1035.403	980.58
1035.691	1000.47
1035.979	1002.05
1036.267	1007.93
1036.554	979
1036.842	972.67
1037.129	964.54
1037.417	950.07
1037.704	957.31
1037.992	929.06
1038.279	942.16
1038.566	910.75
1038.853	910.75
1039.14	910.75
