Data from hue_210_FLMS001491_00036.txt Node
Date: Tue Feb 07 16:41:06 GMT 2017
User: dcchb
Spectrometer: FLMS00149
Trigger mode: 0
Integration Time (sec): 2.000000E-2
Scans to average: 10
Electric dark correction enabled: true
Nonlinearity correction enabled: false
Boxcar width: 0
XAxis mode: Wavelengths
Number of Pixels in Spectrum: 2048
>>>>>Begin Spectral Data<<<<<
341.393	-21.54
341.776	-21.54
342.16	-21.54
342.543	-71.48
342.927	-70.8
343.31	-68.77
343.693	-77.81
344.077	-53.18
344.46	-40.97
344.843	-43.23
345.226	-35.32
345.61	-34.65
345.993	-29.67
346.376	-8.43
346.759	0.83
347.142	44.9
347.525	33.15
347.908	45.8
348.291	84.22
348.674	70.44
349.057	112.69
349.44	143.2
349.823	153.6
350.206	188.85
350.588	203.54
350.971	205.12
351.354	229.98
351.737	238.34
352.119	274.95
352.502	242.41
352.884	260.71
353.267	277.89
353.65	284.22
354.032	305.68
354.414	284.89
354.797	313.59
355.179	314.5
355.562	303.88
355.944	316.08
356.326	322.63
356.709	326.02
357.091	335.29
357.473	349.52
357.855	320.82
358.238	350.43
358.62	343.42
359.002	321.28
359.384	353.14
359.766	346.81
360.148	336.42
360.53	349.3
360.912	339.81
361.294	333.48
361.676	327.6
362.057	335.29
362.439	320.82
362.821	318.11
363.203	328.28
363.584	325.8
363.966	328.73
364.348	314.95
364.729	315.18
365.111	319.24
365.493	337.55
365.874	296.87
366.256	342.07
366.637	333.03
367.019	326.25
367.4	316.98
367.781	317.89
368.163	326.25
368.544	305.91
368.925	314.5
369.306	309.53
369.688	318.57
370.069	302.52
370.45	322.41
370.831	326.47
371.212	302.07
371.593	320.37
371.974	314.72
372.355	314.5
372.736	328.96
373.117	297.77
373.498	321.05
373.879	323.76
374.26	314.5
374.641	329.86
375.021	313.82
375.402	328.28
375.783	316.76
376.163	329.41
376.544	330.54
376.925	335.74
377.305	329.86
377.686	330.54
378.066	327.83
378.447	328.96
378.827	335.29
379.208	323.08
379.588	322.41
379.968	333.93
380.349	321.5
380.729	339.81
381.109	343.65
381.489	352.01
381.87	329.41
382.25	351.56
382.63	333.71
383.01	362.86
383.39	349.98
383.77	357.43
384.15	335.97
384.53	333.03
384.91	324.67
385.29	354.5
385.67	336.87
386.049	349.52
386.429	357.43
386.809	338.23
387.189	344.78
387.568	374.61
387.948	334.38
388.328	354.04
388.707	363.76
389.087	355.17
389.466	366.47
389.846	351.11
390.225	388.39
390.605	380.03
390.984	364.21
391.363	378
391.743	392.69
392.122	389.98
392.501	382.74
392.881	394.95
393.26	396.76
393.639	386.59
394.018	373.7
394.397	384.78
394.776	400.82
395.155	400.6
395.534	394.95
395.913	378
396.292	398.56
396.671	399.01
397.05	393.82
397.429	406.92
397.808	413.03
398.186	415.06
398.565	402.18
398.944	412.8
399.323	412.35
399.701	424.1
400.08	425.91
400.458	425.45
400.837	434.72
401.215	434.04
401.594	429.97
401.972	416.19
402.351	438.11
402.729	447.83
403.107	447.38
403.486	437.88
403.864	439.69
404.242	448.28
404.62	454.61
404.999	460.71
405.377	454.83
405.755	474.49
406.133	469.3
406.511	461.16
406.889	476.3
407.267	485.34
407.645	489.18
408.023	494.83
408.401	514.04
408.779	526.24
409.156	540.48
409.534	550.65
409.912	535.73
410.29	530.31
410.667	569.63
411.045	550.42
411.422	579.12
411.8	582.96
412.178	573.25
412.555	591.78
412.933	606.69
413.31	592.46
413.687	605.56
414.065	605.34
414.442	622.96
414.819	662.28
415.197	647.37
415.574	650.76
415.951	657.31
416.328	692.57
416.705	705.9
417.082	698.44
417.46	729.18
417.837	708.39
418.214	721.49
418.591	727.14
418.967	734.6
419.344	763.3
419.721	745.45
420.098	749.29
420.475	800.81
420.852	807.37
421.228	810.76
421.605	833.35
421.982	839.68
422.358	865.22
422.735	867.25
423.111	875.39
423.488	896.85
423.864	915.16
424.241	931.66
424.617	940.24
424.994	947.93
425.37	956.06
425.746	981.82
426.123	974.82
426.499	1004.87
426.875	1031.31
427.251	1023.41
427.627	1042.16
428.003	1064.31
428.379	1090.97
428.756	1103.86
429.132	1080.8
429.507	1118.77
429.883	1144.98
430.259	1119
430.635	1170.97
431.011	1173.46
431.387	1176.17
431.763	1209.62
432.138	1226.79
432.514	1269.05
432.89	1267.92
433.265	1299.33
433.641	1317.63
434.016	1314.92
434.392	1353.11
434.767	1362.83
435.143	1407.8
435.518	1451.64
435.894	1439.89
436.269	1483.96
436.644	1485.99
437.02	1544.3
437.395	1530.74
437.77	1557.4
438.145	1590.17
438.52	1637.4
438.895	1635.14
439.271	1651.64
439.646	1710.62
440.021	1749.94
440.395	1753.33
440.77	1749.49
441.145	1790.84
441.52	1838.98
441.895	1819.99
442.27	1845.53
442.645	1843.72
443.019	1904.74
443.394	1908.58
443.769	1928.69
444.143	1923.95
444.518	1971.85
444.892	1960.33
445.267	1995.58
445.641	1990.39
446.016	2022.25
446.39	2044.17
446.764	2055.24
447.139	2053.89
447.513	2091.85
447.887	2071.06
448.262	2067.9
448.636	2119.42
449.01	2175.47
449.384	2176.6
449.758	2197.84
450.132	2219.76
450.506	2211.62
450.88	2235.35
451.254	2283.71
451.628	2258.4
452.002	2295.24
452.376	2293.65
452.75	2350.83
453.123	2344.05
453.497	2370.94
453.871	2416.36
454.244	2437.15
454.618	2466.31
454.992	2493.88
455.365	2472.86
455.739	2554.89
456.112	2585.4
456.486	2623.82
456.859	2619.3
457.232	2695.23
457.606	2673.31
457.979	2709.91
458.352	2779.29
458.725	2789.91
459.099	2824.04
459.472	2858.61
459.845	2891.6
460.218	2873.07
460.591	2928.89
460.964	2928.67
461.337	3018.38
461.71	3021.54
462.083	3120.98
462.456	3108.77
462.829	3140.86
463.201	3162.78
463.574	3163.01
463.947	3226.74
464.32	3311.93
464.692	3308.99
465.065	3383.34
465.438	3360.97
465.81	3445.26
466.183	3468.31
466.555	3541.31
466.928	3539.95
467.3	3531.59
467.672	3593.06
468.045	3689.1
468.417	3680.74
468.789	3743.56
469.161	3767.29
469.534	3832.6
469.906	3916.89
470.278	3949.2
470.65	3955.31
471.022	4067.85
471.394	4094.29
471.766	4125.24
472.138	4202.08
472.51	4235.52
472.882	4369.31
473.253	4358.23
473.625	4378.57
473.997	4474.84
474.369	4525.69
474.74	4556.42
475.112	4660.15
475.484	4713.25
475.855	4713.48
476.227	4824.89
476.598	4910.76
476.97	4936.52
477.341	5085.67
477.713	5099.68
478.084	5164.09
478.455	5243.18
478.827	5347.13
479.198	5508.71
479.569	5444.53
479.94	5607.24
480.311	5666.45
480.682	5739.44
481.053	5901.92
481.424	5945.99
481.795	5935.59
482.166	6062.14
482.537	6136.27
482.908	6179.65
483.279	6257.62
483.65	6411.74
484.021	6529.48
484.391	6597.27
484.762	6651.73
485.133	6694.89
485.503	6743.03
485.874	6853.31
486.244	6865.74
486.615	7052.4
486.985	7060.99
487.356	7160.42
487.726	7191.15
488.097	7343.47
488.467	7390.24
488.837	7503.46
489.207	7572.39
489.578	7741.19
489.948	7772.15
490.318	7886.28
490.688	7875.65
491.058	7943
491.428	8058.93
491.798	8133.05
492.168	8295.98
492.538	8272.71
492.908	8371.46
493.278	8450.1
493.648	8424.11
494.017	8539.59
494.387	8638.12
494.757	8688.51
495.126	8724.22
495.496	8797.21
495.866	8772.81
496.235	8876.76
496.605	8849.87
496.974	9029.52
497.344	9024.32
497.713	9076.75
498.082	9202.4
498.452	9265.67
498.821	9163.53
499.19	9280.36
499.559	9291.21
499.928	9406.24
500.298	9390.19
500.667	9474.26
501.036	9431.55
501.405	9494.59
501.774	9497.31
502.143	9577.3
502.512	9525.33
502.88	9649.62
503.249	9587.93
503.618	9701.6
503.987	9708.15
504.356	9728.94
504.724	9776.4
505.093	9794.7
505.462	9793.12
505.83	9801.48
506.199	9877.64
506.567	10006.22
506.936	9989.95
507.304	9998.31
507.672	10065.65
508.041	10063.62
508.409	10128.7
508.777	10189.27
509.145	10256.61
509.514	10148.59
509.882	10243.95
510.25	10280.79
510.618	10256.61
510.986	10318.08
511.354	10338.19
511.722	10373.22
512.09	10412.76
512.458	10430.16
512.826	10497.28
513.193	10449.82
513.561	10504.74
513.929	10466.55
514.297	10584.06
514.664	10541.12
515.032	10595.13
515.4	10582.02
515.767	10598.97
516.135	10645.75
516.502	10521.69
516.869	10695.69
517.237	10699.08
517.604	10596.94
517.972	10697.28
518.339	10768.01
518.706	10732.98
519.073	10724.85
519.44	10733.43
519.808	10800.32
520.175	10777.95
520.542	10828.12
520.909	10790.15
521.276	10788.12
521.643	10847.33
522.009	10890.72
522.376	10857.72
522.743	10936.14
523.11	10944.27
523.477	10970.94
523.843	10953.99
524.21	11062.46
524.577	11031.96
524.943	11083.25
525.31	11010.49
525.676	11147.66
526.043	11155.34
526.409	11109.24
526.776	11138.85
527.142	11153.31
527.508	11172.97
527.874	11245.06
528.241	11122.35
528.607	11198.73
528.973	11195.57
529.339	11197.38
529.705	11248
530.071	11232.63
530.437	11247.77
530.803	11314.43
531.169	11162.12
531.535	11153.99
531.901	11192.4
532.267	11142.24
532.632	11124.83
532.998	11123.93
533.364	11140.2
533.73	11142.46
534.095	11115.12
534.461	11198.28
534.826	11093.87
535.192	11129.58
535.557	10998.74
535.923	11049.81
536.288	10964.61
536.653	11052.07
537.019	10953.77
537.384	11020.43
537.749	10909.7
538.114	10878.51
538.479	10911.73
538.845	10853.2
539.21	10814.79
539.575	10904.5
539.94	10854.56
540.305	10824.73
540.67	10744.51
541.034	10697.05
541.399	10732.3
541.764	10631.74
542.129	10707.9
542.494	10684.39
542.858	10650.04
543.223	10513.78
543.587	10551.97
543.952	10524.85
544.316	10494.79
544.681	10454.12
545.045	10506.77
545.41	10486.43
545.774	10467.68
546.138	10381.13
546.503	10351.3
546.867	10263.39
547.231	10271.07
547.595	10298.64
547.959	10268.36
548.324	10228.14
548.688	10246.67
549.052	10203.95
549.416	10146.1
549.779	10131.64
550.143	10139.55
550.507	9971.42
550.871	10036.73
551.235	10012.77
551.599	10043.28
551.962	9973.68
552.326	9948.37
552.689	9972.1
553.053	9913.12
553.417	9893
553.78	9942.94
554.143	9862.04
554.507	9866.11
554.87	9833.57
555.234	9852.33
555.597	9756.51
555.96	9701.14
556.323	9765.77
556.686	9722.84
557.05	9750.63
557.413	9651.2
557.776	9719.45
558.139	9715.83
558.502	9697.75
558.865	9733.23
559.228	9654.82
559.59	9663.18
559.953	9653.01
560.316	9765.55
560.679	9650.3
561.041	9670.41
561.404	9653.46
561.767	9728.49
562.129	9686.23
562.492	9744.31
562.854	9677.19
563.217	9638.09
563.579	9653.46
563.941	9752.22
564.304	9789.5
564.666	9792.67
565.028	9793.12
565.39	9776.85
565.753	9723.97
566.115	9769.84
566.477	9830.86
566.839	9828.82
567.201	9809.61
567.563	9789.5
567.925	9860.01
568.287	9847.58
568.648	9798.54
569.01	9820.69
569.372	9904.98
569.734	9878.31
570.095	9878.31
570.457	9883.74
570.819	9922.38
571.18	9850.97
571.542	9900.01
571.903	9892.78
572.265	9933.91
572.626	9987.24
572.987	9970.29
573.349	9965.54
573.71	9946.11
574.071	9985.2
574.432	10047.57
574.794	10121.92
575.155	9998.08
575.516	10013.23
575.877	10083.05
576.238	10072.66
576.599	10071.75
576.96	10125.54
577.32	10090.74
577.681	10149.27
578.042	10115.37
578.403	10114.24
578.763	10204.86
579.124	10216.16
579.485	10181.58
579.845	10245.08
580.206	10184.97
580.566	10192.43
580.927	10245.54
581.287	10275.14
581.648	10224.52
582.008	10262.48
582.368	10247.34
582.728	10255.7
583.089	10215.25
583.449	10258.42
583.809	10294.57
584.169	10337.51
584.529	10280.79
584.889	10303.61
585.249	10258.87
585.609	10249.6
585.969	10281.24
586.329	10263.39
586.688	10292.31
587.048	10341.58
587.408	10263.39
587.768	10318.53
588.127	10288.7
588.487	10325.76
588.846	10411.18
589.206	10262.71
589.565	10297.29
589.925	10316.95
590.284	10383.84
590.643	10339.77
591.003	10295.25
591.362	10351.3
591.721	10292.31
592.08	10297.06
592.44	10339.09
592.799	10410.28
593.158	10306.78
593.517	10347
593.876	10326.44
594.235	10299.55
594.593	10378.41
594.952	10355.36
595.311	10335.7
595.67	10406.21
596.029	10376.83
596.387	10404.4
596.746	10459.99
597.104	10353.1
597.463	10410.28
597.822	10402.82
598.18	10396.27
598.538	10424.74
598.897	10414.34
599.255	10396.27
599.613	10456.83
599.972	10389.03
600.33	10420.67
600.688	10417.06
601.046	10411.41
601.404	10436.72
601.762	10439.88
602.12	10492.08
602.478	10441.24
602.836	10396.27
603.194	10361.01
603.552	10399.66
603.91	10388.81
604.268	10443.72
604.625	10426.1
604.983	10437.62
605.341	10401.69
605.698	10436.72
606.056	10508.13
606.413	10495.7
606.771	10478.3
607.128	10490.28
607.485	10471.74
607.843	10579.76
608.2	10511.52
608.557	10515.13
608.914	10509.48
609.272	10575.02
609.629	10572.76
609.986	10567.34
610.343	10582.02
610.7	10636.94
611.057	10547.22
611.414	10595.58
611.771	10588.13
612.127	10594.68
612.484	10552.42
612.841	10691.4
613.198	10578.41
613.554	10527.56
613.911	10666.99
614.267	10643.94
614.624	10622.25
614.98	10599.88
615.337	10667.9
615.693	10665.41
616.05	10662.02
616.406	10716.26
616.762	10645.07
617.118	10753.09
617.475	10641.46
617.831	10706.77
618.187	10689.82
618.543	10720.78
618.899	10667.67
619.255	10767.33
619.611	10747.44
619.967	10814.33
620.323	10689.82
620.678	10727.33
621.034	10698.63
621.39	10729.36
621.746	10706.31
622.101	10817.95
622.457	10737.73
622.812	10705.64
623.168	10700.44
623.523	10808.23
623.879	10799.65
624.234	10762.36
624.589	10761.91
624.945	10823.6
625.3	10809.14
625.655	10765.3
626.01	10699.08
626.365	10751.74
626.72	10756.26
627.075	10750.83
627.43	10740.66
627.785	10716.48
628.14	10737.73
628.495	10817.72
628.85	10803.04
629.205	10721
629.559	10772.08
629.914	10677.84
630.269	10702.47
630.623	10620.22
630.978	10581.57
631.332	10710.83
631.687	10689.14
632.041	10622.7
632.396	10646.43
632.75	10658.86
633.104	10562.82
633.459	10567.79
633.813	10508.13
634.167	10513.33
634.521	10500.67
634.875	10538.41
635.229	10473.78
635.583	10488.92
635.937	10408.92
636.291	10391.97
636.645	10467.9
636.999	10427.45
637.352	10411.18
637.706	10363.72
638.06	10442.82
638.413	10382.26
638.767	10365.08
639.121	10393.33
639.474	10355.36
639.828	10375.93
640.181	10367.57
640.534	10358.75
640.888	10331.86
641.241	10271.07
641.594	10281.69
641.947	10312.88
642.301	10265.87
642.654	10265.2
643.007	10302.48
643.36	10324.86
643.713	10246.89
644.066	10261.58
644.419	10230.62
644.771	10135.48
645.124	10033.56
645.477	10062.04
645.83	10002.15
646.182	9994.92
646.535	9944.3
646.888	9950.85
647.24	9866.34
647.593	9872.44
647.945	9913.57
648.298	9831.99
648.65	9862.27
649.002	9830.63
649.355	9942.27
649.707	9894.58
650.059	9911.99
650.411	10040.8
650.763	10000.34
651.115	10077.4
651.467	10062.49
651.819	10129.83
652.171	10152.43
652.523	10037.63
652.875	10114.92
653.227	10088.48
653.578	10078.99
653.93	10118.08
654.282	10067.01
654.633	9983.85
654.985	10007.35
655.337	10052.32
655.688	10076.5
656.039	10135.03
656.391	10072.88
656.742	10021.36
657.094	10045.09
657.445	10085.54
657.796	10117.86
658.147	10153.56
658.498	10067.69
658.849	10047.8
659.2	10121.02
659.551	10064.3
659.902	10084.41
660.253	10090.29
660.604	10106.56
660.955	10063.39
661.306	10099.1
661.656	10127.8
662.007	10116.27
662.358	10113.56
662.708	10208.25
663.059	10100
663.409	10120.57
663.76	10163.73
664.11	10195.37
664.461	10183.84
664.811	10108.82
665.161	10154.01
665.511	10112.21
665.862	10166.67
666.212	10144.75
666.562	10104.3
666.912	10163.96
667.262	10139.32
667.612	10123.28
667.962	10159.44
668.312	10114.47
668.662	10139.32
669.011	10092.77
669.361	10166.22
669.711	10125.09
670.06	10073.11
670.41	10116.05
670.76	10072.66
671.109	10093.22
671.459	10077.86
671.808	10069.95
672.157	10093.9
672.507	10086.44
672.856	10046.67
673.205	10068.82
673.554	10090.29
673.904	10056.61
674.253	10110.4
674.602	10004.41
674.951	9875.6
675.3	9824.53
675.649	10027.91
675.998	10017.97
676.346	10015.03
676.695	9996.95
677.044	9890.29
677.393	9945.88
677.741	9972.55
678.09	9935.71
678.438	9890.06
678.787	9987.01
679.135	9959.44
679.484	9783.4
679.832	9932.32
680.181	9834.93
680.529	9828.37
680.877	9814.36
681.225	9794.47
681.573	9829.95
681.922	9752.22
682.27	9674.93
682.618	9700.47
682.966	9614.59
683.314	9679
683.661	9684.42
684.009	9587.47
684.357	9621.37
684.705	9515.16
685.053	9533.92
685.4	9575.5
685.748	9479.91
686.095	9491.21
686.443	9463.86
686.79	9461.38
687.138	9502.73
687.485	9476.97
687.832	9437.42
688.18	9478.1
688.527	9355.39
688.874	9380.02
689.221	9314.03
689.568	9284.21
689.915	9238.56
690.262	9272.45
690.609	9171.67
690.956	9178.22
691.303	9223.64
691.65	9139.35
691.997	9162.17
692.344	9049.63
692.69	9051.89
693.037	8999.01
693.383	9004.66
693.73	9015.29
694.077	8925.57
694.423	8901.62
694.769	8933.03
695.116	8882.18
695.462	8849.64
695.808	8789.3
696.155	8785.01
696.501	8754.28
696.847	8721.73
697.193	8662.3
697.539	8644
697.885	8612.81
698.231	8559.03
698.577	8563.32
698.923	8507.05
699.269	8504.11
699.614	8461.63
699.96	8400.84
700.306	8381.18
700.651	8387.28
700.997	8331.46
701.342	8350.67
701.688	8316.55
702.033	8293.72
702.379	8231.8
702.724	8237.23
703.069	8203.78
703.415	8131.92
703.76	8132.37
704.105	8111.58
704.45	8090.56
704.795	8022.32
705.14	7999.49
705.485	8008.98
705.83	7950.91
706.175	7941.87
706.52	7946.16
706.865	7901.64
707.209	7965.6
707.554	7819.16
707.899	7873.39
708.243	7806.73
708.588	7775.09
708.932	7749.78
709.277	7678.37
709.621	7682.89
709.966	7688.99
710.31	7718.6
710.654	7570.13
710.998	7600.41
711.342	7655.55
711.687	7551.6
712.031	7470.02
712.375	7568.54
712.719	7525.38
713.063	7530.58
713.407	7553.86
713.75	7464.59
714.094	7462.11
714.438	7453.52
714.782	7452.39
715.125	7474.76
715.469	7423.01
715.812	7347.53
716.156	7304.14
716.499	7359.74
716.843	7291.72
717.186	7313.41
717.53	7381.88
717.873	7336.91
718.216	7316.35
718.559	7275.9
718.902	7291.04
719.246	7220.3
719.589	7265.28
719.932	7263.92
720.275	7275.9
720.617	7218.95
720.96	7173.98
721.303	7263.92
721.646	7184.37
721.989	7124.49
722.331	7175.56
722.674	7203.58
723.016	7227.76
723.359	7170.14
723.701	7105.73
724.044	7094.21
724.386	7073.19
724.729	7117.93
725.071	7099.63
725.413	7102.79
725.755	7118.84
726.097	7045.62
726.439	7036.13
726.782	7074.55
727.124	7033.42
727.465	7060.31
727.807	7026.86
728.149	7058.73
728.491	6969.01
728.833	7040.65
729.175	7026.19
729.516	7048.33
729.858	7036.13
730.199	7014.89
730.541	7033.87
730.882	7013.76
731.224	7025.73
731.565	7021.21
731.906	6935.79
732.248	7031.83
732.589	7023.25
732.93	6934.89
733.271	6979.41
733.612	7011.27
733.953	7004.49
734.294	7007.88
734.635	6968.56
734.976	7038.84
735.317	6941.22
735.658	6977.6
735.999	6999.75
736.339	6976.02
736.68	7019.18
737.021	7054.21
737.361	6997.03
737.702	7061.21
738.042	6970.82
738.383	7034.32
738.723	6994.77
739.063	7003.36
739.404	7079.97
739.744	7056.47
740.084	7075.9
740.424	7057.14
740.764	7092.85
741.104	7132.4
741.444	7088.78
741.784	7195.45
742.124	7153.19
742.464	7215.78
742.804	7110.7
743.143	7159.29
743.483	7197.03
743.823	7223.47
744.162	7274.09
744.502	7245.84
744.841	7245.84
745.181	7399.28
745.52	7319.06
745.86	7403.58
746.199	7462.11
746.538	7387.08
746.877	7509.11
747.216	7473.18
747.556	7671.59
747.895	7639.95
748.234	7634.08
748.573	7661.87
748.911	7766.73
749.25	7837.69
749.589	7871.59
749.928	7910.91
750.267	8041.3
750.605	8055.76
750.944	8111.81
751.283	8176.44
751.621	8250.79
751.96	8385.47
752.298	8472.02
752.636	8469.99
752.975	8552.7
753.313	8686.03
753.651	8807.16
753.989	8930.32
754.327	9037.43
754.666	9113.36
755.004	9174.38
755.342	9325.33
755.679	9511.77
756.017	9518.32
756.355	9725.32
756.693	9800.8
757.031	9988.14
757.368	10068.59
757.706	10258.19
758.044	10493.66
758.381	10568.24
758.719	10699.99
759.056	10910.83
759.394	11030.6
759.731	11101.78
760.068	11349.01
760.405	11445.28
760.743	11634.43
761.08	11803.23
761.417	12018.14
761.754	12233.73
762.091	12323.22
762.428	12523.67
762.765	12666.04
763.102	12866.48
763.438	12890.66
763.775	13147.83
764.112	13298.11
764.449	13495.17
764.785	13643.86
765.122	13834.37
765.458	13997.75
765.795	14129.73
766.131	14290.63
766.467	14432.77
766.804	14591.41
767.14	14737.39
767.476	14939.2
767.812	15006.99
768.148	15183.26
768.485	15301.9
768.821	15492.86
769.157	15569.46
769.492	15693.98
769.828	15879.74
770.164	15995.44
770.5	16086.06
770.836	16130.35
771.171	16327.86
771.507	16432.72
771.842	16463.68
772.178	16592.94
772.513	16693.28
772.849	16824.57
773.184	16831.8
773.519	16936.89
773.855	17028.18
774.19	17044.45
774.525	17192.7
774.86	17371.22
775.195	17355.86
775.53	17433.14
775.865	17416.42
776.2	17510.2
776.535	17432.24
776.87	17582.29
777.205	17442.86
777.539	17632.46
777.874	17808.27
778.209	17775.73
778.543	17721.95
778.878	17784.09
779.212	17846.24
779.547	17831.78
779.881	17888.72
780.215	17913.13
780.55	18094.37
780.884	17979.34
781.218	18005.78
781.552	18075.84
781.886	18012.34
782.22	18106.8
782.554	18052.56
782.888	17942.73
783.222	18035.39
783.556	17928.05
783.889	17911.55
784.223	18016.86
784.557	17918.78
784.89	18076.97
785.224	17995.16
785.557	18053.24
785.891	18003.3
786.224	17926.69
786.558	18062.51
786.891	17880.82
787.224	17866.13
787.557	17855.05
787.891	17907.93
788.224	17909.06
788.557	17927.82
788.89	17902.96
789.223	17964.43
789.556	17815.05
789.888	17801.04
790.221	17797.2
790.554	17626.36
790.887	17668.62
791.219	17714.94
791.552	17622.29
791.884	17608.51
792.217	17565.8
792.549	17542.29
792.882	17450.77
793.214	17420.71
793.546	17566.02
793.879	17429.08
794.211	17343.88
794.543	17454.61
794.875	17286.48
795.207	17434.27
795.539	17347.95
795.871	17236.76
796.203	17083.55
796.535	17137.11
796.867	17051.68
797.198	17015.53
797.53	17078.58
797.862	16996.54
798.193	17079.03
798.525	16992.25
798.856	16972.82
799.188	16871.12
799.519	16782.54
799.85	16710.22
800.182	16748.19
800.513	16750.9
800.844	16570.79
801.175	16762.2
801.506	16760.84
801.837	16654.86
802.168	16554.07
802.499	16484.24
802.83	16564.69
803.161	16428.65
803.491	16432.27
803.822	16521.08
804.153	16397.24
804.483	16239.05
804.814	16248.99
805.145	16275.89
805.475	16170.35
805.805	16083.35
806.136	16195.66
806.466	16151.6
806.796	16207.64
807.126	16128.54
807.457	15974.88
807.787	16100.07
808.117	15976.01
808.447	15810.36
808.777	15957.7
809.107	15923.35
809.436	15703.92
809.766	15796.35
810.096	15730.14
810.426	15642.91
810.755	15730.82
811.085	15663.25
811.414	15646.98
811.744	15529.46
812.073	15546.41
812.403	15580.08
812.732	15470.03
813.061	15545.28
813.39	15333.76
813.719	15370.37
814.049	15435.68
814.378	15357.72
814.707	15303.26
815.036	15329.02
815.365	15267.32
815.693	15160.43
816.022	15177.16
816.351	15031.85
816.68	15058.52
817.008	15109.36
817.337	14915.24
817.665	14938.52
817.994	15013.09
818.322	14978.74
818.651	14881.12
818.979	14798.18
819.307	14931.06
819.636	14913.66
819.964	14752.54
820.292	14846.54
820.62	14873.89
820.948	14867.79
821.276	14814.46
821.604	14802.48
821.932	14821.23
822.259	14829.14
822.587	14832.31
822.915	14741.01
823.243	14838.64
823.57	14769.94
823.898	14812.2
824.225	14773.55
824.553	14735.59
824.88	14752.99
825.207	14890.16
825.535	14785.98
825.862	14799.77
826.189	14770.16
826.516	14848.35
826.843	14788.02
827.17	14826.88
827.497	14827.79
827.824	14851.29
828.151	14960.21
828.478	14859.88
828.805	14865.75
829.131	14844.96
829.458	14794.12
829.785	14808.35
830.111	14872.31
830.438	14950.72
830.764	14787.56
831.09	14832.99
831.417	14737.85
831.743	14856.71
832.069	14741.01
832.395	14726.1
832.722	14797.73
833.048	14770.16
833.374	14794.12
833.7	14700.79
834.026	14635.25
834.351	14799.99
834.677	14729.03
835.003	14769.48
835.329	14685.42
835.654	14674.57
835.98	14637.06
836.306	14637.96
836.631	14560.45
836.956	14608.13
837.282	14613.33
837.607	14632.31
837.932	14589.6
838.258	14529.94
838.583	14504.18
838.908	14406.1
839.233	14458.76
839.558	14409.72
839.883	14398.65
840.208	14353.45
840.533	14290.18
840.858	14282.04
841.182	14257.18
841.507	14347.35
841.832	14208.82
842.156	14219.44
842.481	14158.65
842.805	14056.96
843.13	14078.43
843.454	14085.21
843.778	14027.58
844.103	14015.15
844.427	13999.11
844.751	14049.05
845.075	13988.49
845.399	13881.6
845.723	13817.42
846.047	13832.11
846.371	13732.9
846.695	13730.42
847.019	13609.06
847.343	13617.88
847.666	13462.17
847.99	13430.76
848.313	13339.47
848.637	13402.51
848.96	13341.73
849.284	13299.01
849.607	13296.75
849.931	13168.62
850.254	13169.98
850.577	13040.04
850.9	13001.4
851.223	12964.79
851.546	12911.68
851.869	12782.42
852.192	12945.35
852.515	12784.9
852.838	12682.08
853.161	12758.69
853.483	12648.86
853.806	12622.42
854.129	12588.98
854.451	12487.28
854.774	12435.31
855.096	12384.69
855.419	12417.91
855.741	12392.6
856.063	12340.62
856.385	12283.45
856.708	12192.38
857.03	12139.95
857.352	12150.12
857.674	12150.34
857.996	12125.94
858.318	12030.12
858.64	12075.77
858.961	11958.03
859.283	11919.84
859.605	11850.92
859.926	11931.59
860.248	11849.34
860.57	11869.22
860.891	11816.79
861.212	11796.23
861.534	11730.24
861.855	11763.01
862.176	11706.06
862.498	11739.28
862.819	11593.75
863.14	11588.33
863.461	11534.09
863.782	11553.3
864.103	11537.48
864.424	11554.65
864.745	11517.59
865.065	11461.1
865.386	11393.98
865.707	11376.13
866.027	11468.55
866.348	11401.44
866.668	11360.08
866.989	11356.47
867.309	11368.9
867.63	11288.67
867.95	11278.05
868.27	11190.6
868.59	11303.14
868.91	11209.35
869.23	11153.99
869.55	11172.74
869.87	11239.86
870.19	11190.14
870.51	11164.16
870.83	11202.35
871.15	11133.2
871.469	11083.93
871.789	11110.82
872.109	11065.63
872.428	11057.27
872.748	11052.52
873.067	11014.33
873.386	10993.54
873.706	10993.54
874.025	10980.66
874.344	10911.51
874.663	10938.62
874.982	10855.69
875.301	10904.05
875.62	10911.51
875.939	10881.23
876.258	10873.54
876.577	10877.84
876.896	10806.88
877.214	10833.32
877.533	10785.86
877.852	10784.5
878.17	10817.05
878.489	10768.01
878.807	10690.72
879.125	10761.23
879.444	10671.97
879.762	10674.68
880.08	10668.12
880.398	10629.48
880.716	10602.59
881.034	10573.21
881.352	10594.91
881.67	10546.54
881.988	10523.95
882.306	10515.81
882.624	10533.21
882.941	10457.06
883.259	10385.19
883.577	10386.1
883.894	10363.05
884.212	10373.22
884.529	10342.71
884.846	10280.34
885.164	10277.85
885.481	10164.18
885.798	10219.77
886.115	10203.95
886.432	10163.28
886.75	10160.11
887.067	10133.67
887.383	10130.51
887.7	10076.5
888.017	10028.82
888.334	10100.91
888.651	10008.93
888.967	10039.21
889.284	9985.43
889.6	9908.37
889.917	9829.95
890.233	9890.06
890.55	9848.26
890.866	9813.23
891.182	9836.51
891.498	9789.28
891.815	9718.77
892.131	9630.64
892.447	9674.48
892.763	9599.45
893.079	9550.86
893.395	9584.99
893.71	9531.66
894.026	9588.38
894.342	9526.46
894.657	9424.54
894.973	9384.77
895.289	9435.16
895.604	9379.12
895.92	9346.8
896.235	9227.71
896.55	9333.02
896.865	9230.65
897.181	9180.03
897.496	9202.63
897.811	9114.04
898.126	9147.26
898.441	9123.76
898.756	9093.25
899.071	8967.38
899.386	9024.1
899.7	8933.71
900.015	8947.04
900.33	8764.22
900.644	8799.92
900.959	8833.82
901.273	8809.19
901.588	8706.82
901.902	8704.79
902.216	8658.91
902.531	8677.22
902.845	8614.62
903.159	8564.9
903.473	8479.93
903.787	8531.91
904.101	8495.98
904.415	8442.19
904.729	8378.69
905.042	8325.13
905.356	8378.01
905.67	8300.95
905.984	8345.7
906.297	8366.72
906.611	8237.68
906.924	8206.04
907.237	8252.59
907.551	8176.66
907.864	8046.72
908.177	8108.64
908.491	8079.04
908.804	8014.63
909.117	7957.23
909.43	7936.44
909.743	7931.47
910.056	7935.31
910.368	7869.1
910.681	7858.03
910.994	7789.1
911.307	7823.45
911.619	7679.95
911.932	7712.49
912.244	7697.13
912.557	7570.13
912.869	7590.69
913.181	7529
913.494	7574.19
913.806	7509.11
914.118	7491.26
914.43	7384.82
914.742	7457.36
915.054	7381.43
915.366	7350.47
915.678	7340.98
915.99	7323.8
916.302	7250.36
916.613	7207.65
916.925	7187.99
917.236	7194.54
917.548	7123.36
917.859	7146.86
918.171	7123.58
918.482	7007.43
918.794	6997.71
919.105	6973.31
919.416	6936.92
919.727	6936.7
920.038	6954.1
920.349	6826.64
920.66	6858.96
920.971	6851.27
921.282	6818.96
921.593	6754.55
921.903	6738.51
922.214	6681.11
922.525	6685.4
922.835	6582.36
923.146	6644.73
923.456	6634.11
923.767	6567.44
924.077	6563.37
924.387	6556.59
924.697	6492.19
925.008	6513.88
925.318	6488.35
925.628	6473.21
925.938	6370.84
926.248	6360.67
926.558	6362.47
926.867	6294.91
927.177	6285.19
927.487	6289.71
927.796	6195.02
928.106	6221.46
928.416	6179.43
928.725	6115.47
929.034	6088.58
929.344	6106.21
929.653	6102.82
929.962	6042.26
930.271	5981.24
930.581	5975.59
930.89	5969.72
931.199	5966.33
931.508	5931.98
931.817	5963.61
932.125	5938.53
932.434	5849.04
932.743	5835.71
933.051	5779.21
933.36	5800.23
933.669	5716.62
933.977	5730.63
934.286	5682.27
934.594	5755.48
934.902	5698.54
935.21	5634.36
935.519	5607.24
935.827	5656.96
936.135	5537.18
936.443	5549.39
936.751	5491.31
937.059	5473.23
937.367	5470.97
937.674	5474.59
937.982	5444.53
938.29	5413.12
938.597	5411.31
938.905	5352.11
939.213	5359.79
939.52	5313.91
939.827	5322.28
940.135	5310.75
940.442	5210.19
940.749	5245.89
941.056	5195.95
941.363	5204.99
941.67	5190.98
941.977	5154.82
942.284	5112.34
942.591	5095.61
942.898	5070.76
943.205	5082.51
943.511	5039.8
943.818	5011.32
944.125	4969.74
944.431	4993.02
944.738	4963.87
945.044	4910.76
945.35	4905.34
945.657	4899.24
945.963	4850.65
946.269	4814.72
946.575	4876.41
946.881	4762.74
947.187	4808.84
947.493	4753.93
947.799	4772.01
948.105	4710.77
948.41	4730.2
948.716	4693.37
949.022	4653.59
949.327	4655.4
949.633	4635.97
949.938	4626.02
950.244	4635.74
950.549	4538.12
950.854	4550.77
951.16	4563.88
951.465	4476.87
951.77	4447.27
952.075	4478.23
952.38	4450.21
952.685	4460.6
952.99	4405.69
953.294	4367.72
953.599	4416.99
953.904	4381.51
954.209	4301.96
954.513	4337.89
954.818	4358.46
955.122	4283.66
955.426	4277.11
955.731	4275.98
956.035	4225.81
956.339	4251.79
956.643	4159.59
956.948	4188.29
957.252	4129.09
957.556	4129.99
957.86	4086.38
958.163	4116.43
958.467	4099.48
958.771	4119.14
959.075	4077.79
959.378	4026.04
959.682	4021.07
959.985	4062.65
960.289	4008.86
960.592	3985.36
960.896	3936.1
961.199	3932.26
961.502	3914.63
961.805	3898.58
962.108	3844.35
962.411	3871.01
962.714	3826.95
963.017	3840.51
963.32	3871.47
963.623	3805.25
963.926	3781.07
964.228	3781.98
964.531	3766.16
964.833	3770
965.136	3701.53
965.438	3688.42
965.741	3712.37
966.043	3710.57
966.345	3623.11
966.648	3607.07
966.95	3630.34
967.252	3627.63
967.554	3582.89
967.856	3604.35
968.158	3536.56
968.46	3526.39
968.761	3511.7
969.063	3462.44
969.365	3482.78
969.666	3487.75
969.968	3464.92
970.269	3481.19
970.571	3451.14
970.872	3393.96
971.174	3389.22
971.475	3364.36
971.776	3377.69
972.077	3366.39
972.378	3357.58
972.679	3337.47
972.98	3326.85
973.281	3266.06
973.582	3311.03
973.883	3324.36
974.183	3270.8
974.484	3270.8
974.785	3201.65
975.085	3206.85
975.386	3191.48
975.686	3194.2
975.986	3194.42
976.287	3153.97
976.587	3142.45
976.887	3156.91
977.187	3118.27
977.487	3123.24
977.787	3067.42
978.087	3065.84
978.387	3039.17
978.687	3051.6
978.987	3051.83
979.286	3032.39
979.586	3017.7
979.885	2976.12
980.185	2986.52
980.484	2981.09
980.784	2926.41
981.083	2925.28
981.382	2938.61
981.682	2934.54
981.981	2872.62
982.28	2883.47
982.579	2865.84
982.878	2882.34
983.177	2878.05
983.475	2845.28
983.774	2798.73
984.073	2796.69
984.372	2809.12
984.67	2821.78
984.969	2757.6
985.267	2751.72
985.566	2735.9
985.864	2750.82
986.162	2702.01
986.461	2727.54
986.759	2716.69
987.057	2687.99
987.355	2683.47
987.653	2654.77
987.951	2645.06
988.249	2643.25
988.547	2633.98
988.844	2626.53
989.142	2587.21
989.44	2587.88
989.737	2593.99
990.035	2567.55
990.332	2553.31
990.63	2537.04
990.927	2550.14
991.224	2521.67
991.521	2473.54
991.819	2502.24
992.116	2528.45
992.413	2443.48
992.71	2477.83
993.006	2472.63
993.303	2431.5
993.6	2424.5
993.897	2413.88
994.193	2396.48
994.49	2403.26
994.787	2365.29
995.083	2391.5
995.379	2348.57
995.676	2357.16
995.972	2321.45
996.268	2334.11
996.565	2297.27
996.861	2302.24
997.157	2290.26
997.453	2282.36
997.749	2243.71
998.044	2224.96
998.34	2265.86
998.636	2230.61
998.932	2250.27
999.227	2190.38
999.523	2180.21
999.818	2160.32
1000.114	2180.89
1000.409	2153.77
1000.704	2115.58
1001	2155.58
1001.295	2122.81
1001.59	2118.52
1001.885	2110.38
1002.18	2086.43
1002.475	2097.28
1002.77	2092.3
1003.065	2044.62
1003.359	2062.25
1003.654	2047.11
1003.949	2048.01
1004.243	2021.12
1004.538	2025.64
1004.832	1999.88
1005.127	1997.39
1005.421	1965.75
1005.715	1971.63
1006.009	1946.54
1006.304	1960.33
1006.598	1941.8
1006.892	1887.79
1007.186	1911.52
1007.48	1902.03
1007.773	1876.49
1008.067	1886.43
1008.361	1881.24
1008.655	1843.5
1008.948	1855.93
1009.242	1829.26
1009.535	1834.01
1009.829	1813.22
1010.122	1829.26
1010.415	1789.26
1010.708	1793.55
1011.001	1787.45
1011.295	1772.09
1011.588	1744.97
1011.881	1725.08
1012.173	1774.35
1012.466	1720.56
1012.759	1700
1013.052	1703.61
1013.344	1700
1013.637	1671.98
1013.93	1661.13
1014.222	1658.42
1014.514	1614.35
1014.807	1638.53
1015.099	1605.08
1015.391	1616.61
1015.683	1610.51
1015.976	1600.57
1016.268	1593.56
1016.56	1572.09
1016.851	1557.18
1017.143	1538.42
1017.435	1552.88
1017.727	1542.71
1018.018	1530.28
1018.31	1537.29
1018.602	1514.69
1018.893	1515.6
1019.185	1532.09
1019.476	1494.58
1019.767	1482.83
1020.058	1458.65
1020.35	1458.65
1020.641	1458.2
1020.932	1429.5
1021.223	1427.46
1021.514	1400.8
1021.804	1413.45
1022.095	1389.05
1022.386	1376.84
1022.677	1375.49
1022.967	1369.16
1023.258	1364.19
1023.548	1356.5
1023.839	1332.78
1024.129	1337.52
1024.419	1332.55
1024.709	1331.42
1025	1337.52
1025.29	1304.3
1025.58	1320.57
1025.87	1310.63
1026.16	1262.72
1026.449	1269.05
1026.739	1262.27
1027.029	1239.67
1027.319	1257.3
1027.608	1265.66
1027.898	1229.5
1028.187	1218.43
1028.477	1205.55
1028.766	1228.15
1029.055	1217.75
1029.344	1198.32
1029.634	1164.87
1029.923	1198.32
1030.212	1160.12
1030.501	1173.01
1030.79	1168.94
1031.078	1171.65
1031.367	1137.75
1031.656	1123.06
1031.945	1103.4
1032.233	1118.09
1032.522	1103.86
1032.81	1110.63
1033.099	1095.27
1033.387	1094.82
1033.675	1080.35
1033.963	1068.83
1034.251	1101.82
1034.54	1049.17
1034.828	1047.36
1035.116	1048.26
1035.403	1063.4
1035.691	1045.1
1035.979	1034.25
1036.267	1034.7
1036.554	1032.22
1036.842	1010.3
1037.129	1019.79
1037.417	989.28
1037.704	966.91
1037.992	987.02
1038.279	993.12
1038.566	991.99
1038.853	991.99
1039.14	991.99
