Data from hue_70_FLMS001491_47.txt Node
Date: Mon Feb 06 15:20:58 GMT 2017
User: dcchb
Spectrometer: FLMS00149
Trigger mode: 0
Integration Time (sec): 2.000000E-2
Scans to average: 10
Electric dark correction enabled: true
Nonlinearity correction enabled: false
Boxcar width: 0
XAxis mode: Wavelengths
Number of Pixels in Spectrum: 2048
>>>>>Begin Spectral Data<<<<<
341.393	-23.49
341.776	-23.49
342.16	-23.49
342.543	-58.29
342.927	-68.01
343.31	-96.25
343.693	-77.27
344.077	-56.26
344.46	-39.76
344.843	-43.15
345.226	-36.37
345.61	-55.13
345.993	-21
346.376	2.95
346.759	18.77
347.142	44.76
347.525	39.56
347.908	46.79
348.291	73.01
348.674	88.83
349.057	110.52
349.44	137.41
349.823	148.03
350.206	155.26
350.588	192.78
350.971	224.87
351.354	223.51
351.737	236.62
352.119	252.89
352.502	271.42
352.884	284.53
353.267	291.08
353.65	291.76
354.032	306.22
354.414	280.91
354.797	315.26
355.179	307.8
355.562	304.64
355.944	337.41
356.326	342.83
356.709	362.49
357.091	346.9
357.473	340.57
357.855	340.34
358.238	331.98
358.62	353.23
359.002	332.66
359.384	343.28
359.766	345.99
360.148	311.19
360.53	360.91
360.912	338.31
361.294	337.41
361.676	360.68
362.057	327.46
362.439	311.19
362.821	322.27
363.203	332.89
363.584	338.99
363.966	299.22
364.348	327.46
364.729	325.43
365.111	298.09
365.493	315.71
365.874	322.94
366.256	308.93
366.637	327.01
367.019	328.82
367.4	315.26
367.781	321.59
368.163	339.21
368.544	310.51
368.925	306.22
369.306	307.58
369.688	325.66
370.069	322.27
370.45	308.48
370.831	302.15
371.212	308.93
371.593	322.94
371.974	312.77
372.355	307.58
372.736	336.95
373.117	316.16
373.498	326.79
373.879	303.96
374.26	308.25
374.641	307.12
375.021	311.64
375.402	327.92
375.783	315.26
376.163	329.27
376.544	329.27
376.925	315.49
377.305	326.56
377.686	337.86
378.066	340.34
378.447	328.59
378.827	336.5
379.208	339.21
379.588	327.24
379.968	333.34
380.349	349.84
380.729	341.02
381.109	345.99
381.489	328.59
381.87	327.69
382.25	342.38
382.63	332.21
383.01	348.93
383.39	344.19
383.77	343.96
384.15	349.16
384.53	335.6
384.91	340.12
385.29	343.51
385.67	345.54
386.049	362.72
386.429	325.66
386.809	332.21
387.189	328.82
387.568	367.01
387.948	342.38
388.328	372.21
388.707	350.29
389.087	348.93
389.466	348.71
389.846	345.99
390.225	371.98
390.605	369.5
390.984	356.39
391.363	372.21
391.743	372.21
392.122	353.68
392.501	381.02
392.881	380.8
393.26	352.55
393.639	361.13
394.018	355.03
394.397	368.59
394.776	375.6
395.155	367.91
395.534	364.07
395.913	370.63
396.292	382.38
396.671	372.21
397.05	388.03
397.429	368.37
397.808	385.31
398.186	373.34
398.565	386.67
398.944	374.47
399.323	385.77
399.701	385.99
400.08	389.83
400.458	392.09
400.837	390.06
401.215	389.83
401.594	380.12
401.972	410.62
402.351	398.87
402.729	405.43
403.107	421.92
403.486	382.83
403.864	413.79
404.242	392.55
404.62	424.18
404.999	399.33
405.377	394.58
405.755	418.76
406.133	406.56
406.511	410.85
406.889	415.37
407.267	440.45
407.645	418.53
408.023	423.96
408.401	442.26
408.779	430.51
409.156	412.88
409.534	435.48
409.912	418.53
410.29	435.71
410.667	436.39
411.045	459.44
411.422	437.74
411.8	450.17
412.178	442.94
412.555	473
412.933	450.17
413.31	472.09
413.687	445.65
414.065	460.79
414.442	453.11
414.819	499.21
415.197	477.74
415.574	474.35
415.951	471.64
416.328	460.79
416.705	493.33
417.082	464.18
417.46	481.36
417.837	491.07
418.214	479.55
418.591	496.72
418.967	489.72
419.344	484.52
419.721	476.39
420.098	485.43
420.475	515.25
420.852	494.24
421.228	511.41
421.605	504.41
421.982	508.02
422.358	517.97
422.735	530.85
423.111	523.39
423.488	524.29
423.864	535.37
424.241	551.19
424.617	552.32
424.994	544.86
425.37	543.28
425.746	561.36
426.123	570.62
426.499	548.02
426.875	545.31
427.251	563.84
427.627	542.15
428.003	566.1
428.379	582.15
428.756	574.69
429.132	584.41
429.507	562.26
429.883	601.35
430.259	587.12
430.635	610.62
431.011	595.25
431.387	608.59
431.763	595.93
432.138	624.4
432.514	602.03
432.89	606.78
433.265	606.33
433.641	622.82
434.016	626.66
434.392	638.42
434.767	635.93
435.143	666.21
435.518	667.34
435.894	672.76
436.269	674.12
436.644	662.6
437.02	671.41
437.395	672.99
437.77	687.23
438.145	666.44
438.52	690.39
438.895	699.43
439.271	676.61
439.646	701.01
440.021	684.29
440.395	690.17
440.77	682.48
441.145	710.28
441.52	706.66
441.895	705.76
442.27	724.29
442.645	702.59
443.019	740.11
443.394	741.69
443.769	742.82
444.143	748.92
444.518	759.32
444.892	730.84
445.267	765.87
445.641	791.86
446.016	744.4
446.39	770.84
446.764	790.5
447.139	759.54
447.513	788.69
447.887	790.05
448.262	790.5
448.636	807.45
449.01	807.45
449.384	786.43
449.758	783.72
450.132	823.5
450.506	812.42
450.88	823.72
451.254	830.5
451.628	850.61
452.002	834.12
452.376	837.96
452.75	854.45
453.123	840.22
453.497	851.52
453.871	881.12
454.244	902.36
454.618	892.87
454.992	899.2
455.365	894.45
455.739	917.96
456.112	929.03
456.486	958.63
456.859	941.01
457.232	960.44
457.606	975.58
457.979	982.14
458.352	985.3
458.725	985.3
459.099	997.95
459.472	995.24
459.845	1004.28
460.218	1036.15
460.591	1030.5
460.964	1077.05
461.337	1043.6
461.71	1080.44
462.083	1094.45
462.456	1080.66
462.829	1066.65
463.201	1156.82
463.574	1142.58
463.947	1162.02
464.32	1188.01
464.692	1184.39
465.065	1201.11
465.438	1226.2
465.81	1239.3
466.183	1248.57
466.555	1253.54
466.928	1265.52
467.3	1278.85
467.672	1327.21
468.045	1334.44
468.417	1368.11
468.789	1371.96
469.161	1373.31
469.534	1420.54
469.906	1452.18
470.278	1479.75
470.65	1511.61
471.022	1517.71
471.394	1540.54
471.766	1586.64
472.138	1597.94
472.51	1645.85
472.882	1670.93
473.253	1712.51
473.625	1717.94
473.997	1778.5
474.369	1796.8
474.74	1826.86
475.112	1887.2
475.484	1933.75
475.855	1984.37
476.227	2008.55
476.598	2093.52
476.97	2155.21
477.341	2184.14
477.713	2231.59
478.084	2266.17
478.455	2379.16
478.827	2395.88
479.198	2481.98
479.569	2567.63
479.94	2615.76
480.311	2645.37
480.682	2770.79
481.053	2826.15
481.424	2932.37
481.795	2982.08
482.166	3065.47
482.537	3151.57
482.908	3240.38
483.279	3316.99
483.65	3432.01
484.021	3530.32
484.391	3618.45
484.762	3709.75
485.133	3784.55
485.503	3929.85
485.874	3995.84
486.244	4104.76
486.615	4267.47
486.985	4362.84
487.356	4484.42
487.726	4585.43
488.097	4778.19
488.467	4848.25
488.837	4973.44
489.207	5075.59
489.578	5234.45
489.948	5366.2
490.318	5537.5
490.688	5572.97
491.058	5780.2
491.428	5885.96
491.798	5995.79
492.168	6195.56
492.538	6306.97
492.908	6427.87
493.278	6645.72
493.648	6730.46
494.017	6859.72
494.387	7028.53
494.757	7143.56
495.126	7248.41
495.496	7365.02
495.866	7515.3
496.235	7718.46
496.605	7820.15
496.974	7908.51
497.344	8124.77
497.713	8174.26
498.082	8367.93
498.452	8521.15
498.821	8627.81
499.19	8689.73
499.559	8919.33
499.928	8993.22
500.298	9126.33
500.667	9302.37
501.036	9356.38
501.405	9519.99
501.774	9601.34
502.143	9750.27
502.512	9908.68
502.88	9945.74
503.249	10047.43
503.618	10218.5
503.987	10335.56
504.356	10456.91
504.724	10510.7
505.093	10622.33
505.462	10739.39
505.83	10833.63
506.199	11011.25
506.567	11190.45
506.936	11178.48
507.304	11395.65
507.672	11523.55
508.041	11627.73
508.409	11726.03
508.777	11751.57
509.145	11970.77
509.514	11871.11
509.882	12170.99
510.25	12197.66
510.618	12365.56
510.986	12342.51
511.354	12549.74
511.722	12663.64
512.09	12842.16
512.458	12794.03
512.826	12861.6
513.193	12975.04
513.561	13079.22
513.929	13210.51
514.297	13411.19
514.664	13462.49
515.032	13458.42
515.4	13650.73
515.767	13732.31
516.135	13815.47
516.502	13770.73
516.869	14051.62
517.237	14071.28
517.604	14050.49
517.972	14280.54
518.339	14307.21
518.706	14387.66
519.073	14457.04
519.44	14494.32
519.808	14670.36
520.175	14642.34
520.542	14904.03
520.909	14959.85
521.276	14991.48
521.643	15080.07
522.009	15190.35
522.376	15289.33
522.743	15471.47
523.11	15556.67
523.477	15599.38
523.843	15678.92
524.21	15793.27
524.577	15891.12
524.943	16051.12
525.31	16077.56
525.676	16260.6
526.043	16301.51
526.409	16334.73
526.776	16423.31
527.142	16571.78
527.508	16606.81
527.874	16720.93
528.241	16749.63
528.607	16827.14
528.973	17030.53
529.339	17032.33
529.705	17070.75
530.071	17222.84
530.437	17309.62
530.803	17377.41
531.169	17436.39
531.535	17370.18
531.901	17456.05
532.267	17571.53
532.632	17584.18
532.998	17627.57
533.364	17761.13
533.73	17677.29
534.095	17883.61
534.461	17869.15
534.826	17902.14
535.192	17922.48
535.557	18131.74
535.923	17954.8
536.288	18077.73
536.653	18077.73
537.019	18018.75
537.384	18109.37
537.749	18272.75
538.114	18155.47
538.479	18132.87
538.845	18239.99
539.21	18166.77
539.575	18261.45
539.94	18260.1
540.305	18409.7
540.67	18340.32
541.034	18517.49
541.399	18432.98
541.764	18415.58
542.129	18432.07
542.494	18372.64
542.858	18438.85
543.223	18394.33
543.587	18606.76
543.952	18627.77
544.316	18583.03
544.681	18521.56
545.045	18639.07
545.41	18729.24
545.774	18517.95
546.138	18650.82
546.503	18702.12
546.867	18612.86
547.231	18799.75
547.595	18704.16
547.959	18831.61
548.324	18837.48
548.688	18826.64
549.052	18862.79
549.416	18845.62
549.779	18874.55
550.143	18897.37
550.507	18936.92
550.871	18856.47
551.235	18895.34
551.599	19045.62
551.962	19074.09
552.326	19114.09
552.689	19043.13
553.053	19034.77
553.417	19041.77
553.78	19313.18
554.143	19193.86
554.507	19256.23
554.87	19273.41
555.234	19374.42
555.597	19296.68
555.96	19365.15
556.323	19397.92
556.686	19364.25
557.05	19502.55
557.413	19495.32
557.776	19522.89
558.139	19525.38
558.502	19599.27
558.865	19606.5
559.228	19705.26
559.59	19791.58
559.953	19737.8
560.316	19976.66
560.679	19945.25
561.041	20010.11
561.404	20008.75
561.767	20101.18
562.129	20079.26
562.492	20248.07
562.854	20195.42
563.217	20148.18
563.579	20262.53
563.941	20402.87
564.304	20374.85
564.666	20429.31
565.028	20522.19
565.39	20516.54
565.753	20639.25
566.115	20756.53
566.477	20690.77
566.839	20746.36
567.201	20904.55
567.563	20893.93
567.925	21052.57
568.287	20964.89
568.648	20999.01
569.01	21155.16
569.372	21196.52
569.734	21080.36
570.095	21273.35
570.457	21354.03
570.819	21424.54
571.18	21359.9
571.542	21464.08
571.903	21439.22
572.265	21535.27
572.626	21546.34
572.987	21581.59
573.349	21671.76
573.71	21757.18
574.071	21693
574.432	21927.12
574.794	21863.17
575.155	21952.88
575.516	21838.54
575.877	21960.57
576.238	21919.89
576.599	22098.42
576.96	21973.9
577.32	21949.72
577.681	22120.79
578.042	22188.81
578.403	22142.71
578.763	22164.86
579.124	22233.1
579.485	22260.67
579.845	22244.85
580.206	22221.12
580.566	22252.76
580.927	22306.09
581.287	22432.64
581.648	22216.38
582.008	22372.31
582.368	22327.34
582.728	22403.94
583.089	22396.94
583.449	22259.54
583.809	22416.15
584.169	22349.03
584.529	22288.02
584.889	22493.89
585.249	22306.09
585.609	22325.75
585.969	22347.45
586.329	22314.23
586.688	22402.14
587.048	22415.92
587.408	22375.25
587.768	22396.04
588.127	22327.11
588.487	22291.41
588.846	22414.79
589.206	22363.95
589.565	22248.92
589.925	22312.65
590.284	22340.9
590.643	22343.61
591.003	22398.52
591.362	22473.77
591.721	22292.99
592.08	22458.41
592.44	22384.74
592.799	22493.66
593.158	22440.78
593.517	22380.89
593.876	22402.81
594.235	22340.44
594.593	22401.46
594.952	22392.65
595.311	22257.73
595.67	22371.4
596.029	22568.91
596.387	22498.41
596.746	22556.71
597.104	22393.55
597.463	22466.09
597.822	22485.98
598.18	22485.07
598.538	22396.71
598.897	22555.13
599.255	22346.32
599.613	22660.89
599.972	22475.81
600.33	22504.51
600.688	22465.64
601.046	22493.21
601.404	22591.96
601.762	22628.8
602.12	22646.88
602.478	22654.33
602.836	22568.91
603.194	22509.93
603.552	22475.36
603.91	22582.25
604.268	22672.86
604.625	22629.7
604.983	22697.5
605.341	22640.32
605.698	22687.33
606.056	22734.78
606.413	22670.15
606.771	22830.37
607.128	22794.22
607.485	22813.43
607.843	22672.86
608.2	22808.23
608.557	22905.4
608.914	22875.8
609.272	23000.09
609.629	23067.66
609.986	23090.25
610.343	22947.89
610.7	23162.79
611.057	23009.35
611.414	23109.69
611.771	23189.01
612.127	23173.19
612.484	23206.18
612.841	23263.81
613.198	23217.26
613.554	23293.41
613.911	23374.31
614.267	23298.16
614.624	23275.79
614.98	23227.88
615.337	23500.19
615.693	23494.99
616.05	23469.91
616.406	23519.85
616.762	23556.68
617.118	23476.46
617.475	23588.77
617.831	23570.47
618.187	23630.13
618.543	23672.61
618.899	23756.9
619.255	23683.23
619.611	23624.03
619.967	23768.43
620.323	23808.65
620.678	23747.19
621.034	23646.85
621.39	23641.2
621.746	23692.95
622.101	23923.23
622.457	23771.82
622.812	23764.14
623.168	23774.98
623.523	23811.14
623.879	23824.92
624.234	23890.01
624.589	23830.35
624.945	23801.87
625.3	23835.32
625.655	23965.03
626.01	23936.79
626.365	23921.19
626.72	23970.91
627.075	23781.54
627.43	23912.61
627.785	23871.48
628.14	23925.26
628.495	23936.11
628.85	23911.02
629.205	23848.43
629.559	24010
629.914	23849.33
630.269	23853.62
630.623	23795.55
630.978	23751.93
631.332	23952.6
631.687	23865.6
632.041	23759.84
632.396	23814.53
632.75	23682.78
633.104	23683.69
633.459	23696.34
633.813	23695.21
634.167	23671.03
634.521	23650.69
634.875	23717.81
635.229	23644.82
635.583	23514.65
635.937	23567.53
636.291	23560.3
636.645	23548.77
636.999	23423.81
637.352	23601.2
637.706	23396.91
638.06	23532.5
638.413	23447.53
638.767	23376.57
639.121	23422.9
639.474	23297.25
639.828	23394.2
640.181	23357.59
640.534	23342.68
640.888	23290.7
641.241	23172.29
641.594	23224.71
641.947	23344.71
642.301	23255.67
642.654	23241.66
643.007	23293.19
643.36	23101.55
643.713	23161.89
644.066	23299.97
644.419	23086.86
644.771	23022.46
645.124	22635.8
645.477	22745.4
645.83	22622.7
646.182	22551.96
646.535	22310.61
646.888	22504.28
647.24	22302.25
647.593	22512.64
647.945	22450.05
648.298	22376.37
648.65	22326.88
649.002	22213.89
649.355	22372.99
649.707	22325.75
650.059	22509.25
650.411	22714.45
650.763	22705.18
651.115	23039.63
651.467	22826.98
651.819	22781.56
652.171	22762.35
652.523	22787.66
652.875	22787.21
653.227	22720.32
653.578	22938.62
653.93	22847.77
654.282	22668.57
654.633	22794.22
654.985	22692.3
655.337	22709.25
655.688	22833.99
656.039	22818.17
656.391	22629.25
656.742	22729.81
657.094	22648.91
657.445	22811.17
657.796	22746.99
658.147	22657.05
658.498	22734.78
658.849	22692.75
659.2	22720.55
659.551	22679.42
659.902	22855.91
660.253	22804.61
660.604	22699.98
660.955	22650.94
661.306	22802.35
661.656	22670.38
662.007	22674.67
662.358	22706.31
662.708	22718.74
663.059	22770.71
663.409	22616.59
663.76	22724.39
664.11	22695.24
664.461	22628.57
664.811	22666.99
665.161	22804.84
665.511	22679.42
665.862	22727.78
666.212	22784.73
666.562	22735.01
666.912	22747.89
667.262	22863.59
667.612	22698.4
667.962	22732.75
668.312	22723.48
668.662	22944.5
669.011	22706.99
669.361	22694.56
669.711	22697.27
670.06	22772.75
670.41	22658.63
670.76	22651.17
671.109	22736.59
671.459	22596.03
671.808	22598.06
672.157	22701.34
672.507	22519.42
672.856	22557.16
673.205	22578.4
673.554	22611.85
673.904	22537.73
674.253	22662.24
674.602	22549.03
674.951	22168.02
675.3	22110.85
675.649	22539.53
675.998	22406.88
676.346	22383.15
676.695	22467.45
677.044	22291.18
677.393	22418.18
677.741	22393.55
678.09	22377.73
678.438	22292.08
678.787	22282.59
679.135	22403.49
679.484	22145.87
679.832	22194.46
680.181	22092.09
680.529	22179.77
680.877	22165.53
681.225	22134.57
681.573	22216.61
681.922	21984.52
682.27	22049.83
682.618	22029.94
682.966	21848.25
683.314	21869.5
683.661	21892.77
684.009	21757.63
684.357	21663.17
684.705	21639.9
685.053	21751.31
685.4	21678.09
685.748	21556.51
686.095	21601.48
686.443	21390.19
686.79	21431.54
687.138	21468.38
687.485	21552.67
687.832	21398.1
688.18	21428.83
688.527	21204.2
688.874	21142.74
689.221	21121.72
689.568	21040.36
689.915	21203.98
690.262	21026.13
690.609	21048.95
690.956	20837.66
691.303	20880.37
691.65	20798.11
691.997	20747.04
692.344	20638.57
692.69	20611.68
693.037	20701.16
693.383	20385.01
693.73	20516.99
694.077	20356.32
694.423	20328.97
694.769	20353.38
695.116	20316.32
695.462	20093.72
695.808	20064.57
696.155	20048.98
696.501	19999.26
696.847	20010.34
697.193	19761.75
697.539	19855.31
697.885	19731.02
698.231	19694.19
698.577	19651.93
698.923	19541.2
699.269	19531.93
699.614	19418.26
699.96	19427.53
700.306	19365.83
700.651	19260.98
700.997	19091.72
701.342	19201.77
701.688	19201.54
702.033	19066.86
702.379	19052.85
702.724	18991.61
703.069	19044.49
703.415	18727.43
703.76	18805.4
704.105	18775.34
704.45	18817.82
704.795	18607.43
705.14	18644.5
705.485	18567.44
705.83	18433.43
706.175	18444.5
706.52	18378.97
706.865	18291.74
707.209	18341.9
707.554	18238.63
707.899	18291.96
708.243	18124.96
708.588	18107.33
708.932	17979.43
709.277	17998.18
709.621	18046.32
709.966	17855.82
710.31	17931.75
710.654	17808.81
710.998	17773.33
711.342	17792.31
711.687	17709.83
712.031	17631.41
712.375	17560.91
712.719	17684.07
713.063	17529.72
713.407	17581.7
713.75	17486.11
714.094	17483.17
714.438	17290.86
714.782	17339.45
715.125	17328.82
715.469	17320.69
715.812	17196.17
716.156	17127.7
716.499	17207.7
716.843	17210.86
717.186	17127.93
717.53	17105.55
717.873	17069.17
718.216	17122.73
718.559	16991.21
718.902	16870.53
719.246	17008.61
719.589	16816.52
719.932	16780.82
720.275	16863.98
720.617	16808.39
720.96	16718.44
721.303	16701.27
721.646	16723.42
721.989	16659.46
722.331	16726.81
722.674	16706.02
723.016	16678.67
723.359	16653.81
723.701	16699.46
724.044	16522.74
724.386	16407.72
724.729	16511.67
725.071	16488.39
725.413	16554.16
725.755	16470.09
726.097	16443.65
726.439	16422.18
726.782	16320.49
727.124	16430.32
727.465	16294.73
727.807	16362.3
728.149	16219.02
728.491	16268.74
728.833	16278.68
729.175	16244.78
729.516	16228.74
729.858	16231
730.199	16247.72
730.541	16203.43
730.882	16212.92
731.224	16216.54
731.565	16133.15
731.906	16192.13
732.248	16075.52
732.589	16044.56
732.93	16101.06
733.271	16062.64
733.612	16041.4
733.953	16035.98
734.294	16004.34
734.635	15999.59
734.976	16050.89
735.317	16006.37
735.658	16012.7
735.999	16060.16
736.339	15933.38
736.68	16020.61
737.021	15961.18
737.361	15965.24
737.702	16091.79
738.042	16020.16
738.383	15941.52
738.723	16051.34
739.063	16024
739.404	15945.58
739.744	15942.42
740.084	15952.82
740.424	16021.29
740.764	15957.11
741.104	16103.32
741.444	15898.58
741.784	15826.26
742.124	16019.48
742.464	15972.25
742.804	15966.15
743.143	15966.37
743.483	15925.02
743.823	15894.29
744.162	15954.85
744.502	16049.54
744.841	15953.49
745.181	16053.38
745.52	16088.18
745.86	16125.69
746.199	16041.17
746.538	16106.71
746.877	16222.19
747.216	16250.21
747.556	16178.57
747.895	16268.51
748.234	16235.52
748.573	16305.35
748.911	16299.7
749.25	16333.14
749.589	16360.71
749.928	16405.68
750.267	16446.59
750.605	16527.04
750.944	16481.39
751.283	16551.67
751.621	16534.27
751.96	16596.64
752.298	16696.3
752.636	16795.73
752.975	16871.89
753.313	16831.44
753.651	17047.48
753.989	16918.21
754.327	17034.14
754.666	17055.84
755.004	17164.53
755.342	17339.67
755.679	17353.23
756.017	17377.64
756.355	17437.97
756.693	17379.67
757.031	17609.49
757.368	17630.29
757.706	17611.08
758.044	17745.31
758.381	17826.89
758.719	17845.87
759.056	17904.85
759.394	17898.07
759.731	18024.62
760.068	18095.81
760.405	18116.37
760.743	18138.52
761.08	18303.94
761.417	18263.49
761.754	18343.49
762.091	18359.31
762.428	18446.76
762.765	18289.93
763.102	18583.71
763.438	18500.77
763.775	18461.9
764.112	18674.78
764.449	18703.03
764.785	18695.57
765.122	18650.15
765.458	18703.25
765.795	18702.57
766.131	18825.73
766.467	18810.14
766.804	18827.99
767.14	18851.5
767.476	18893.98
767.812	18904.6
768.148	18879.29
768.485	18866.86
768.821	18884.49
769.157	18812.17
769.492	18891.27
769.828	18948.67
770.164	18847.43
770.5	18792.29
770.836	18889.01
771.171	18792.74
771.507	18821.21
771.842	18721.33
772.178	18906.41
772.513	18805.85
772.849	18771.05
773.184	18669.35
773.519	18740.76
773.855	18686.98
774.19	18664.38
774.525	18677.72
774.86	18686.08
775.195	18707.32
775.53	18482.24
775.865	18636.59
776.2	18356.14
776.535	18394.56
776.87	18308.46
777.205	18387.55
777.539	18281.34
777.874	18316.14
778.209	18223.94
778.543	18207.22
778.878	18158.41
779.212	18115.92
779.547	18080.44
779.881	18079.31
780.215	17925.19
780.55	18023.5
780.884	17901.24
781.218	17812.2
781.552	17954.12
781.886	17849.04
782.22	17674.8
782.554	17720.9
782.888	17475.71
783.222	17447.69
783.556	17466
783.889	17423.96
784.223	17365.66
784.557	17289.5
784.89	17336.51
785.224	17217.87
785.557	17191.2
785.891	17218.32
786.224	17093.58
786.558	17087.7
786.891	16962.28
787.224	16893.81
787.557	16866.69
787.891	16849.06
788.224	16815.17
788.557	16771.78
788.89	16724.09
789.223	16668.5
789.556	16592.8
789.888	16483.87
790.221	16451.33
790.554	16376.08
790.887	16437.32
791.219	16338.12
791.552	16358.45
791.884	16263.54
792.217	16198.01
792.549	16157.1
792.882	16042.08
793.214	15857.22
793.546	16042.76
793.879	15905.81
794.211	15751.46
794.543	15888.18
794.875	15841.18
795.207	15921.86
795.539	15748.07
795.871	15781.07
796.203	15658.81
796.535	15550.34
796.867	15507.63
797.198	15431.02
797.53	15525.93
797.862	15379.5
798.193	15384.24
798.525	15342.89
798.856	15257.24
799.188	15139.5
799.519	15079.17
799.85	15012.05
800.182	15155.1
800.513	14990.58
800.844	14831.94
801.175	14949.68
801.506	14950.36
801.837	14845.95
802.168	14828.32
802.499	14718.95
802.83	14709.01
803.161	14643.47
803.491	14693.64
803.822	14616.58
804.153	14525.96
804.483	14483.02
804.814	14444.61
805.145	14460.65
805.475	14362.12
805.805	14316.25
806.136	14309.24
806.466	14311.05
806.796	14248.68
807.126	14196.25
807.457	14210.71
807.787	14157.61
808.117	14082.36
808.447	14064.28
808.777	14071.28
809.107	14025.63
809.436	13881.23
809.766	14021.11
810.096	13854.34
810.426	13824.96
810.755	13817.73
811.085	13818.41
811.414	13838.97
811.744	13653.67
812.073	13609.15
812.403	13572.09
812.732	13559.43
813.061	13580
813.39	13430.85
813.719	13434.01
814.049	13492.09
814.378	13399.21
814.707	13350.4
815.036	13350.17
815.365	13348.14
815.693	13248.71
816.022	13231.08
816.351	13137.75
816.68	13104.53
817.008	13166.9
817.337	13088.26
817.665	13041.93
817.994	13105.43
818.322	13046
818.651	12954.48
818.979	12955.83
819.307	12988.83
819.636	12956.06
819.964	12845.33
820.292	12920.35
820.62	12876.96
820.948	12847.59
821.276	12846.23
821.604	12792.67
821.932	12809.39
822.259	12875.38
822.587	12881.26
822.915	12827.02
823.243	12854.82
823.57	12765.33
823.898	12804.88
824.225	12718.55
824.553	12700.7
824.88	12725.1
825.207	12746.12
825.535	12835.38
825.862	12881.03
826.189	12682.39
826.516	12804.2
826.843	12780.7
827.17	12814.59
827.497	12850.75
827.824	12885.78
828.151	12823.41
828.478	12756.51
828.805	12763.97
829.131	12764.88
829.458	12756.29
829.785	12667.03
830.111	12730.3
830.438	12765.78
830.764	12660.02
831.09	12713.58
831.417	12678.1
831.743	12750.19
832.069	12777.98
832.395	12684.65
832.722	12675.61
833.048	12680.13
833.374	12722.62
833.7	12582.96
834.026	12662.96
834.351	12592.68
834.677	12620.47
835.003	12565.11
835.329	12603.98
835.654	12561.04
835.98	12584.99
836.306	12529.4
836.631	12480.14
836.956	12504.54
837.282	12466.58
837.607	12554.49
837.932	12466.13
838.258	12400.82
838.583	12376.86
838.908	12326.92
839.233	12392.91
839.558	12340.03
839.883	12249.86
840.208	12201.28
840.533	12260.71
840.858	12262.97
841.182	12154.04
841.507	12252.35
841.832	12125.12
842.156	12160.15
842.481	12164.44
842.805	12137.1
843.13	12074.05
843.454	12093.03
843.778	12076.31
844.103	11954.28
844.427	11908.18
844.751	11964.9
845.075	11834.05
845.399	11844.67
845.723	11800.61
846.047	11793.38
846.371	11772.81
846.695	11732.59
847.019	11624.57
847.343	11622.08
847.666	11466.83
847.99	11532.14
848.313	11454.63
848.637	11360.62
848.96	11379.83
849.284	11368.3
849.607	11237.68
849.931	11224.58
850.254	11173.51
850.577	11080.17
850.9	11098.03
851.223	11048.99
851.546	11021.87
851.869	10930.35
852.192	10992.49
852.515	10889.22
852.838	10802.44
853.161	10786.85
853.483	10738.04
853.806	10706.17
854.129	10709.34
854.451	10657.36
854.774	10607.42
855.096	10556.12
855.419	10598.15
855.741	10513.41
856.063	10422.56
856.385	10468.21
856.708	10404.94
857.03	10324.71
857.352	10328.1
857.674	10343.7
857.996	10253.08
858.318	10275
858.64	10281.1
858.961	10204.72
859.283	10153.65
859.605	10152.06
859.926	10160.42
860.248	10145.06
860.57	10063.93
860.891	10013.54
861.212	10030.48
861.534	9972.63
861.855	10015.57
862.176	9987.77
862.498	9951.16
862.819	10017.15
863.14	9941
863.461	9869.59
863.782	9740.55
864.103	9766.99
864.424	9830.04
864.745	9805.41
865.065	9808.57
865.386	9664.39
865.707	9689.7
866.027	9736.03
866.348	9667.56
866.668	9696.48
866.989	9658.74
867.309	9604.06
867.63	9682.25
867.95	9561.12
868.27	9566.32
868.59	9618.97
868.91	9572.19
869.23	9612.87
869.55	9524.74
869.87	9558.18
870.19	9499.88
870.51	9475.92
870.83	9477.51
871.15	9480.67
871.469	9408.58
871.789	9455.58
872.109	9432.31
872.428	9379.65
872.748	9447.68
873.067	9368.81
873.386	9425.53
873.706	9346.89
874.025	9291.75
874.344	9244.97
874.663	9264.4
874.982	9255.14
875.301	9319.54
875.62	9267.79
875.939	9157.74
876.258	9211.3
876.577	9185.31
876.896	9178.76
877.214	9142.6
877.533	9130.85
877.852	9127.91
878.17	9187.12
878.489	9082.04
878.807	9145.54
879.125	9108.7
879.444	9114.12
879.762	9038.87
880.08	9087.68
880.398	9004.98
880.716	8985.77
881.034	8948.48
881.352	8905.99
881.67	8934.47
881.988	8908.48
882.306	8898.99
882.624	8882.94
882.941	8820.57
883.259	8840.01
883.577	8794.36
883.894	8803.85
884.212	8789.16
884.529	8747.81
884.846	8673.68
885.164	8685.44
885.481	8699.67
885.798	8710.52
886.115	8690.86
886.432	8681.14
886.75	8606.12
887.067	8594.14
887.383	8562.5
887.7	8577.87
888.017	8559.11
888.334	8529.28
888.651	8472.11
888.967	8495.61
889.284	8483.86
889.6	8508.04
889.917	8445.44
890.233	8390.3
890.55	8336.74
890.866	8326.35
891.182	8358.66
891.498	8321.38
891.815	8293.81
892.131	8262.85
892.447	8179.23
892.763	8197.76
893.079	8136.52
893.395	8103.53
893.71	8095.85
894.026	8094.94
894.342	8122.29
894.657	8030.99
894.973	8007.94
895.289	7975.85
895.604	7987.83
895.92	7885
896.235	7905.34
896.55	7870.99
896.865	7828.73
897.181	7849.53
897.496	7851.79
897.811	7793.71
898.126	7785.8
898.441	7695.86
898.756	7769.98
899.071	7694.05
899.386	7602.98
899.7	7587.16
900.015	7518.46
900.33	7549.19
900.644	7506.26
900.959	7521.4
901.273	7499.03
901.588	7448.41
901.902	7428.97
902.216	7369.54
902.531	7392.81
902.845	7329.31
903.159	7288.64
903.473	7273.95
903.787	7307.39
904.101	7222.42
904.415	7168.19
904.729	7203.89
905.042	7123.22
905.356	7087.06
905.67	7134.74
905.984	7051.81
906.297	7040.73
906.611	6998.25
906.924	6991.92
907.237	6959.61
907.551	6954.18
907.864	6951.24
908.177	6907.63
908.491	6918.02
908.804	6912.83
909.117	6762.77
909.43	6756.22
909.743	6742.44
910.056	6712.83
910.368	6717.35
910.681	6660.63
910.994	6605.94
911.307	6629.22
911.619	6560.07
911.932	6572.5
912.244	6540.86
912.557	6557.36
912.869	6513.97
913.181	6431.03
913.494	6442.56
913.806	6313.07
914.118	6353.75
914.43	6365.5
914.742	6358.49
915.054	6316.91
915.366	6263.58
915.678	6289.79
915.99	6213.18
916.302	6195.78
916.613	6203.92
916.925	6175.67
917.236	6132.96
917.548	6108.1
917.859	6101.55
918.171	6033.08
918.482	6015.68
918.794	6027.65
919.105	5985.39
919.416	5926.86
919.727	5939.74
920.038	5917.82
920.349	5890.25
920.66	5831.73
920.971	5856.36
921.282	5837.15
921.593	5768
921.903	5768
922.214	5779.75
922.525	5761.44
922.835	5660.43
923.146	5680.99
923.456	5608.23
923.767	5652.52
924.077	5611.84
924.387	5590.6
924.697	5541.34
925.008	5590.6
925.318	5516.25
925.628	5496.82
925.938	5455.69
926.248	5365.3
926.558	5373.88
926.867	5358.07
927.177	5384.51
927.487	5363.71
927.796	5309.48
928.106	5336.82
928.416	5246.66
928.725	5301.12
929.034	5262.93
929.344	5251.85
929.653	5246.2
929.962	5149.71
930.271	5164.85
930.581	5129.82
930.89	5152.2
931.199	5065.42
931.508	5079.43
931.817	5085.76
932.125	4995.14
932.434	4979.77
932.743	4960.34
933.051	4931.64
933.36	4914.91
933.669	4878.76
933.977	4878.53
934.286	4899.77
934.594	4857.74
934.902	4816.16
935.21	4798.31
935.519	4798.98
935.827	4794.46
936.135	4757.4
936.443	4662.04
936.751	4661.59
937.059	4649.84
937.367	4664.75
937.674	4637.18
937.982	4659.55
938.29	4593.79
938.597	4584.98
938.905	4540.46
939.213	4544.53
939.52	4574.81
939.827	4528.26
940.135	4457.75
940.442	4481.25
940.749	4452.33
941.056	4445.55
941.363	4459.56
941.67	4410.52
941.977	4403.06
942.284	4363.97
942.591	4408.26
942.898	4315.83
943.205	4368.49
943.511	4317.41
943.818	4284.87
944.125	4249.62
944.431	4258.66
944.738	4212.78
945.044	4199.45
945.35	4178.89
945.657	4160.36
945.963	4165.55
946.269	4137.31
946.575	4172.79
946.881	4126.69
947.187	4097.76
947.493	4056.63
947.799	4050.76
948.105	4043.98
948.41	4025.67
948.716	4000.13
949.022	3976.41
949.327	3975.73
949.633	3954.03
949.938	3932.79
950.244	3912.45
950.549	3898.22
950.854	3871.32
951.16	3844.21
951.465	3806.02
951.77	3785.9
952.075	3760.82
952.38	3778.22
952.685	3778.22
952.99	3738.9
953.294	3773.02
953.599	3718.56
953.904	3719.69
954.209	3713.14
954.513	3704.1
954.818	3667.94
955.122	3643.76
955.426	3628.17
955.731	3610.77
956.035	3615.74
956.339	3591.11
956.643	3603.08
956.948	3543.65
957.252	3571.45
957.556	3489.41
957.86	3544.55
958.163	3507.04
958.467	3492.58
958.771	3518.11
959.075	3441.28
959.378	3483.54
959.682	3467.49
959.985	3412.81
960.289	3388.17
960.592	3399.7
960.896	3360.38
961.199	3307.72
961.502	3367.61
961.805	3369.87
962.108	3305.46
962.411	3306.59
962.714	3271.11
963.017	3277.89
963.32	3310.44
963.623	3237.44
963.926	3258.23
964.228	3209.42
964.531	3173.94
964.833	3187.73
965.136	3209.2
965.438	3169.65
965.741	3105.92
966.043	3143.21
966.345	3139.14
966.648	3088.97
966.95	3052.36
967.252	3072.25
967.554	3031.12
967.856	3036.09
968.158	3058.24
968.46	2987.73
968.761	2978.69
969.063	3009.43
969.365	2956.77
969.666	2980.05
969.968	2921.97
970.269	2914.74
970.571	2954.06
970.872	2937.34
971.174	2879.49
971.475	2905.93
971.776	2861.41
972.077	2886.27
972.378	2843.1
972.679	2869.77
972.98	2833.84
973.281	2847.4
973.582	2790.22
973.883	2788.87
974.183	2784.8
974.484	2789.77
974.785	2759.94
975.085	2771.24
975.386	2768.98
975.686	2765.37
975.986	2719.04
976.287	2694.41
976.587	2689.66
976.887	2674.97
977.187	2662.54
977.487	2661.41
977.787	2647.4
978.087	2630.45
978.387	2637.46
978.687	2603.56
978.987	2609.44
979.286	2600.62
979.586	2600.85
979.885	2569.89
980.185	2584.58
980.484	2542.32
980.784	2542.32
981.083	2527.63
981.382	2514.98
981.682	2533.05
981.981	2481.98
982.28	2474.75
982.579	2472.72
982.878	2483.34
983.177	2475.88
983.475	2484.02
983.774	2421.65
984.073	2411.25
984.372	2454.86
984.67	2406.96
984.969	2406.96
985.267	2397.01
985.566	2348.43
985.864	2364.25
986.162	2336
986.461	2350.23
986.759	2320.41
987.057	2327.18
987.355	2331.48
987.653	2321.99
987.951	2266.62
988.249	2263.91
988.547	2274.53
988.844	2281.31
989.142	2286.96
989.44	2228.88
989.737	2221.88
990.035	2200.41
990.332	2204.25
990.63	2203.57
990.927	2190.69
991.224	2173.97
991.521	2155.89
991.819	2146.17
992.116	2119.28
992.413	2122.44
992.71	2145.72
993.006	2133.97
993.303	2104.59
993.6	2078.15
993.897	2098.04
994.193	2085.38
994.49	2072.05
994.787	2076.34
995.083	2006.97
995.379	2042.9
995.676	2025.05
995.972	2034.54
996.268	2008.1
996.565	2009.9
996.861	2005.39
997.157	1997.7
997.453	1977.36
997.749	1959.06
998.044	1937.14
998.34	1957.93
998.636	1951.38
998.932	1926.97
999.227	1912.96
999.523	1896.91
999.818	1899.17
1000.114	1905.05
1000.409	1866.18
1000.704	1872.51
1001	1855.78
1001.295	1823.47
1001.59	1825.5
1001.885	1828.21
1002.18	1840.42
1002.475	1817.59
1002.77	1809.46
1003.065	1797.03
1003.359	1796.13
1003.654	1771.49
1003.949	1755.67
1004.243	1780.31
1004.538	1733.08
1004.832	1731.27
1005.127	1709.57
1005.421	1713.87
1005.715	1696.69
1006.009	1689.46
1006.304	1692.17
1006.598	1662.34
1006.892	1638.16
1007.186	1633.19
1007.48	1658.5
1007.773	1662.8
1008.067	1620.08
1008.361	1611.95
1008.655	1618.5
1008.948	1602.23
1009.242	1609.01
1009.535	1582.12
1009.829	1547.09
1010.122	1552.29
1010.415	1558.39
1010.708	1560.88
1011.001	1536.47
1011.295	1542.35
1011.588	1533.99
1011.881	1523.14
1012.173	1509.58
1012.466	1499.64
1012.759	1508.45
1013.052	1494.44
1013.344	1463.03
1013.637	1458.51
1013.93	1479.3
1014.222	1417.83
1014.514	1437.04
1014.807	1454.67
1015.099	1424.84
1015.391	1423.71
1015.683	1432.29
1015.976	1419.19
1016.268	1420.77
1016.56	1380.32
1016.851	1416.02
1017.143	1381.67
1017.435	1357.94
1017.727	1370.37
1018.018	1341
1018.31	1354.55
1018.602	1339.64
1018.893	1329.02
1019.185	1309.36
1019.476	1305.74
1019.767	1317.72
1020.058	1273.65
1020.35	1267.33
1020.641	1264.84
1020.932	1267.33
1021.223	1265.52
1021.514	1265.07
1021.804	1246.54
1022.095	1237.04
1022.386	1232.98
1022.677	1195.91
1022.967	1214.67
1023.258	1195.69
1023.548	1203.6
1023.839	1184.62
1024.129	1210.6
1024.419	1190.72
1024.709	1164.28
1025	1147.78
1025.29	1162.47
1025.58	1156.37
1025.87	1133.32
1026.16	1143.71
1026.449	1122.02
1026.739	1115.24
1027.029	1135.58
1027.319	1139.19
1027.608	1094.9
1027.898	1125.86
1028.187	1072.75
1028.477	1093.54
1028.766	1063.26
1029.055	1072.3
1029.344	1083.83
1029.634	1034.56
1029.923	1023.04
1030.212	1025.52
1030.501	1017.16
1030.79	1040.89
1031.078	1025.3
1031.367	1009.03
1031.656	988.91
1031.945	1016.03
1032.233	989.14
1032.522	982.14
1032.81	996.37
1033.099	967.45
1033.387	984.62
1033.675	957.5
1033.963	976.03
1034.251	956.83
1034.54	952.53
1034.828	944.4
1035.116	929.71
1035.403	944.4
1035.691	917.5
1035.979	917.5
1036.267	915.47
1036.554	911.4
1036.842	894.45
1037.129	888.58
1037.417	886.77
1037.704	881.12
1037.992	882.93
1038.279	865.08
1038.566	853.1
1038.853	853.1
1039.14	853.1
