Data from hue_290_FLMS001491_00004.txt Node
Date: Tue Feb 07 15:52:07 GMT 2017
User: dcchb
Spectrometer: FLMS00149
Trigger mode: 0
Integration Time (sec): 2.000000E-2
Scans to average: 10
Electric dark correction enabled: true
Nonlinearity correction enabled: false
Boxcar width: 0
XAxis mode: Wavelengths
Number of Pixels in Spectrum: 2048
>>>>>Begin Spectral Data<<<<<
341.393	-11.45
341.776	-11.45
342.16	-11.45
342.543	-51.68
342.927	-59.81
343.31	-72.24
343.693	-53.94
344.077	-70.89
344.46	-77.44
344.843	-54.39
345.226	-49.87
345.61	-30.21
345.993	-18.91
346.376	4.59
346.759	20.86
347.142	28.09
347.525	53.4
347.908	61.09
348.291	60.63
348.674	82.78
349.057	116.45
349.44	123.46
349.823	157.35
350.206	171.14
350.588	170.46
350.971	207.07
351.354	212.49
351.737	222.89
352.119	230.57
352.502	268.31
352.884	278.26
353.267	274.41
353.65	287.29
354.032	290.46
354.414	319.38
354.797	304.92
355.179	323.23
355.562	282.55
355.944	314.19
356.326	356.67
356.709	344.92
357.091	322.77
357.473	334.75
357.855	355.77
358.238	353.51
358.62	332.72
359.002	347.18
359.384	350.34
359.766	331.14
360.148	340.85
360.53	337.24
360.912	317.58
361.294	316.67
361.676	319.61
362.057	344.02
362.439	311.02
362.821	327.97
363.203	329.55
363.584	323
363.966	311.7
364.348	317.58
364.729	304.7
365.111	325.03
365.493	340.4
365.874	320.29
366.256	327.75
366.637	319.16
367.019	299.05
367.4	302.89
367.781	290.23
368.163	309.89
368.544	331.36
368.925	291.14
369.306	310.12
369.688	323.45
370.069	287.52
370.45	301.31
370.831	294.98
371.212	322.1
371.593	325.94
371.974	302.66
372.355	301.08
372.736	299.05
373.117	304.02
373.498	318.48
373.879	324.81
374.26	308.09
374.641	303.79
375.021	318.25
375.402	311.93
375.783	326.39
376.163	309.22
376.544	308.76
376.925	318.71
377.305	317.8
377.686	315.32
378.066	340.63
378.447	317.8
378.827	322.55
379.208	314.19
379.588	326.62
379.968	322.1
380.349	316.45
380.729	345.15
381.109	334.75
381.489	325.03
381.87	336.11
382.25	328.65
382.63	333.17
383.01	338.37
383.39	350.57
383.77	354.64
384.15	353.06
384.53	337.24
384.91	334.53
385.29	365.71
385.67	334.07
386.049	340.63
386.429	357.8
386.809	338.14
387.189	348.08
387.568	358.25
387.948	357.8
388.328	359.38
388.707	341.76
389.087	358.93
389.466	376.11
389.846	354.86
390.225	367.52
390.605	367.29
390.984	395.99
391.363	388.31
391.743	357.8
392.122	374.07
392.501	379.04
392.881	364.13
393.26	376.78
393.639	381.98
394.018	361.64
394.397	382.66
394.776	379.5
395.155	401.42
395.534	386.73
395.913	391.47
396.292	396.22
396.671	400.96
397.05	390.34
397.429	381.76
397.808	416.78
398.186	386.05
398.565	411.36
398.944	396.22
399.323	431.25
399.701	414.07
400.08	415.43
400.458	425.6
400.837	400.29
401.215	447.52
401.594	425.82
401.972	420.17
402.351	434.18
402.729	410.46
403.107	419.27
403.486	461.53
403.864	447.97
404.242	418.82
404.62	429.21
404.999	452.26
405.377	455.88
405.755	468.31
406.133	462.88
406.511	464.47
406.889	459.04
407.267	484.35
407.645	494.07
408.023	501.75
408.401	490.68
408.779	491.58
409.156	484.8
409.534	493.62
409.912	506.05
410.29	522.54
410.667	550.79
411.045	533.39
411.422	554.18
411.8	561.64
412.178	560.96
412.555	562.77
412.933	573.39
413.31	566.16
413.687	588.98
414.065	597.34
414.442	592.82
414.819	591.24
415.197	612.26
415.574	605.93
415.951	620.39
416.328	620.39
416.705	647.29
417.082	646.16
417.46	619.49
417.837	661.52
418.214	673.95
418.591	675.99
418.967	695.87
419.344	688.19
419.721	679.37
420.098	710.56
420.475	691.13
420.852	735.87
421.228	732.25
421.605	713.5
421.982	730.9
422.358	732.25
422.735	760.73
423.111	771.58
423.488	779.71
423.864	791.91
424.241	791.24
424.617	805.47
424.994	805.25
425.37	813.16
425.746	843.44
426.123	841.86
426.499	842.31
426.875	832.14
427.251	868.75
427.627	888.41
428.003	899.26
428.379	889.31
428.756	888.86
429.132	904.45
429.507	907.17
429.883	932.25
430.259	959.14
430.635	975.41
431.011	978.8
431.387	1004.79
431.763	1032.81
432.138	1036.88
432.514	1007.73
432.89	1045.47
433.265	1069.2
433.641	1067.39
434.016	1087.05
434.392	1090.66
434.767	1094.96
435.143	1109.65
435.518	1126.14
435.894	1139.02
436.269	1168.18
436.644	1148.74
437.02	1168.85
437.395	1186.71
437.77	1188.97
438.145	1233.03
438.52	1241.17
438.895	1228.06
439.271	1253.82
439.646	1286.82
440.021	1256.53
440.395	1288.4
440.77	1266.7
441.145	1295.86
441.52	1317.32
441.895	1324.33
442.27	1331.56
442.645	1312.8
443.019	1332.46
443.394	1321.17
443.769	1363.42
444.143	1349.87
444.518	1350.77
444.892	1374.5
445.267	1384.89
445.641	1369.07
446.016	1406.14
446.39	1416.98
446.764	1423.99
447.139	1398.23
447.513	1416.98
447.887	1434.16
448.262	1415.17
448.636	1441.16
449.01	1449.3
449.384	1456.76
449.758	1446.36
450.132	1475.06
450.506	1469.41
450.88	1512.8
451.254	1492.46
451.628	1510.99
452.002	1536.3
452.376	1545.57
452.75	1552.35
453.123	1548.28
453.497	1528.39
453.871	1562.29
454.244	1580.14
454.618	1594.15
454.992	1626.92
455.365	1603.87
455.739	1649.74
456.112	1688.84
456.486	1650.87
456.859	1659.46
457.232	1683.42
457.606	1703.53
457.979	1714.15
458.352	1748.27
458.725	1750.08
459.099	1764.54
459.472	1779.23
459.845	1809.74
460.218	1814.26
460.591	1807.71
460.964	1807.25
461.337	1834.37
461.71	1879.8
462.083	1884.31
462.456	1885.44
462.829	1915.73
463.201	1949.85
463.574	1938.32
463.947	1935.84
464.32	1990.98
464.692	1992.79
465.065	2018.32
465.438	2037.53
465.81	2077.53
466.183	2044.76
466.555	2096.96
466.928	2113.91
467.3	2120.92
467.672	2136.29
468.045	2175.83
468.417	2164.08
468.789	2163.18
469.161	2208.15
469.534	2244.76
469.906	2255.15
470.278	2252.44
470.65	2288.37
471.022	2327.47
471.394	2330.4
471.766	2362.49
472.138	2386.22
472.51	2396.84
472.882	2467.12
473.253	2466.67
473.625	2503.06
473.997	2508.25
474.369	2512.77
474.74	2554.35
475.112	2556.16
475.484	2617.18
475.855	2659.89
476.227	2659.44
476.598	2715.25
476.97	2689.49
477.341	2770.85
477.713	2812.43
478.084	2807.91
478.455	2834.8
478.827	2926.32
479.198	2961.8
479.569	2969.71
479.94	3006.09
480.311	3029.14
480.682	3079.31
481.053	3112.53
481.424	3146.2
481.795	3192.76
482.166	3226.65
482.537	3235.69
482.908	3262.58
483.279	3298.97
483.65	3354.56
484.021	3412.18
484.391	3427.55
484.762	3456.25
485.133	3472.3
485.503	3503.93
485.874	3574.21
486.244	3561.11
486.615	3644.95
486.985	3675.91
487.356	3706.87
487.726	3750.71
488.097	3769.69
488.467	3810.59
488.837	3873.19
489.207	3904.83
489.578	3949.8
489.948	3899.63
490.318	4051.72
490.688	4031.6
491.058	4043.13
491.428	4091.26
491.798	4159.06
492.168	4209.68
492.538	4224.82
492.908	4255.78
493.278	4232.28
493.648	4235.89
494.017	4348.43
494.387	4331.48
494.757	4383.23
495.126	4410.8
495.496	4416
495.866	4454.64
496.235	4440.86
496.605	4526.73
496.974	4522.89
497.344	4565.37
497.713	4556.33
498.082	4632.94
498.452	4646.73
498.821	4666.61
499.19	4630.23
499.559	4710.68
499.928	4669.33
500.298	4709.33
500.667	4720.17
501.036	4752.04
501.405	4791.81
501.774	4815.09
502.143	4823.45
502.512	4801.98
502.88	4870.45
503.249	4878.59
503.618	4894.86
503.987	4874.52
504.356	4957.91
504.724	4913.84
505.093	4937.79
505.462	4987.28
505.83	5028.41
506.199	5062.31
506.567	5089.2
506.936	5055.76
507.304	5103.21
507.672	5107.05
508.041	5131.69
508.409	5185.47
508.777	5185.92
509.145	5202.19
509.514	5185.7
509.882	5229.31
510.25	5252.81
510.618	5263.44
510.986	5276.99
511.354	5361.29
511.722	5364.22
512.09	5398.35
512.458	5398.12
512.826	5410.55
513.193	5408.29
513.561	5394.28
513.929	5415.3
514.297	5493.94
514.664	5503.43
515.032	5483.54
515.4	5488.51
515.767	5526.93
516.135	5559.7
516.502	5467.5
516.869	5560.83
517.237	5597.66
517.604	5588.4
517.972	5678.11
518.339	5699.36
518.706	5640.15
519.073	5618.68
519.44	5662.29
519.808	5684.89
520.175	5737.09
520.542	5779.13
520.909	5782.74
521.276	5796.98
521.643	5818.45
522.009	5851.44
522.376	5828.84
522.743	5918.33
523.11	5872.91
523.477	5985
523.843	5989.97
524.21	6022.74
524.577	6077.88
524.943	6080.81
525.31	6049.18
525.676	6082.4
526.043	6175.5
526.409	6141.38
526.776	6258.66
527.142	6218.89
527.508	6266.57
527.874	6229.06
528.241	6326.68
528.607	6316.97
528.973	6367.13
529.339	6371.65
529.705	6449.17
530.071	6467.7
530.437	6465.66
530.803	6485.78
531.169	6543.4
531.535	6485.1
531.901	6500.46
532.267	6564.19
532.632	6581.37
532.998	6609.16
533.364	6661.36
533.73	6623.17
534.095	6712.44
534.461	6681.48
534.826	6746.11
535.192	6803.96
535.557	6823.85
535.923	6785.2
536.288	6749.05
536.653	6798.31
537.019	6797.41
537.384	6859.78
537.749	6824.98
538.114	6923.5
538.479	6916.5
538.845	6927.35
539.21	6924.86
539.575	7011.86
539.94	6998.08
540.305	7037.63
540.67	6982.49
541.034	7028.81
541.399	7100.45
541.764	7158.07
542.129	7105.19
542.494	7094.35
542.858	7184.06
543.223	7176.61
543.587	7223.84
543.952	7159.88
544.316	7220.45
544.681	7268.35
545.045	7277.17
545.41	7324.17
545.774	7337.28
546.138	7304.74
546.503	7329.82
546.867	7391.74
547.231	7444.39
547.595	7365.75
547.959	7461.8
548.324	7452.76
548.688	7406.43
549.052	7487.33
549.416	7484.17
549.779	7558.06
550.143	7535.24
550.507	7569.36
550.871	7620.89
551.235	7592.64
551.599	7610.94
551.962	7607.33
552.326	7699.76
552.689	7712.64
553.053	7679.64
553.417	7650.72
553.78	7780.43
554.143	7710.15
554.507	7757.83
554.87	7703.6
555.234	7818.17
555.597	7814.78
555.96	7813.65
556.323	7847.32
556.686	7874.67
557.05	7853.65
557.413	7888.45
557.776	7864.04
558.139	7919.41
558.502	7967.09
558.865	8017.03
559.228	7979.52
559.59	8046.86
559.953	8067.66
560.316	8148.1
560.679	8111.04
561.041	8147.65
561.404	8180.87
561.767	8223.13
562.129	8191.27
562.492	8262.9
562.854	8238.95
563.217	8301.32
563.579	8359.17
563.941	8350.36
564.304	8427.19
564.666	8428.55
565.028	8424.03
565.39	8444.14
565.753	8481.43
566.115	8533.86
566.477	8544.03
566.839	8554.2
567.201	8653.85
567.563	8592.61
567.925	8706.73
568.287	8732.04
568.648	8726.17
569.01	8738.37
569.372	8855.21
569.734	8781.31
570.095	8874.19
570.457	8877.8
570.819	8879.39
571.18	8939.72
571.542	8976.56
571.903	8930.23
572.265	9085.71
572.626	9072.6
572.987	9091.81
573.349	9152.15
573.71	9213.39
574.071	9184.91
574.432	9237.34
574.794	9330.45
575.155	9324.35
575.516	9300.39
575.877	9395.3
576.238	9474.17
576.599	9505.13
576.96	9513.04
577.32	9600.04
577.681	9629.2
578.042	9721.17
578.403	9650.44
578.763	9704.67
579.124	9822.19
579.485	10001.84
579.845	10019.47
580.206	10017.43
580.566	10114.83
580.927	10212.91
581.287	10288.61
581.648	10292.46
582.008	10419.68
582.368	10460.59
582.728	10549.4
583.089	10589.85
583.449	10702.84
583.809	10828.49
584.169	10925.66
584.529	10938.54
584.889	11185.09
585.249	11145.77
585.609	11197.74
585.969	11411.07
586.329	11460.79
586.688	11706.88
587.048	11713.89
587.408	11790.72
587.768	11924.5
588.127	12066.65
588.487	12157.49
588.846	12405.17
589.206	12441.78
589.565	12598.16
589.925	12675.22
590.284	12820.75
590.643	12961.76
591.003	13142.1
591.362	13269.78
591.721	13374.41
592.08	13520.17
592.44	13583.67
592.799	13883.1
593.158	13911.57
593.517	14012.58
593.876	14208.96
594.235	14294.84
594.593	14411.67
594.952	14582.74
595.311	14613.47
595.67	14801.26
596.029	15025.89
596.387	15173.68
596.746	15374.36
597.104	15339.33
597.463	15521.92
597.822	15678.53
598.18	15707.45
598.538	15782.48
598.897	16025.41
599.255	16070.83
599.613	16450.26
599.972	16404.84
600.33	16562.12
600.688	16546.3
601.046	16744.04
601.404	17010.7
601.762	16962.34
602.12	17194.19
602.478	17297.69
602.836	17383.57
603.194	17418.37
603.552	17539.5
603.91	17549.21
604.268	17736.78
604.625	17858.13
604.983	17982.65
605.341	17876.89
605.698	18079.14
606.056	18276.43
606.413	18363.66
606.771	18440.49
607.128	18485.01
607.485	18522.75
607.843	18639.81
608.2	18881.38
608.557	18965.67
608.914	18912.79
609.272	19084.54
609.629	19196.18
609.986	19283.63
610.343	19257.87
610.7	19503.29
611.057	19523.17
611.414	19485.21
611.771	19635.03
612.127	19757.97
612.484	19798.87
612.841	19939.43
613.198	19893.78
613.554	19958.87
613.911	20104.4
614.267	20127.45
614.624	20132.65
614.98	20293.1
615.337	20377.84
615.693	20378.29
616.05	20374.22
616.406	20543.26
616.762	20470.94
617.118	20516.37
617.475	20541.45
617.831	20648.34
618.187	20787.09
618.543	20696.7
618.899	20974.89
619.255	20962.68
619.611	20921.33
619.967	21063.7
620.323	21121.32
620.678	21033.42
621.034	20985.96
621.39	21081.55
621.746	21103.24
622.101	21452.61
622.457	21104.37
622.812	21265.73
623.168	21383.46
623.523	21419.85
623.879	21444.7
624.234	21326.52
624.589	21529.45
624.945	21551.37
625.3	21493.29
625.655	21457.81
626.01	21531.71
626.365	21586.17
626.72	21640.86
627.075	21577.58
627.43	21649.67
627.785	21511.14
628.14	21547.53
628.495	21674.98
628.85	21674.53
629.205	21524.93
629.559	21742.55
629.914	21567.64
630.269	21640.86
630.623	21547.75
630.978	21491.48
631.332	21686.73
631.687	21737.35
632.041	21669.56
632.396	21617.81
632.75	21555.21
633.104	21595.89
633.459	21614.64
633.813	21596.56
634.167	21564.02
634.521	21485.61
634.875	21506.17
635.229	21510.24
635.583	21338.72
635.937	21482.67
636.291	21387.53
636.645	21455.55
636.999	21348.66
637.352	21352.96
637.706	21335.78
638.06	21403.12
638.413	21354.09
638.767	21380.98
639.121	21341.66
639.474	21249.46
639.828	21215.33
640.181	21295.56
640.534	21288.55
640.888	21260.98
641.241	21240.64
641.594	21173.53
641.947	21389.11
642.301	21258.49
642.654	21277.25
643.007	21298.04
643.36	21327.42
643.713	21312.05
644.066	21309.11
644.419	21145.96
644.771	21050.14
645.124	20857.6
645.477	20851.05
645.83	20681.33
646.182	20705.74
646.535	20615.57
646.888	20597.95
647.24	20548.91
647.593	20691.73
647.945	20579.87
648.298	20654.67
648.65	20502.58
649.002	20495.12
649.355	20665.52
649.707	20547.55
650.059	20683.59
650.411	20836.36
650.763	20948.9
651.115	21150.02
651.467	21086.52
651.819	21020.76
652.171	21002.23
652.523	21043.36
652.875	20927.43
653.227	20855.79
653.578	21077.03
653.93	20901.67
654.282	20917.03
654.633	20900.99
654.985	21014.66
655.337	20937.6
655.688	20868.67
656.039	21090.14
656.391	20946.19
656.742	21029.35
657.094	20914.32
657.445	21145.96
657.796	20976.24
658.147	20987.54
658.498	20891.72
658.849	21072.51
659.2	21032.51
659.551	20945.51
659.902	21160.19
660.253	20956.58
660.604	21111.61
660.955	20992.51
661.306	21027.54
661.656	21011.95
662.007	21059.18
662.358	20991.84
662.708	20979.41
663.059	21053.3
663.409	21009.91
663.76	21204.03
664.11	21104.15
664.461	21121.55
664.811	21133.98
665.161	21154.32
665.511	21026.18
665.862	21117.26
666.212	21181.21
666.562	21187.31
666.912	21123.36
667.262	21113.64
667.612	21085.17
667.962	21153.41
668.312	21004.49
668.662	21218.5
669.011	21014.66
669.361	21070.93
669.711	20991.84
670.06	21052.62
670.41	21020.08
670.76	20938.28
671.109	20990.25
671.459	21004.72
671.808	20964.27
672.157	21130.81
672.507	20769.24
672.856	20884.95
673.205	20907.09
673.554	21030.03
673.904	20919.52
674.253	21001.78
674.602	21004.04
674.951	20609.92
675.3	20511.62
675.649	20914.1
675.998	20851.73
676.346	20836.13
676.695	20959.07
677.044	20789.13
677.393	20779.86
677.741	20842.01
678.09	20760.88
678.438	20653.31
678.787	20655.8
679.135	20673.43
679.484	20612.18
679.832	20683.37
680.181	20500.32
680.529	20587.33
680.877	20542.36
681.225	20462.81
681.573	20586.87
681.922	20326.99
682.27	20388.01
682.618	20344.39
682.966	20329.25
683.314	20387.33
683.661	20348.01
684.009	20150.05
684.357	20138.52
684.705	20162.48
685.053	20063.5
685.4	20115.7
685.748	20000.22
686.095	20014.91
686.443	19898.3
686.79	19896.27
687.138	19870.28
687.485	19939.89
687.832	19781.25
688.18	19847.68
688.527	19770.85
688.874	19755.48
689.221	19671.42
689.568	19647.69
689.915	19525.66
690.262	19488.15
690.609	19476.62
690.956	19394.14
691.303	19325.21
691.65	19235.95
691.997	19310.98
692.344	19040.7
692.69	19082.73
693.037	18994.15
693.383	18960.48
693.73	18982.4
694.077	18866.02
694.423	18836.19
694.769	18744.44
695.116	18705.12
695.462	18682.74
695.808	18645
696.155	18646.36
696.501	18503.54
696.847	18550.54
697.193	18369.98
697.539	18431
697.885	18277.33
698.231	18206.82
698.577	18145.13
698.923	18118.69
699.269	18012.03
699.614	17936.77
699.96	17863.78
700.306	17898.36
700.651	17784.91
700.997	17813.16
701.342	17711.7
701.688	17685.71
702.033	17547.63
702.379	17661.3
702.724	17416.11
703.069	17535.65
703.415	17391.7
703.76	17341.54
704.105	17354.42
704.45	17241.65
704.795	17126.17
705.14	17085.5
705.485	17010.02
705.83	16938.38
706.175	16987.87
706.52	16941.09
706.865	16847.09
707.209	16766.18
707.554	16697.48
707.899	16777.26
708.243	16700.65
708.588	16661.78
708.932	16564.15
709.277	16488
709.621	16445.06
709.966	16473.99
710.31	16385.4
710.654	16266.08
710.998	16315.35
711.342	16374.78
711.687	16257.27
712.031	16231.51
712.375	16198.74
712.719	16160.1
713.063	16116.48
713.407	16160.32
713.75	16009.59
714.094	16079.87
714.438	15927.34
714.782	15989.93
715.125	15897.51
715.469	15947.9
715.812	15823.84
716.156	15675.59
716.499	15823.16
716.843	15823.16
717.186	15694.8
717.53	15754.46
717.873	15713.56
718.216	15668.36
718.559	15636.27
718.902	15553.79
719.246	15613.9
719.589	15512.21
719.932	15477.4
720.275	15448.7
720.617	15411.87
720.96	15425.2
721.303	15413
721.646	15566.21
721.989	15309.72
722.331	15437.63
722.674	15359.89
723.016	15318.31
723.359	15271.31
723.701	15320.8
724.044	15226.79
724.386	15178.65
724.729	15252.78
725.071	15232.66
725.413	15246
725.755	15198.99
726.097	15235.15
726.439	15048.04
726.782	15002.84
727.124	15270.86
727.465	15042.84
727.807	15006.46
728.149	15025.21
728.491	15010.52
728.833	15106.57
729.175	15058.88
729.516	14925.55
729.858	14982.5
730.199	15027.25
730.541	14922.16
730.882	14975.95
731.224	14990.64
731.565	14833.8
731.906	14977.3
732.248	14963.97
732.589	14873.8
732.93	14895.5
733.271	14931.2
733.612	14924.65
733.953	14946.12
734.294	14892.33
734.635	14896.4
734.976	14925.1
735.317	14947.02
735.658	14852.34
735.999	14905.67
736.339	14804.88
736.68	14851.43
737.021	14913.58
737.361	14852.34
737.702	14884.2
738.042	14890.3
738.383	14809.4
738.723	14847.59
739.063	14896.18
739.404	14903.63
739.744	14931.2
740.084	14902.5
740.424	14895.05
740.764	14886.68
741.104	15043.52
741.444	14911.32
741.784	14820.47
742.124	14936.85
742.464	14933.24
742.804	14933.46
743.143	14941.82
743.483	14944.76
743.823	14899.34
744.162	14977.3
744.502	14937.76
744.841	15051.43
745.181	15123.06
745.52	15041.71
745.86	15144.08
746.199	15152.67
746.538	15195.6
746.877	15291.65
747.216	15257.97
747.556	15407.58
747.895	15383.62
748.234	15356.28
748.573	15350.18
748.911	15470.85
749.25	15584.97
749.589	15646.66
749.928	15653.22
750.267	15808.02
750.605	15784.97
750.944	15861.12
751.283	15913.55
751.621	16026.99
751.96	16015.24
752.298	16139.08
752.636	16257.95
752.975	16269.02
753.313	16373.88
753.651	16561.67
753.989	16518.28
754.327	16545.4
754.666	16655
755.004	16856.12
755.342	16969.79
755.679	16984.26
756.017	17148.55
756.355	17349.67
756.693	17247.98
757.031	17588.31
757.368	17519.84
757.706	17656.33
758.044	17713.05
758.381	17911.01
758.719	17944.68
759.056	18132.25
759.394	18174.06
759.731	18212.93
760.068	18288.4
760.405	18529.98
760.743	18490.21
761.08	18758.45
761.417	18851.78
761.754	18966.58
762.091	19094.48
762.428	18968.84
762.765	19041.83
763.102	19312.33
763.438	19323.4
763.775	19324.08
764.112	19424.87
764.449	19628.48
764.785	19686.56
765.122	19691.53
765.458	19682.26
765.795	19868.25
766.131	19852.2
766.467	19941.47
766.804	19910.06
767.14	19968.59
767.476	20071.63
767.812	20079.32
768.148	20270.05
768.485	20169.03
768.821	20101.69
769.157	20233.66
769.492	20305.75
769.828	20370.16
770.164	20303.49
770.5	20322.7
770.836	20439.08
771.171	20281.8
771.507	20401.34
771.842	20353.43
772.178	20414
772.513	20375.58
772.849	20372.42
773.184	20360.67
773.519	20441.34
773.855	20372.19
774.19	20415.13
774.525	20334.68
774.86	20442.47
775.195	20449.93
775.53	20387.33
775.865	20304.4
776.2	20231.63
776.535	20091.07
776.87	20253.32
777.205	20176.26
777.539	20122.71
777.874	20207.67
778.209	20040
778.543	19997.28
778.878	20116.15
779.212	20011.52
779.547	19981.69
779.881	20034.35
780.215	19972.88
780.55	19986.89
780.884	19987.12
781.218	19866.89
781.552	19922.48
781.886	19712.55
782.22	19728.14
782.554	19654.24
782.888	19430.29
783.222	19531.53
783.556	19526.79
783.889	19432.55
784.223	19330.64
784.557	19270.3
784.89	19404.76
785.224	19270.52
785.557	19212.45
785.891	19147.36
786.224	19164.54
786.558	19092.9
786.891	18998.67
787.224	18797.77
787.557	18868.95
787.891	18848.61
788.224	18838.67
788.557	18827.37
788.89	18727.49
789.223	18788.96
789.556	18602.07
789.888	18577.89
790.221	18566.59
790.554	18304.67
790.887	18494.5
791.219	18361.17
791.552	18380.38
791.884	18270.1
792.217	18286.82
792.549	18151.46
792.882	18052.03
793.214	17975.87
793.546	18068.52
793.879	17919.83
794.211	17850
794.543	17886.83
794.875	17808.64
795.207	17832.37
795.539	17772.94
795.871	17700.4
796.203	17605.03
796.535	17574.75
796.867	17471.93
797.198	17419.73
797.53	17440.06
797.862	17297.69
798.193	17466.5
798.525	17252.72
798.856	17326.85
799.188	17109
799.519	17031.26
799.85	16875.33
800.182	17061.54
800.513	17050.92
800.844	16857.25
801.175	16918.27
801.506	16890.25
801.837	16842.11
802.168	16719.63
802.499	16771.61
802.83	16596.7
803.161	16593.76
803.491	16558.73
803.822	16509.24
804.153	16488.45
804.483	16395.12
804.814	16296.59
805.145	16357.38
805.475	16337.95
805.805	16176.59
806.136	16277.38
806.466	16222.02
806.796	16140.66
807.126	16038.52
807.457	16005.07
807.787	16046.88
808.117	15928.69
808.447	15895.25
808.777	15969.59
809.107	15918.07
809.436	15788.36
809.766	15861.57
810.096	15741.58
810.426	15714.23
810.755	15641.24
811.085	15673.56
811.414	15602.37
811.744	15475.82
812.073	15475.14
812.403	15463.62
812.732	15372.55
813.061	15399.21
813.39	15292.32
813.719	15241.93
814.049	15296.62
814.378	15310.63
814.707	15189.28
815.036	15107.7
815.365	15041.03
815.693	15002.16
816.022	14990.86
816.351	15014.14
816.68	14846.91
817.008	14980.47
817.337	14805.78
817.665	14786.12
817.994	14711.77
818.322	14813.47
818.651	14782.28
818.979	14609.4
819.307	14723.75
819.636	14716.52
819.964	14527.37
820.292	14609.4
820.62	14581.38
820.948	14558.78
821.276	14670.87
821.604	14495.73
821.932	14539.12
822.259	14552.46
822.587	14545.45
822.915	14513.59
823.243	14656.18
823.57	14530.99
823.898	14509.75
824.225	14502.74
824.553	14449.86
824.88	14547.71
825.207	14581.16
825.535	14484.21
825.862	14461.84
826.189	14451.89
826.516	14594.72
826.843	14554.49
827.17	14514.27
827.497	14452.12
827.824	14509.52
828.151	14612.79
828.478	14545.68
828.805	14658.89
829.131	14465
829.458	14433.59
829.785	14486.92
830.111	14432.46
830.438	14462.29
830.764	14470.65
831.09	14479.01
831.417	14373.7
831.743	14463.19
832.069	14540.71
832.395	14382.29
832.722	14415.96
833.048	14434.95
833.374	14439.01
833.7	14269.75
834.026	14332.35
834.351	14379.81
834.677	14335.74
835.003	14338.9
835.329	14366.25
835.654	14302.07
835.98	14264.78
836.306	14321.5
836.631	14271.33
836.956	14258.9
837.282	14251.9
837.607	14180.71
837.932	14171
838.258	14127.16
838.583	14158.79
838.908	14043.77
839.233	14075.86
839.558	13994.28
839.883	13932.13
840.208	14029.53
840.533	13902.76
840.858	13947.05
841.182	14026.82
841.507	13881.74
841.832	13841.51
842.156	13877.9
842.481	13798.13
842.805	13846.71
843.13	13753.38
843.454	13708.64
843.778	13647.17
844.103	13683.33
844.427	13724
844.751	13642.42
845.075	13565.14
845.399	13558.13
845.723	13434.52
846.047	13510
846.371	13321.53
846.695	13280.17
847.019	13317.69
847.343	13176
847.666	13105.94
847.99	13108.88
848.313	13029.78
848.637	12944.14
848.96	12989.79
849.284	12893.06
849.607	12808.32
849.931	12746.63
850.254	12693.3
850.577	12617.59
850.9	12541.89
851.223	12570.14
851.546	12546.18
851.869	12481.32
852.192	12482.68
852.515	12378.05
852.838	12279.97
853.161	12250.14
853.483	12256.25
853.806	12152.29
854.129	12134.21
854.451	12117.72
854.774	12090.37
855.096	11997.5
855.419	11964.28
855.741	11977.61
856.063	11921.34
856.385	11930.38
856.708	11834.11
857.03	11749.82
857.352	11854.67
857.674	11773.77
857.996	11734.9
858.318	11622.59
858.64	11634.57
858.961	11545.98
859.283	11556.6
859.605	11459.2
859.926	11536.72
860.248	11432.76
860.57	11493.33
860.891	11468.92
861.212	11409.26
861.534	11336.5
861.855	11341.24
862.176	11342.37
862.498	11334.24
862.819	11351.86
863.14	11288.14
863.461	11292.43
863.782	11240.68
864.103	11296.72
864.424	11185.09
864.745	11233.45
865.065	11100.34
865.386	11093.79
865.707	11069.16
866.027	11109.38
866.348	11122.04
866.668	11130.17
866.989	11023.28
867.309	10966.56
867.63	11001.59
867.95	10958.43
868.27	10934.02
868.59	10911.42
868.91	10873.68
869.23	10904.19
869.55	10833.23
869.87	10862.84
870.19	10816.06
870.51	10810.41
870.83	10826.9
871.15	10789.84
871.469	10752.56
871.789	10777.19
872.109	10720.01
872.428	10707.59
872.748	10687.47
873.067	10698.55
873.386	10692.9
873.706	10640.69
874.025	10539.23
874.344	10603.18
874.663	10632.33
874.982	10577.19
875.301	10525.44
875.62	10542.84
875.939	10567.7
876.258	10512.34
876.577	10511.88
876.896	10477.54
877.214	10459
877.533	10426.24
877.852	10396.41
878.17	10370.42
878.489	10393.02
878.807	10355.5
879.125	10311.44
879.444	10325.45
879.762	10280.7
880.08	10301.49
880.398	10266.24
880.716	10296.07
881.034	10281.61
881.352	10239.12
881.67	10188.5
881.988	10224.43
882.306	10143.08
882.624	10109.18
882.941	10055.4
883.259	10068.96
883.577	10084.1
883.894	10098.11
884.212	10044.55
884.529	9963.88
884.846	9919.58
885.164	9901.28
885.481	9887.95
885.798	9912.35
886.115	9781.73
886.432	9798.01
886.75	9752.81
887.067	9795.52
887.383	9808.17
887.7	9746.71
888.017	9696.09
888.334	9741.28
888.651	9680.27
888.967	9718.46
889.284	9569.76
889.6	9634.39
889.917	9502.19
890.233	9545.13
890.55	9487.5
890.866	9501.97
891.182	9509.43
891.498	9421.29
891.815	9413.16
892.131	9326.38
892.447	9301.52
892.763	9269.88
893.079	9253.39
893.395	9218.36
893.71	9176.78
894.026	9313.05
894.342	9170.68
894.657	9154.86
894.973	9140.62
895.289	9110.34
895.604	9102.66
895.92	9038.25
896.235	8972.26
896.55	9014.75
896.865	8945.15
897.181	8898.14
897.496	8934.07
897.811	8849.78
898.126	8815.21
898.441	8751.7
898.756	8773.85
899.071	8679.16
899.386	8721.65
899.7	8675.1
900.015	8604.82
900.33	8571.6
900.644	8586.96
900.959	8500.19
901.273	8517.13
901.588	8527.98
901.902	8429
902.216	8389.23
902.531	8362.56
902.845	8305.61
903.159	8272.62
903.473	8251.38
903.787	8209.57
904.101	8172.06
904.415	8214.77
904.729	8200.08
905.042	8074.21
905.356	8128.9
905.67	8055.9
905.984	8004.83
906.297	8037.6
906.611	8037.15
906.924	7977.04
907.237	7945.17
907.551	7861.56
907.864	7841.45
908.177	7894.33
908.491	7815.23
908.804	7780.88
909.117	7771.62
909.43	7697.5
909.743	7651.39
910.056	7597.61
910.368	7655.91
910.681	7649.36
910.994	7589.25
911.307	7602.13
911.619	7455.24
911.932	7503.38
912.244	7395.58
912.557	7372.53
912.869	7393.1
913.181	7352.65
913.494	7361.91
913.806	7277.39
914.118	7282.82
914.43	7185.19
914.742	7199.88
915.054	7115.59
915.366	7097.51
915.678	7043.95
915.99	7050.96
916.302	7001.24
916.613	6991.3
916.925	6961.7
917.236	6935.93
917.548	6891.41
917.859	6876.05
918.171	6927.8
918.482	6873.79
918.794	6827.91
919.105	6816.16
919.416	6772.77
919.727	6740.68
920.038	6711.31
920.349	6631.53
920.66	6653.45
920.971	6611.2
921.282	6582.5
921.593	6562.84
921.903	6535.49
922.214	6477.64
922.525	6449.17
922.835	6413.46
923.146	6430.64
923.456	6394.25
923.767	6368.04
924.077	6349.96
924.387	6294.59
924.697	6313.8
925.008	6261.6
925.318	6254.82
925.628	6194.48
925.938	6191.09
926.248	6149.29
926.558	6162.17
926.867	6079.46
927.177	6085.56
927.487	6055.05
927.796	6009.18
928.106	5938.67
928.416	5979.8
928.725	5943.64
929.034	5892.8
929.344	5875.4
929.653	5860.26
929.962	5813.7
930.271	5812.12
930.581	5781.39
930.89	5737.09
931.199	5730.32
931.508	5694.84
931.817	5718.11
932.125	5723.76
932.434	5668.17
932.743	5632.92
933.051	5573.94
933.36	5590.21
933.669	5501.39
933.977	5498.68
934.286	5514.95
934.594	5469.98
934.902	5478.8
935.21	5361.51
935.519	5411.45
935.827	5385.92
936.135	5362.19
936.443	5296.88
936.751	5297.11
937.059	5323.77
937.367	5282.87
937.674	5276.54
937.982	5265.47
938.29	5238.58
938.597	5213.94
938.905	5143.66
939.213	5124.46
939.52	5081.74
939.827	5118.81
940.135	5102.54
940.442	5044.01
940.749	5031.12
941.056	5031.58
941.363	4972.37
941.67	4973.5
941.977	4921.75
942.284	4867.06
942.591	4895.54
942.898	4830
943.205	4862.54
943.511	4875.65
943.818	4840.62
944.125	4807.63
944.431	4763.11
944.738	4756.1
945.044	4754.75
945.35	4703
945.657	4618.93
945.963	4627.07
946.269	4627.52
946.575	4595.66
946.881	4627.97
947.187	4602.66
947.493	4545.49
947.799	4521.99
948.105	4529.9
948.41	4536.67
948.716	4507.97
949.022	4428.43
949.327	4472.95
949.633	4411.71
949.938	4413.97
950.244	4430.69
950.549	4404.25
950.854	4368.54
951.16	4326.28
951.465	4331.26
951.77	4296.45
952.075	4304.59
952.38	4268.21
952.685	4223.46
952.99	4218.26
953.294	4213.07
953.599	4165.84
953.904	4170.81
954.209	4141.88
954.513	4114.54
954.818	4110.25
955.122	4137.59
955.426	4088.1
955.731	4076.57
956.035	4021.66
956.339	4045.61
956.643	4038.83
956.948	3945.05
957.252	3952.28
957.556	3959.97
957.86	3942.11
958.163	3923.81
958.467	3953.64
958.771	3886.97
959.075	3880.87
959.378	3846.98
959.682	3897.82
959.985	3840.87
960.289	3800.87
960.592	3838.61
960.896	3800.87
961.199	3715.45
961.502	3723.36
961.805	3734.89
962.108	3715.91
962.411	3701.44
962.714	3683.36
963.017	3665.06
963.32	3675.68
963.623	3645.4
963.926	3641.78
964.228	3611.05
964.531	3606.53
964.833	3576.02
965.136	3552.52
965.438	3529.02
965.741	3523.14
966.043	3489.7
966.345	3522.24
966.648	3488.11
966.95	3470.26
967.252	3480.66
967.554	3467.32
967.856	3392.52
968.158	3428.23
968.46	3415.12
968.761	3393.43
969.063	3360.66
969.365	3330.15
969.666	3357.5
969.968	3298.51
970.269	3323.37
970.571	3296.03
970.872	3284.05
971.174	3293.54
971.475	3208.35
971.776	3199.31
972.077	3216.03
972.378	3222.13
972.679	3206.77
972.98	3174.22
973.281	3153.66
973.582	3195.01
973.883	3173.77
974.183	3113.66
974.484	3090.16
974.785	3077.96
975.085	3102.59
975.386	3079.31
975.686	3053.32
975.986	3022.36
976.287	3026.66
976.587	2981.46
976.887	3001.12
977.187	2979.88
977.487	2956.83
977.787	2983.04
978.087	2928.81
978.387	2889.26
978.687	2887.45
978.987	2926.32
979.286	2904.18
979.586	2879.77
979.885	2884.74
980.185	2825.76
980.484	2830.28
980.784	2819.66
981.083	2778.75
981.382	2800.9
981.682	2802.48
981.981	2785.99
982.28	2738.76
982.579	2771.75
982.878	2761.81
983.177	2730.85
983.475	2736.72
983.774	2684.07
984.073	2689.04
984.372	2698.3
984.67	2679.32
984.969	2663.73
985.267	2654.69
985.566	2626.22
985.864	2608.82
986.162	2597.97
986.461	2588.48
986.759	2604.97
987.057	2592.32
987.355	2544.18
987.653	2564.52
987.951	2513
988.249	2523.85
988.547	2489.5
988.844	2468.93
989.142	2498.08
989.44	2446.33
989.737	2469.84
990.035	2442.27
990.332	2432.1
990.63	2448.14
990.927	2416.73
991.224	2419.67
991.521	2369.73
991.819	2420.12
992.116	2392.1
992.413	2342.38
992.71	2357.75
993.006	2356.39
993.303	2355.49
993.6	2342.38
993.897	2283.4
994.193	2289.05
994.49	2329.73
994.787	2272.55
995.083	2262.61
995.379	2247.02
995.676	2269.39
995.972	2227.58
996.268	2229.16
996.565	2222.61
996.861	2209.05
997.157	2216.06
997.453	2144.87
997.749	2158.88
998.044	2153.91
998.34	2139
998.636	2165.44
998.932	2118.66
999.227	2110.3
999.523	2086.8
999.818	2079.11
1000.114	2090.41
1000.409	2072.11
1000.704	2065.55
1001	2048.83
1001.295	2035.72
1001.59	2055.38
1001.885	2038.89
1002.18	2012.22
1002.475	1965.44
1002.77	1974.48
1003.065	1948.27
1003.359	1956.63
1003.654	1951.66
1003.949	1916.86
1004.243	1924.99
1004.538	1911.66
1004.832	1894.26
1005.127	1900.81
1005.421	1917.76
1005.715	1867.82
1006.009	1864.43
1006.304	1840.7
1006.598	1843.64
1006.892	1803.64
1007.186	1819.23
1007.48	1801.61
1007.773	1821.72
1008.067	1808.16
1008.361	1758.22
1008.655	1773.58
1008.948	1761.83
1009.242	1774.71
1009.535	1756.18
1009.829	1739.46
1010.122	1702.85
1010.415	1707.37
1010.708	1689.07
1011.001	1689.74
1011.295	1700.82
1011.588	1660.82
1011.881	1655.39
1012.173	1646.36
1012.466	1623.76
1012.759	1646.36
1013.052	1636.86
1013.344	1621.5
1013.637	1607.94
1013.93	1586.47
1014.222	1584.21
1014.514	1582.18
1014.807	1586.02
1015.099	1557.77
1015.391	1558.67
1015.683	1545.11
1015.976	1518.45
1016.268	1522.06
1016.56	1506.92
1016.851	1510.09
1017.143	1514.38
1017.435	1467.15
1017.727	1499.47
1018.018	1487.26
1018.31	1451.78
1018.602	1463.31
1018.893	1442.29
1019.185	1437.77
1019.476	1412.46
1019.767	1419.69
1020.058	1383.99
1020.35	1406.36
1020.641	1376.53
1020.932	1378.11
1021.223	1379.02
1021.514	1358
1021.804	1346.93
1022.095	1325.46
1022.386	1324.33
1022.677	1318
1022.967	1302.86
1023.258	1297.89
1023.548	1279.58
1023.839	1282.75
1024.129	1291.11
1024.419	1300.38
1024.709	1268.74
1025	1275.07
1025.29	1251.79
1025.58	1244.78
1025.87	1228.74
1026.16	1202.3
1026.449	1225.35
1026.739	1203.43
1027.029	1209.76
1027.319	1201.85
1027.608	1198.01
1027.898	1167.5
1028.187	1148.06
1028.477	1142.87
1028.766	1173.15
1029.055	1177.89
1029.344	1161.17
1029.634	1139.25
1029.923	1110.1
1030.212	1094.51
1030.501	1106.93
1030.79	1095.18
1031.078	1089.76
1031.367	1086.82
1031.656	1058.35
1031.945	1094.73
1032.233	1054.73
1032.522	1066.48
1032.81	1052.7
1033.099	1073.49
1033.387	1046.6
1033.675	1028.74
1033.963	1031.91
1034.251	1046.6
1034.54	1028.74
1034.828	1013.38
1035.116	1017.67
1035.403	1026.03
1035.691	1014.96
1035.979	984.45
1036.267	970.44
1036.554	966.6
1036.842	956.66
1037.129	963.21
1037.417	957.56
1037.704	936.32
1037.992	947.16
1038.279	953.27
1038.566	927.05
1038.853	927.05
1039.14	927.05
