Data from hue_140_FLMS001491_00064.txt Node
Date: Tue Feb 07 16:56:15 GMT 2017
User: dcchb
Spectrometer: FLMS00149
Trigger mode: 0
Integration Time (sec): 2.000000E-2
Scans to average: 10
Electric dark correction enabled: true
Nonlinearity correction enabled: false
Boxcar width: 0
XAxis mode: Wavelengths
Number of Pixels in Spectrum: 2048
>>>>>Begin Spectral Data<<<<<
341.393	-24.83
341.776	-24.83
342.16	-24.83
342.543	-54.21
342.927	-64.83
343.31	-78.16
343.693	-67.09
344.077	-81.33
344.46	-56.24
344.843	-45.62
345.226	-60.31
345.61	-7.66
345.993	-11.72
346.376	-4.72
346.759	13.59
347.142	22.63
347.525	51.33
347.908	54.26
348.291	84.77
348.674	64.89
349.057	121.38
349.44	144.66
349.823	137.43
350.206	182.62
350.588	184.2
350.971	194.83
351.354	223.3
351.737	246.8
352.119	236.63
352.502	256.07
352.884	268.27
353.267	265.11
353.65	297.65
354.032	272.34
354.414	287.03
354.797	312.34
355.179	304.2
355.562	328.61
355.944	347.59
356.326	318.66
356.709	339.68
357.091	320.02
357.473	328.38
357.855	314.82
358.238	344.65
358.62	329.74
359.002	337.42
359.384	336.74
359.766	354.82
360.148	344.65
360.53	350.98
360.912	337.87
361.294	348.72
361.676	334.03
362.057	298.33
362.439	320.92
362.821	333.35
363.203	310.75
363.584	317.53
363.966	317.31
364.348	318.21
364.729	330.42
365.111	331.09
365.493	315.5
365.874	300.81
366.256	329.96
366.637	325.67
367.019	301.49
367.4	330.87
367.781	305.33
368.163	306.23
368.544	319.57
368.925	309.4
369.306	323.86
369.688	319.57
370.069	316.63
370.45	313.47
370.831	299.46
371.212	303.52
371.593	319.79
371.974	308.95
372.355	308.49
372.736	314.82
373.117	327.03
373.498	312.11
373.879	319.12
374.26	306.69
374.641	293.58
375.021	328.83
375.402	317.99
375.783	318.21
376.163	334.03
376.544	324.77
376.925	348.04
377.305	327.25
377.686	342.62
378.066	320.92
378.447	331.77
378.827	329.06
379.208	325.22
379.588	329.06
379.968	325.9
380.349	320.47
380.729	318.21
381.109	317.76
381.489	327.25
381.87	332.67
382.25	330.64
382.63	333.13
383.01	337.65
383.39	335.16
383.77	313.24
384.15	349.62
384.53	355.05
384.91	350.3
385.29	345.78
385.67	350.75
386.049	341.04
386.429	343.97
386.809	370.19
387.189	371.09
387.568	339.23
387.948	353.92
388.328	353.47
388.707	366.8
389.087	360.7
389.466	344.43
389.846	370.19
390.225	356.63
390.605	357.76
390.984	367.48
391.363	350.3
391.743	374.26
392.122	367.02
392.501	369.96
392.881	370.64
393.26	378.32
393.639	378.55
394.018	374.93
394.397	369.51
394.776	364.31
395.155	363.86
395.534	356.4
395.913	379.91
396.292	398.66
396.671	372
397.05	378.78
397.429	375.61
397.808	381.04
398.186	374.48
398.565	378.78
398.944	414.25
399.323	369.28
399.701	376.97
400.08	386.68
400.458	393.69
400.837	395.72
401.215	399.57
401.594	416.29
401.972	393.69
402.351	419.23
402.729	397.53
403.107	403.41
403.486	410.64
403.864	416.29
404.242	414.25
404.62	408.15
404.999	415.61
405.377	450.41
405.755	426.68
406.133	435.72
406.511	427.81
406.889	432.11
407.267	427.81
407.645	449.51
408.023	451.54
408.401	444.76
408.779	444.31
409.156	445.44
409.534	451.77
409.912	452.45
410.29	462.61
410.667	449.06
411.045	432.79
411.422	447.7
411.8	475.95
412.178	467.59
412.555	472.33
412.933	482.05
413.31	476.17
413.687	482.73
414.065	500.81
414.442	487.47
414.819	480.47
415.197	473.24
415.574	480.24
415.951	496.29
416.328	497.64
416.705	476.17
417.082	500.58
417.46	493.35
417.837	524.08
418.214	507.59
418.591	514.37
418.967	514.37
419.344	518.21
419.721	531.54
420.098	504.65
420.475	517.98
420.852	532.22
421.228	536.29
421.605	548.71
421.982	522.5
422.358	526.79
422.735	533.8
423.111	522.95
423.488	560.47
423.864	566.34
424.241	579
424.617	557.75
424.994	583.06
425.37	554.82
425.746	580.58
426.123	582.16
426.499	563.86
426.875	572.89
427.251	590.07
427.627	592.33
428.003	607.92
428.379	598.66
428.756	607.7
429.132	611.31
429.507	616.06
429.883	624.19
430.259	642.05
430.635	628.71
431.011	620.58
431.387	629.16
431.763	637.07
432.138	644.08
432.514	651.76
432.89	649.5
433.265	663.97
433.641	680.91
434.016	666.9
434.392	705.09
434.767	703.74
435.143	703.29
435.518	706.68
435.894	699.67
436.269	716.62
436.644	748.48
437.02	747.13
437.395	721.14
437.77	740.57
438.145	737.41
438.52	746.22
438.895	745.77
439.271	762.49
439.646	770.86
440.021	774.92
440.395	766.11
440.77	785.09
441.145	766.79
441.52	756.17
441.895	798.43
442.27	806.11
442.645	794.58
443.019	804.3
443.394	796.17
443.769	817.86
444.143	831.64
444.518	829.16
444.892	845.43
445.267	835.26
445.641	851.98
446.016	852.66
446.39	853.57
446.764	838.65
447.139	863.96
447.513	866.22
447.887	887.91
448.262	868.03
448.636	869.61
449.01	906.9
449.384	894.92
449.758	910.74
450.132	916.39
450.506	925.2
450.88	899.89
451.254	922.94
451.628	940.57
452.002	955.71
452.376	966.56
452.75	946.44
453.123	960.45
453.497	976.27
453.871	990.96
454.244	1008.36
454.618	983.28
454.992	1013.56
455.365	1020.57
455.739	1030.06
456.112	1029.15
456.486	1059.44
456.859	1067.34
457.232	1063.96
457.606	1105.76
457.979	1106.44
458.352	1120
458.725	1126.33
459.099	1134.01
459.472	1163.61
459.845	1155.7
460.218	1176.27
460.591	1172.2
460.964	1209.04
461.337	1204.29
461.71	1244.06
462.083	1249.49
462.456	1273.67
462.829	1263.5
463.201	1296.72
463.574	1265.08
463.947	1296.04
464.32	1347.56
464.692	1341.01
465.065	1366.55
465.438	1401.57
465.81	1443.38
466.183	1425.75
466.555	1463.04
466.928	1478.18
467.3	1494.68
467.672	1492.64
468.045	1528.12
468.417	1548.24
468.789	1565.18
469.161	1626.65
469.534	1641.57
469.906	1675.01
470.278	1682.47
470.65	1708.68
471.022	1759.08
471.394	1796.37
471.766	1828.68
472.138	1840.43
472.51	1918.85
472.882	1909.13
473.253	1948.45
473.625	2008.34
473.997	2059.86
474.369	2094.89
474.74	2118.39
475.112	2169.01
475.484	2235.68
475.855	2269.12
476.227	2306.18
476.598	2363.13
476.97	2416.01
477.341	2492.62
477.713	2575.1
478.084	2585.72
478.455	2677.7
478.827	2763.12
479.198	2830.24
479.569	2867.75
479.94	2990.46
480.311	3014.64
480.682	3106.84
481.053	3228.42
481.424	3301.18
481.795	3383.44
482.166	3430.22
482.537	3533.95
482.908	3658.01
483.279	3723.55
483.65	3851
484.021	3999.25
484.391	4028.62
484.762	4172.57
485.133	4192.91
485.503	4360.82
485.874	4485.79
486.244	4600.81
486.615	4738.66
486.985	4770.98
487.356	4948.15
487.726	5084.87
488.097	5211.64
488.467	5302.49
488.837	5424.52
489.207	5544.06
489.578	5732.76
489.948	5815.02
490.318	5938.18
490.688	6036.48
491.058	6183.59
491.428	6342.01
491.798	6468.78
492.168	6610.93
492.538	6712.62
492.908	6808.21
493.278	6970.92
493.648	7051.14
494.017	7248.65
494.387	7325.26
494.757	7453.84
495.126	7621.52
495.496	7670.56
495.866	7799.6
496.235	7947.39
496.605	8058.57
496.974	8197.55
497.344	8269.42
497.713	8374.95
498.082	8517.32
498.452	8627.15
498.821	8699.46
499.19	8763.87
499.559	8943.3
499.928	9060.81
500.298	9112.78
500.667	9199.79
501.036	9291.54
501.405	9373.12
501.774	9487.69
502.143	9568.36
502.512	9589.38
502.88	9759.77
503.249	9793.22
503.618	9895.36
503.987	9888.13
504.356	10103.27
504.724	10144.17
505.093	10250.38
505.462	10279.31
505.83	10349.59
506.199	10458.74
506.567	10601.11
506.936	10599.07
507.304	10759.75
507.672	10750.25
508.041	10836.13
508.409	10962.9
508.777	10951.38
509.145	11025.05
509.514	11082.67
509.882	11195.67
510.25	11208.55
510.618	11286.29
510.986	11269.34
511.354	11428.2
511.722	11485.38
512.09	11561.76
512.458	11547.3
512.826	11565.15
513.193	11658.7
513.561	11597.69
513.929	11775.76
514.297	11845.14
514.664	11842.88
515.032	11891.24
515.4	11968.53
515.767	12011.46
516.135	12052.82
516.502	11910.9
516.869	12158.35
517.237	12206.26
517.604	12098.69
517.972	12242.64
518.339	12273.15
518.706	12185.7
519.073	12335.98
519.44	12290.78
519.808	12428.85
520.175	12360.83
520.542	12505.69
520.909	12490.32
521.276	12470.89
521.643	12632.69
522.009	12557.44
522.376	12644.44
522.743	12651.67
523.11	12679.24
523.477	12828.17
523.843	12810.09
524.21	12809.86
524.577	12894.83
524.943	12920.82
525.31	12827.49
525.676	12963.98
526.043	13067.93
526.409	13032.91
526.776	13121.72
527.142	13111.77
527.508	13135.95
527.874	13224.99
528.241	13089.4
528.607	13210.3
528.973	13168.04
529.339	13145.67
529.705	13185.67
530.071	13214.82
530.437	13264.76
530.803	13278.32
531.169	13255.05
531.535	13126.24
531.901	13154.26
532.267	13243.07
532.632	13223.86
532.998	13095.28
533.364	13177.53
533.73	13213.24
534.095	13215.27
534.461	13166.01
534.826	13308.6
535.192	13167.59
535.557	13229.96
535.923	13103.19
536.288	13179.57
536.653	13075.16
537.019	13130.53
537.384	13024.54
537.749	13135.73
538.114	13020.02
538.479	13012.79
538.845	13004.43
539.21	12950.2
539.575	12852.35
539.94	12975.73
540.305	12869.52
540.67	12833.14
541.034	12818.45
541.399	12848.05
541.764	12792.23
542.129	12858.67
542.494	12708.17
542.858	12725.57
543.223	12718.56
543.587	12675.63
543.952	12636.76
544.316	12565.35
544.681	12592.47
545.045	12545.01
545.41	12526.7
545.774	12545.69
546.138	12528.29
546.503	12409.19
546.867	12384.56
547.231	12357.9
547.595	12343.21
547.959	12409.87
548.324	12282.42
548.688	12244
549.052	12294.85
549.416	12243.55
549.779	12159.48
550.143	12095.53
550.507	12141.86
550.871	12172.59
551.235	12043.55
551.599	12127.62
551.962	12066.38
552.326	12029.09
552.689	12073.38
553.053	12014.63
553.417	11962.43
553.78	12085.81
554.143	11902.99
554.507	11933.73
554.87	12001.29
555.234	11992.03
555.597	11933.73
555.96	11895.31
556.323	11935.08
556.686	11867.96
557.05	11895.53
557.413	11854.63
557.776	11912.94
558.139	11904.35
558.502	11879.49
558.865	11841.52
559.228	11944.57
559.59	11898.25
559.953	11841.98
560.316	11872.26
560.679	11888.98
561.041	11866.16
561.404	11848.98
561.767	11905.93
562.129	11893.05
562.492	11913.16
562.854	11897.12
563.217	11879.49
563.579	11887.63
563.941	11913.16
564.304	11875.87
564.666	12054.17
565.028	11971.46
565.39	11933.73
565.753	12019.83
566.115	12071.35
566.477	12076.55
566.839	12081.52
567.201	12126.72
567.563	12069.54
567.925	12102.31
568.287	12107.28
568.648	12091.24
569.01	12166.26
569.372	12123.78
569.734	12107.96
570.095	12190.22
570.457	12179.6
570.819	12204.23
571.18	12159.71
571.542	12271.12
571.903	12218.24
572.265	12295.3
572.626	12291
572.987	12255.07
573.349	12253.72
573.71	12235.19
574.071	12326.94
574.432	12258.69
574.794	12354.73
575.155	12385.92
575.516	12307.73
575.877	12329.65
576.238	12327.39
576.599	12388.86
576.96	12314.05
577.32	12478.57
577.681	12390.66
578.042	12390.66
578.403	12352.47
578.763	12322.42
579.124	12333.94
579.485	12384.56
579.845	12469.76
580.206	12418.23
580.566	12458.46
580.927	12413.04
581.287	12466.14
581.648	12370.1
582.008	12435.41
582.368	12376.2
582.728	12455.52
583.089	12386.82
583.449	12307.28
583.809	12323.55
584.169	12364.67
584.529	12380.95
584.889	12367.84
585.249	12290.55
585.609	12258.69
585.969	12307.28
586.329	12373.04
586.688	12394.28
587.048	12237.67
587.408	12238.35
587.768	12334.17
588.127	12295.98
588.487	12211.01
588.846	12347.95
589.206	12201.29
589.565	12249.88
589.925	12212.36
590.284	12271.8
590.643	12271.8
591.003	12212.36
591.362	12227.28
591.721	12220.72
592.08	12182.31
592.44	12180.95
592.799	12239.71
593.158	12236.54
593.517	12175.3
593.876	12212.14
594.235	12197.45
594.593	12239.71
594.952	12191.8
595.311	12130.78
595.67	12155.64
596.029	12232.93
596.387	12142.31
596.746	12224.11
597.104	12145.47
597.463	12143.89
597.822	12120.39
598.18	12114.96
598.538	12137.34
598.897	12202.19
599.255	12040.62
599.613	12222.53
599.972	12088.52
600.33	12236.32
600.688	12128.97
601.046	12133.04
601.404	12148.64
601.762	12182.76
602.12	12189.76
602.478	12100.28
602.836	12152.48
603.194	12109.31
603.552	12170.56
603.91	12171.91
604.268	12186.15
604.625	12119.71
604.983	12121.97
605.341	12088.52
605.698	12142.31
606.056	12183.44
606.413	12210.1
606.771	12165.13
607.128	12266.6
607.485	12196.54
607.843	12220.05
608.2	12244.23
608.557	12255.53
608.914	12265.24
609.272	12287.61
609.629	12326.48
609.986	12322.19
610.343	12266.37
610.7	12349.53
611.057	12325.13
611.414	12276.54
611.771	12321.96
612.127	12406.93
612.484	12347.05
612.841	12389.53
613.198	12271.34
613.554	12334.17
613.911	12405.13
614.267	12403.32
614.624	12345.24
614.98	12350.44
615.337	12421.4
615.693	12361.96
616.05	12397.67
616.406	12508.85
616.762	12390.66
617.118	12468.4
617.475	12449.87
617.831	12518.57
618.187	12521.73
618.543	12544.33
618.899	12513.82
619.255	12559.47
619.611	12513.6
619.967	12619.36
620.323	12591.34
620.678	12602.41
621.034	12575.06
621.39	12563.09
621.746	12554.5
622.101	12671.79
622.457	12536.87
622.812	12594.05
623.168	12573.71
623.523	12613.48
623.879	12565.8
624.234	12589.3
624.589	12579.36
624.945	12579.36
625.3	12612.8
625.655	12550.21
626.01	12583.65
626.365	12622.52
626.72	12538.23
627.075	12542.3
627.43	12551.11
627.785	12474.5
628.14	12556.76
628.495	12498.91
628.85	12448.06
629.205	12495.29
629.559	12578.23
629.914	12473.82
630.269	12460.72
630.623	12468.63
630.978	12430.44
631.332	12505.24
631.687	12512.02
632.041	12488.97
632.396	12489.87
632.75	12337.33
633.104	12420.04
633.459	12320.38
633.813	12380.49
634.167	12360.16
634.521	12320.38
634.875	12361.96
635.229	12228.86
635.583	12277.67
635.937	12151.12
636.291	12148.64
636.645	12305.47
636.999	12215.75
637.352	12256.2
637.706	12180.95
638.06	12250.33
638.413	12096.66
638.767	12174.17
639.121	12122.87
639.474	12042.65
639.828	12121.07
640.181	12133.49
640.534	12111.12
640.888	12115.64
641.241	12039.94
641.594	12088.07
641.947	12056.43
642.301	11965.82
642.654	12118.13
643.007	12130.1
643.36	12045.59
643.713	11970.11
644.066	12137.79
644.419	11984.57
644.771	11947.28
645.124	11824.8
645.477	11858.47
645.83	11739.61
646.182	11697.8
646.535	11661.64
646.888	11704.13
647.24	11646.95
647.593	11635.2
647.945	11643.79
648.298	11632.49
648.65	11638.14
649.002	11536.9
649.355	11579.84
649.707	11588.88
650.059	11603.34
650.411	11851.24
650.763	11786.84
651.115	11906.38
651.467	11904.57
651.819	11913.84
652.171	11907.51
652.523	11787.51
652.875	11812.37
653.227	11870.9
653.578	11909.55
653.93	11826.16
654.282	11846.72
654.633	11863.9
654.985	11885.59
655.337	11811.02
655.688	11826.84
656.039	11902.54
656.391	11836.33
656.742	11811.47
657.094	11900.51
657.445	11913.84
657.796	11865.48
658.147	11837.23
658.498	11810.34
658.849	11886.04
659.2	11900.28
659.551	11859.15
659.902	11871.13
660.253	11829.77
660.604	11916.78
660.955	11898.02
661.306	11849.21
661.656	11808.76
662.007	11900.51
662.358	11879.04
662.708	11878.81
663.059	11859.6
663.409	11876.78
663.76	11933.5
664.11	11894.4
664.461	11934.18
664.811	11915.87
665.161	11785.71
665.511	11897.79
665.862	11841.07
666.212	11974.4
666.562	11888.76
666.912	11845.37
667.262	11832.94
667.612	11903.9
667.962	11865.93
668.312	11902.31
668.662	11874.29
669.011	11802.66
669.361	11840.17
669.711	11862.99
670.06	11825.25
670.41	11771.92
670.76	11781.19
671.109	11843.33
671.459	11813.5
671.808	11825.25
672.157	11859.15
672.507	11743
672.856	11745.03
673.205	11801.07
673.554	11770.79
673.904	11745.48
674.253	11779.61
674.602	11779.38
674.951	11622.32
675.3	11583.23
675.649	11745.93
675.998	11681.3
676.346	11772.6
676.695	11672.04
677.044	11611.7
677.393	11675.65
677.741	11670.68
678.09	11647.18
678.438	11531.93
678.787	11634.98
679.135	11595.2
679.484	11535.77
679.832	11641.3
680.181	11476.79
680.529	11527.63
680.877	11571.02
681.225	11491.93
681.573	11476.34
681.922	11450.8
682.27	11479.05
682.618	11463
682.966	11441.31
683.314	11407.64
683.661	11415.55
684.009	11350.69
684.357	11347.75
684.705	11361.09
685.053	11307.98
685.4	11286.96
685.748	11247.87
686.095	11246.74
686.443	11243.57
686.79	11183.46
687.138	11222.11
687.485	11217.81
687.832	11105.72
688.18	11132.39
688.527	11049
688.874	11030.92
689.221	11032.73
689.568	10935.79
689.915	10904.83
690.262	10883.58
690.609	10943.02
690.956	10859.4
691.303	10799.74
691.65	10701.44
691.997	10798.16
692.344	10691.5
692.69	10651.73
693.037	10691.5
693.383	10616.92
693.73	10569.92
694.077	10544.84
694.423	10497.61
694.769	10462.8
695.116	10388.91
695.462	10491.5
695.808	10368.34
696.155	10384.16
696.501	10318.63
696.847	10281.11
697.193	10255.8
697.539	10263.26
697.885	10199.99
698.231	10164.73
698.577	10104.4
698.923	10069.14
699.269	10016.26
699.614	9978.75
699.96	9943.5
700.306	9944.63
700.651	9906.21
700.997	9848.36
701.342	9870.05
701.688	9812.88
702.033	9738.98
702.379	9814.91
702.724	9721.81
703.069	9774.91
703.415	9625.54
703.76	9594.13
704.105	9717.51
704.45	9636.39
704.795	9513.45
705.14	9507.8
705.485	9508.25
705.83	9501.47
706.175	9528.14
706.52	9470.29
706.865	9376.28
707.209	9464.64
707.554	9359.78
707.899	9392.1
708.243	9278.65
708.588	9282.72
708.932	9267.58
709.277	9163.86
709.621	9197.53
709.966	9099.45
710.31	9200.92
710.654	9050.86
710.998	9105.78
711.342	9049.06
711.687	9042.05
712.031	9034.37
712.375	8988.49
712.719	8969.28
713.063	8978.55
713.407	8958.66
713.75	8965.22
714.094	8884.31
714.438	8829.17
714.782	8841.6
715.125	8812.68
715.469	8837.31
715.812	8785.11
716.156	8743.98
716.499	8733.58
716.843	8798.44
717.186	8713.7
717.53	8744.21
717.873	8788.05
718.216	8688.39
718.559	8670.99
718.902	8689.97
719.246	8724.54
719.589	8666.02
719.932	8674.15
720.275	8590.54
720.617	8593.47
720.96	8599.58
721.303	8611.78
721.646	8594.83
721.989	8559.58
722.331	8616.52
722.674	8515.28
723.016	8565.68
723.359	8540.37
723.701	8489.3
724.044	8517.09
724.386	8474.61
724.729	8529.97
725.071	8430.77
725.413	8460.37
725.755	8473.93
726.097	8425.12
726.439	8401.16
726.782	8420.15
727.124	8478.45
727.465	8459.92
727.807	8385.12
728.149	8391.9
728.491	8367.27
728.833	8355.51
729.175	8379.02
729.516	8364.78
729.858	8357.55
730.199	8335.63
730.541	8288.4
730.882	8409.07
731.224	8373.82
731.565	8318.68
731.906	8371.56
732.248	8319.36
732.589	8326.14
732.93	8315.06
733.271	8350.09
733.612	8364.33
733.953	8307.61
734.294	8300.83
734.635	8292.69
734.976	8304.89
735.317	8348.06
735.658	8304.67
735.999	8329.75
736.339	8344.44
736.68	8380.15
737.021	8353.93
737.361	8302.41
737.702	8376.76
738.042	8349.64
738.383	8348.28
738.723	8339.02
739.063	8320.71
739.404	8397.1
739.744	8390.54
740.084	8314.16
740.424	8359.58
740.764	8355.97
741.104	8462.86
741.444	8349.87
741.784	8409.3
742.124	8456.98
742.464	8455.4
742.804	8397.77
743.143	8485.45
743.483	8470.77
743.823	8463.08
744.162	8593.25
744.502	8569.52
744.841	8578.79
745.181	8582.63
745.52	8634.15
745.86	8648.61
746.199	8702.4
746.538	8768.16
746.877	8794.83
747.216	8806.58
747.556	8868.27
747.895	8905.56
748.234	8926.57
748.573	9002.73
748.911	9055.84
749.25	9103.97
749.589	9147.81
749.928	9166.11
750.267	9274.59
750.605	9300.12
750.944	9384.19
751.283	9425.09
751.621	9542.15
751.96	9609.04
752.298	9737.17
752.636	9822.37
752.975	9837.06
753.313	9945.3
753.651	10083.38
753.989	10065.07
754.327	10168.57
754.666	10304.16
755.004	10398.62
755.342	10507.32
755.679	10637.71
756.017	10715.45
756.355	10837.94
756.693	10960.42
757.031	11138.72
757.368	11171.71
757.706	11359.5
758.044	11546.39
758.381	11622.55
758.719	11772.83
759.056	11947.06
759.394	12107.51
759.731	12159.03
760.068	12367.16
760.405	12465.46
760.743	12607.83
761.08	12756.08
761.417	12962.63
761.754	13144.99
762.091	13259.11
762.428	13392.67
762.765	13423.18
763.102	13647.13
763.438	13823.39
763.775	13915.37
764.112	14142.48
764.449	14283.72
764.785	14419.76
765.122	14573.2
765.458	14696.59
765.795	14858.17
766.131	15064.72
766.467	15128.9
766.804	15248.44
767.14	15333.64
767.476	15495.89
767.812	15516.46
768.148	15833.74
768.485	15777.47
768.821	15984.24
769.157	16144.46
769.492	16124.8
769.828	16358.69
770.164	16373.16
770.5	16520.05
770.836	16544.68
771.171	16623.32
771.507	16777.89
771.842	16680.95
772.178	16988.51
772.513	16949.19
772.849	16999.13
773.184	17077.55
773.519	17230.08
773.855	17255.85
774.19	17239.57
774.525	17335.17
774.86	17458.1
775.195	17597.76
775.53	17581.71
775.865	17563.41
776.2	17547.14
776.535	17617.87
776.87	17649.96
777.205	17686.12
777.539	17703.07
777.874	17803.18
778.209	17748.94
778.543	17874.59
778.878	17856.51
779.212	17855.6
779.547	17771.31
779.881	18043.4
780.215	17873.91
780.55	17994.58
780.884	17974.47
781.218	18000.01
781.552	18046.79
781.886	17979.89
782.22	17904.42
782.554	18020.12
782.888	17852.44
783.222	17915.49
783.556	17810.18
783.889	17842.72
784.223	17761.14
784.557	17795.94
784.89	17884.53
785.224	17836.4
785.557	17732.9
785.891	17729.51
786.224	17772.67
786.558	17851.76
786.891	17753.91
787.224	17675.72
787.557	17699.22
787.891	17651.99
788.224	17614.71
788.557	17758.21
788.89	17603.86
789.223	17768.6
789.556	17608.38
789.888	17491.09
790.221	17517.31
790.554	17430.76
790.887	17414.03
791.219	17463.75
791.552	17288.84
791.884	17308.73
792.217	17250.42
792.549	17280.7
792.882	17215.17
793.214	17170.65
793.546	17202.29
793.879	17089.75
794.211	17109.63
794.543	17024.44
794.875	17049.3
795.207	17093.59
795.539	17065.34
795.871	17066.02
796.203	16859.47
796.535	16854.95
796.867	16858.57
797.198	16799.81
797.53	16741.73
797.862	16675.3
798.193	16647.05
798.525	16521.4
798.856	16664
799.188	16480.5
799.519	16348.52
799.85	16412.25
800.182	16348.07
800.513	16418.81
800.844	16206.83
801.175	16358.69
801.506	16372.93
801.837	16205.93
802.168	16233.95
802.499	16163.45
802.83	16081.19
803.161	16108.98
803.491	16075.09
803.822	16033.73
804.153	15998.25
804.483	15840.97
804.814	15857.01
805.145	15859.27
805.475	15902.43
805.805	15809.1
806.136	15810.69
806.466	15786.05
806.796	15764.36
807.126	15665.61
807.457	15563.91
807.787	15488.21
808.117	15550.58
808.447	15512.16
808.777	15499.96
809.107	15390.36
809.436	15459.06
809.766	15421.77
810.096	15398.49
810.426	15308.33
810.755	15286.18
811.085	15290.47
811.414	15354.2
811.744	15147.65
812.073	15146.75
812.403	15092.74
812.732	15111.95
813.061	15047.32
813.39	15006.41
813.719	14898.85
814.049	15061.33
814.378	14912.63
814.707	14913.76
815.036	14886.42
815.365	14804.84
815.693	14723.93
816.022	14786.53
816.351	14708.12
816.68	14657.95
817.008	14639.19
817.337	14570.49
817.665	14542.24
817.994	14603.03
818.322	14585.41
818.651	14463.15
818.979	14436.03
819.307	14600.32
819.636	14435.58
819.964	14362.59
820.292	14441.68
820.62	14455.24
820.948	14460.89
821.276	14422.7
821.604	14428.35
821.932	14400.1
822.259	14484.62
822.587	14389.03
822.915	14322.82
823.243	14465.18
823.57	14337.28
823.898	14366.2
824.225	14297.96
824.553	14329.37
824.88	14410.5
825.207	14337.73
825.535	14297.05
825.862	14449.37
826.189	14317.62
826.516	14428.58
826.843	14474.68
827.17	14411.63
827.497	14364.4
827.824	14365.07
828.151	14492.53
828.478	14501.34
828.805	14467.22
829.131	14447.33
829.458	14324.17
829.785	14295.25
830.111	14369.37
830.438	14423.15
830.764	14421.57
831.09	14412.76
831.417	14283.95
831.743	14381.8
832.069	14400.1
832.395	14334.57
832.722	14376.83
833.048	14464.73
833.374	14353.32
833.7	14245.98
834.026	14277.17
834.351	14314.23
834.677	14332.76
835.003	14321.69
835.329	14284.4
835.654	14292.53
835.98	14208.92
836.306	14156.49
836.631	14169.6
836.956	14247.56
837.282	14209.15
837.607	14136.15
837.932	14093.44
838.258	14089.6
838.583	14082.37
838.908	13973.9
839.233	13989.26
839.558	14015.48
839.883	14010.06
840.208	13932.77
840.533	13909.49
840.858	13976.38
841.182	13906.56
841.507	13877.4
841.832	13786.78
842.156	13813.22
842.481	13738.88
842.805	13672.89
843.13	13796.95
843.454	13673.79
843.778	13619.11
844.103	13589.5
844.427	13716.96
844.751	13508.83
845.075	13540.01
845.399	13468.37
845.723	13349.73
846.047	13412.33
846.371	13259.34
846.695	13255.72
847.019	13179.79
847.343	13198.33
847.666	13049.85
847.99	13038.56
848.313	13052.34
848.637	12979.12
848.96	12954.49
849.284	12948.16
849.607	12842.85
849.931	12864.77
850.254	12794.27
850.577	12657.32
850.9	12569.19
851.223	12562.86
851.546	12545.46
851.869	12316.54
852.192	12407.16
852.515	12338.23
852.838	12308.41
853.161	12233.15
853.483	12241.29
853.806	12247.84
854.129	12117.9
854.451	12111.8
854.774	12026.6
855.096	12058.24
855.419	12031.35
855.741	11968.75
856.063	11843.33
856.385	11868.87
856.708	11814.63
857.03	11767.18
857.352	11774.41
857.674	11684.47
857.996	11706.39
858.318	11629.1
858.64	11631.13
858.961	11544.13
859.283	11621.64
859.605	11491.48
859.926	11521.08
860.248	11526.5
860.57	11395.21
860.891	11477.69
861.212	11413.51
861.534	11331.03
861.855	11347.3
862.176	11327.19
862.498	11321.76
862.819	11291.48
863.14	11247.87
863.461	11232.5
863.782	11243.12
864.103	11229.79
864.424	11150.02
864.745	11227.76
865.065	11124.93
865.386	11088.32
865.707	11095.78
866.027	11150.47
866.348	11054.88
866.668	11097.14
866.989	11074.54
867.309	10972.62
867.63	11007.2
867.95	11015.78
868.27	10880.65
868.59	10939.85
868.91	10901.66
869.23	10888.78
869.55	10821.66
869.87	10807.65
870.19	10860.08
870.51	10887.2
870.83	10848.56
871.15	10784.83
871.469	10776.92
871.789	10785.28
872.109	10761.78
872.428	10685.17
872.748	10693.08
873.067	10673.87
873.386	10675.45
873.706	10700.76
874.025	10670.48
874.344	10580.09
874.663	10651.05
874.982	10535.34
875.301	10565.85
875.62	10540.32
875.939	10562.69
876.258	10587.32
876.577	10521.11
876.896	10523.59
877.214	10418.51
877.533	10431.84
877.852	10399.98
878.17	10416.25
878.489	10401.56
878.807	10400.21
879.125	10310.27
879.444	10381.68
879.762	10293.09
880.08	10324.05
880.398	10277.95
880.716	10281.34
881.034	10195.24
881.352	10304.39
881.67	10210.83
881.988	10232.53
882.306	10144.62
882.624	10122.7
882.941	10082.25
883.259	10139.65
883.577	9998.64
883.894	10011.29
884.212	10016.71
884.529	10028.01
884.846	10023.95
885.164	10011.52
885.481	9919.32
885.798	9905.53
886.115	9834.57
886.432	9857.85
886.75	9875.02
887.067	9855.81
887.383	9804.74
887.7	9781.47
888.017	9754.35
888.334	9764.07
888.651	9693.78
888.967	9696.72
889.284	9703.95
889.6	9684.75
889.917	9600
890.233	9544.18
890.55	9512.32
890.866	9527.91
891.182	9480.46
891.498	9447.92
891.815	9414.92
892.131	9363.62
892.447	9351.42
892.763	9314.13
893.079	9341.03
893.395	9254.93
893.71	9250.18
894.026	9164.53
894.342	9224.87
894.657	9152.78
894.973	9138.09
895.289	9155.49
895.604	9092.22
895.92	9001.15
896.235	9002.73
896.55	8999.11
896.865	8897.42
897.181	8851.09
897.496	8920.7
897.811	8869.17
898.126	8850.87
898.441	8781.49
898.756	8779.46
899.071	8684.77
899.386	8731.32
899.7	8585.11
900.015	8693.58
900.33	8565
900.644	8633.25
900.959	8604.32
901.273	8470.54
901.588	8481.39
901.902	8403.2
902.216	8475.51
902.531	8414.72
902.845	8370.43
903.159	8345.57
903.473	8314.84
903.787	8300.15
904.101	8179.93
904.415	8256.31
904.729	8179.02
905.042	8115.75
905.356	8114.62
905.67	8118.46
905.984	8055.18
906.297	8041.4
906.611	7996.65
906.924	8005.47
907.237	7944.23
907.551	7935.86
907.864	7864.91
908.177	7878.24
908.491	7828.52
908.804	7751.69
909.117	7783.33
909.43	7733.84
909.743	7676.89
910.056	7596.44
910.368	7636.44
910.681	7610
910.994	7587.85
911.307	7500.17
911.619	7499.94
911.932	7446.16
912.244	7455.88
912.557	7358.48
912.869	7314.64
913.181	7375.65
913.494	7324.81
913.806	7270.8
914.118	7228.31
914.43	7214.98
914.742	7211.14
915.054	7160.07
915.366	7096.11
915.678	7087.53
915.99	7032.16
916.302	6960.52
916.613	7001.65
916.925	6979.51
917.236	6923.01
917.548	6892.05
917.859	6915.55
918.171	6847.08
918.482	6891.37
918.794	6841.2
919.105	6812.5
919.416	6748.78
919.727	6753.75
920.038	6736.8
920.349	6673.98
920.66	6601.89
920.971	6593.75
921.282	6633.53
921.593	6506.98
921.903	6569.35
922.214	6469.91
922.525	6507.2
922.835	6524.15
923.146	6440.99
923.456	6393.08
923.767	6364.38
924.077	6388.56
924.387	6377.04
924.697	6304.72
925.008	6332.07
925.318	6249.58
925.628	6260.88
925.938	6185.4
926.248	6181.79
926.558	6139.3
926.867	6127.1
927.177	6121.68
927.487	6071.28
927.796	6064.28
928.106	6077.83
928.416	6005.29
928.725	5988.12
929.034	5962.36
929.344	5921.45
929.653	5932.08
929.962	5923.04
930.271	5879.42
930.581	5807.56
930.89	5778.41
931.199	5732.53
931.508	5801.91
931.817	5752.19
932.125	5733.21
932.434	5717.39
932.743	5709.93
933.051	5656.83
933.36	5616.15
933.669	5617.51
933.977	5547.45
934.286	5585.64
934.594	5541.13
934.902	5527.11
935.21	5476.04
935.519	5500.22
935.827	5474.46
936.135	5397.17
936.443	5378.42
936.751	5418.19
937.059	5339.55
937.367	5307.23
937.674	5334.13
937.982	5321.92
938.29	5242.15
938.597	5294.35
938.905	5222.26
939.213	5170.51
939.52	5199.21
939.827	5156.05
940.135	5144.3
940.442	5097.97
940.749	5096.84
941.056	5096.17
941.363	5047.13
941.67	5030.4
941.977	5005.32
942.284	4930.29
942.591	4962.84
942.898	4968.71
943.205	4907.24
943.511	4897.75
943.818	4882.39
944.125	4852.56
944.431	4851.43
944.738	4816.17
945.044	4792.67
945.35	4786.8
945.657	4759.45
945.963	4700.24
946.269	4679
946.575	4683.07
946.881	4662.96
947.187	4661.15
947.493	4629.96
947.799	4568.72
948.105	4603.07
948.41	4550.42
948.716	4565.78
949.022	4508.61
949.327	4548.38
949.633	4454.6
949.938	4433.36
950.244	4460.48
950.549	4444.21
950.854	4427.93
951.16	4373.92
951.465	4382.06
951.77	4346.35
952.075	4350.2
952.38	4361.27
952.685	4341.38
952.99	4245.57
953.294	4264.77
953.599	4269.52
953.904	4207.15
954.209	4215.74
954.513	4214.83
954.818	4099.13
955.122	4144.55
955.426	4175.96
955.731	4146.81
956.035	4114.95
956.339	4103.88
956.643	4104.1
956.948	4020.94
957.252	4048.28
957.556	3996.31
957.86	3958.12
958.163	4020.49
958.467	3988.4
958.771	3951.34
959.075	3914.5
959.378	3942.07
959.682	3897.1
959.985	3888.06
960.289	3869.76
960.592	3873.37
960.896	3818.91
961.199	3793.83
961.502	3814.62
961.805	3798.57
962.108	3790.21
962.411	3745.69
962.714	3747.95
963.017	3675.19
963.32	3726.26
963.623	3693.49
963.926	3666.82
964.228	3628.63
964.531	3612.59
964.833	3640.84
965.136	3603.78
965.438	3608.97
965.741	3568.97
966.043	3601.52
966.345	3526.26
966.648	3536.88
966.95	3501.86
967.252	3545.02
967.554	3498.24
967.856	3481.97
968.158	3462.99
968.46	3433.61
968.761	3436.77
969.063	3424.8
969.365	3414.18
969.666	3377.79
969.968	3360.84
970.269	3340.73
970.571	3349.32
970.872	3360.84
971.174	3335.08
971.475	3319.49
971.776	3289.43
972.077	3287.17
972.378	3216.21
972.679	3265.93
972.98	3248.76
973.281	3229.77
973.582	3209.21
973.883	3167.63
974.183	3180.74
974.484	3167.4
974.785	3138.25
975.085	3128.08
975.386	3151.58
975.686	3112.94
975.986	3113.62
976.287	3103.45
976.587	3031.13
976.887	3049.67
977.187	3058.03
977.487	3032.72
977.787	3013.51
978.087	2981.64
978.387	2988.88
978.687	2973.96
978.987	2927.63
979.286	2951.36
979.586	2925.6
979.885	2931.48
980.185	2919.5
980.484	2877.01
980.784	2892.38
981.083	2871.59
981.382	2851.93
981.682	2839.5
981.981	2821.65
982.28	2844.25
982.579	2774.64
982.878	2813.29
983.177	2787.75
983.475	2782.55
983.774	2759.05
984.073	2716.57
984.372	2688.77
984.67	2689.68
984.969	2695.1
985.267	2687.64
985.566	2703.46
985.864	2689.22
986.162	2639.05
986.461	2647.87
986.759	2618.04
987.057	2586.4
987.355	2606.29
987.653	2617.81
987.951	2592.28
988.249	2573.97
988.547	2552.05
988.844	2522.45
989.142	2546.18
989.44	2491.94
989.737	2519.28
990.035	2521.77
990.332	2471.38
990.63	2479.29
990.927	2459.85
991.224	2452.17
991.521	2446.29
991.819	2428.66
992.116	2405.61
992.413	2423.92
992.71	2392.06
993.006	2364.26
993.303	2345.96
993.6	2371.27
993.897	2396.35
994.193	2324.26
994.49	2343.92
994.787	2345.96
995.083	2326.07
995.379	2327.42
995.676	2297.59
995.972	2272.51
996.268	2283.36
996.565	2235.45
996.861	2234.32
997.157	2230.7
997.453	2220.53
997.749	2226.18
998.044	2216.47
998.34	2184.83
998.636	2147.77
998.932	2173.76
999.227	2181.21
999.523	2167.88
999.818	2139.86
1000.114	2118.39
1000.409	2160.88
1000.704	2102.57
1001	2084.27
1001.295	2086.53
1001.59	2057.83
1001.885	2077.49
1002.18	2009.92
1002.475	2058.05
1002.77	2044.04
1003.065	2017.83
1003.359	2011.5
1003.654	1985.29
1003.949	1991.84
1004.243	1990.48
1004.538	1950.49
1004.832	1959.75
1005.127	1940.54
1005.421	1930.6
1005.715	1920.88
1006.009	1896.25
1006.304	1865.74
1006.598	1866.65
1006.892	1853.76
1007.186	1856.93
1007.48	1830.26
1007.773	1831.62
1008.067	1811.51
1008.361	1808.34
1008.655	1832.52
1008.948	1788.23
1009.242	1787.1
1009.535	1781
1009.829	1782.13
1010.122	1769.93
1010.415	1743.49
1010.708	1755.69
1011.001	1734.67
1011.295	1722.92
1011.588	1706.88
1011.881	1703.94
1012.173	1676.82
1012.466	1718.4
1012.759	1663.49
1013.052	1655.13
1013.344	1633.88
1013.637	1644.5
1013.93	1632.3
1014.222	1624.39
1014.514	1610.16
1014.807	1593.43
1015.099	1571.06
1015.391	1623.71
1015.683	1584.17
1015.976	1574.68
1016.268	1564.96
1016.56	1558.41
1016.851	1537.61
1017.143	1529.71
1017.435	1519.99
1017.727	1535.13
1018.018	1508.24
1018.31	1507.79
1018.602	1505.98
1018.893	1479.99
1019.185	1488.12
1019.476	1455.81
1019.767	1451.29
1020.058	1449.03
1020.35	1397.28
1020.641	1402.48
1020.932	1423.72
1021.223	1400.22
1021.514	1375.81
1021.804	1372.2
1022.095	1385.08
1022.386	1346.43
1022.677	1343.72
1022.967	1364.06
1023.258	1342.37
1023.548	1325.19
1023.839	1314.8
1024.129	1329.48
1024.419	1309.6
1024.709	1289.03
1025	1313.67
1025.29	1282.48
1025.58	1261.69
1025.87	1291.29
1026.16	1273.44
1026.449	1258.98
1026.739	1240.45
1027.029	1221.69
1027.319	1227.57
1027.608	1210.62
1027.898	1232.54
1028.187	1181.47
1028.477	1217.4
1028.766	1171.52
1029.055	1168.36
1029.344	1180.34
1029.634	1168.36
1029.923	1179.21
1030.212	1143.5
1030.501	1141.02
1030.79	1103.05
1031.078	1130.39
1031.367	1104.63
1031.656	1093.78
1031.945	1094.01
1032.233	1098.08
1032.522	1072.99
1032.81	1087.91
1033.099	1083.62
1033.387	1087.68
1033.675	1046.55
1033.963	1052.66
1034.251	1057.18
1034.54	1035.93
1034.828	1041.81
1035.116	1061.24
1035.403	1026.89
1035.691	995.71
1035.979	996.61
1036.267	974.01
1036.554	1000.91
1036.842	971.98
1037.129	996.39
1037.417	937.86
1037.704	949.83
1037.992	975.6
1038.279	979.21
1038.566	932.21
1038.853	932.21
1039.14	932.21
