Data from hue_20_FLMS001491_13.txt Node
Date: Mon Feb 06 15:33:40 GMT 2017
User: dcchb
Spectrometer: FLMS00149
Trigger mode: 0
Integration Time (sec): 2.000000E-2
Scans to average: 10
Electric dark correction enabled: true
Nonlinearity correction enabled: false
Boxcar width: 0
XAxis mode: Wavelengths
Number of Pixels in Spectrum: 2048
>>>>>Begin Spectral Data<<<<<
341.393	-21.38
341.776	-21.38
342.16	-21.38
342.543	-62.51
342.927	-70.87
343.31	-70.2
343.693	-57.31
344.077	-80.37
344.46	-67.71
344.843	-56.86
345.226	-56.18
345.61	-40.14
345.993	-23.19
346.376	15
346.759	0.08
347.142	33.76
347.525	46.19
347.908	72.85
348.291	76.01
348.674	91.61
349.057	116.47
349.44	129.12
349.823	128.67
350.206	160.31
350.588	193.3
350.971	217.93
351.354	233.3
351.737	246.86
352.119	256.12
352.502	259.06
352.884	266.97
353.267	265.84
353.65	276.91
354.032	287.08
354.414	290.47
354.797	319.85
355.179	318.27
355.562	335.44
355.944	334.99
356.326	345.84
356.709	329.34
357.091	322.56
357.473	352.84
357.855	346.06
358.238	352.62
358.62	332.28
359.002	358.95
359.384	354.2
359.766	318.49
360.148	319.4
360.53	349.23
360.912	326.4
361.294	322.56
361.676	320.75
362.057	312.17
362.439	323.01
362.821	321.21
363.203	330.92
363.584	311.49
363.966	328.89
364.348	312.17
364.729	304.26
365.111	320.75
365.493	329.79
365.874	300.42
366.256	313.75
366.637	301.32
367.019	310.81
367.4	310.36
367.781	328.89
368.163	328.89
368.544	298.16
368.925	320.53
369.306	298.61
369.688	302.9
370.069	304.71
370.45	315.78
370.831	330.02
371.212	300.19
371.593	326.63
371.974	328.44
372.355	301.55
372.736	307.2
373.117	292.96
373.498	306.97
373.879	324.6
374.26	296.35
374.641	313.97
375.021	316.01
375.402	318.72
375.783	311.71
376.163	315.56
376.544	332.73
376.925	335.9
377.305	305.84
377.686	306.52
378.066	331.15
378.447	321.88
378.827	342.67
379.208	314.65
379.588	321.88
379.968	317.36
380.349	348.78
380.729	325.5
381.109	321.43
381.489	330.25
381.87	321.43
382.25	346.52
382.63	322.11
383.01	339.28
383.39	349
383.77	343.8
384.15	345.84
384.53	311.94
384.91	350.36
385.29	337.03
385.67	338.38
386.049	333.18
386.429	362.34
386.809	365.5
387.189	378.38
387.568	349.68
387.948	338.61
388.328	330.47
388.707	346.97
389.087	337.7
389.466	340.87
389.846	353.07
390.225	360.3
390.605	331.6
390.984	384.26
391.363	365.05
391.743	361.43
392.122	360.75
392.501	350.58
392.881	374.31
393.26	376.35
393.639	373.18
394.018	358.27
394.397	380.64
394.776	385.16
395.155	380.64
395.534	405.5
395.913	376.12
396.292	387.65
396.671	365.27
397.05	371.6
397.429	367.53
397.808	376.57
398.186	371.83
398.565	350.36
398.944	363.69
399.323	387.42
399.701	371.83
400.08	381.09
400.458	389.23
400.837	374.76
401.215	395.33
401.594	379.51
401.972	391.03
402.351	384.03
402.729	399.85
403.107	380.87
403.486	394.42
403.864	392.84
404.242	399.62
404.62	408.89
404.999	419.06
405.377	404.59
405.755	386.29
406.133	414.54
406.511	404.37
406.889	404.14
407.267	398.49
407.645	396.68
408.023	408.44
408.401	419.73
408.779	416.34
409.156	428.32
409.534	421.99
409.912	423.8
410.29	446.17
410.667	426.29
411.045	426.29
411.422	447.3
411.8	433.07
412.178	450.92
412.555	437.81
412.933	449.34
413.31	447.98
413.687	446.63
414.065	451.15
414.442	452.05
414.819	446.4
415.197	460.41
415.574	472.16
415.951	460.64
416.328	468.55
416.705	474.2
417.082	470.35
417.46	471.94
417.837	467.87
418.214	490.69
418.591	475.78
418.967	484.82
419.344	486.63
419.721	477.13
420.098	474.65
420.475	492.5
420.852	482.33
421.228	505.38
421.605	495.21
421.982	492.05
422.358	491.82
422.735	496.79
423.111	508.32
423.488	504.7
423.864	531.82
424.241	539.05
424.617	537.02
424.994	498.38
425.37	522.78
425.746	527.75
426.123	497.25
426.499	536.57
426.875	532.73
427.251	533.18
427.627	549.22
428.003	523.91
428.379	543.57
428.756	535.21
429.132	580.63
429.507	583.57
429.883	548.32
430.259	565.27
430.635	571.82
431.011	579.28
431.387	574.08
431.763	597.36
432.138	591.03
432.514	595.78
432.89	599.62
433.265	575.44
433.641	610.69
434.016	617.7
434.392	618.6
434.767	655.66
435.143	627.86
435.518	638.03
435.894	626.96
436.269	624.02
436.644	635.1
437.02	632.84
437.395	631.25
437.77	652.95
438.145	645.94
438.52	673.51
438.895	664.93
439.271	664.7
439.646	672.38
440.021	677.81
440.395	677.58
440.77	684.81
441.145	680.29
441.52	676.9
441.895	697.92
442.27	677.58
442.645	695.43
443.019	699.5
443.394	704.47
443.769	734.08
444.143	715.77
444.518	721.65
444.892	704.92
445.267	730.91
445.641	720.07
446.016	699.05
446.39	749.44
446.764	741.99
447.139	745.6
447.513	743.79
447.887	759.16
448.262	747.41
448.636	770.01
449.01	742.89
449.384	762.78
449.758	779.05
450.132	782.89
450.506	779.27
450.88	785.15
451.254	784.92
451.628	780.4
452.002	793.06
452.376	807.75
452.75	819.95
453.123	821.53
453.497	798.93
453.871	824.24
454.244	855.2
454.618	857.01
454.992	871.7
455.365	859.27
455.739	864.47
456.112	871.93
456.486	882.32
456.859	894.07
457.232	877.8
457.606	905.82
457.979	916.67
458.352	932.26
458.725	921.87
459.099	915.54
459.472	944.92
459.845	973.39
460.218	968.42
460.591	965.71
460.964	974.75
461.337	1010.23
461.71	1000.06
462.083	988.31
462.456	1023.11
462.829	1018.59
463.201	1031.47
463.574	1052.26
463.947	1063.79
464.32	1052.94
464.692	1070.34
465.065	1081.86
465.438	1094.75
465.81	1106.95
466.183	1138.59
466.555	1111.69
466.928	1162.31
467.3	1164.57
467.672	1154.86
468.045	1191.01
468.417	1214.97
468.789	1220.39
469.161	1223.1
469.534	1241.86
469.906	1249.32
470.278	1247.96
470.65	1302.42
471.022	1308.07
471.394	1309.65
471.766	1351.24
472.138	1345.13
472.51	1397.79
472.882	1400.73
473.253	1368.18
473.625	1436.66
473.997	1479.37
474.369	1480.95
474.74	1471.91
475.112	1523.89
475.484	1570.89
475.855	1570.44
476.227	1568.18
476.598	1630.1
476.97	1648.4
477.341	1656.54
477.713	1729.98
478.084	1707.16
478.455	1771.34
478.827	1772.69
479.198	1859.02
479.569	1840.26
479.94	1861.28
480.311	1887.49
480.682	1982.86
481.053	1983.08
481.424	2040.26
481.795	2042.97
482.166	2061.95
482.537	2110.99
482.908	2170.42
483.279	2205
483.65	2227.37
484.021	2288.39
484.391	2281.15
484.762	2330.42
485.133	2397.54
485.503	2426.46
485.874	2466.01
486.244	2460.13
486.615	2512.11
486.985	2563.86
487.356	2593.01
487.726	2609.96
488.097	2710.52
488.467	2734.48
488.837	2811.08
489.207	2833.68
489.578	2845.66
489.948	2873.68
490.318	2900.12
490.688	2985.99
491.058	3002.94
491.428	3037.97
491.798	3087.69
492.168	3131.75
492.538	3127.91
492.908	3183.73
493.278	3264.86
493.648	3231.86
494.017	3307.57
494.387	3361.58
494.757	3315.93
495.126	3397.28
495.496	3426.89
495.866	3475.02
496.235	3471.86
496.605	3527.22
496.974	3545.3
497.344	3589.82
497.713	3617.62
498.082	3647.22
498.452	3676.37
498.821	3701
499.19	3706.65
499.559	3792.98
499.928	3749.59
500.298	3823.26
500.667	3835.46
501.036	3832.98
501.405	3857.84
501.774	3912.75
502.143	3879.76
502.512	3933.09
502.88	3972.41
503.249	4004.27
503.618	4004.27
503.987	4021.67
504.356	4031.62
504.724	4055.12
505.093	4090.6
505.462	4109.36
505.83	4123.37
506.199	4181.44
506.567	4169.24
506.936	4194.1
507.304	4234.32
507.672	4239.97
508.041	4284.94
508.409	4280.65
508.777	4298.28
509.145	4343.25
509.514	4358.61
509.882	4383.7
510.25	4400.65
510.618	4417.37
510.986	4415.79
511.354	4440.87
511.722	4490.14
512.09	4509.8
512.458	4529.46
512.826	4529.01
513.193	4501.89
513.561	4623.24
513.929	4601.09
514.297	4642.22
514.664	4630.25
515.032	4652.84
515.4	4705.95
515.767	4674.99
516.135	4733.07
516.502	4695.78
516.869	4761.99
517.237	4802.67
517.604	4768.09
517.972	4814.42
518.339	4836.12
518.706	4853.74
519.073	4834.76
519.44	4903.01
519.808	4880.41
520.175	4940.52
520.542	4991.59
520.909	4983.91
521.276	4984.13
521.643	5001.31
522.009	5075.88
522.376	5052.83
522.743	5098.93
523.11	5137.8
523.477	5162.89
523.843	5140.74
524.21	5211.93
524.577	5268.42
524.943	5250.34
525.31	5298.48
525.676	5350.9
526.043	5364.01
526.409	5365.37
526.776	5403.11
527.142	5416.89
527.508	5430.45
527.874	5476.55
528.241	5502.76
528.607	5511.8
528.973	5576.89
529.339	5582.54
529.705	5570.33
530.071	5609.2
530.437	5668.64
530.803	5726.94
531.169	5733.72
531.535	5714.51
531.901	5708.64
532.267	5778.01
532.632	5858.69
532.998	5854.17
533.364	5894.39
533.73	5876.31
534.095	5968.06
534.461	5953.37
534.826	5986.14
535.192	6050.55
535.557	6018.91
535.923	6029.53
536.288	6079.92
536.653	6103.88
537.019	6098
537.384	6116.31
537.749	6164.22
538.114	6142.52
538.479	6159.24
538.845	6259.13
539.21	6182.3
539.575	6255.97
539.94	6305.68
540.305	6311.78
540.67	6331.67
541.034	6338.45
541.399	6361.27
541.764	6402.18
542.129	6378.67
542.494	6435.85
542.858	6465.45
543.223	6516.75
543.587	6516.07
543.952	6520.14
544.316	6608.27
544.681	6573.92
545.045	6607.59
545.41	6688.95
545.774	6685.33
546.138	6711.09
546.503	6697.76
546.867	6718.55
547.231	6786.8
547.595	6758.78
547.959	6836.06
548.324	6842.62
548.688	6875.61
549.052	6911.77
549.416	6912.22
549.779	6899.34
550.143	6974.36
550.507	6999.22
550.871	7030.86
551.235	6996.28
551.599	7086.68
551.962	7080.58
552.326	7092.1
552.689	7076.51
553.053	7087.13
553.417	7156.73
553.78	7239.44
554.143	7224.3
554.507	7207.35
554.87	7243.51
555.234	7248.48
555.597	7260.46
555.96	7248.26
556.323	7361.93
556.686	7393.56
557.05	7447.35
557.413	7420.91
557.776	7450.96
558.139	7453.22
558.502	7551.3
558.865	7477.4
559.228	7525.99
559.59	7623.16
559.953	7602.6
560.316	7681.24
560.679	7642.6
561.041	7693.67
561.404	7733.67
561.767	7800.33
562.129	7713.55
562.492	7809.14
562.854	7808.24
563.217	7836.49
563.579	7883.49
563.941	7954
564.304	7899.54
564.666	8048.91
565.028	7995.58
565.39	8019.08
565.753	8069.03
566.115	8099.31
566.477	8076.48
566.839	8122.13
567.201	8196.48
567.563	8187.89
567.925	8247.55
568.287	8297.95
568.648	8243.94
569.01	8344.05
569.372	8351.05
569.734	8371.39
570.095	8463.59
570.457	8426.98
570.819	8529.35
571.18	8537.26
571.542	8590.37
571.903	8588.11
572.265	8677.14
572.626	8601.44
572.987	8707.65
573.349	8747.2
573.71	8753.98
574.071	8769.35
574.432	8883.92
574.794	8993.07
575.155	9005.95
575.516	9013.86
575.877	9126.4
576.238	9098.83
576.599	9246.4
576.96	9264.25
577.32	9375.43
577.681	9430.35
578.042	9482.1
578.403	9586.73
578.763	9680.51
579.124	9697.46
579.485	9820.17
579.845	9942.87
580.206	9981.52
580.566	10044.79
580.927	10109.42
581.287	10315.29
581.648	10395.97
582.008	10513.48
582.368	10622.86
582.728	10800.7
583.089	10883.19
583.449	11079.79
583.809	11179.45
584.169	11304.42
584.529	11460.8
584.889	11768.81
585.249	11923.39
585.609	11973.56
585.969	12169.26
586.329	12340.78
586.688	12688.34
587.048	12736.25
587.408	12973.53
587.768	13213.52
588.127	13367.19
588.487	13581.65
588.846	13880.62
589.206	13980.96
589.565	14271.35
589.925	14608.97
590.284	14763.76
590.643	15093.7
591.003	15351.09
591.362	15662.05
591.721	15832.89
592.08	16162.37
592.44	16401.91
592.799	16656.37
593.158	16885.29
593.517	17240.99
593.876	17534.99
594.235	17781.99
594.593	18091.59
594.952	18353.27
595.311	18619.71
595.67	18927.5
596.029	19336.98
596.387	19656.74
596.746	19869.84
597.104	20123.4
597.463	20427.57
597.822	20803.38
598.18	20971.74
598.538	21295.57
598.897	21669.12
599.255	21745.73
599.613	22369.44
599.972	22512.04
600.33	22853.72
600.688	22980.72
601.046	23338
601.404	23664.77
601.762	24023.41
602.12	24476.28
602.478	24609.16
602.836	24886.44
603.194	25038.75
603.552	25359.19
603.91	25580.66
604.268	26072.85
604.625	26146.29
604.983	26449.56
605.341	26761.64
605.698	27065.81
606.056	27409.99
606.413	27658.79
606.771	27897.43
607.128	28107.14
607.485	28325.67
607.843	28507.36
608.2	28944.18
608.557	29173.33
608.914	29308.01
609.272	29586.88
609.629	29854.22
609.986	30124.26
610.343	30200.19
610.7	30652.61
611.057	30797.69
611.414	30979.84
611.771	31225.93
612.127	31507.05
612.484	31644.68
612.841	31856.65
613.198	32078.34
613.554	32227.26
613.911	32565.56
614.267	32674.03
614.624	32766.68
614.98	33008.71
615.337	33341.35
615.693	33273.56
616.05	33499.77
616.406	33835.81
616.762	33817.27
617.118	34043.03
617.475	34226.3
617.831	34412.29
618.187	34513.98
618.543	34627.65
618.899	34902.22
619.255	35135.88
619.611	35160.52
619.967	35381.08
620.323	35502.43
620.678	35486.84
621.034	35630.79
621.39	35659.26
621.746	35730.44
622.101	36215.63
622.457	36058.12
622.812	36338.34
623.168	36403.42
623.523	36472.12
623.879	36605
624.234	36457.88
624.589	36663.98
624.945	36803.64
625.3	37016.06
625.655	37077.3
626.01	37176.06
626.365	37198.65
626.72	37270.52
627.075	37226.68
627.43	37434.13
627.785	37368.37
628.14	37532.21
628.495	37635.25
628.85	37608.81
629.205	37540.79
629.559	37767.68
629.914	37736.49
630.269	37903.04
630.623	37835.02
630.978	37792.76
631.332	38029.82
631.687	38032.08
632.041	37945.98
632.396	38047.67
632.75	37966.32
633.104	38079.08
633.459	37927
633.813	37868.92
634.167	38054.23
634.521	38016.94
634.875	38130.16
635.229	38083.15
635.583	38008.35
635.937	38088.12
636.291	37933.55
636.645	38152.75
636.999	38008.58
637.352	38178.52
637.706	38052.64
638.06	38110.95
638.413	38061.91
638.767	38059.87
639.121	38255.58
639.474	37890.61
639.828	38019.42
640.181	38169.7
640.534	37929.71
640.888	38053.55
641.241	37910.5
641.594	37997.5
641.947	38169.02
642.301	38016.71
642.654	38106.2
643.007	38010.38
643.36	38114.34
643.713	38069.59
644.066	38273.88
644.419	37841.12
644.771	37690.39
645.124	37410.17
645.477	37305.09
645.83	37110.3
646.182	36963.63
646.535	36855.16
646.888	36988.49
647.24	36913.01
647.593	37174.02
647.945	36946.91
648.298	36890.64
648.65	36833.69
649.002	36797.99
649.355	36856.06
649.707	36858.55
650.059	36999.34
650.411	37424.86
650.763	37508.25
651.115	37859.88
651.467	37703.05
651.819	37695.36
652.171	37607.91
652.523	37665.54
652.875	37635.71
653.227	37504.18
653.578	37766.1
653.93	37581.92
654.282	37609.27
654.633	37414.02
654.985	37617.17
655.337	37446.11
655.688	37728.36
656.039	37616.5
656.391	37335.6
656.742	37393.23
657.094	37475.94
657.445	37440.46
657.796	37474.58
658.147	37401.36
658.498	37446.11
658.849	37494.24
659.2	37362.49
659.551	37383.51
659.902	37552.32
660.253	37413.79
660.604	37575.14
660.955	37352.1
661.306	37499.44
661.656	37384.41
662.007	37268.48
662.358	37432.77
662.708	37362.27
663.059	37375.37
663.409	37164.98
663.76	37512.09
664.11	37486.33
664.461	37548.25
664.811	37328.82
665.161	37461.25
665.511	37469.38
665.862	37412.43
666.212	37440.23
666.562	37438.87
666.912	37516.39
667.262	37330.4
667.612	37427.12
667.962	37427.58
668.312	37354.13
668.662	37489.27
669.011	37401.36
669.361	37257.41
669.711	37294.47
670.06	37257.64
670.41	37115.94
670.76	37221.48
671.109	37451.53
671.459	37204.76
671.808	37277.07
672.157	37297.64
672.507	37126.11
672.856	37068.71
673.205	37223.74
673.554	37323.85
673.904	37140.58
674.253	37433.45
674.602	37203.63
674.951	36739.01
675.3	36445.23
675.649	37170.86
675.998	37052.9
676.346	37181.71
676.695	37182.38
677.044	37029.17
677.393	37054.93
677.741	37054.03
678.09	36994.37
678.438	36889.28
678.787	37015.16
679.135	37095.83
679.484	36860.58
679.832	36943.97
680.181	36779.23
680.529	36968.15
680.877	36871.66
681.225	36733.81
681.573	37044.53
681.922	36696.07
682.27	36591.21
682.618	36588.28
682.966	36525.45
683.314	36609.52
683.661	36374.95
684.009	36334.72
684.357	36318.9
684.705	36260.15
685.053	36291.79
685.4	36242.75
685.748	35971.57
686.095	36099.7
686.443	36015.86
686.79	35860.16
687.138	36076.65
687.485	35887.73
687.832	35869.2
688.18	35874.85
688.527	35758.69
688.874	35660.39
689.221	35494.29
689.568	35575.42
689.915	35459.27
690.262	35417.68
690.609	35437.57
690.956	35233.28
691.303	35279.16
691.65	35038.71
691.997	34979.05
692.344	34826.29
692.69	34938.38
693.037	34869.9
693.383	34647.54
693.73	34780.64
694.077	34633.75
694.423	34608.67
694.769	34413.64
695.116	34336.58
695.462	34323.7
695.808	34190.6
696.155	34245.29
696.501	33936.37
696.847	34016.82
697.193	33888.23
697.539	33825.18
697.885	33691.18
698.231	33617.73
698.577	33716.71
698.923	33594
699.269	33346.33
699.614	33309.27
699.96	33258.87
700.306	33227.23
700.651	33123.96
700.997	32914.25
701.342	32952.44
701.688	32954.47
702.033	32754.48
702.379	32753.12
702.724	32688.72
703.069	32936.85
703.415	32367.82
703.76	32409.63
704.105	32412.79
704.45	32286.47
704.795	32090.54
705.14	32103.65
705.485	32077.21
705.83	31919.92
706.175	32024.1
706.52	31945.01
706.865	31774.39
707.209	31630.21
707.554	31732.81
707.899	31748.63
708.243	31549.09
708.588	31495.98
708.932	31455.98
709.277	31339.83
709.621	31475.19
709.966	31117.01
710.31	31215.99
710.654	30948.65
710.998	30916.56
711.342	31027.74
711.687	30910.68
712.031	30714.31
712.375	30635.66
712.719	30654.19
713.063	30673.63
713.407	30609.68
713.75	30439.51
714.094	30525.16
714.438	30275.45
714.782	30360.64
715.125	30250.36
715.469	30274.99
715.812	30139.63
716.156	30116.36
716.499	29992.74
716.843	29955
717.186	29790.04
717.53	30054.44
717.873	29920.65
718.216	29838.85
718.559	29797.49
718.902	29552.08
719.246	29522.02
719.589	29519.08
719.932	29434.11
720.275	29408.8
720.617	29428.01
720.96	29414.23
721.303	29403.15
721.646	29319.77
721.989	29188.7
722.331	29254.23
722.674	29105.31
723.016	29091.75
723.359	29026.67
723.701	29116.83
724.044	28929.72
724.386	28746.22
724.729	28823.28
725.071	28845.2
725.413	28807.91
725.755	28797.52
726.097	28740.35
726.439	28629.16
726.782	28539.9
727.124	28612.21
727.465	28401.15
727.807	28477.3
728.149	28455.61
728.491	28414.25
728.833	28339.45
729.175	28279.34
729.516	28284.99
729.858	28214.26
730.199	28270.3
730.541	28125.67
730.882	28028.05
731.224	28229.62
731.565	27931.33
731.906	28038.9
732.248	27996.86
732.589	27890.88
732.93	27744.67
733.271	27713.71
733.612	27817.66
733.953	27859.92
734.294	27614.73
734.635	27589.64
734.976	27691.33
735.317	27496.54
735.658	27526.82
735.999	27486.82
736.339	27486.82
736.68	27631.45
737.021	27460.15
737.361	27313.72
737.702	27472.81
738.042	27258.35
738.383	27283.89
738.723	27296.09
739.063	27094.97
739.404	27165.92
739.744	27108.07
740.084	27124.12
740.424	26935.87
740.764	26979.49
741.104	27155.98
741.444	26946.72
741.784	26838.7
742.124	26913.95
742.464	26727.97
742.804	26826.27
743.143	26681.87
743.483	26845.25
743.823	26626.05
744.162	26661.3
744.502	26600.06
744.841	26570.23
745.181	26690
745.52	26494.53
745.86	26539.95
746.199	26447.75
746.538	26488.2
746.877	26468.09
747.216	26410.24
747.556	26320.07
747.895	26266.06
748.234	26251.82
748.573	26180.87
748.911	26291.37
749.25	26036.69
749.589	25918.27
749.928	26090.7
750.267	26103.58
750.605	25941.32
750.944	25907.43
751.283	25862.46
751.621	25853.19
751.96	25764.61
752.298	25629.02
752.636	25697.26
752.975	25621.78
753.313	25586.3
753.651	25655.46
753.989	25502.69
754.327	25404.16
754.666	25392.41
755.004	25434.9
755.342	25323.26
755.679	25360.55
756.017	25061.57
756.355	25178.18
756.693	25120.33
757.031	25136.15
757.368	24978.86
757.706	24940.45
758.044	24934.12
758.381	25012.08
758.719	24791.98
759.056	24906.1
759.394	24755.14
759.731	24766.21
760.068	24554.02
760.405	24549.5
760.743	24434.02
761.08	24493.23
761.417	24329.16
761.754	24252.55
762.091	24306.34
762.428	24200.13
762.765	23994.48
763.102	24174.14
763.438	23881.04
763.775	23745.9
764.112	23832.9
764.449	23835.39
764.785	23781.61
765.122	23574.61
765.458	23410.09
765.795	23500.71
766.131	23474.95
766.467	23299.81
766.804	23109.76
767.14	23128.52
767.476	23176.42
767.812	23040.83
768.148	23070.21
768.485	22847.17
768.821	22724.68
769.157	22746.38
769.492	22736.44
769.828	22609.43
770.164	22490.79
770.5	22442.66
770.836	22314.53
771.171	22278.37
771.507	22234.08
771.842	22023.91
772.178	22030.69
772.513	21974.42
772.849	21908.66
773.184	21778.72
773.519	21815.33
773.855	21701.66
774.19	21599.06
774.525	21512.51
774.86	21564.26
775.195	21518.84
775.53	21280.88
775.865	21241.33
776.2	21132.86
776.535	21029.81
776.87	21082.02
777.205	20860.55
777.539	20758.63
777.874	20845.64
778.209	20686.32
778.543	20658.52
778.878	20520
779.212	20547.79
779.547	20429.38
779.881	20434.58
780.215	20291.53
780.55	20261.02
780.884	20198.42
781.218	20040.24
781.552	20043.63
781.886	20006.34
782.22	19897.87
782.554	19809.06
782.888	19574.94
783.222	19475.96
783.556	19540.36
783.889	19411.33
784.223	19221.05
784.557	19318.67
784.89	19321.16
785.224	19130.43
785.557	19078.23
785.891	19240.03
786.224	19005.01
786.558	18916.88
786.891	18874.16
787.224	18705.13
787.557	18708.29
787.891	18727.95
788.224	18647.05
788.557	18543.33
788.89	18528.86
789.223	18571.8
789.556	18365.25
789.888	18356.66
790.221	18225.82
790.554	18035.99
790.887	18152.15
791.219	18017.69
791.552	18004.58
791.884	17920.74
792.217	17766.62
792.549	17844.36
792.882	17722.1
793.214	17532.05
793.546	17650.02
793.879	17553.07
794.211	17480.53
794.543	17471.04
794.875	17340.42
795.207	17351.27
795.539	17365.73
795.871	17269.69
796.203	17231.04
796.535	17023.14
796.867	17040.99
797.198	16932.97
797.53	16964.38
797.862	16848.68
798.193	16793.54
798.525	16731.17
798.856	16766.42
799.188	16670.38
799.519	16499.31
799.85	16532.76
800.182	16497.5
800.513	16500.89
800.844	16297.96
801.175	16404.17
801.506	16272.65
801.837	16228.81
802.168	16212.77
802.499	16125.76
802.83	15992.43
803.161	16005.77
803.491	15996.05
803.822	16068.81
804.153	15903.4
804.483	15803.29
804.814	15840.57
805.145	15817.3
805.475	15707.47
805.805	15612.33
806.136	15695.49
806.466	15678.09
806.796	15559.45
807.126	15474.48
807.457	15476.06
807.787	15389.74
808.117	15256.41
808.447	15278.1
808.777	15288.72
809.107	15211.89
809.436	15129.4
809.766	15190.65
810.096	15134.15
810.426	15081.72
810.755	15061.84
811.085	15016.19
811.414	14959.47
811.744	14819.81
812.073	14853.03
812.403	14862.29
812.732	14749.98
813.061	14726.93
813.39	14636.76
813.719	14637.44
814.049	14740.49
814.378	14671.34
814.707	14541.17
815.036	14524.67
815.365	14442.87
815.693	14438.58
816.022	14302.31
816.351	14319.03
816.68	14232.93
817.008	14258.69
817.337	14100.5
817.665	14170.33
817.994	14145.25
818.322	14106.38
818.651	14114.29
818.979	14013.5
819.307	14077.45
819.636	14001.07
819.964	13925.37
820.292	14003.78
820.62	14004.24
820.948	13899.38
821.276	13922.88
821.604	13834.07
821.932	13827.97
822.259	13831.81
822.587	13812.38
822.915	13830.23
823.243	13872.26
823.57	13844.69
823.898	13834.3
824.225	13839.95
824.553	13742.77
824.88	13854.41
825.207	13888.08
825.535	13747.97
825.862	13882.66
826.189	13875.65
826.516	13879.95
826.843	13937.57
827.17	13877.23
827.497	13847.4
827.824	13830.23
828.151	13922.66
828.478	13742.55
828.805	13892.83
829.131	13761.53
829.458	13754.53
829.785	13703.68
830.111	13766.05
830.438	13806.95
830.764	13820.06
831.09	13784.13
831.417	13686.73
831.743	13810.57
832.069	13749.55
832.395	13736.9
832.722	13710.23
833.048	13596.79
833.374	13733.28
833.7	13620.07
834.026	13678.14
834.351	13721.08
834.677	13664.81
835.003	13663.23
835.329	13690.8
835.654	13523.8
835.98	13565.15
836.306	13462.1
836.631	13462.1
836.956	13495.55
837.282	13530.12
837.607	13517.47
837.932	13385.72
838.258	13376
838.583	13432.5
838.908	13293.29
839.233	13387.98
839.558	13310.47
839.883	13285.61
840.208	13187.08
840.533	13232.28
840.858	13206.29
841.182	13236.8
841.507	13193.41
841.832	13078.16
842.156	13072.74
842.481	13082.68
842.805	12972.85
843.13	12973.75
843.454	13023.92
843.778	12944.6
844.103	12768.11
844.427	12839.3
844.751	12877.71
845.075	12867.99
845.399	12856.7
845.723	12769.92
846.047	12699.19
846.371	12614.67
846.695	12640.2
847.019	12577.38
847.343	12474.11
847.666	12498.29
847.99	12434.79
848.313	12442.7
848.637	12294.9
848.96	12245.41
849.284	12260.55
849.607	12169.71
849.931	12181.91
850.254	12053.55
850.577	12024.63
850.9	11946.66
851.223	11833.45
851.546	11808.36
851.869	11796.38
852.192	11866.89
852.515	11652.89
852.838	11717.06
853.161	11651.53
853.483	11638.42
853.806	11574.02
854.129	11570.63
854.451	11470.07
854.774	11426.68
855.096	11459.9
855.419	11389.84
855.741	11304.65
856.063	11259.45
856.385	11245.44
856.708	11239.11
857.03	11195.95
857.352	11211.99
857.674	11135.61
857.996	11118.21
858.318	11023.52
858.64	11057.2
858.961	10995.28
859.283	10941.27
859.605	10893.36
859.926	10936.97
860.248	10939.23
860.57	10823.3
860.891	10891.78
861.212	10832.79
861.534	10685.23
861.855	10728.39
862.176	10718
862.498	10741.72
862.819	10687.26
863.14	10626.02
863.461	10692.01
863.782	10636.64
864.103	10554.16
864.424	10494.27
864.745	10589.64
865.065	10493.37
865.386	10468.06
865.707	10427.61
866.027	10530.43
866.348	10435.06
866.668	10447.04
866.989	10476.19
867.309	10378.79
867.63	10426.03
867.95	10343.32
868.27	10271.23
868.59	10322.3
868.91	10297.89
869.23	10275.07
869.55	10258.35
869.87	10361.85
870.19	10267.16
870.51	10225.35
870.83	10271.91
871.15	10147.16
871.469	10143.77
871.789	10188.74
872.109	10192.59
872.428	10158.46
872.748	10169.99
873.067	10108.29
873.386	10115.52
873.706	10085.7
874.025	10040.5
874.344	10027.62
874.663	9998.69
874.982	9974.96
875.301	10026.94
875.62	10030.78
875.939	9941.29
876.258	9991.01
876.577	9927.73
876.896	9945.36
877.214	9835.53
877.533	9891.35
877.852	9827.62
878.17	9775.42
878.489	9843.67
878.807	9861.97
879.125	9738.81
879.444	9755.99
879.762	9719.83
880.08	9657.91
880.398	9780.62
880.716	9746.5
881.034	9723.67
881.352	9680.96
881.67	9586.5
881.988	9619.27
882.306	9586.05
882.624	9558.25
882.941	9587.4
883.259	9511.47
883.577	9509.89
883.894	9490
884.212	9532.94
884.529	9408.42
884.846	9440.97
885.164	9417.69
885.481	9457.24
885.798	9353.96
886.115	9328.65
886.432	9290.24
886.75	9286.39
887.067	9299.28
887.383	9280.07
887.7	9239.62
888.017	9133.63
888.334	9196.45
888.651	9113.52
888.967	9113.97
889.284	9106.74
889.6	9097.02
889.917	9016.12
890.233	9001.88
890.55	8953.97
890.866	9048.21
891.182	8962.79
891.498	8907.2
891.815	8911.71
892.131	8839.17
892.447	8852.28
892.763	8794.2
893.079	8744.71
893.395	8753.07
893.71	8782.45
894.026	8773.64
894.342	8669.91
894.657	8657.71
894.973	8661.33
895.289	8628.11
895.604	8610.93
895.92	8514.89
896.235	8510.37
896.55	8509.47
896.865	8538.84
897.181	8430.6
897.496	8451.61
897.811	8409.36
898.126	8337.27
898.441	8317.38
898.756	8318.06
899.071	8313.31
899.386	8248.23
899.7	8168.91
900.015	8204.61
900.33	8104.96
900.644	8142.7
900.959	8121.45
901.273	8054.11
901.588	8045.07
901.902	8048.46
902.216	7977.5
902.531	7974.79
902.845	7974.56
903.159	7848.69
903.473	7883.04
903.787	7818.18
904.101	7798.98
904.415	7793.78
904.729	7714.01
905.042	7716.72
905.356	7713.33
905.67	7636.04
905.984	7632.88
906.297	7595.37
906.611	7501.81
906.924	7505.65
907.237	7518.08
907.551	7458.87
907.864	7448.02
908.177	7502.94
908.491	7360.8
908.804	7409.83
909.117	7342.04
909.43	7270.18
909.743	7244.41
910.056	7297.52
910.368	7224.3
910.681	7232.44
910.994	7133.91
911.307	7086.68
911.619	7083.51
911.932	7118.54
912.244	7039.45
912.557	7025.21
912.869	6964.65
913.181	6964.87
913.494	6979.79
913.806	6883.29
914.118	6848.27
914.43	6806.23
914.742	6862.96
915.054	6793.8
915.366	6764.2
915.678	6730.53
915.99	6715.84
916.302	6658.67
916.613	6650.31
916.925	6627.93
917.236	6631.1
917.548	6577.31
917.859	6566.24
918.171	6522.63
918.482	6497.32
918.794	6494.38
919.105	6358.56
919.416	6420.71
919.727	6390.65
920.038	6387.26
920.349	6363.53
920.66	6286.47
920.971	6291.9
921.282	6253.93
921.593	6220.94
921.903	6209.41
922.214	6161.28
922.525	6160.83
922.835	6118.57
923.146	6067.95
923.456	6060.72
923.767	6043.09
924.077	6055.97
924.387	6004.22
924.697	6004.67
925.008	5986.37
925.318	5940.72
925.628	5924
925.938	5826.82
926.248	5877.67
926.558	5824.79
926.867	5809.42
927.177	5789.99
927.487	5788.18
927.796	5708.86
928.106	5705.02
928.416	5649.65
928.725	5719.03
929.034	5650.11
929.344	5633.38
929.653	5625.25
929.962	5543.22
930.271	5550.45
930.581	5480.62
930.89	5508.87
931.199	5445.82
931.508	5476.1
931.817	5411.92
932.125	5384.12
932.434	5361.53
932.743	5352.26
933.051	5251.25
933.36	5286.95
933.669	5324.92
933.977	5244.69
934.286	5256.9
934.594	5257.57
934.902	5126.73
935.21	5153.62
935.519	5146.84
935.827	5132.83
936.135	5087.41
936.443	5050.57
936.751	5013.51
937.059	5026.62
937.367	5063
937.674	5014.64
937.982	5008.09
938.29	4924.25
938.597	4931.25
938.905	4888.32
939.213	4872.95
939.52	4816.68
939.827	4880.86
940.135	4827.53
940.442	4854.42
940.749	4778.04
941.056	4777.59
941.363	4738.04
941.67	4691.49
941.977	4630.25
942.284	4679.74
942.591	4657.82
942.898	4636.57
943.205	4609.23
943.511	4582.56
943.818	4576.01
944.125	4562
944.431	4568.78
944.738	4544.6
945.044	4538.72
945.35	4483.36
945.657	4456.46
945.963	4419.18
946.269	4391.16
946.575	4435
946.881	4369.46
947.187	4379.86
947.493	4332.4
947.799	4346.86
948.105	4335.11
948.41	4278.62
948.716	4229.58
949.022	4229.13
949.327	4284.49
949.633	4176.7
949.938	4212.4
950.244	4188.22
950.549	4170.37
950.854	4163.82
951.16	4115.46
951.465	4128.11
951.77	4096.02
952.075	4058.28
952.38	4037.94
952.685	4033.65
952.99	4047.44
953.294	3999.3
953.599	3943.48
953.904	3993.65
954.209	3940.77
954.513	4000.43
954.818	3922.69
955.122	3901
955.426	3883.6
955.731	3856.93
956.035	3863.03
956.339	3831.85
956.643	3839.08
956.948	3794.34
957.252	3783.04
957.556	3792.75
957.86	3790.27
958.163	3752.53
958.467	3708.91
958.771	3706.43
959.075	3737.61
959.378	3699.87
959.682	3693.55
959.985	3623.72
960.289	3625.53
960.592	3636.15
960.896	3626.88
961.199	3604.06
961.502	3595.02
961.805	3544.4
962.108	3560.9
962.411	3506.66
962.714	3489.26
963.017	3530.16
963.32	3508.47
963.623	3462.59
963.926	3456.72
964.228	3435.7
964.531	3429.6
964.833	3396.83
965.136	3349.38
965.438	3369.26
965.741	3330.62
966.043	3313.9
966.345	3308.25
966.648	3341.01
966.95	3306.44
967.252	3254.69
967.554	3269.6
967.856	3250.85
968.158	3244.75
968.46	3223.28
968.761	3224.18
969.063	3226.44
969.365	3230.28
969.666	3170.17
969.968	3148.93
970.269	3125.43
970.571	3165.88
970.872	3134.47
971.174	3110.96
971.475	3132.88
971.776	3100.57
972.077	3116.61
972.378	3053.34
972.679	3051.08
972.98	3037.29
973.281	3002.49
973.582	3018.54
973.883	2977.41
974.183	2984.87
974.484	2952.32
974.785	2968.14
975.085	2931.31
975.386	2934.7
975.686	2909.61
975.986	2908.26
976.287	2889.73
976.587	2833.68
976.887	2861.48
977.187	2823.29
977.487	2847.92
977.787	2818.09
978.087	2818.99
978.387	2814.93
978.687	2778.09
978.987	2772.44
979.286	2746.45
979.586	2723.85
979.885	2727.92
980.185	2727.7
980.484	2712.1
980.784	2670.3
981.083	2675.04
981.382	2699.9
981.682	2681.37
981.981	2658.09
982.28	2634.37
982.579	2612.9
982.878	2627.59
983.177	2625.55
983.475	2604.54
983.774	2621.94
984.073	2541.71
984.372	2558.66
984.67	2561.15
984.969	2528.38
985.267	2525.89
985.566	2523.41
985.864	2489.28
986.162	2520.7
986.461	2459.91
986.759	2440.02
987.057	2460.59
987.355	2443.18
987.653	2420.13
987.951	2415.39
988.249	2406.12
988.547	2415.16
988.844	2384.65
989.142	2383.98
989.44	2367.25
989.737	2372.23
990.035	2362.28
990.332	2333.36
990.63	2322.51
990.927	2360.47
991.224	2277.31
991.521	2306.69
991.819	2310.76
992.116	2301.72
992.413	2277.31
992.71	2251.55
993.006	2225.34
993.303	2234.15
993.6	2263.98
993.897	2226.47
994.193	2221.95
994.49	2199.8
994.787	2175.39
995.083	2184.89
995.379	2168.16
995.676	2162.74
995.972	2155.96
996.268	2142.63
996.565	2094.94
996.861	2113.93
997.157	2100.82
997.453	2091.33
997.749	2072.35
998.044	2102.63
998.34	2075.51
998.636	2085
998.932	2023.53
999.227	2064.21
999.523	2056.08
999.818	2007.94
1000.114	2026.47
1000.409	2010.2
1000.704	1990.54
1001	1945.8
1001.295	1973.37
1001.59	1953.48
1001.885	1944.89
1002.18	1947.6
1002.475	1900.6
1002.77	1899.47
1003.065	1920.49
1003.359	1905.12
1003.654	1856.53
1003.949	1873.93
1004.243	1875.74
1004.538	1834.16
1004.832	1871.22
1005.127	1830.09
1005.421	1808.4
1005.715	1798
1006.009	1783.99
1006.304	1798.23
1006.598	1751.23
1006.892	1789.64
1007.186	1743.09
1007.48	1767.95
1007.773	1736.76
1008.067	1739.25
1008.361	1709.42
1008.655	1710.77
1008.948	1697.22
1009.242	1701.06
1009.535	1687.27
1009.829	1704.9
1010.122	1662.41
1010.415	1640.72
1010.708	1639.36
1011.001	1643.21
1011.295	1642.08
1011.588	1624
1011.881	1638.46
1012.173	1594.62
1012.466	1607.27
1012.759	1582.19
1013.052	1571.79
1013.344	1554.62
1013.637	1590.1
1013.93	1544
1014.222	1527.73
1014.514	1527.05
1014.807	1531.12
1015.099	1506.26
1015.391	1475.75
1015.683	1504.9
1015.976	1467.62
1016.268	1458.58
1016.56	1446.15
1016.851	1456.77
1017.143	1465.36
1017.435	1439.37
1017.727	1439.14
1018.018	1444.57
1018.31	1407.73
1018.602	1426.04
1018.893	1386.71
1019.185	1382.87
1019.476	1380.61
1019.767	1372.03
1020.058	1365.7
1020.35	1375.19
1020.641	1344.46
1020.932	1359.82
1021.223	1359.37
1021.514	1324.12
1021.804	1283.44
1022.095	1308.52
1022.386	1274.85
1022.677	1328.41
1022.967	1272.82
1023.258	1281.41
1023.548	1262.42
1023.839	1260.16
1024.129	1262.88
1024.419	1226.27
1024.709	1245.25
1025	1212.26
1025.29	1212.71
1025.58	1186.49
1025.87	1185.36
1026.16	1183.1
1026.449	1212.71
1026.739	1193.27
1027.029	1172.48
1027.319	1175.65
1027.608	1173.84
1027.898	1158.47
1028.187	1139.04
1028.477	1125.25
1028.766	1106.5
1029.055	1113.5
1029.344	1134.97
1029.634	1114.41
1029.923	1083.9
1030.212	1101.52
1030.501	1067.63
1030.79	1067.63
1031.078	1066.72
1031.367	1041.87
1031.656	1058.59
1031.945	1063.56
1032.233	1031.7
1032.522	1038.93
1032.81	1036.89
1033.099	1028.98
1033.387	1024.46
1033.675	1027.4
1033.963	1040.96
1034.251	984.47
1034.54	987.18
1034.828	963
1035.116	985.37
1035.403	966.16
1035.691	984.69
1035.979	957.12
1036.267	986.05
1036.554	946.95
1036.842	927.29
1037.129	941.98
1037.417	913.51
1037.704	952.83
1037.992	930.68
1038.279	921.19
1038.566	916.44
1038.853	916.44
1039.14	916.44
