Data from hue_100_FLMS001491_00083.txt Node
Date: Tue Feb 07 17:03:46 GMT 2017
User: dcchb
Spectrometer: FLMS00149
Trigger mode: 0
Integration Time (sec): 2.000000E-2
Scans to average: 10
Electric dark correction enabled: true
Nonlinearity correction enabled: false
Boxcar width: 0
XAxis mode: Wavelengths
Number of Pixels in Spectrum: 2048
>>>>>Begin Spectral Data<<<<<
341.393	-35.61
341.776	-35.61
342.16	-35.61
342.543	-66.79
342.927	-71.09
343.31	-47.58
343.693	-65.44
344.077	-55.04
344.46	-61.82
344.843	-53.23
345.226	-24.53
345.61	-26.57
345.993	-20.47
346.376	-10.52
346.759	-16.4
347.142	10.95
347.525	33.32
347.908	51.17
348.291	66.54
348.674	98.18
349.057	121.45
349.44	113.32
349.823	123.71
350.206	175.01
350.588	199.42
350.971	234.44
351.354	216.59
351.737	214.56
352.119	237.15
352.502	270.37
352.884	273.99
353.267	282.35
353.65	288
354.032	299.07
354.414	319.64
354.797	330.26
355.179	296.59
355.562	320.54
355.944	309.47
356.326	329.58
356.709	326.19
357.091	345.85
357.473	341.33
357.855	344.95
358.238	335.01
358.62	349.47
359.002	343.14
359.384	316.25
359.766	342.01
360.148	335.46
360.53	351.95
360.912	329.36
361.294	340.43
361.676	353.76
362.057	354.67
362.439	342.69
362.821	332.29
363.203	342.24
363.584	339.52
363.966	324.38
364.348	321.22
364.729	313.54
365.111	311.96
365.493	314.67
365.874	323.03
366.256	321.45
366.637	318.06
367.019	307.21
367.4	321.22
367.781	320.09
368.163	333.2
368.544	320.32
368.925	304.05
369.306	312.18
369.688	310.37
370.069	310.37
370.45	322.12
370.831	329.81
371.212	317.83
371.593	319.19
371.974	323.48
372.355	306.53
372.736	331.39
373.117	320.99
373.498	322.8
373.879	335.01
374.26	307.21
374.641	325.74
375.021	329.13
375.402	328.45
375.783	340.43
376.163	335.01
376.544	325.06
376.925	320.32
377.305	344.04
377.686	337.72
378.066	334.78
378.447	320.77
378.827	332.07
379.208	349.24
379.588	338.62
379.968	348.11
380.349	325.74
380.729	314.89
381.109	324.84
381.489	342.69
381.87	372.29
382.25	358.28
382.63	351.28
383.01	372.07
383.39	330.26
383.77	340.65
384.15	364.38
384.53	363.25
384.91	368.9
385.29	361.67
385.67	369.58
386.049	370.03
386.429	337.94
386.809	358.96
387.189	364.84
387.568	362.35
387.948	359.86
388.328	363.48
388.707	379.98
389.087	376.13
389.466	355.34
389.846	382.46
390.225	383.14
390.605	394.44
390.984	386.76
391.363	391.5
391.743	386.3
392.122	386.53
392.501	374.1
392.881	401.67
393.26	399.18
393.639	374.1
394.018	397.6
394.397	395.12
394.776	391.95
395.155	397.38
395.534	393.31
395.913	373.65
396.292	396.25
396.671	392.18
397.05	394.89
397.429	408
397.808	400.31
398.186	411.39
398.565	417.26
398.944	419.52
399.323	411.39
399.701	426.3
400.08	418.39
400.458	424.04
400.837	424.95
401.215	436.47
401.594	444.15
401.972	411.16
402.351	422.46
402.729	430.14
403.107	471.5
403.486	443.93
403.864	456.81
404.242	421.78
404.62	443.48
404.999	456.13
405.377	472.63
405.755	449.58
406.133	483.93
406.511	462.01
406.889	444.38
407.267	480.09
407.645	475.34
408.023	478.05
408.401	490.93
408.779	494.32
409.156	496.13
409.534	488
409.912	472.4
410.29	492.29
410.667	508.79
411.045	507.88
411.422	492.74
411.8	506.3
412.178	506.53
412.555	499.29
412.933	510.59
413.31	514.44
413.687	517.6
414.065	528.45
414.442	544.72
414.819	520.31
415.197	546.53
415.574	546.98
415.951	543.81
416.328	545.62
416.705	552.63
417.082	538.62
417.46	566.19
417.837	567.77
418.214	585.85
418.591	581.33
418.967	567.09
419.344	564.6
419.721	572.51
420.098	582.23
420.475	568.9
420.852	578.61
421.228	594.43
421.605	575.9
421.982	616.13
422.358	615.22
422.735	594.21
423.111	605.51
423.488	627.65
423.864	609.57
424.241	634.43
424.617	629.91
424.994	618.39
425.37	637.82
425.746	649.57
426.123	627.88
426.499	684.83
426.875	680.31
427.251	669.46
427.627	664.26
428.003	674.43
428.379	676.24
428.756	685.73
429.132	703.36
429.507	704.04
429.883	695.22
430.259	725.28
430.635	730.7
431.011	721.44
431.387	748.55
431.763	749.91
432.138	751.04
432.514	728.44
432.89	760.08
433.265	767.54
433.641	789.68
434.016	803.24
434.392	803.02
434.767	807.08
435.143	816.57
435.518	800.76
435.894	837.14
436.269	849.12
436.644	830.59
437.02	835.33
437.395	854.09
437.77	861.55
438.145	857.25
438.52	889.12
438.895	880.3
439.271	885.73
439.646	907.19
440.021	919.85
440.395	924.37
440.77	913.52
441.145	909.45
441.52	942.45
441.895	934.31
442.27	950.13
442.645	961.43
443.019	944.25
443.394	945.61
443.769	944.48
444.143	954.65
444.518	977.02
444.892	946.29
445.267	986.06
445.641	985.61
446.016	978.15
446.39	1007.98
446.764	989
447.139	1028.32
447.513	996
447.887	1011.37
448.262	1010.69
448.636	1039.17
449.01	1027.19
449.384	1057.02
449.758	1064.25
450.132	1092.27
450.506	1062.44
450.88	1093.63
451.254	1085.49
451.628	1112.61
452.002	1129.11
452.376	1154.19
452.75	1152.61
453.123	1152.84
453.497	1153.06
453.871	1172.72
454.244	1191.03
454.618	1203.23
454.992	1214.53
455.365	1217.47
455.739	1252.5
456.112	1257.01
456.486	1268.99
456.859	1280.97
457.232	1305.6
457.606	1299.95
457.979	1335.21
458.352	1329.56
458.725	1330.46
459.099	1353.51
459.472	1395.54
459.845	1410.91
460.218	1429.21
460.591	1442.55
460.964	1466.73
461.337	1477.57
461.71	1501.08
462.083	1515.09
462.456	1526.39
462.829	1528.42
463.201	1577.91
463.574	1575.65
463.947	1572.71
464.32	1631.47
464.692	1636.44
465.065	1641.41
465.438	1698.59
465.81	1714.86
466.183	1747.62
466.555	1785.59
466.928	1785.81
467.3	1811.12
467.672	1845.25
468.045	1860.16
468.417	1950.78
468.789	1921.18
469.161	1980.16
469.534	1987.62
469.906	2022.19
470.278	2042.76
470.65	2102.42
471.022	2129.31
471.394	2161.62
471.766	2227.61
472.138	2272.36
472.51	2319.59
472.882	2315.07
473.253	2402.97
473.625	2459.24
473.997	2507.6
474.369	2529.98
474.74	2578.56
475.112	2630.31
475.484	2745.79
475.855	2811.55
476.227	2870.53
476.598	2910.08
476.97	2971.55
477.341	3079.79
477.713	3129.96
478.084	3162.95
478.455	3311.2
478.827	3349.84
479.198	3501.25
479.569	3547.35
479.94	3598.87
480.311	3698.53
480.682	3835.93
481.053	3977.4
481.424	4064.4
481.795	4108.24
482.166	4255.13
482.537	4389.81
482.908	4454.45
483.279	4574.44
483.65	4722.69
484.021	4805.85
484.391	4975.34
484.762	5085.16
485.133	5174.43
485.503	5292.39
485.874	5481.08
486.244	5589.1
486.615	5695.54
486.985	5886.95
487.356	6036.1
487.726	6138.69
488.097	6355.86
488.467	6430.66
488.837	6652.13
489.207	6775.97
489.578	6967.15
489.948	7071.1
490.318	7267.25
490.688	7394.93
491.058	7520.58
491.428	7722.38
491.798	7848.03
492.168	8060.45
492.538	8205.76
492.908	8366.21
493.278	8545.41
493.648	8587.44
494.017	8782.47
494.387	8956.7
494.757	9055.45
495.126	9201.89
495.496	9301.78
495.866	9500.41
496.235	9678.49
496.605	9808.88
496.974	9984.7
497.344	9981.31
497.713	10202.99
498.082	10338.58
498.452	10478.69
498.821	10575.64
499.19	10722.08
499.559	10743.55
499.928	10949.42
500.298	11061.5
500.667	11202.97
501.036	11266.24
501.405	11385.34
501.774	11410.87
502.143	11569.74
502.512	11737.87
502.88	11870.52
503.249	11875.72
503.618	12012.44
503.987	12184.64
504.356	12243.84
504.724	12352.54
505.093	12391.19
505.462	12455.59
505.83	12585.3
506.199	12667.56
506.567	12891.51
506.936	12888.8
507.304	13039.76
507.672	13187.77
508.041	13079.3
508.409	13216.7
508.777	13368.33
509.145	13400.2
509.514	13481.33
509.882	13562.45
510.25	13640.42
510.618	13721.55
510.986	13731.49
511.354	13897.81
511.722	14012.84
512.09	14159.05
512.458	14069.33
512.826	14180.97
513.193	14248.09
513.561	14271.36
513.929	14374.64
514.297	14463
514.664	14500.96
515.032	14554.74
515.4	14721.52
515.767	14692.59
516.135	14757.68
516.502	14758.13
516.869	14924.45
517.237	14921.51
517.604	14789.31
517.972	14979.59
518.339	15030.21
518.706	15089.87
519.073	15099.59
519.44	15194.28
519.808	15370.54
520.175	15226.59
520.542	15413.93
520.909	15413.7
521.276	15381.62
521.643	15539.8
522.009	15571.21
522.376	15677.43
522.743	15697.09
523.11	15752.45
523.477	15843.52
523.843	15893.69
524.21	15996.74
524.577	16100.69
524.943	16034.71
525.31	16075.16
525.676	16215.49
526.043	16156.74
526.409	16244.64
526.776	16291.87
527.142	16265.43
527.508	16422.94
527.874	16363.74
528.241	16405.32
528.607	16434.24
528.973	16477.86
529.339	16506.11
529.705	16632.88
530.071	16592.2
530.437	16684.41
530.803	16661.13
531.169	16661.58
531.535	16650.51
531.901	16626.33
532.267	16666.33
532.632	16682.37
532.998	16637.63
533.364	16796.04
533.73	16792.2
534.095	16739.77
534.461	16732.54
534.826	16785.87
535.192	16805.53
535.557	16768.02
535.923	16743.39
536.288	16635.14
536.653	16738.87
537.019	16617.52
537.384	16671.98
537.749	16692.09
538.114	16634.46
538.479	16584.07
538.845	16584.97
539.21	16537.07
539.575	16494.35
539.94	16524.18
540.305	16481.47
540.67	16472.43
541.034	16512.89
541.399	16444.64
541.764	16444.19
542.129	16379.56
542.494	16434.02
542.858	16388.59
543.223	16333.68
543.587	16382.04
543.952	16296.85
544.316	16273.34
544.681	16244.64
545.045	16253.68
545.41	16306.56
545.774	16253.23
546.138	16136.17
546.503	16093.24
546.867	16052.78
547.231	16229.73
547.595	16147.92
547.959	16099.11
548.324	15965.55
548.688	15966.23
549.052	15984.09
549.416	15895.27
549.779	15881.26
550.143	15866.57
550.507	15992.45
550.871	15850.3
551.235	15857.76
551.599	15920.36
551.962	15788.84
552.326	15831.1
552.689	15861.6
553.053	15747.03
553.417	15660.7
553.78	15800.59
554.143	15686.69
554.507	15730.08
554.87	15686.01
555.234	15752.23
555.597	15702.96
555.96	15643.53
556.323	15653.47
556.686	15625.68
557.05	15574.83
557.413	15629.07
557.776	15665.9
558.139	15665.45
558.502	15626.13
558.865	15667.94
559.228	15686.92
559.59	15714.04
559.953	15634.72
560.316	15825.9
560.679	15782.51
561.041	15719.91
561.404	15781.15
561.767	15865.67
562.129	15728.5
562.492	15795.39
562.854	15729.85
563.217	15743.64
563.579	15790.64
563.941	15831.77
564.304	15930.08
564.666	15877.42
565.028	15942.96
565.39	15899.12
565.753	15925.78
566.115	15974.37
566.477	15958.55
566.839	15907.03
567.201	16061.15
567.563	15997.42
567.925	16096.4
568.287	16066.12
568.648	16131.65
569.01	16215.27
569.372	16245.77
569.734	16181.14
570.095	16252.1
570.457	16247.81
570.819	16322.83
571.18	16259.56
571.542	16308.82
571.903	16249.16
572.265	16395.15
572.626	16391.76
572.987	16397.18
573.349	16499.1
573.71	16397.18
574.071	16377.52
574.432	16442.15
574.794	16398.31
575.155	16475.82
575.516	16376.84
575.877	16554.47
576.238	16490.74
576.599	16464.07
576.96	16478.99
577.32	16549.27
577.681	16565.54
578.042	16495.94
578.403	16544.75
578.763	16504.52
579.124	16643.28
579.485	16644.41
579.845	16711.3
580.206	16512.89
580.566	16611.64
580.927	16640.11
581.287	16675.59
581.648	16587.01
582.008	16608.93
582.368	16568.93
582.728	16584.52
583.089	16499.55
583.449	16466.11
583.809	16471.98
584.169	16603.28
584.529	16493
584.889	16568.48
585.249	16513.11
585.609	16450.29
585.969	16537.07
586.329	16467.24
586.688	16470.4
587.048	16509.72
587.408	16415.03
587.768	16430.4
588.127	16411.87
588.487	16449.84
588.846	16533.9
589.206	16398.54
589.565	16438.54
589.925	16449.61
590.284	16390.4
590.643	16387.01
591.003	16440.57
591.362	16426.79
591.721	16358.76
592.08	16378.88
592.44	16475.15
592.799	16420.46
593.158	16392.44
593.517	16395.6
593.876	16373
594.235	16318.77
594.593	16257.75
594.952	16295.72
595.311	16279.44
595.67	16262.72
596.029	16383.85
596.387	16398.54
596.746	16365.54
597.104	16324.64
597.463	16251.65
597.822	16338.65
598.18	16317.18
598.538	16274.7
598.897	16391.76
599.255	16214.36
599.613	16360.35
599.972	16351.31
600.33	16335.71
600.688	16260.01
601.046	16259.78
601.404	16326.22
601.762	16283.74
602.12	16391.31
602.478	16382.27
602.836	16370.97
603.194	16275.6
603.552	16379.56
603.91	16231.31
604.268	16275.83
604.625	16223.4
604.983	16366.9
605.341	16160.8
605.698	16315.15
606.056	16296.17
606.413	16314.02
606.771	16377.97
607.128	16354.92
607.485	16203.97
607.843	16315.6
608.2	16388.82
608.557	16347.01
608.914	16462.94
609.272	16375.49
609.629	16497.74
609.986	16524.18
610.343	16385.88
610.7	16594.69
611.057	16565.31
611.414	16473.11
611.771	16498.87
612.127	16556.05
612.484	16600.34
612.841	16615.03
613.198	16530.74
613.554	16543.62
613.911	16593.56
614.267	16569.83
614.624	16562.6
614.98	16603.28
615.337	16695.25
615.693	16641.7
616.05	16650.73
616.406	16682.6
616.762	16757.85
617.118	16682.15
617.475	16739.09
617.831	16743.16
618.187	16720.34
618.543	16750.39
618.899	16824.74
619.255	16800.79
619.611	16782.26
619.967	16829.94
620.323	16873.78
620.678	16760.56
621.034	16771.41
621.39	16776.61
621.746	16699.32
622.101	16939.31
622.457	16676.5
622.812	16890.5
623.168	16857.51
623.523	16847.79
623.879	16842.37
624.234	16721.69
624.589	16834.68
624.945	16832.2
625.3	16866.77
625.655	16805.98
626.01	16858.86
626.365	16758.3
626.72	16785.19
627.075	16773.67
627.43	16820.45
627.785	16815.48
628.14	16790.17
628.495	16860.9
628.85	16813.67
629.205	16703.16
629.559	16782.93
629.914	16681.24
630.269	16706.55
630.623	16780.45
630.978	16645.31
631.332	16780
631.687	16741.81
632.041	16721.02
632.396	16751.07
632.75	16657.74
633.104	16780.45
633.459	16588.59
633.813	16655.71
634.167	16603.28
634.521	16467.24
634.875	16660.9
635.229	16448.93
635.583	16464.52
635.937	16481.02
636.291	16358.99
636.645	16500.68
636.999	16438.54
637.352	16404.64
637.706	16375.49
638.06	16364.87
638.413	16365.77
638.767	16425.43
639.121	16375.71
639.474	16336.84
639.828	16301.14
640.181	16311.76
640.534	16301.82
640.888	16270.86
641.241	16150.63
641.594	16143.4
641.947	16275.15
642.301	16114.93
642.654	16206.23
643.007	16146.12
643.36	16163.97
643.713	16089.85
644.066	16141.37
644.419	16046
644.771	16032.45
645.124	15870.19
645.477	15798.78
645.83	15646.47
646.182	15598.11
646.535	15633.13
646.888	15592.23
647.24	15461.61
647.593	15637.43
647.945	15566.7
648.298	15511.1
648.65	15466.13
649.002	15477.21
649.355	15579.35
649.707	15567.6
650.059	15595.85
650.411	15801.04
650.763	15901.6
651.115	15944.54
651.467	15894.37
651.819	15978.89
652.171	15883.3
652.523	15894.6
652.875	15913.13
653.227	15885.1
653.578	15874.26
653.93	15868.83
654.282	15833.35
654.633	15844.43
654.985	15885.56
655.337	15921.04
655.688	15822.51
656.039	15950.87
656.391	15801.04
656.742	15974.59
657.094	15922.62
657.445	15989.73
657.796	15888.04
658.147	15874.94
658.498	15890.98
658.849	15890.75
659.2	15996.06
659.551	15843.52
659.902	15897.08
660.253	15899.79
660.604	15983.41
660.955	15843.52
661.306	15900.92
661.656	15880.13
662.007	15842.85
662.358	15932.56
662.708	15934.82
663.059	15908.16
663.409	15803.98
663.76	15959
664.11	15848.72
664.461	15891.66
664.811	15967.14
665.161	15942.73
665.511	15968.94
665.862	15958.1
666.212	15898.89
666.562	16003.07
666.912	15935.27
667.262	15920.81
667.612	15907.7
667.962	16022.5
668.312	15965.33
668.662	16045.33
669.011	15982.96
669.361	15866.35
669.711	15971.66
670.06	15831.77
670.41	15903.18
670.76	15806.24
671.109	15963.07
671.459	15899.79
671.808	15842.85
672.157	15877.87
672.507	15752.68
672.856	15783.86
673.205	15826.35
673.554	15806.46
673.904	15835.84
674.253	15852.79
674.602	15687.37
674.951	15561.72
675.3	15525.34
675.649	15709.29
675.998	15751.1
676.346	15712.68
676.695	15737.54
677.044	15697.09
677.393	15630.65
677.741	15649.86
678.09	15639.46
678.438	15589.97
678.787	15657.09
679.135	15690.08
679.484	15501.84
679.832	15621.84
680.181	15498.45
680.529	15538.67
680.877	15446.25
681.225	15434.95
681.573	15483.31
681.922	15409.86
682.27	15354.27
682.618	15356.53
682.966	15290.09
683.314	15322.63
683.661	15292.58
684.009	15212.35
684.357	15161.73
684.705	15059.14
685.053	15113.83
685.4	15124.9
685.748	14973.26
686.095	14996.09
686.443	14987.5
686.79	14920.61
687.138	14964.9
687.485	14934.62
687.832	14779.6
688.18	14814.17
688.527	14753.61
688.874	14678.58
689.221	14700.73
689.568	14642.88
689.915	14635.19
690.262	14605.82
690.609	14570.34
690.956	14616.89
691.303	14533.5
691.65	14472.26
691.997	14377.35
692.344	14250.12
692.69	14296.45
693.037	14269.1
693.383	14140.07
693.73	14222.55
694.077	14091.25
694.423	14044.48
694.769	14044.25
695.116	14039.73
695.462	13979.62
695.808	13925.16
696.155	13983.01
696.501	13742.11
696.847	13821.43
697.193	13722.9
697.539	13703.92
697.885	13599.97
698.231	13567.65
698.577	13551.38
698.923	13597.26
699.269	13425.51
699.614	13402.46
699.96	13350.03
700.306	13247.43
700.651	13205.63
700.997	13233.65
701.342	13166.76
701.688	13148.68
702.033	13018.51
702.379	13016.25
702.724	12956.37
703.069	13012.64
703.415	12911.4
703.76	12831.85
704.105	12819.65
704.45	12807.9
704.795	12639.77
705.14	12663.27
705.485	12657.62
705.83	12553.89
706.175	12637.96
706.52	12606.1
706.865	12542.14
707.209	12541.69
707.554	12451.07
707.899	12485.87
708.243	12378.98
708.588	12412.88
708.932	12255.14
709.277	12242.71
709.621	12335.37
709.966	12197.52
710.31	12191.87
710.654	12158.2
710.998	12190.29
711.342	12098.31
711.687	12036.62
712.031	12008.6
712.375	12007.24
712.719	11969.28
713.063	11973.57
713.407	11931.31
713.75	11890.18
714.094	11975.15
714.438	11923.18
714.782	11822.84
715.125	11760.02
715.469	11860.13
715.812	11706.23
716.156	11755.72
716.499	11702.39
716.843	11685.22
717.186	11601.6
717.53	11683.86
717.873	11647.25
718.216	11608.61
718.559	11644.76
718.902	11489.29
719.246	11549.85
719.589	11524.09
719.932	11437.54
720.275	11431.44
720.617	11451.1
720.96	11422.4
721.303	11379.91
721.646	11433.92
721.989	11330.65
722.331	11441.38
722.674	11385.79
723.016	11375.62
723.359	11405.22
723.701	11358.9
724.044	11366.35
724.386	11298.33
724.729	11337.43
725.071	11308.95
725.413	11307.15
725.755	11275.28
726.097	11223.76
726.439	11173.14
726.782	11182.86
727.124	11250.2
727.465	11176.3
727.807	11182.86
728.149	11209.3
728.491	11179.47
728.833	11226.24
729.175	11087.94
729.516	11145.34
729.858	11173.82
730.199	11215.17
730.541	11136.98
730.882	11112.35
731.224	11137.43
731.565	11023.99
731.906	11094.04
732.248	11111.67
732.589	11079.81
732.93	11039.36
733.271	11019.02
733.612	11113.48
733.953	11096.76
734.294	11035.74
734.635	11003.65
734.976	11025.12
735.317	11065.8
735.658	11119.35
735.999	11089.3
736.339	11063.99
736.68	11148.73
737.021	11054.27
737.361	11054.95
737.702	11106.25
738.042	11092.24
738.383	11067.6
738.723	11145.34
739.063	11084.78
739.404	11142.86
739.744	11132.24
740.084	11077.32
740.424	11072.12
740.764	11092.91
741.104	11223.76
741.444	11096.98
741.784	11110.09
742.124	11116.42
742.464	11176.75
742.804	11146.02
743.143	11182.86
743.483	11179.24
743.823	11289.07
744.162	11316.19
744.502	11324.09
744.841	11246.13
745.181	11415.62
745.52	11367.71
745.86	11477.99
746.199	11499.46
746.538	11491.77
746.877	11613.8
747.216	11666.01
747.556	11758.43
747.895	11708.72
748.234	11741.03
748.573	11807.47
748.911	11808.83
749.25	11952.1
749.589	11993.91
749.928	12140.8
750.267	12145.77
750.605	12237.74
750.944	12220.79
751.283	12392.09
751.621	12477.28
751.96	12520.45
752.298	12625.08
752.636	12753.44
752.975	12870.27
753.313	12992.53
753.651	13098.51
753.989	13153.65
754.327	13193.88
754.666	13337.6
755.004	13446.75
755.342	13636.12
755.679	13772.17
756.017	13911.6
756.355	14045.83
756.693	14069.11
757.031	14346.39
757.368	14346.84
757.706	14618.92
758.044	14641.52
758.381	14922.87
758.719	15016.88
759.056	15229.75
759.394	15363.08
759.731	15456.87
760.068	15593.14
760.405	15756.75
760.743	15912.22
761.08	16195.38
761.417	16215.04
761.754	16398.31
762.091	16681.92
762.428	16774.35
762.765	16806.89
763.102	17138.18
763.438	17258.85
763.775	17441.45
764.112	17613.42
764.449	17831.72
764.785	17830.36
765.122	18052.05
765.458	18092.5
765.795	18285.27
766.131	18474.64
766.467	18556.9
766.804	18697.69
767.14	18922.54
767.476	18940.84
767.812	19114.4
768.148	19292.7
768.485	19289.08
768.821	19399.14
769.157	19508.29
769.492	19658.34
769.828	19829.18
770.164	19805.45
770.5	19920.03
770.836	20087.03
771.171	20090.19
771.507	20202.51
771.842	20160.92
772.178	20322.73
772.513	20398.21
772.849	20409.28
773.184	20531.54
773.519	20669.16
773.855	20701.93
774.19	20697.41
774.525	20818.76
774.86	20868.25
775.195	20868.48
775.53	20856.73
775.865	20943.73
776.2	20817.86
776.535	20783.51
776.87	20883.84
777.205	20950.51
777.539	20910.28
777.874	21071.41
778.209	20915.71
778.543	20942.15
778.878	21012.2
779.212	21028.7
779.547	21030.05
779.881	21100.34
780.215	21002.48
780.55	21158.19
780.884	20994.8
781.218	21116.83
781.552	21117.51
781.886	20947.12
782.22	20995.93
782.554	21044.52
782.888	20957.97
783.222	20886.1
783.556	20799.78
783.889	20769.04
784.223	20676.17
784.557	20818.99
784.89	20919.32
785.224	20669.61
785.557	20621.7
785.891	20697.41
786.224	20756.39
786.558	20719.78
786.891	20555.94
787.224	20559.33
787.557	20437.3
787.891	20491.76
788.224	20531.54
788.557	20409.28
788.89	20515.94
789.223	20440.69
789.556	20343.97
789.888	20368.83
790.221	20173.81
790.554	20172.9
790.887	20213.35
791.219	20101.94
791.552	20051.1
791.884	20056.97
792.217	20078.67
792.549	20037.54
792.882	19959.35
793.214	19898.11
793.546	19953.25
793.879	19676.19
794.211	19649.98
794.543	19835.28
794.875	19684.78
795.207	19754.83
795.539	19576.08
795.871	19582.63
796.203	19447.72
796.535	19333.6
796.867	19381.74
797.198	19410.66
797.53	19295.41
797.862	19195.53
798.193	19327.27
798.525	19161.4
798.856	19205.92
799.188	18966.61
799.519	18886.83
799.85	18859.49
800.182	18906.95
800.513	18922.54
800.844	18820.39
801.175	18881.41
801.506	18803.45
801.837	18786.72
802.168	18629.89
802.499	18601.87
802.83	18578.59
803.161	18541.76
803.491	18480.52
803.822	18465.15
804.153	18387.86
804.483	18343.8
804.814	18253.18
805.145	18282.78
805.475	18285.27
805.805	18154.2
806.136	18166.17
806.466	18164.82
806.796	18157.81
807.126	17929.12
807.457	18008.89
807.787	17992.62
808.117	17958.5
808.447	17732.06
808.777	17753.3
809.107	17781.78
809.436	17716.24
809.766	17630.14
810.096	17639.41
810.426	17545.63
810.755	17576.13
811.085	17583.14
811.414	17436.48
811.744	17339.76
812.073	17335.46
812.403	17371.39
812.732	17275.58
813.061	17297.05
813.39	17204.84
813.719	17137.28
814.049	17280.32
814.378	17141.34
814.707	17069.25
815.036	17058.18
815.365	17051.63
815.693	16859.32
816.022	16882.82
816.351	16822.48
816.68	16838.75
817.008	16802.37
817.337	16627.23
817.665	16730.05
817.994	16708.36
818.322	16732.77
818.651	16558.31
818.979	16549.95
819.307	16744.74
819.636	16533.68
819.964	16512.89
820.292	16510.17
820.62	16573.22
820.948	16591.53
821.276	16513.34
821.604	16429.95
821.932	16416.84
822.259	16552.88
822.587	16485.09
822.915	16406.9
823.243	16470.85
823.57	16499.33
823.898	16502.72
824.225	16328.94
824.553	16378.65
824.88	16482.38
825.207	16525.09
825.535	16320.57
825.862	16446.9
826.189	16288.03
826.516	16430.4
826.843	16446.67
827.17	16376.84
827.497	16541.36
827.824	16459.78
828.151	16588.36
828.478	16477.18
828.805	16567.57
829.131	16352.21
829.458	16358.99
829.785	16348.37
830.111	16371.87
830.438	16526.22
830.764	16495.03
831.09	16429.27
831.417	16342.49
831.743	16496.16
832.069	16501.59
832.395	16387.69
832.722	16414.58
833.048	16386.11
833.374	16341.36
833.7	16273.34
834.026	16263.63
834.351	16283.51
834.677	16279.9
835.003	16281.48
835.329	16306.34
835.654	16302.27
835.98	16250.07
836.306	16288.48
836.631	16213.91
836.956	16253.91
837.282	16227.02
837.607	16100.69
837.932	16101.82
838.258	16098.88
838.583	16091.43
838.908	15991.09
839.233	15991.77
839.558	15937.98
839.883	15969.4
840.208	15846.91
840.533	15869.96
840.858	15827.48
841.182	15786.12
841.507	15782.06
841.832	15705
842.156	15743.87
842.481	15675.62
842.805	15672.91
843.13	15596.52
843.454	15667.94
843.778	15574.38
844.103	15466.36
844.427	15442.18
844.751	15460.94
845.075	15435.17
845.399	15371.9
845.723	15291
846.047	15253.71
846.371	15232.92
846.695	15137.33
847.019	15093.71
847.343	15012.13
847.666	14953.38
847.99	14912.02
848.313	14939.82
848.637	14793.38
848.96	14745.25
849.284	14742.31
849.607	14709.77
849.931	14597
850.254	14470.45
850.577	14439.27
850.9	14351.59
851.223	14302.77
851.546	14245.15
851.869	14125.15
852.192	14201.08
852.515	14114.53
852.838	14105.26
853.161	14045.38
853.483	13995.21
853.806	13854.88
854.129	13911.82
854.451	13809
854.774	13713.41
855.096	13655.56
855.419	13770.36
855.741	13667.31
856.063	13563.36
856.385	13572.85
856.708	13524.94
857.03	13384.83
857.352	13522
857.674	13320.43
857.996	13315.23
858.318	13275.91
858.64	13297.83
858.961	13278.17
859.283	13156.59
859.605	13191.39
859.926	13204.95
860.248	13127.89
860.57	13039.08
860.891	13039.08
861.212	13009.93
861.534	13040.43
861.855	12880.44
862.176	12866.43
862.498	12853.55
862.819	12942.81
863.14	12809.03
863.461	12800.44
863.782	12750.27
864.103	12815.81
864.424	12718.41
864.745	12797.05
865.065	12611.52
865.386	12604.97
865.707	12616.04
866.027	12563.16
866.348	12645.42
866.668	12585.98
866.989	12608.81
867.309	12509.6
867.63	12462.82
867.95	12531.97
868.27	12447.91
868.59	12451.07
868.91	12428.92
869.23	12409.26
869.55	12347.8
869.87	12401.81
870.19	12356.16
870.51	12417.4
870.83	12371.98
871.15	12374.24
871.469	12391.19
871.789	12372.2
872.109	12291.53
872.428	12216.95
872.748	12276.39
873.067	12212.89
873.386	12229.83
873.706	12124.53
874.025	12177.63
874.344	12059.44
874.663	12062.15
874.982	12003.17
875.301	12038.2
875.62	11990.97
875.939	11908.71
876.258	11985.77
876.577	11915.72
876.896	11848.6
877.214	11794.59
877.533	11911.88
877.852	11786.23
878.17	11811.54
878.489	11858.54
878.807	11768.38
879.125	11754.14
879.444	11798.66
879.762	11759.11
880.08	11737.42
880.398	11687.48
880.716	11706.23
881.034	11656.52
881.352	11639.79
881.67	11542.17
881.988	11622.17
882.306	11538.55
882.624	11476.86
882.941	11484.32
883.259	11361.83
883.577	11470.53
883.894	11456.29
884.212	11467.14
884.529	11385.11
884.846	11462.62
885.164	11334.04
885.481	11309.41
885.798	11308.73
886.115	11186.47
886.432	11240.48
886.75	11207.49
887.067	11243.42
887.383	11148.51
887.7	11097.43
888.017	11109.19
888.334	11068.73
888.651	10982.63
888.967	10996.65
889.284	11004.78
889.6	10944.44
889.917	10881.39
890.233	10893.15
890.55	10840.27
890.866	10795.07
891.182	10710.55
891.498	10740.38
891.815	10749.42
892.131	10690.89
892.447	10648.86
892.763	10596.43
893.079	10551.23
893.395	10537.67
893.71	10576.32
894.026	10526.15
894.342	10476.21
894.657	10352.82
894.973	10355.76
895.289	10431.01
895.604	10393.72
895.92	10304.69
896.235	10209.55
896.55	10269.21
896.865	10185.37
897.181	10155.54
897.496	10152.6
897.811	10062.89
898.126	10076.9
898.441	10003.23
898.756	9986.5
899.071	9931.59
899.386	9888.2
899.7	9873.74
900.015	9824.7
900.33	9735.21
900.644	9725.94
900.959	9771.59
901.273	9761.88
901.588	9674.87
901.902	9581.99
902.216	9596.91
902.531	9599.39
902.845	9563.01
903.159	9420.19
903.473	9400.53
903.787	9357.82
904.101	9422.22
904.415	9246.64
904.729	9336.58
905.042	9238.5
905.356	9264.94
905.67	9168.9
905.984	9230.59
906.297	9115.34
906.611	9062.01
906.924	9046.19
907.237	9025.85
907.551	8963.25
907.864	8978.39
908.177	8960.09
908.491	8955.12
908.804	8806.65
909.117	8763.94
909.43	8748.57
909.743	8711.06
910.056	8738.17
910.368	8627.44
910.681	8596.71
910.994	8536.82
911.307	8593.32
911.619	8494.56
911.932	8514.68
912.244	8467.22
912.557	8388.8
912.869	8370.5
913.181	8343.16
913.494	8349.26
913.806	8265.42
914.118	8193.56
914.43	8240.33
914.742	8171.41
915.054	8179.32
915.366	8131.64
915.678	8058.87
915.99	8071.07
916.302	7977.97
916.613	8022.49
916.925	7940.46
917.236	7929.16
917.548	7816.16
917.859	7888.25
918.171	7829.5
918.482	7777.75
918.794	7688.26
919.105	7726.68
919.416	7690.07
919.727	7658.88
920.038	7547.02
920.349	7566
920.66	7508.15
920.971	7552.22
921.282	7454.14
921.593	7467.7
921.903	7389.28
922.214	7494.14
922.525	7389.51
922.835	7298.89
923.146	7289.62
923.456	7274.03
923.767	7239.91
924.077	7251.66
924.387	7154.26
924.697	7089.18
925.008	7114.94
925.318	7086.24
925.628	7093.7
925.938	7025
926.248	6968.73
926.558	6990.88
926.867	6949.07
927.177	6993.81
927.487	6890.77
927.796	6831.11
928.106	6869.07
928.416	6834.27
928.725	6800.82
929.034	6776.87
929.344	6746.36
929.653	6734.16
929.962	6608.29
930.271	6639.92
930.581	6587.5
930.89	6575.07
931.199	6565.12
931.508	6505.24
931.817	6546.37
932.125	6512.02
932.434	6471.12
932.743	6415.98
933.051	6379.82
933.36	6439.25
933.669	6319.71
933.977	6291.01
934.286	6276.54
934.594	6219.82
934.902	6209.43
935.21	6175.08
935.519	6142.54
935.827	6137.11
936.135	6157.23
936.443	6110.67
936.751	6114.51
937.059	6057.34
937.367	6008.08
937.674	5999.94
937.982	5948.42
938.29	5978.92
938.597	5878.36
938.905	5858.02
939.213	5858.02
939.52	5815.99
939.827	5886.5
940.135	5809.66
940.442	5759.72
940.749	5787.07
941.056	5749.78
941.363	5659.39
941.67	5722.89
941.977	5626.62
942.284	5583.91
942.591	5612.83
942.898	5540.29
943.205	5552.5
943.511	5526.96
943.818	5506.17
944.125	5469.56
944.431	5420.07
944.738	5422.56
945.044	5387.53
945.35	5357.02
945.657	5344.82
945.963	5328.77
946.269	5311.82
946.575	5286.51
946.881	5291.03
947.187	5267.31
947.493	5249
947.799	5171.49
948.105	5172.17
948.41	5168.55
948.716	5143.92
949.022	5121.09
949.327	5046.75
949.633	5042.45
949.938	5064.82
950.244	5018.95
950.549	5006.07
950.854	4960.87
951.16	4922.46
951.465	4931.27
951.77	4893.53
952.075	4890.37
952.38	4918.61
952.685	4859.41
952.99	4843.14
953.294	4801.1
953.599	4795
953.904	4747.09
954.209	4727.88
954.513	4749.8
954.818	4766.53
955.122	4741.9
955.426	4659.19
955.731	4642.46
956.035	4634.55
956.339	4602.92
956.643	4621.9
956.948	4559.53
957.252	4572.63
957.556	4517.72
957.86	4508.91
958.163	4469.59
958.467	4487.89
958.771	4476.59
959.075	4415.58
959.378	4463.26
959.682	4352.07
959.985	4365.41
960.289	4348.46
960.592	4344.84
960.896	4334.22
961.199	4257.84
961.502	4284.51
961.805	4267.78
962.108	4249.48
962.411	4198.86
962.714	4198.41
963.017	4187.56
963.32	4211.51
963.623	4157.96
963.926	4154.34
964.228	4100.78
964.531	4066.66
964.833	4078.41
965.136	4033.21
965.438	4037.51
965.741	4033.44
966.043	3995.47
966.345	3966.1
966.648	3984.85
966.95	3950.96
967.252	3970.84
967.554	3925.65
967.856	3901.92
968.158	3883.39
968.46	3871.41
968.761	3879.32
969.063	3849.49
969.365	3845.87
969.666	3808.59
969.968	3749.83
970.269	3768.59
970.571	3739.21
970.872	3748.93
971.174	3672.54
971.475	3744.41
971.776	3694.01
972.077	3685.43
972.378	3668.7
972.679	3673.67
972.98	3646.78
973.281	3606.33
973.582	3556.16
973.883	3566.11
974.183	3596.16
974.484	3595.94
974.785	3563.85
975.085	3511.19
975.386	3539.21
975.686	3527.92
975.986	3480.23
976.287	3445.88
976.587	3426.9
976.887	3433
977.187	3439.1
977.487	3404.08
977.787	3345.1
978.087	3372.67
978.387	3341.48
978.687	3350.97
978.987	3316.17
979.286	3276.62
979.586	3280.46
979.885	3259
980.185	3276.17
980.484	3218.09
980.784	3189.17
981.083	3234.59
981.382	3202.95
981.682	3214.7
981.981	3148.49
982.28	3139.9
982.579	3157.08
982.878	3144.87
983.177	3111.88
983.475	3132.22
983.774	3083.18
984.073	3077.53
984.372	3078.89
984.67	3061.49
984.969	3021.49
985.267	3010.42
985.566	3014.03
985.864	2979.91
986.162	2987.82
986.461	2965.9
986.759	2939.91
987.057	2896.52
987.355	2894.49
987.653	2896.97
987.951	2906.69
988.249	2862.85
988.547	2876.41
988.844	2858.78
989.142	2809.97
989.44	2812
989.737	2802.96
990.035	2800.7
990.332	2748.05
990.63	2763.19
990.927	2752.34
991.224	2754.6
991.521	2721.61
991.819	2701.95
992.116	2684.1
992.413	2710.76
992.71	2692.23
993.006	2656.3
993.303	2651.33
993.6	2627.15
993.897	2657.43
994.193	2594.15
994.49	2602.97
994.787	2596.41
995.083	2553.25
995.379	2595.51
995.676	2544.89
995.972	2596.19
996.268	2513.48
996.565	2493.14
996.861	2526.13
997.157	2486.14
997.453	2478.45
997.749	2445.68
998.044	2431.45
998.34	2433.48
998.636	2457.66
998.932	2435.97
999.227	2412.24
999.523	2399.58
999.818	2376.08
1000.114	2330.21
1000.409	2366.14
1000.704	2366.14
1001	2293.37
1001.295	2343.31
1001.59	2292.92
1001.885	2327.27
1002.18	2256.54
1002.475	2262.41
1002.77	2280.26
1003.065	2232.81
1003.359	2244.33
1003.654	2226.03
1003.949	2198.91
1004.243	2219.93
1004.538	2167.5
1004.832	2187.16
1005.127	2137.9
1005.421	2121.4
1005.715	2122.3
1006.009	2110.78
1006.304	2085.02
1006.598	2093.15
1006.892	2080.27
1007.186	2096.99
1007.48	2061.51
1007.773	2047.05
1008.067	2039.59
1008.361	2002.53
1008.655	2041.4
1008.948	1990.1
1009.242	1990.33
1009.535	1971.12
1009.829	1978.58
1010.122	1972.7
1010.415	1965.02
1010.708	1931.57
1011.001	1923.66
1011.295	1905.36
1011.588	1907.39
1011.881	1857.45
1012.173	1880.73
1012.466	1893.61
1012.759	1851.8
1013.052	1880.73
1013.344	1809.77
1013.637	1827.85
1013.93	1820.39
1014.222	1822.42
1014.514	1782.88
1014.807	1797.57
1015.099	1757.34
1015.391	1790.33
1015.683	1740.39
1015.976	1710.34
1016.268	1708.53
1016.56	1724.12
1016.851	1691.35
1017.143	1692.94
1017.435	1702.2
1017.727	1690.22
1018.018	1676.44
1018.31	1635.31
1018.602	1636.21
1018.893	1627.63
1019.185	1630.34
1019.476	1584.92
1019.767	1583.33
1020.058	1575.88
1020.35	1592.37
1020.641	1549.21
1020.932	1576.55
1021.223	1558.48
1021.514	1505.82
1021.804	1525.48
1022.095	1521.87
1022.386	1531.58
1022.677	1484.58
1022.967	1501.75
1023.258	1490.46
1023.548	1470.79
1023.839	1457.69
1024.129	1432.83
1024.419	1458.59
1024.709	1427.18
1025	1397.58
1025.29	1402.32
1025.58	1390.12
1025.87	1370.01
1026.16	1393.73
1026.449	1353.28
1026.739	1365.94
1027.029	1345.15
1027.319	1354.19
1027.608	1319.61
1027.898	1324.13
1028.187	1325.94
1028.477	1301.53
1028.766	1285.26
1029.055	1280.97
1029.344	1263.34
1029.634	1265.83
1029.923	1249.78
1030.212	1264.25
1030.501	1259.27
1030.79	1249.11
1031.078	1222.21
1031.367	1227.41
1031.656	1220.86
1031.945	1225.15
1032.233	1165.04
1032.522	1191.71
1032.81	1181.08
1033.099	1181.31
1033.387	1150.8
1033.675	1182.67
1033.963	1144.48
1034.251	1158.49
1034.54	1132.72
1034.828	1136.57
1035.116	1134.76
1035.403	1106.06
1035.691	1107.87
1035.979	1104.93
1036.267	1080.97
1036.554	1086.85
1036.842	1083.46
1037.129	1069.45
1037.417	1024.93
1037.704	1035.55
1037.992	1040.07
1038.279	1059.05
1038.566	1007.3
1038.853	1007.3
1039.14	1007.3
