Data from hue_100_FLMS001491_00013.txt Node
Date: Tue Feb 07 17:02:42 GMT 2017
User: dcchb
Spectrometer: FLMS00149
Trigger mode: 0
Integration Time (sec): 2.000000E-2
Scans to average: 10
Electric dark correction enabled: true
Nonlinearity correction enabled: false
Boxcar width: 0
XAxis mode: Wavelengths
Number of Pixels in Spectrum: 2048
>>>>>Begin Spectral Data<<<<<
341.393	-13.66
341.776	-13.66
342.16	-13.66
342.543	-62.92
342.927	-55.46
343.31	-64.28
343.693	-76.26
344.077	-79.64
344.46	-75.35
344.843	-47.33
345.226	-46.88
345.61	-1.23
345.993	-18.18
346.376	-1
346.759	15.04
347.142	18.21
347.525	51.88
347.908	56.4
348.291	74.25
348.674	88.49
349.057	105.89
349.44	135.04
349.823	136.62
350.206	172.55
350.588	207.13
350.971	213.23
351.354	227.69
351.737	257.3
352.119	251.42
352.502	273.57
352.884	288.03
353.267	298.65
353.65	288.03
354.032	292.77
354.414	299.33
354.797	322.38
355.179	345.65
355.562	328.71
355.944	331.19
356.326	344.07
356.709	328.03
357.091	370.96
357.473	350.4
357.855	354.92
358.238	349.04
358.62	366.22
359.002	357.18
359.384	364.86
359.766	360.12
360.148	339.33
360.53	349.5
360.912	330.51
361.294	333.9
361.676	358.54
362.057	339.78
362.439	333.23
362.821	351.3
363.203	342.94
363.584	318.99
363.966	313.11
364.348	339.1
364.729	321.47
365.111	324.64
365.493	328.93
365.874	315.37
366.256	335.49
366.637	345.88
367.019	339.33
367.4	316.73
367.781	310.85
368.163	335.49
368.544	327.35
368.925	328.93
369.306	332.77
369.688	319.44
370.069	331.19
370.45	347.24
370.831	325.54
371.212	345.2
371.593	313.57
371.974	316.95
372.355	319.21
372.736	322.38
373.117	338.65
373.498	322.83
373.879	329.61
374.26	318.31
374.641	328.03
375.021	322.83
375.402	321.25
375.783	350.4
376.163	338.65
376.544	349.04
376.925	331.87
377.305	339.33
377.686	338.88
378.066	333.23
378.447	324.86
378.827	351.98
379.208	350.85
379.588	356.5
379.968	364.41
380.349	368.25
380.729	351.3
381.109	351.76
381.489	340.68
381.87	345.65
382.25	347.46
382.63	355.6
383.01	356.73
383.39	357.41
383.77	337.75
384.15	344.98
384.53	369.61
384.91	373.9
385.29	354.69
385.67	360.8
386.049	335.03
386.429	363.73
386.809	358.76
387.189	381.81
387.568	374.13
387.948	364.64
388.328	385.65
388.707	362.6
389.087	364.41
389.466	382.72
389.846	365.09
390.225	372.55
390.605	383.39
390.984	371.87
391.363	391.98
391.743	361.02
392.122	390.17
392.501	403.05
392.881	408.03
393.26	408.93
393.639	387.01
394.018	379.78
394.397	399.44
394.776	403.96
395.155	397.86
395.534	382.49
395.913	399.89
396.292	409.83
396.671	397.4
397.05	409.16
397.429	413.68
397.808	412.32
398.186	387.46
398.565	400.79
398.944	403.28
399.323	415.26
399.701	423.84
400.08	434.92
400.458	415.48
400.837	447.12
401.215	448.25
401.594	405.54
401.972	420.91
402.351	412.77
402.729	415.26
403.107	441.25
403.486	419.33
403.864	445.31
404.242	428.36
404.62	450.28
404.999	441.47
405.377	449.83
405.755	439.44
406.133	447.8
406.511	447.35
406.889	447.57
407.267	445.99
407.645	476.95
408.023	480.79
408.401	463.62
408.779	490.96
409.156	465.65
409.534	493.22
409.912	464.52
410.29	476.27
410.667	492.77
411.045	480.57
411.422	507.46
411.8	508.59
412.178	494.58
412.555	506.33
412.933	516.27
413.31	507.23
413.687	537.51
414.065	522.83
414.442	506.1
414.819	537.06
415.197	506.55
415.574	525.99
415.951	523.5
416.328	538.87
416.705	547.23
417.082	552.2
417.46	540.68
417.837	531.19
418.214	557.85
418.591	565.99
418.967	553.56
419.344	557.4
419.721	546.33
420.098	567.57
420.475	563.5
420.852	584.97
421.228	591.52
421.605	603.28
421.982	596.5
422.358	602.6
422.735	584.07
423.111	597.4
423.488	595.14
423.864	598.76
424.241	620.45
424.617	629.72
424.994	632.2
425.37	636.04
425.746	621.35
426.123	641.47
426.499	652.77
426.875	626.33
427.251	654.12
427.627	652.99
428.003	661.8
428.379	681.01
428.756	683.05
429.132	672.65
429.507	661.13
429.883	677.85
430.259	699.32
430.635	681.69
431.011	708.81
431.387	705.42
431.763	729.6
432.138	723.27
432.514	725.31
432.89	735.02
433.265	737.96
433.641	758.53
434.016	743.16
434.392	754.91
434.767	784.97
435.143	781.8
435.518	770.95
435.894	796.04
436.269	801.46
436.644	804.63
437.02	831.29
437.395	806.66
437.77	836.04
438.145	798.75
438.52	822.03
438.895	839.43
439.271	843.95
439.646	848.92
440.021	880.33
440.395	882.59
440.77	867.22
441.145	898.86
441.52	887.34
441.895	882.36
442.27	902.48
442.645	905.41
443.019	919.88
443.394	908.58
443.769	926.2
444.143	917.62
444.518	923.04
444.892	953.32
445.267	930.05
445.641	949.71
446.016	974.56
446.39	948.12
446.764	983.83
447.139	955.58
447.513	986.09
447.887	977.28
448.262	981.8
448.636	1011.63
449.01	1007.11
449.384	1033.55
449.758	993.1
450.132	1038.74
450.506	1055.69
450.88	1052.08
451.254	1049.82
451.628	1064.96
452.002	1024.05
452.376	1078.74
452.75	1095.01
453.123	1093.66
453.497	1132.75
453.871	1129.36
454.244	1142.92
454.618	1135.24
454.992	1135.92
455.365	1174.11
455.739	1195.8
456.112	1170.27
456.486	1189.93
456.859	1222.69
457.232	1217.04
457.606	1221.34
457.979	1267.66
458.352	1265.4
458.725	1286.65
459.099	1287.78
459.472	1317.61
459.845	1309.02
460.218	1339.07
460.591	1357.15
460.964	1382.69
461.337	1395.57
461.71	1439.19
462.083	1458.39
462.456	1475.57
462.829	1474.89
463.201	1457.26
463.574	1471.5
463.947	1528.45
464.32	1527.54
464.692	1563.7
465.065	1586.53
465.438	1615
465.81	1637.15
466.183	1638.05
466.555	1681.21
466.928	1683.7
467.3	1717.6
467.672	1746.07
468.045	1773.64
468.417	1822.45
468.789	1808.89
469.161	1836.69
469.534	1873.3
469.906	1912.39
470.278	1978.83
470.65	1977.25
471.022	2019.28
471.394	2076
471.766	2123.24
472.138	2133.86
472.51	2177.7
472.882	2235.77
473.253	2283
473.625	2311.93
473.997	2385.6
474.369	2421.08
474.74	2461.98
475.112	2525.03
475.484	2561.19
475.855	2638.25
476.227	2707.17
476.598	2787.62
476.97	2850.9
477.341	2899.03
477.713	2958.24
478.084	3038.47
478.455	3151.68
478.827	3198.46
479.198	3326.59
479.569	3363.43
479.94	3495.4
480.311	3569.3
480.682	3638.68
481.053	3767.03
481.424	3893.13
481.795	3952.79
482.166	4053.35
482.537	4183.07
482.908	4289.05
483.279	4389.16
483.65	4495.15
484.021	4669.16
484.391	4780.34
484.762	4844.07
485.133	4937.4
485.503	5059.43
485.874	5299.42
486.244	5356.6
486.615	5562.24
486.985	5646.98
487.356	5844.49
487.726	5952.96
488.097	6124.03
488.467	6190.92
488.837	6432.73
489.207	6503.68
489.578	6710.01
489.948	6861.19
490.318	7034.52
490.688	7100.51
491.058	7330.33
491.428	7473.15
491.798	7568.29
492.168	7858.68
492.538	7918.11
492.908	8106.35
493.278	8325.78
493.648	8402.62
494.017	8580.24
494.387	8691.42
494.757	8862.27
495.126	9023.84
495.496	9038.08
495.866	9246.89
496.235	9386.1
496.605	9518.52
496.974	9695.69
497.344	9828.8
497.713	9998.96
498.082	10110.82
498.452	10228.56
498.821	10411.38
499.19	10509.91
499.559	10606.85
499.928	10767.53
500.298	10840.29
500.667	11043
501.036	11091.36
501.405	11208.87
501.774	11292.26
502.143	11364.35
502.512	11524.12
502.88	11668.29
503.249	11689.31
503.618	11849.53
503.987	11896.54
504.356	12013.37
504.724	12118
505.093	12270.31
505.462	12259.24
505.83	12466.47
506.199	12527.71
506.567	12656.52
506.936	12638.89
507.304	12857.42
507.672	12940.13
508.041	13030.52
508.409	13106
508.777	13193.23
509.145	13290.63
509.514	13382.37
509.882	13416.27
510.25	13432.77
510.618	13475.03
510.986	13602.26
511.354	13610.84
511.722	13705.3
512.09	13821.91
512.458	13893.32
512.826	13954.34
513.193	14010.83
513.561	14137.83
513.929	14117.04
514.297	14329.24
514.664	14362.91
515.032	14339.64
515.4	14482.46
515.767	14492.85
516.135	14513.64
516.502	14422.57
516.869	14695.56
517.237	14745.05
517.604	14684.94
517.972	14802.45
518.339	14829.12
518.706	14835.67
519.073	14793.86
519.44	14898.04
519.808	15039.28
520.175	15027.75
520.542	15177.36
520.909	15164.7
521.276	15190.01
521.643	15337.8
522.009	15371.7
522.376	15368.76
522.743	15430.91
523.11	15484.01
523.477	15578.25
523.843	15613.28
524.21	15712.48
524.577	15754.74
524.943	15792.25
525.31	15792.93
525.676	15775.98
526.043	15949.09
526.409	15937.11
526.776	16088.29
527.142	15987.73
527.508	16048.52
527.874	16091.46
528.241	16067.05
528.607	16140.49
528.973	16164.22
529.339	16008.97
529.705	16187.95
530.071	16239.93
530.437	16190.89
530.803	16226.82
531.169	16341.84
531.535	16241.06
531.901	16215.75
532.267	16250.55
532.632	16324.22
532.998	16288.29
533.364	16419.36
533.73	16229.98
534.095	16334.39
534.461	16278.34
534.826	16375.97
535.192	16337.78
535.557	16352.69
535.923	16261.62
536.288	16185.92
536.653	16283.09
537.019	16148.18
537.384	16152.47
537.749	16290.55
538.114	16193.6
538.479	16049.87
538.845	16136.43
539.21	15982.98
539.575	16114.28
539.94	16122.64
540.305	16083.09
540.67	16049.65
541.034	16067.5
541.399	16020.04
541.764	16053.04
542.129	15868.86
542.494	15891.46
542.858	15882.87
543.223	15832.03
543.587	15931.46
543.952	15749.54
544.316	15766.27
544.681	15632.94
545.045	15704.35
545.41	15741.86
545.774	15697.79
546.138	15738.02
546.503	15631.58
546.867	15516.33
547.231	15585.03
547.595	15465.94
547.959	15479.95
548.324	15446.05
548.688	15373.96
549.052	15350.46
549.416	15430.68
549.779	15332.61
550.143	15300.06
550.507	15328.99
550.871	15298.26
551.235	15263.91
551.599	15343.9
551.962	15190.46
552.326	15178.03
552.689	15191.14
553.053	15094.19
553.417	15080.18
553.78	15205.6
554.143	15166.73
554.507	15138.49
554.87	15015.33
555.234	15259.39
555.597	15024.36
555.96	15002.67
556.323	15061.88
556.686	14951.15
557.05	15026.17
557.413	15015.1
557.776	14982.78
558.139	15033.86
558.502	15016.46
558.865	14956.34
559.228	15081.09
559.59	14962.67
559.953	14965.61
560.316	15133.97
560.679	15077.47
561.041	15116.79
561.404	15102.55
561.767	15124.93
562.129	15042.44
562.492	15204.93
562.854	15060.3
563.217	15004.7
563.579	15106.17
563.941	15145.27
564.304	15157.47
564.666	15131.25
565.028	15216.68
565.39	15131.03
565.753	15153.4
566.115	15139.84
566.477	15144.81
566.839	15241.31
567.201	15337.58
567.563	15319.72
567.925	15411.25
568.287	15321.53
568.648	15278.14
569.01	15371.02
569.372	15402.21
569.734	15353.62
570.095	15551.81
570.457	15521.07
570.819	15459.83
571.18	15474.52
571.542	15584.8
571.903	15483.79
572.265	15533.5
572.626	15578.93
572.987	15500.96
573.349	15494.86
573.71	15594.52
574.071	15600.39
574.432	15566.27
574.794	15756.1
575.155	15595.65
575.516	15564.24
575.877	15626.61
576.238	15681.52
576.599	15637
576.96	15713.39
577.32	15643.11
577.681	15792.03
578.042	15692.6
578.403	15679.94
578.763	15735.98
579.124	15685.36
579.485	15739.6
579.845	15716.1
580.206	15729.88
580.566	15705.7
580.927	15707.96
581.287	15738.02
581.648	15662.99
582.008	15842.65
582.368	15699.83
582.728	15776.89
583.089	15625.48
583.449	15661.64
583.809	15709.54
584.169	15728.3
584.529	15567.4
584.889	15658.7
585.249	15578.7
585.609	15560.62
585.969	15621.64
586.329	15546.84
586.688	15613.95
587.048	15564.24
587.408	15540.28
587.768	15572.37
588.127	15585.71
588.487	15471.58
588.846	15641.98
589.206	15504.58
589.565	15492.15
589.925	15565.59
590.284	15574.41
590.643	15539.38
591.003	15574.86
591.362	15615.54
591.721	15478.82
592.08	15502.09
592.44	15533.28
592.799	15474.07
593.158	15539.38
593.517	15399.27
593.876	15492.83
594.235	15402.21
594.593	15369.89
594.952	15457.12
595.311	15402.21
595.67	15438.14
596.029	15457.35
596.387	15460.29
596.746	15528.53
597.104	15427.52
597.463	15465.94
597.822	15545.71
598.18	15376.45
598.538	15334.87
598.897	15443.34
599.255	15250.12
599.613	15510.91
599.972	15372.6
600.33	15433.62
600.688	15318.14
601.046	15406.73
601.404	15461.87
601.762	15345.71
602.12	15402.66
602.478	15401.98
602.836	15449.44
603.194	15214.42
603.552	15381.64
603.91	15301.87
604.268	15414.86
604.625	15319.27
604.983	15354.98
605.341	15345.26
605.698	15442.66
606.056	15473.39
606.413	15436.78
606.771	15528.76
607.128	15439.72
607.485	15451.92
607.843	15461.42
608.2	15506.84
608.557	15568.53
608.914	15434.3
609.272	15526.5
609.629	15532.15
609.986	15545.71
610.343	15380.51
610.7	15546.84
611.057	15466.84
611.414	15544.35
611.771	15521.53
612.127	15576.21
612.484	15536.22
612.841	15630.45
613.198	15538.93
613.554	15608.98
613.911	15670.9
614.267	15659.83
614.624	15660.73
614.98	15708.19
615.337	15744.8
615.693	15736.44
616.05	15702.77
616.406	15820.5
616.762	15829.54
617.118	15666.61
617.475	15685.14
617.831	15743.89
618.187	15893.27
618.543	15840.16
618.899	15874.51
619.255	15859.6
619.611	15813.72
619.967	15939.37
620.323	15879.71
620.678	15819.15
621.034	15728.98
621.39	15788.41
621.746	15809.43
622.101	16032.7
622.457	15841.52
622.812	15792.71
623.168	15907.73
623.523	15862.76
623.879	15890.56
624.234	15838.35
624.589	15858.47
624.945	15910.9
625.3	15909.77
625.655	15878.58
626.01	15794.97
626.365	15829.09
626.72	15831.8
627.075	15786.83
627.43	15816.66
627.785	15827.96
628.14	15828.86
628.495	15846.26
628.85	15875.87
629.205	15761.29
629.559	15884
629.914	15738.7
630.269	15776.89
630.623	15701.18
630.978	15730.79
631.332	15727.85
631.687	15759.26
632.041	15749.32
632.396	15784.12
632.75	15685.36
633.104	15705.7
633.459	15573.95
633.813	15586.61
634.167	15622.77
634.521	15584.8
634.875	15527.18
635.229	15514.75
635.583	15411.25
635.937	15437.24
636.291	15423.9
636.645	15458.48
636.999	15375.54
637.352	15497.57
637.706	15392.72
638.06	15395.88
638.413	15318.14
638.767	15393.62
639.121	15300.97
639.474	15244.47
639.828	15287.63
640.181	15315.88
640.534	15281.08
640.888	15216
641.241	15114.98
641.594	15178.03
641.947	15225.94
642.301	15212.61
642.654	15220.97
643.007	15208.99
643.36	15272.72
643.713	15173.74
644.066	15210.35
644.419	15115.21
644.771	15088.09
645.124	14884.93
645.477	14842.22
645.83	14764.26
646.182	14780.08
646.535	14709.12
646.888	14741.21
647.24	14695.11
647.593	14713.41
647.945	14646.3
648.298	14672.06
648.65	14548.45
649.002	14663.24
649.355	14677.03
649.707	14624.15
650.059	14685.62
650.411	14928.77
650.763	14957.93
651.115	15064.36
651.467	15054.19
651.819	15009.68
652.171	15009
652.523	14954.76
652.875	14891.26
653.227	14874.99
653.578	15008.55
653.93	14985.72
654.282	14927.19
654.633	14895.78
654.985	14852.39
655.337	14905.95
655.688	14907.53
656.039	14983.01
656.391	14912.96
656.742	14897.36
657.094	14983.91
657.445	15024.82
657.796	14992.28
658.147	14922.45
658.498	14904.14
658.849	14989.79
659.2	14878.83
659.551	14985.04
659.902	15019.85
660.253	14935.1
660.604	14957.25
660.955	14964.71
661.306	15095.55
661.656	14911.6
662.007	15029.34
662.358	15043.35
662.708	15025.49
663.059	15017.81
663.409	14950.47
663.76	15048.09
664.11	14968.32
664.461	15064.14
664.811	15055.78
665.161	15059.17
665.511	15060.75
665.862	15100.52
666.212	15112.72
666.562	15020.3
666.912	15100.3
667.262	14957.25
667.612	15066.85
667.962	15037.92
668.312	15026.62
668.662	15080.63
669.011	15031.82
669.361	14943.24
669.711	15076.11
670.06	14997.25
670.41	14988.43
670.76	15012.16
671.109	14938.94
671.459	14997.02
671.808	14874.76
672.157	15057.36
672.507	14931.49
672.856	14925.16
673.205	14933.97
673.554	14960.86
673.904	14824.14
674.253	14993.18
674.602	14845.84
674.951	14619.63
675.3	14619.18
675.649	14801.77
675.998	14762.68
676.346	14741.43
676.695	14871.15
677.044	14736.46
677.393	14778.72
677.741	14809.23
678.09	14667.09
678.438	14694.43
678.787	14736.69
679.135	14657.14
679.484	14597.03
679.832	14658.95
680.181	14557.26
680.529	14588.67
680.877	14481.33
681.225	14510.25
681.573	14608.1
681.922	14520.65
682.27	14404.72
682.618	14446.3
682.966	14358.62
683.314	14459.41
683.661	14373.99
684.009	14194.1
684.357	14280.43
684.705	14322.24
685.053	14317.49
685.4	14300.54
685.748	14183.26
686.095	14229.81
686.443	14164.73
686.79	14008.57
687.138	14088.8
687.485	14112.07
687.832	13999.53
688.18	13990.72
688.527	13886.09
688.874	13873.43
689.221	13875.24
689.568	13813.78
689.915	13804.51
690.262	13743.27
690.609	13766.54
690.956	13590.96
691.303	13684.97
691.65	13542.6
691.997	13711.18
692.344	13521.58
692.69	13499.66
693.037	13541.47
693.383	13351.64
693.73	13384.86
694.077	13349.83
694.423	13332.21
694.769	13239.33
695.116	13205.2
695.462	13187.35
695.808	13143.51
696.155	13138.99
696.501	13009.28
696.847	13032.1
697.193	12923.4
697.539	12926.34
697.885	12897.19
698.231	12758.21
698.577	12700.36
698.923	12739.45
699.269	12552.57
699.614	12520.7
699.96	12562.51
700.306	12553.24
700.651	12456.75
700.997	12465.56
701.342	12451.1
701.688	12404.09
702.033	12404.09
702.379	12283.42
702.724	12230.99
703.069	12237.55
703.415	12111.22
703.76	12178.79
704.105	12123.88
704.45	12120.94
704.795	11945.35
705.14	11924.33
705.485	11934.73
705.83	11904.9
706.175	11922.3
706.52	11857.67
706.865	11845.47
707.209	11781.06
707.554	11722.3
707.899	11688.41
708.243	11602.99
708.588	11594.4
708.932	11504.68
709.277	11484.12
709.621	11400.73
709.966	11435.98
710.31	11543.1
710.654	11395.99
710.998	11456.78
711.342	11461.97
711.687	11334.07
712.031	11287.51
712.375	11238.7
712.719	11257.68
713.063	11198.7
713.407	11267.18
713.75	11139.72
714.094	11177.23
714.438	11102.21
714.782	11103.11
715.125	11090.46
715.469	11071.47
715.812	10978.14
716.156	10931.14
716.499	10927.75
716.843	10998.93
717.186	10883.46
717.53	10988.09
717.873	10920.52
718.216	10972.49
718.559	10880.97
718.902	10827.41
719.246	10871.48
719.589	10776.79
719.932	10824.93
720.275	10797.36
720.617	10740.18
720.96	10721.43
721.303	10749.9
721.646	10785.83
721.989	10715.55
722.331	10745.38
722.674	10770.69
723.016	10750.35
723.359	10645.27
723.701	10710.81
724.044	10613.41
724.386	10612.5
724.729	10633.07
725.071	10540.41
725.413	10654.76
725.755	10625.16
726.097	10580.87
726.439	10520.3
726.782	10553.07
727.124	10608.21
727.465	10591.94
727.807	10526.18
728.149	10490.92
728.491	10513.07
728.833	10545.61
729.175	10513.97
729.516	10474.65
729.858	10553.75
730.199	10411.6
730.541	10532.05
730.882	10449.57
731.224	10454.99
731.565	10420.87
731.906	10513.3
732.248	10495.44
732.589	10412.96
732.93	10441.43
733.271	10430.14
733.612	10505.61
733.953	10468.55
734.294	10396.24
734.635	10419.29
734.976	10439.63
735.317	10407.99
735.658	10478.04
735.999	10376.35
736.339	10384.71
736.68	10436.69
737.021	10405.96
737.361	10443.02
737.702	10525.5
738.042	10478.72
738.383	10423.81
738.723	10493.18
739.063	10511.26
739.404	10493.18
739.744	10567.08
740.084	10428.33
740.424	10503.13
740.764	10480.3
741.104	10516.23
741.444	10494.09
741.784	10546.06
742.124	10587.65
742.464	10620.19
742.804	10687.08
743.143	10616.12
743.483	10654.99
743.823	10605.05
744.162	10666.97
744.502	10787.19
744.841	10786.06
745.181	10852.72
745.52	10811.82
745.86	10827.41
746.199	10924.13
746.538	10977.69
746.877	11065.6
747.216	11049.33
747.556	11189.89
747.895	11157.12
748.234	11174.3
748.573	11287.97
748.911	11291.81
749.25	11355.31
749.589	11384.46
749.928	11527.28
750.267	11581.07
750.605	11669.2
750.944	11756.88
751.283	11710.1
751.621	11924.79
751.96	11973.6
752.298	12023.77
752.636	12228.28
752.975	12325.23
753.313	12306.24
753.651	12520.7
753.989	12626.46
754.327	12734.03
754.666	12828.94
755.004	12937.64
755.342	13148.26
755.679	13310.51
756.017	13344.18
756.355	13522.26
756.693	13675.7
757.031	13904.39
757.368	13873.89
757.706	14099.64
758.044	14258.51
758.381	14419.41
758.719	14589.57
759.056	14738.72
759.394	14885.16
759.731	14997.92
760.068	15242.21
760.405	15363.56
760.743	15453.96
761.08	15753.16
761.417	15845.13
761.754	15976.66
762.091	16194.73
762.428	16282.18
762.765	16435.85
763.102	16748.16
763.438	16927.14
763.775	17003.07
764.112	17206.23
764.449	17521.47
764.785	17523.96
765.122	17580.46
765.458	17659.32
765.795	17860.22
766.131	18045.98
766.467	18140.22
766.804	18315.58
767.14	18513.99
767.476	18629.02
767.812	18710.14
768.148	18952.17
768.485	18912.17
768.821	19006.63
769.157	19161.21
769.492	19283.46
769.828	19428.99
770.164	19445.72
770.5	19583.79
770.836	19697.46
771.171	19829.44
771.507	19920.51
771.842	19868.31
772.178	19974.29
772.513	20036.44
772.849	20167.51
773.184	20191.46
773.519	20295.41
773.855	20328.41
774.19	20366.6
774.525	20448.85
774.86	20603.88
775.195	20643.88
775.53	20645.46
775.865	20619.25
776.2	20657.89
776.535	20583.54
776.87	20690.66
777.205	20615.18
777.539	20734.5
777.874	20900.82
778.209	20713.48
778.543	20814.27
778.878	20742.86
779.212	20717.1
779.547	20845.68
779.881	20989.86
780.215	20830.54
780.55	20905.79
780.884	20735.63
781.218	20899.24
781.552	20834.83
781.886	20832.12
782.22	20793.7
782.554	20786.47
782.888	20760.49
783.222	20675.06
783.556	20743.31
783.889	20667.38
784.223	20475.75
784.557	20626.48
784.89	20688.17
785.224	20543.09
785.557	20459.25
785.891	20476.88
786.224	20483.66
786.558	20453.6
786.891	20404.56
787.224	20362.08
787.557	20235.75
787.891	20285.02
788.224	20316.88
788.557	20352.81
788.89	20356.43
789.223	20373.38
789.556	20239.14
789.888	20178.81
790.221	20090.9
790.554	20016.78
790.887	20003.22
791.219	20009.77
791.552	19857.91
791.884	19885.71
792.217	19863.79
792.549	19866.5
792.882	19691.59
793.214	19659.72
793.546	19814.75
793.879	19607.3
794.211	19495.43
794.543	19541.99
794.875	19517.58
795.207	19595.54
795.539	19431.71
795.871	19432.16
796.203	19324.59
796.535	19298.38
796.867	19244.82
797.198	19163.69
797.53	19207.98
797.862	19014.54
798.193	19164.82
798.525	19020.64
798.856	18991.72
799.188	18868.11
799.519	18823.81
799.85	18663.82
800.182	18752.18
800.513	18758.05
800.844	18582.69
801.175	18749.46
801.506	18650.48
801.837	18552.41
802.168	18488.68
802.499	18430.83
802.83	18321.68
803.161	18422.92
803.491	18366.65
803.822	18303.15
804.153	18261.34
804.483	18158.97
804.814	18046.43
805.145	18062.48
805.475	18015.47
805.805	18042.59
806.136	17949.94
806.466	17978.41
806.796	17910.62
807.126	17835.59
807.457	17773.67
807.787	17882.14
808.117	17709.49
808.447	17725.99
808.777	17635.14
809.107	17538.42
809.436	17598.99
809.766	17571.87
810.096	17459.1
810.426	17361.03
810.755	17509.05
811.085	17389.73
811.414	17423.85
811.744	17244.42
812.073	17188.6
812.403	17194.48
812.732	16995.84
813.061	17154.03
813.39	17150.64
813.719	17011.88
814.049	17152.9
814.378	17028.15
814.707	17014.59
815.036	16934.15
815.365	16982.05
815.693	16782.96
816.022	16846.69
816.351	16763.98
816.68	16684.21
817.008	16708.16
817.337	16552.91
817.665	16608.96
817.994	16573.02
818.322	16561.05
818.651	16372.8
818.979	16457.55
819.307	16455.06
819.636	16386.14
819.964	16354.73
820.292	16397.44
820.62	16366.48
820.948	16349.08
821.276	16419.58
821.604	16347.04
821.932	16397.21
822.259	16296.42
822.587	16306.37
822.915	16237.89
823.243	16319.7
823.57	16239.7
823.898	16279.93
824.225	16247.84
824.553	16188.4
824.88	16374.84
825.207	16332.58
825.535	16267.5
825.862	16314.27
826.189	16303.88
826.516	16300.26
826.843	16311.56
827.17	16341.39
827.497	16414.16
827.824	16276.76
828.151	16327.83
828.478	16360.15
828.805	16443.76
829.131	16263.2
829.458	16284.9
829.785	16293.71
830.111	16251
830.438	16449.41
830.764	16366.7
831.09	16400.83
831.417	16351.56
831.743	16310.21
832.069	16289.19
832.395	16264.56
832.722	16291.9
833.048	16228.17
833.374	16326.48
833.7	16140.72
834.026	16189.76
834.351	16236.76
834.677	16185.69
835.003	16163.54
835.329	16105.24
835.654	16146.14
835.98	16068.86
836.306	16057.33
836.631	16029.08
836.956	16153.15
837.282	16019.82
837.607	15940.27
837.932	15954.96
838.258	15931.46
838.583	15897.56
838.908	15838.13
839.233	15826.38
839.558	15802.2
839.883	15771.46
840.208	15711.13
840.533	15804.23
840.858	15687.85
841.182	15805.14
841.507	15706.83
841.832	15589.32
842.156	15572.82
842.481	15609.43
842.805	15614.63
843.13	15500.74
843.454	15436.33
843.778	15527.18
844.103	15431.59
844.427	15398.37
844.751	15336.67
845.075	15341.64
845.399	15192.5
845.723	15193.85
846.047	15154.53
846.371	15054.65
846.695	15118.15
847.019	14972.39
847.343	14859.62
847.666	14828.21
847.99	14712.28
848.313	14686.52
848.637	14682.23
848.96	14573.08
849.284	14616.47
849.607	14478.84
849.931	14360.65
850.254	14303.48
850.577	14286.98
850.9	14189.58
851.223	14180.77
851.546	14139.19
851.869	14043.15
852.192	14059.64
852.515	13893.1
852.838	13918.63
853.161	13963.38
853.483	13782.59
853.806	13773.32
854.129	13708.92
854.451	13649.94
854.774	13622.82
855.096	13613.33
855.419	13587.34
855.741	13540.34
856.063	13442.71
856.385	13419.66
856.708	13350.06
857.03	13300.79
857.352	13390.51
857.674	13285.2
857.996	13263.96
858.318	13132.89
858.64	13186.45
858.961	13138.99
859.283	12979.45
859.605	13042.5
859.926	12980.58
860.248	13008.37
860.57	12924.53
860.891	12965.66
861.212	12821.26
861.534	12876.17
861.855	12748.94
862.176	12817.87
862.498	12737.42
862.819	12791.2
863.14	12741.04
863.461	12727.25
863.782	12671.66
864.103	12686.57
864.424	12625.78
864.745	12674.14
865.065	12515.05
865.386	12615.16
865.707	12517.31
866.027	12567.48
866.348	12480.25
866.668	12511.89
866.989	12448.16
867.309	12324.55
867.63	12458.33
867.95	12403.64
868.27	12356.19
868.59	12381.5
868.91	12308.5
869.23	12308.05
869.55	12211.11
869.87	12350.99
870.19	12309.63
870.51	12253.36
870.83	12232.57
871.15	12147.6
871.469	12207.26
871.789	12195.96
872.109	12222.63
872.428	12086.14
872.748	12066.02
873.067	12135.18
873.386	12106.48
873.706	12038.45
874.025	11975.18
874.344	11957.33
874.663	11940.15
874.982	11966.82
875.301	11954.39
875.62	11929.08
875.939	11854.73
876.258	11897.67
876.577	11772.7
876.896	11793.49
877.214	11793.72
877.533	11770.21
877.852	11737.45
878.17	11680.27
878.489	11704
878.807	11669.2
879.125	11657.9
879.444	11668.75
879.762	11624.68
880.08	11601.18
880.398	11566.15
880.716	11558.47
881.034	11554.85
881.352	11523.67
881.67	11449.32
881.988	11473.27
882.306	11459.26
882.624	11380.62
882.941	11319.38
883.259	11311.92
883.577	11348.3
883.894	11287.06
884.212	11302.65
884.529	11287.06
884.846	11309.43
885.164	11272.37
885.481	11167.74
885.798	11073.96
886.115	11131.59
886.432	11100.17
886.75	11064.69
887.067	11101.3
887.383	11076.22
887.7	11094.52
888.017	10983.34
888.334	10962.32
888.651	10990.12
888.967	10948.09
889.284	10826.51
889.6	10834.42
889.917	10761.88
890.233	10764.82
890.55	10721.65
890.866	10751.93
891.182	10741.54
891.498	10679.17
891.815	10589.23
892.131	10578.15
892.447	10542
892.763	10507.2
893.079	10551.26
893.395	10484.37
893.71	10473.07
894.026	10413.64
894.342	10386.97
894.657	10269.91
894.973	10228.33
895.289	10247.77
895.604	10213.87
895.92	10162.35
896.235	10104.27
896.55	10181.55
896.865	10075.12
897.181	10040.99
897.496	10043.7
897.811	10016.81
898.126	9930.26
898.441	9881.68
898.756	9921.45
899.071	9761.23
899.386	9903.14
899.7	9789.7
900.015	9759.87
900.33	9620.67
900.644	9637.39
900.959	9628.8
901.273	9608.91
901.588	9554.68
901.902	9518.75
902.216	9480.33
902.531	9461.8
902.845	9456.83
903.159	9320.11
903.473	9331.41
903.787	9323.5
904.101	9286.44
904.415	9218.19
904.729	9207.79
905.042	9176.16
905.356	9193.56
905.67	9109.72
905.984	9108.36
906.297	9019.1
906.611	9006.9
906.924	9012.09
907.237	8992.66
907.551	8940.23
907.864	8927.58
908.177	8855.71
908.491	8817.3
908.804	8780.01
909.117	8720.35
909.43	8656.17
909.743	8671.76
910.056	8604.65
910.368	8585.66
910.681	8561.48
910.994	8445.1
911.307	8501.6
911.619	8397.42
911.932	8367.14
912.244	8294.15
912.557	8375.27
912.869	8291.21
913.181	8257.31
913.494	8301.83
913.806	8189.97
914.118	8217.31
914.43	8143.19
914.742	8094.15
915.054	8020.93
915.366	8056.19
915.678	7993.14
915.99	7938.45
916.302	7867.49
916.613	7840.37
916.925	7871.33
917.236	7865.46
917.548	7797.21
917.859	7832.46
918.171	7701.39
918.482	7730.77
918.794	7633.82
919.105	7674.73
919.416	7580.72
919.727	7539.14
920.038	7530.78
920.349	7499.14
920.66	7504.34
920.971	7475.18
921.282	7436.99
921.593	7373.72
921.903	7356.77
922.214	7331.46
922.525	7328.3
922.835	7293.49
923.146	7229.77
923.456	7227.73
923.767	7141.18
924.077	7164.68
924.387	7100.51
924.697	7076.78
925.008	7010.34
925.318	7023.9
925.628	7007.85
925.938	6992.26
926.248	6961.07
926.558	6882.21
926.867	6903.9
927.177	6865.94
927.487	6796.11
927.796	6780.74
928.106	6823.45
928.416	6729.22
928.725	6748.65
929.034	6663
929.344	6657.13
929.653	6668.65
929.962	6596.79
930.271	6536.9
930.581	6571.93
930.89	6525.38
931.199	6427.98
931.508	6451.93
931.817	6477.24
932.125	6449.68
932.434	6378.72
932.743	6374.87
933.051	6372.16
933.36	6292.17
933.669	6233.64
933.977	6290.58
934.286	6211.94
934.594	6256.23
934.902	6177.37
935.21	6169.68
935.519	6093.3
935.827	6096.92
936.135	6012.62
936.443	6012.85
936.751	5998.61
937.059	5983.47
937.367	5952.29
937.674	5932.4
937.982	5929.24
938.29	5861.67
938.597	5917.26
938.905	5829.35
939.213	5785.51
939.52	5766.76
939.827	5765.4
940.135	5729.69
940.442	5702.58
940.749	5709.36
941.056	5691.28
941.363	5619.19
941.67	5618.51
941.977	5608.12
942.284	5520.43
942.591	5548.68
942.898	5529.47
943.205	5493.54
943.511	5468.01
943.818	5485.18
944.125	5438.4
944.431	5398.86
944.738	5409.93
945.044	5380.78
945.35	5312.08
945.657	5311.85
945.963	5265.07
946.269	5261.23
946.575	5228.92
946.881	5200.44
947.187	5224.62
947.493	5177.17
947.799	5161.8
948.105	5119.54
948.41	5058.3
948.716	5084.51
949.022	5080.22
949.327	5057.62
949.633	5027.11
949.938	5029.15
950.244	5011.07
950.549	4941.69
950.854	4967
951.16	4933.1
951.465	4906.66
951.77	4849.27
952.075	4887
952.38	4831.86
952.685	4811.53
952.99	4800.9
953.294	4819.89
953.599	4745.09
953.904	4706.22
954.209	4646.78
954.513	4667.58
954.818	4663.06
955.122	4651.98
955.426	4630.29
955.731	4627.58
956.035	4584.87
956.339	4590.97
956.643	4554.81
956.948	4485.66
957.252	4476.17
957.556	4510.29
957.86	4421.25
958.163	4414.47
958.467	4410.41
958.771	4442.27
959.075	4387.81
959.378	4390.07
959.682	4368.83
959.985	4327.7
960.289	4288.6
960.592	4297.87
960.896	4307.13
961.199	4249.96
961.502	4299.22
961.805	4236.85
962.108	4157.76
962.411	4208.38
962.714	4183.07
963.017	4140.36
963.32	4121.83
963.623	4113.47
963.926	4077.53
964.228	4060.13
964.531	4056.97
964.833	4018.55
965.136	4021.49
965.438	4018.55
965.741	3964.09
966.043	3969.51
966.345	3947.14
966.648	3987.14
966.95	3916.41
967.252	3897.2
967.554	3896.97
967.856	3891.1
968.158	3843.87
968.46	3817.43
968.761	3801.38
969.063	3779.69
969.365	3774.72
969.666	3767.71
969.968	3749.18
970.269	3721.84
970.571	3718.67
970.872	3715.74
971.174	3683.87
971.475	3679.13
971.776	3631.22
972.077	3608.39
972.378	3621.27
972.679	3626.47
972.98	3599.35
973.281	3548.28
973.582	3557.1
973.883	3583.76
974.183	3529.53
974.484	3528.85
974.785	3473.71
975.085	3492.24
975.386	3468.06
975.686	3438.45
975.986	3441.84
976.287	3408.4
976.587	3390.32
976.887	3389.19
977.187	3357.33
977.487	3354.39
977.787	3337.21
978.087	3336.99
978.387	3315.07
978.687	3284.79
978.987	3287.05
979.286	3287.72
979.586	3231
979.885	3243.88
980.185	3230.78
980.484	3215.41
980.784	3166.6
981.083	3172.02
981.382	3152.59
981.682	3160.72
981.981	3123.21
982.28	3106.71
982.579	3104.68
982.878	3113.04
983.177	3097.45
983.475	3027.39
983.774	3063.32
984.073	3008.86
984.372	3006.38
984.67	3063.78
984.969	3022.65
985.267	2967.05
985.566	2970.9
985.864	2929.77
986.162	2930.9
986.461	2919.37
986.759	2936.32
987.057	2907.62
987.355	2874.4
987.653	2899.71
987.951	2888.41
988.249	2878.02
988.547	2836.89
988.844	2827.62
989.142	2820.17
989.44	2805.48
989.737	2761.18
990.035	2795.31
990.332	2722.54
990.63	2750.56
990.927	2779.26
991.224	2738.81
991.521	2707.4
991.819	2709.43
992.116	2698.81
992.413	2651.81
992.71	2661.98
993.006	2650.68
993.303	2648.65
993.6	2629.66
993.897	2608.42
994.193	2607.29
994.49	2623.33
994.787	2577.91
995.083	2558.93
995.379	2565.94
995.676	2544.92
995.972	2515.77
996.268	2513.28
996.565	2480.74
996.861	2484.13
997.157	2489.1
997.453	2480.51
997.749	2463.11
998.044	2423.57
998.34	2448.42
998.636	2417.24
998.932	2418.37
999.227	2411.14
999.523	2384.25
999.818	2341.08
1000.114	2361.19
1000.409	2312.38
1000.704	2336.34
1001	2354.64
1001.295	2286.62
1001.59	2293.17
1001.885	2314.87
1002.18	2294.08
1002.475	2253.63
1002.77	2273.06
1003.065	2224.02
1003.359	2235.77
1003.654	2212.95
1003.949	2184.02
1004.243	2198.94
1004.538	2170.24
1004.832	2149.45
1005.127	2154.19
1005.421	2118.94
1005.715	2127.53
1006.009	2109.22
1006.304	2093.41
1006.598	2055.67
1006.892	2108.77
1007.186	2036.23
1007.48	2055.67
1007.773	2005.27
1008.067	2054.76
1008.361	2003.92
1008.655	2002.33
1008.948	1966.18
1009.242	1941.77
1009.535	1942.45
1009.829	1963.01
1010.122	1942
1010.415	1955.78
1010.708	1940.87
1011.001	1915.56
1011.295	1885.73
1011.588	1881.43
1011.881	1846.86
1012.173	1894.77
1012.466	1873.98
1012.759	1840.53
1013.052	1824.03
1013.344	1834.43
1013.637	1803.02
1013.93	1791.04
1014.222	1808.22
1014.514	1773.41
1014.807	1777.26
1015.099	1716.24
1015.391	1756.24
1015.683	1740.19
1015.976	1734.32
1016.268	1698.39
1016.56	1709.91
1016.851	1699.97
1017.143	1683.02
1017.435	1667.88
1017.727	1631.5
1018.018	1640.76
1018.31	1659.07
1018.602	1654.55
1018.893	1627.2
1019.185	1582.23
1019.476	1589.24
1019.767	1553.08
1020.058	1557.37
1020.35	1565.96
1020.641	1547.88
1020.932	1537.26
1021.223	1492.97
1021.514	1514.21
1021.804	1495.46
1022.095	1494.55
1022.386	1471.95
1022.677	1484.61
1022.967	1459.75
1023.258	1445.74
1023.548	1447.55
1023.839	1430.82
1024.129	1438.73
1024.419	1417.04
1024.709	1400.32
1025	1396.47
1025.29	1377.04
1025.58	1388.79
1025.87	1373.65
1026.16	1364.84
1026.449	1353.99
1026.739	1351.5
1027.029	1340.2
1027.319	1337.49
1027.608	1332.52
1027.898	1311.73
1028.187	1278.74
1028.477	1303.6
1028.766	1304.5
1029.055	1291.17
1029.344	1276.7
1029.634	1271.28
1029.923	1251.39
1030.212	1262.24
1030.501	1243.48
1030.79	1249.36
1031.078	1243.48
1031.367	1206.88
1031.656	1227.67
1031.945	1196.03
1032.233	1195.58
1032.522	1179.98
1032.81	1163.26
1033.099	1176.37
1033.387	1173.88
1033.675	1159.42
1033.963	1150.15
1034.251	1128.01
1034.54	1141.11
1034.828	1130.72
1035.116	1129.81
1035.403	1099.31
1035.691	1089.82
1035.979	1091.62
1036.267	1075.58
1036.554	1085.97
1036.842	1062.25
1037.129	1079.42
1037.417	1071.74
1037.704	1019.99
1037.992	1044.39
1038.279	1028.12
1038.566	1003.26
1038.853	1003.26
1039.14	1003.26
