Data from hue_50_FLMS001491_18.txt Node
Date: Mon Feb 06 15:09:40 GMT 2017
User: dcchb
Spectrometer: FLMS00149
Trigger mode: 0
Integration Time (sec): 2.000000E-2
Scans to average: 10
Electric dark correction enabled: true
Nonlinearity correction enabled: false
Boxcar width: 0
XAxis mode: Wavelengths
Number of Pixels in Spectrum: 2048
>>>>>Begin Spectral Data<<<<<
341.393	-16.48
341.776	-16.48
342.16	-16.48
342.543	-70.27
342.927	-71.85
343.31	-71.17
343.693	-76.14
344.077	-80.21
344.46	-56.71
344.843	-71.85
345.226	-56.26
345.61	-16.26
345.993	-25.52
346.376	9.28
346.759	27.36
347.142	41.82
347.525	32.33
347.908	64.19
348.291	72.1
348.674	88.15
349.057	118.88
349.44	120.24
349.823	136.06
350.206	166.34
350.588	194.59
350.971	194.13
351.354	214.7
351.737	249.95
352.119	251.98
352.502	269.84
352.884	281.81
353.267	290.63
353.65	283.62
354.032	321.81
354.414	301.93
354.797	309.38
355.179	328.59
355.562	322.49
355.944	322.04
356.326	345.77
356.709	342.38
357.091	335.37
357.473	343.28
357.855	349.84
358.238	316.62
358.62	378.08
359.002	337.63
359.384	346.22
359.766	336.95
360.148	335.82
360.53	354.58
360.912	335.6
361.294	330.4
361.676	340.8
362.057	336.73
362.439	326.33
362.821	341.47
363.203	325.2
363.584	342.38
363.966	323.62
364.348	317.07
364.729	323.4
365.111	315.71
365.493	326.79
365.874	322.27
366.256	321.81
366.637	308.25
367.019	320.23
367.4	333.79
367.781	321.36
368.163	298.99
368.544	340.57
368.925	323.62
369.306	318.88
369.688	307.58
370.069	286.56
370.45	323.17
370.831	298.99
371.212	324.53
371.593	302.38
371.974	322.27
372.355	326.79
372.736	313.45
373.117	302.61
373.498	313.23
373.879	310.97
374.26	321.36
374.641	331.3
375.021	330.63
375.402	310.06
375.783	324.53
376.163	337.86
376.544	318.42
376.925	307.58
377.305	298.54
377.686	316.62
378.066	329.72
378.447	332.43
378.827	336.28
379.208	341.47
379.588	348.25
379.968	319.33
380.349	335.82
380.729	342.83
381.109	341.25
381.489	346.22
381.87	335.15
382.25	349.38
382.63	335.37
383.01	354.13
383.39	321.36
383.77	321.14
384.15	360.91
384.53	330.63
384.91	322.27
385.29	353.45
385.67	330.63
386.049	333.79
386.429	352.32
386.809	345.54
387.189	333.56
387.568	361.81
387.948	349.16
388.328	334.47
388.707	369.72
389.087	356.39
389.466	358.87
389.846	360
390.225	360
390.605	362.26
390.984	345.99
391.363	345.54
391.743	338.31
392.122	360.23
392.501	361.36
392.881	361.59
393.26	366.11
393.639	357.97
394.018	356.39
394.397	381.92
394.776	367.91
395.155	373.56
395.534	354.36
395.913	357.74
396.292	372.66
396.671	357.29
397.05	372.43
397.429	369.04
397.808	370.4
398.186	376.05
398.565	381.7
398.944	375.15
399.323	349.16
399.701	341.47
400.08	391.19
400.458	385.99
400.837	382.15
401.215	346.67
401.594	383.96
401.972	392.77
402.351	366.11
402.729	402.04
403.107	371.76
403.486	398.42
403.864	408.82
404.242	391.87
404.62	387.57
404.999	385.54
405.377	387.35
405.755	399.78
406.133	411.98
406.511	411.08
406.889	406.11
407.267	419.89
407.645	429.83
408.023	406.56
408.401	422.6
408.779	408.14
409.156	419.66
409.534	399.55
409.912	428.48
410.29	436.16
410.667	416.5
411.045	437.74
411.422	421.7
411.8	441.13
412.178	443.62
412.555	435.26
412.933	453.56
413.31	435.26
413.687	455.37
414.065	453.11
414.442	448.82
414.819	453.79
415.197	461.24
415.574	459.21
415.951	456.05
416.328	452.21
416.705	435.93
417.082	468.02
417.46	476.61
417.837	473
418.214	477.52
418.591	470.06
418.967	475.48
419.344	495.37
419.721	482.94
420.098	472.32
420.475	461.7
420.852	476.61
421.228	495.37
421.605	493.56
421.982	478.19
422.358	500.11
422.735	496.95
423.111	482.26
423.488	495.59
423.864	494.69
424.241	515.48
424.617	505.54
424.994	498.98
425.37	517.06
425.746	520.9
426.123	530.85
426.499	538.08
426.875	527.46
427.251	513.9
427.627	513.9
428.003	551.41
428.379	529.49
428.756	551.41
429.132	555.71
429.507	553.9
429.883	542.37
430.259	546.44
430.635	570.39
431.011	566.78
431.387	576.5
431.763	562.49
432.138	572.43
432.514	584.41
432.89	599.55
433.265	611.98
433.641	602.48
434.016	585.54
434.392	578.53
434.767	585.76
435.143	597.51
435.518	613.78
435.894	623.27
436.269	611.75
436.644	605.2
437.02	630.28
437.395	631.86
437.77	641.13
438.145	642.48
438.52	627.34
438.895	663.05
439.271	651.07
439.646	660.34
440.021	638.19
440.395	649.49
440.77	650.84
441.145	656.95
441.52	673.89
441.895	684.97
442.27	683.16
442.645	680.45
443.019	699.88
443.394	695.59
443.769	723.84
444.143	702.59
444.518	711.41
444.892	683.16
445.267	725.87
445.641	687.91
446.016	708.7
446.39	722.93
446.764	708.02
447.139	723.16
447.513	714.35
447.887	713.89
448.262	731.07
448.636	755.25
449.01	724.74
449.384	728.13
449.758	760.45
450.132	756.15
450.506	748.24
450.88	764.74
451.254	738.75
451.628	773.78
452.002	765.42
452.376	786.66
452.75	800.22
453.123	793.44
453.497	815.36
453.871	826.43
454.244	835.25
454.618	825.3
454.992	827.11
455.365	838.18
455.739	838.64
456.112	845.87
456.486	836.15
456.859	846.09
457.232	870.27
457.606	865.08
457.979	869.6
458.352	880.89
458.725	922.02
459.099	927.45
459.472	930.16
459.845	928.8
460.218	927.9
460.591	947.56
460.964	958.63
461.337	986.43
461.71	983.49
462.083	1001.8
462.456	1019.2
462.829	999.54
463.201	1012.42
463.574	1021.46
463.947	1060.33
464.32	1054
464.692	1068.01
465.065	1058.52
465.438	1097.16
465.81	1090.38
466.183	1129.7
466.555	1141.68
466.928	1153.66
467.3	1149.59
467.672	1171.73
468.045	1217.84
468.417	1218.29
468.789	1219.42
469.161	1252.64
469.534	1284.05
469.906	1307.1
470.278	1317.49
470.65	1351.39
471.022	1379.86
471.394	1410.15
471.766	1396.36
472.138	1450.37
472.51	1474.55
472.882	1508.9
473.253	1540.09
473.625	1549.35
473.997	1624.83
474.369	1605.4
474.74	1671.83
475.112	1685.62
475.484	1736.24
475.855	1748.67
476.227	1798.16
476.598	1866.86
476.97	1895.11
477.341	1931.49
477.713	1993.63
478.084	2009.23
478.455	2073.18
478.827	2179.62
479.198	2231.59
479.569	2273.63
479.94	2324.92
480.311	2407.86
480.682	2479.95
481.053	2579.16
481.424	2651.24
481.795	2684.69
482.166	2748.42
482.537	2837.91
482.908	2909.99
483.279	3000.61
483.65	3074.28
484.021	3171.68
484.391	3248.52
484.762	3408.96
485.133	3408.51
485.503	3510.66
485.874	3659.58
486.244	3738.22
486.615	3867.03
486.985	3959.23
487.356	4073.81
487.726	4186.12
488.097	4290.52
488.467	4364.87
488.837	4489.39
489.207	4622.72
489.578	4767.8
489.948	4899.55
490.318	4993.33
490.688	5102.03
491.058	5264.06
491.428	5379.53
491.798	5491.62
492.168	5658.4
492.538	5748.56
492.908	5878.28
493.278	6033.53
493.648	6068.33
494.017	6236.69
494.387	6414.31
494.757	6511.03
495.126	6573.63
495.496	6740.63
495.866	6872.38
496.235	6946.5
496.605	7110.11
496.974	7196.89
497.344	7379.48
497.713	7491.79
498.082	7581.28
498.452	7790.77
498.821	7842.97
499.19	7998.9
499.559	8092.46
499.928	8206.58
500.298	8368.61
500.667	8495.61
501.036	8506.46
501.405	8682.95
501.774	8750.52
502.143	8896.73
502.512	9021.7
502.88	9162.71
503.249	9228.7
503.618	9310.73
503.987	9409.03
504.356	9502.82
504.724	9646.31
505.093	9753.2
505.462	9795.69
505.83	9981.67
506.199	10071.16
506.567	10270.25
506.936	10329.91
507.304	10433.41
507.672	10477.48
508.041	10594.09
508.409	10752.95
508.777	10830.69
509.145	10999.5
509.514	11042.89
509.882	11140.29
510.25	11205.6
510.618	11320.85
510.986	11419.15
511.354	11538.69
511.722	11703.21
512.09	11823.66
512.458	11845.13
512.826	11934.62
513.193	11997.89
513.561	12112.92
513.929	12259.35
514.297	12448.5
514.664	12409.86
515.032	12571.89
515.4	12624.31
515.767	12758.1
516.135	12834.48
516.502	12797.64
516.869	13018.88
517.237	13126.67
517.604	13158.54
517.972	13353.56
518.339	13383.84
518.706	13562.37
519.073	13581.35
519.44	13665.42
519.808	13828.58
520.175	13790.61
520.542	14048.68
520.909	14085.29
521.276	14132.98
521.643	14271.73
522.009	14398.28
522.376	14552.17
522.743	14544.04
523.11	14737.71
523.477	14829.68
523.843	14995.78
524.21	15075.55
524.577	15176.11
524.943	15269.9
525.31	15399.38
525.676	15476.67
526.043	15687.74
526.409	15684.8
526.776	15859.48
527.142	15925.25
527.508	16064
527.874	16147.16
528.241	16200.04
528.607	16311.68
528.973	16517.32
529.339	16500.37
529.705	16716.41
530.071	16873.69
530.437	16859.23
530.803	17047.7
531.169	17098.55
531.535	17094.48
531.901	17131.77
532.267	17225.32
532.632	17406.56
532.998	17422.38
533.364	17488.82
533.73	17579.89
534.095	17749.15
534.461	17760.9
534.826	17898.07
535.192	17906.44
535.557	18078.86
535.923	18071.4
536.288	18159.31
536.653	18317.05
537.019	18299.87
537.384	18325.86
537.749	18510.71
538.114	18536.02
538.479	18456.25
538.845	18639.3
539.21	18657.6
539.575	18746.64
539.94	18863.47
540.305	18970.81
540.67	18889.01
541.034	18994.99
541.399	19092.17
541.764	19182.33
542.129	19238.15
542.494	19215.55
542.858	19334.87
543.223	19416.23
543.587	19528.99
543.952	19521.76
544.316	19583.68
544.681	19541.87
545.045	19793.84
545.41	19924.01
545.774	19918.13
546.138	19872.94
546.503	20083.1
546.867	20035.65
547.231	20193.61
547.595	20167.62
547.959	20301.63
548.324	20338.24
548.688	20375.75
549.052	20443.54
549.416	20511.57
549.779	20467.05
550.143	20524.45
550.507	20658.68
550.871	20729.86
551.235	20744.55
551.599	20908.39
551.962	20960.37
552.326	21071.55
552.689	21271.32
553.053	21060.48
553.417	21173.92
553.78	21535.27
554.143	21415.27
554.507	21479.45
554.87	21592.44
555.234	21797.86
555.597	21632.67
555.96	21772.55
556.323	21855.03
556.686	21934.8
557.05	22034.91
557.413	22094.8
557.776	22161.47
558.139	22390.16
558.502	22388.13
558.865	22469.03
559.228	22601.68
559.59	22607.78
559.953	22721.9
560.316	22889.36
560.679	22923.48
561.041	22994.66
561.404	23266.75
561.767	23339.74
562.129	23198.73
562.492	23500.19
562.854	23518.04
563.217	23660.86
563.579	23613.63
563.941	23684.82
564.304	23850.23
564.666	23948.31
565.028	23996.22
565.39	24064.01
565.753	24282.77
566.115	24444.8
566.477	24411.8
566.839	24511.46
567.201	24708.74
567.563	24745.35
567.925	24851.34
568.287	24933.6
568.648	25015.4
569.01	25053.82
569.372	25248.84
569.734	25241.61
570.095	25357.99
570.457	25507.14
570.819	25560.47
571.18	25629.17
571.542	25740.13
571.903	25871.2
572.265	25898.32
572.626	26090.18
572.987	26125.2
573.349	26139.67
573.71	26278.87
574.071	26325.2
574.432	26435.03
574.794	26618.75
575.155	26619.2
575.516	26542.82
575.877	26708.24
576.238	26946.2
576.599	26958.85
576.96	27010.6
577.32	27045.63
577.681	27131.05
578.042	27330.14
578.403	27239.07
578.763	27341.22
579.124	27490.14
579.485	27658.04
579.845	27812.16
580.206	27835.21
580.566	27891.71
580.927	27910.92
581.287	28232.72
581.648	28138.03
582.008	28338.25
582.368	28358.14
582.728	28521.98
583.089	28527.17
583.449	28631.58
583.809	28841.52
584.169	28938.46
584.529	28860.27
584.889	29211.68
585.249	29091
585.609	29199.47
585.969	29321.96
586.329	29369.86
586.688	29475.17
587.048	29625.68
587.408	29672.68
587.768	29712.45
588.127	29755.16
588.487	29939.34
588.846	30119.9
589.206	29940.02
589.565	30097.98
589.925	30396.05
590.284	30298.43
590.643	30495.94
591.003	30549.04
591.362	30754.69
591.721	30758.3
592.08	30858.19
592.44	30993.32
592.799	31063.38
593.158	31034.68
593.517	31078.97
593.876	31378.85
594.235	31332.75
594.593	31389.7
594.952	31614.32
595.311	31615.68
595.67	31724.6
596.029	31959.4
596.387	32045.5
596.746	32243.69
597.104	32116.01
597.463	32067.19
597.822	32491.59
598.18	32209.11
598.538	32378.37
598.897	32465.6
599.255	32351.71
599.613	32990.79
599.972	32843.22
600.33	32994.17
600.688	32859.04
601.046	32987.17
601.404	33248.86
601.762	33169.09
602.12	33339.25
602.478	33482.52
602.836	33556.42
603.194	33540.15
603.552	33499.92
603.91	33336.09
604.268	33741.73
604.625	33648.39
604.983	33708.05
605.341	33817.2
605.698	33937.2
606.056	34128.16
606.413	34188.04
606.771	34204.31
607.128	34417.64
607.485	34216.74
607.843	34385.1
608.2	34590.29
608.557	34676.16
608.914	34525.66
609.272	34814.01
609.629	34902.83
609.986	35087.23
610.343	34918.64
610.7	35202.48
611.057	35258.3
611.414	35261.91
611.771	35267.34
612.127	35320.44
612.484	35406.09
612.841	35481.79
613.198	35396.37
613.554	35599.3
613.911	35702.58
614.267	35828.22
614.624	35729.92
614.98	35924.04
615.337	36036.13
615.693	36011.04
616.05	35898.96
616.406	36243.58
616.762	36130.36
617.118	36278.16
617.475	36221.89
617.831	36325.84
618.187	36464.14
618.543	36502.33
618.899	36725.38
619.255	36574.87
619.611	36657.58
619.967	36791.36
620.323	36911.36
620.678	36803.11
621.034	36638.37
621.39	36799.05
621.746	36827.07
622.101	37224.8
622.457	37008.98
622.812	37135.53
623.168	37248.98
623.523	37015.76
623.879	37232.03
624.234	37018.02
624.589	37147.29
624.945	37182.09
625.3	37280.62
625.655	37353.61
626.01	37449.88
626.365	37470.67
626.72	37347.51
627.075	37309.99
627.43	37346.83
627.785	37367.39
628.14	37436.77
628.495	37343.89
628.85	37403.78
629.205	37354.51
629.559	37672.92
629.914	37369.88
630.269	37359.48
630.623	37444.91
630.978	37345.47
631.332	37521.97
631.687	37558.35
632.041	37386.83
632.396	37505.24
632.75	37248.75
633.104	37455.53
633.459	37304.8
633.813	37252.82
634.167	37306.6
634.521	37335.08
634.875	37257.79
635.229	37301.41
635.583	37114.29
635.937	37218.02
636.291	37053.96
636.645	37087.4
636.999	36955.2
637.352	37135.08
637.706	37032.49
638.06	36944.35
638.413	37016.89
638.767	37035.2
639.121	36983.45
639.474	36964.69
639.828	36877.69
640.181	36946.61
640.534	36876.56
640.888	36732.83
641.241	36769.67
641.594	36855.77
641.947	36884.02
642.301	36772.15
642.654	36758.14
643.007	36831.59
643.36	36845.15
643.713	36724.7
644.066	36865.94
644.419	36645.38
644.771	36490.35
645.124	36066.41
645.477	36129.23
645.83	35821.22
646.182	35759.07
646.535	35614.22
646.888	35667.32
647.24	35477.95
647.593	35668.23
647.945	35565.63
648.298	35441.12
648.65	35391.63
649.002	35333.32
649.355	35466.43
649.707	35476.14
650.059	35516.82
650.411	35976.7
650.763	36005.62
651.115	36388.66
651.467	36198.61
651.819	36175.11
652.171	36093.3
652.523	36188.44
652.875	36055.34
653.227	35915.23
653.578	36286.52
653.93	36094.66
654.282	35966.53
654.633	35971.05
654.985	36038.16
655.337	35963.81
655.688	36005.17
656.039	36040.2
656.391	35828.45
656.742	35788.23
657.094	35796.36
657.445	36072.06
657.796	35865.06
658.147	35827.09
658.498	35764.95
658.849	35897.15
659.2	35882.69
659.551	35692.86
659.902	35797.94
660.253	35671.84
660.604	35870.48
660.955	35615.12
661.306	35737.61
661.656	35611.51
662.007	35721.11
662.358	35786.42
662.708	35757.94
663.059	35757.04
663.409	35448.57
663.76	35803.82
664.11	35787.55
664.461	35642.24
664.811	35755.91
665.161	35669.36
665.511	35684.27
665.862	35677.95
666.212	35787.55
666.562	35686.53
666.912	35564.05
667.262	35623.94
667.612	35633.43
667.962	35622.13
668.312	35564.95
668.662	35719.75
669.011	35657.83
669.361	35472.75
669.711	35477.05
670.06	35585.29
670.41	35389.14
670.76	35345.98
671.109	35571.96
671.459	35559.76
671.808	35465.75
672.157	35522.24
672.507	35086.32
672.856	35277.28
673.205	35337.16
673.554	35386.2
673.904	35307.11
674.253	35547.33
674.602	35385.52
674.951	34870.28
675.3	34735.82
675.649	35256.04
675.998	35134.46
676.346	35310.95
676.695	35256.26
677.044	34943.95
677.393	35119.77
677.741	35281.8
678.09	35119.77
678.438	34967.46
678.787	35094.23
679.135	35129.03
679.484	34751.87
679.832	34945.76
680.181	34823.05
680.529	34874.8
680.877	34717.75
681.225	34713.68
681.573	34936.27
681.922	34585.55
682.27	34626
682.618	34791.42
682.966	34550.07
683.314	34657.18
683.661	34588.03
684.009	34325.44
684.357	34290.64
684.705	34302.84
685.053	34292.22
685.4	34129.29
685.748	34135.84
686.095	34053.13
686.443	34072.11
686.79	33918.22
687.138	33888.16
687.485	33794.38
687.832	33861.04
688.18	33743.99
688.527	33568.85
688.874	33706.02
689.221	33531.56
689.568	33374.5
689.915	33291.57
690.262	33398.91
690.609	33191.46
690.956	33199.82
691.303	33124.79
691.65	33031.69
691.997	33056.09
692.344	32887.06
692.69	32782.88
693.037	32924.12
693.383	32615.2
693.73	32735.2
694.077	32428.09
694.423	32552.38
694.769	32350.12
695.116	32286.17
695.462	32211.14
695.808	32202.33
696.155	32218.6
696.501	32028.32
696.847	32008.89
697.193	31882.79
697.539	31916.69
697.885	31636.7
698.231	31645.06
698.577	31478.73
698.923	31395.8
699.269	31483.93
699.614	31221.11
699.96	31261.34
700.306	31304.5
700.651	31064.73
700.997	31011.18
701.342	30964.62
701.688	30905.87
702.033	30728.02
702.379	30737.51
702.724	30706.78
703.069	30686.89
703.415	30382.27
703.76	30261.37
704.105	30382.04
704.45	30261.14
704.795	30126.45
705.14	30105.66
705.485	30009.62
705.83	29849.85
706.175	30009.39
706.52	29914.48
706.865	29760.14
707.209	29786.12
707.554	29571.67
707.899	29666.8
708.243	29513.59
708.588	29534.6
708.932	29350.43
709.277	29351.56
709.621	29324.89
709.966	29086.25
710.31	29165.35
710.654	28961.29
710.998	28944.56
711.342	28971
711.687	28885.58
712.031	28720.39
712.375	28602.2
712.719	28712.03
713.063	28566.04
713.407	28700.05
713.75	28450.11
714.094	28490.56
714.438	28282.66
714.782	28375.99
715.125	28340.96
715.469	28262.77
715.812	28230.01
716.156	28001.31
716.499	28093.06
716.843	28022.33
717.186	27896.46
717.53	27938.26
717.873	28019.39
718.216	27897.59
718.559	27744.37
718.902	27644.26
719.246	27702.34
719.589	27627.99
719.932	27489.23
720.275	27560.65
720.617	27506.64
720.96	27435.22
721.303	27331.27
721.646	27476.58
721.989	27208.79
722.331	27373.98
722.674	27266.42
723.016	27195.01
723.359	27199.52
723.701	27251.73
724.044	27035.69
724.386	26963.82
724.729	27004.73
725.071	27002.24
725.413	26965.63
725.755	26837.73
726.097	26808.57
726.439	26666.21
726.782	26630.95
727.124	26735.13
727.465	26552.76
727.807	26560.22
728.149	26523.61
728.491	26449.04
728.833	26467.57
729.175	26393.9
729.516	26325.88
729.858	26310.28
730.199	26315.48
730.541	26195.48
730.882	26172.66
731.224	26251.53
731.565	26119.1
731.906	26059.89
732.248	26112.32
732.589	26023.96
732.93	25957.52
733.271	25958.2
733.612	25961.37
733.953	25886.34
734.294	25843.85
734.635	25723.18
734.976	25846.79
735.317	25616.06
735.658	25657.42
735.999	25677.08
736.339	25440.93
736.68	25735.16
737.021	25579
737.361	25316.18
737.702	25560.92
738.042	25520.25
738.383	25343.98
738.723	25477.76
739.063	25268.28
739.404	25430.31
739.744	25355.05
740.084	25255.4
740.424	25183.98
740.764	25205
741.104	25184.89
741.444	25014.95
741.784	25077.09
742.124	25035.51
742.464	25000.49
742.804	24969.98
743.143	24895.18
743.483	24919.13
743.823	24784
744.162	24824.9
744.502	24891.79
744.841	24668.07
745.181	24780.38
745.52	24630.1
745.86	24720.27
746.199	24659.93
746.538	24687.73
746.877	24567.28
747.216	24636.65
747.556	24476.66
747.895	24473.72
748.234	24324.12
748.573	24375.64
748.911	24318.24
749.25	24298.36
749.589	24192.37
749.928	24086.84
750.267	24203.45
750.605	24106.5
750.944	24123
751.283	24018.37
751.621	23909.89
751.96	23877.8
752.298	23971.81
752.636	23862.44
752.975	23737.47
753.313	23648.66
753.651	23795.55
753.989	23699.28
754.327	23558.72
754.666	23471.49
755.004	23517.36
755.342	23412.05
755.679	23497.25
756.017	23476.01
756.355	23333.86
756.693	23348.78
757.031	23268.1
757.368	23138.61
757.706	23087.54
758.044	22979.97
758.381	23010.26
758.719	22903.82
759.056	23106.53
759.394	22909.69
759.731	22801.9
760.068	22852.52
760.405	22607.33
760.743	22635.58
761.08	22509.48
761.417	22425.19
761.754	22495.02
762.091	22381.57
762.428	22224.97
762.765	22159.43
763.102	22199.43
763.438	22142.71
763.775	22014.58
764.112	21947.91
764.449	22021.36
764.785	21900.23
765.122	21737.07
765.458	21717.86
765.795	21750.63
766.131	21630.18
766.467	21632.67
766.804	21503.18
767.14	21541.59
767.476	21441.94
767.812	21223.64
768.148	21270.64
768.485	21156.75
768.821	20999.91
769.157	20929.41
769.492	20928.05
769.828	20915.4
770.164	20647.15
770.5	20656.42
770.836	20730.99
771.171	20536.42
771.507	20566.25
771.842	20379.14
772.178	20345.47
772.513	20307.73
772.849	20225.47
773.184	20167.85
773.519	20125.59
773.855	20074.97
774.19	20045.59
774.525	19803.11
774.86	19961.3
775.195	19815.54
775.53	19711.13
775.865	19633.62
776.2	19499.39
776.535	19351.14
776.87	19378.71
777.205	19263.01
777.539	19225.27
777.874	19250.36
778.209	19176.69
778.543	19055.11
778.878	18917.03
779.212	18906.18
779.547	18854.21
779.881	18826.86
780.215	18738.28
780.55	18686.3
780.884	18695.34
781.218	18597.27
781.552	18543.26
781.886	18424.84
782.22	18371.06
782.554	18215.35
782.888	18154.11
783.222	18150.72
783.556	18033.89
783.889	17973.33
784.223	17831.64
784.557	17846.1
784.89	17838.64
785.224	17761.13
785.557	17674.35
785.891	17528.59
786.224	17557.52
786.558	17436.39
786.891	17426.9
787.224	17263.29
787.557	17267.81
787.891	17199.56
788.224	17159.56
788.557	17156.4
788.89	17060.36
789.223	17003.86
789.556	16990.75
789.888	16963.64
790.221	16799.8
790.554	16721.38
790.887	16689.29
791.219	16634.83
791.552	16615.4
791.884	16495.4
792.217	16435.97
792.549	16386.25
792.882	16300.38
793.214	16188.29
793.546	16249.53
793.879	16181.28
794.211	15973.15
794.543	16133.6
794.875	15946.04
795.207	16082.98
795.539	15963.44
795.871	15982.87
796.203	15855.64
796.535	15698.58
796.867	15694.97
797.198	15637.8
797.53	15575.2
797.862	15491.36
798.193	15487.74
798.525	15481.41
798.856	15379.04
799.188	15373.4
799.519	15222.89
799.85	15156
800.182	15214.53
800.513	15131.14
800.844	15036.45
801.175	15082.1
801.506	15039.84
801.837	14981.77
802.168	14979.06
802.499	14895.67
802.83	14902.22
803.161	14855.67
803.491	14811.6
803.822	14697.71
804.153	14664.71
804.483	14569.35
804.814	14578.84
805.145	14420.43
805.475	14504.72
805.805	14452.06
806.136	14377.94
806.466	14460.88
806.796	14384.49
807.126	14245.97
807.457	14143.37
807.787	14177.49
808.117	14055.69
808.447	14145.86
808.777	14012.98
809.107	14119.64
809.436	14004.84
809.766	14027.44
810.096	13862.47
810.426	13810.5
810.755	13860.67
811.085	13827.45
811.414	13821.57
811.744	13666.77
812.073	13777.96
812.403	13664.29
812.732	13589.04
813.061	13511.52
813.39	13511.75
813.719	13449.38
814.049	13528.7
814.378	13479.66
814.707	13389.49
815.036	13415.03
815.365	13327.35
815.693	13187.92
816.022	13259.55
816.351	13174.36
816.68	13134.81
817.008	13206.22
817.337	13027.69
817.665	13035.83
817.994	13093.68
818.322	13021.59
818.651	12967.81
818.979	12997.41
819.307	13017.98
819.636	12878.55
819.964	12772.33
820.292	12969.16
820.62	12847.13
820.948	12884.42
821.276	12878.09
821.604	12819.79
821.932	12767.59
822.259	12803.75
822.587	12796.29
822.915	12729.85
823.243	12798.1
823.57	12729.62
823.898	12749.06
824.225	12743.41
824.553	12706.57
824.88	12690.08
825.207	12780.02
825.535	12669.06
825.862	12708.83
826.189	12713.13
826.516	12695.5
826.843	12824.99
827.17	12711.77
827.497	12822.95
827.824	12699.79
828.151	12743.41
828.478	12710.19
828.805	12833.12
829.131	12717.87
829.458	12684.88
829.785	12565.79
830.111	12661.38
830.438	12705.67
830.764	12683.97
831.09	12725.56
831.417	12699.57
831.743	12676.07
832.069	12679
832.395	12607.82
832.722	12554.49
833.048	12674.48
833.374	12677.42
833.7	12553.81
834.026	12654.82
834.351	12603.75
834.677	12529.18
835.003	12601.94
835.329	12552.68
835.654	12579.12
835.98	12463.64
836.306	12522.17
836.631	12480.82
836.956	12540.7
837.282	12453.7
837.607	12399.46
837.932	12447.14
838.258	12367.82
838.583	12413.7
838.908	12295.74
839.233	12333.93
839.558	12239.92
839.883	12209.64
840.208	12204.66
840.533	12236.3
840.858	12271.78
841.182	12196.76
841.507	12137.32
841.832	12070.66
842.156	12156.76
842.481	12068.17
842.805	12032.69
843.13	11975.07
843.454	11956.31
843.778	12006.03
844.103	11903.88
844.427	11923.32
844.751	11947.5
845.075	11811.91
845.399	11807.84
845.723	11755.64
846.047	11759.48
846.371	11735.07
846.695	11665.24
847.019	11549.99
847.343	11566.49
847.666	11491.46
847.99	11424.35
848.313	11386.83
848.637	11355.42
848.96	11344.12
849.284	11228.65
849.607	11242.43
849.931	11180.96
850.254	11071.14
850.577	11072.27
850.9	11033.62
851.223	10972.38
851.546	10974.41
851.869	10862.1
852.192	10933.06
852.515	10774.42
852.838	10722.44
853.161	10689.68
853.483	10727.64
853.806	10596.12
854.129	10621.2
854.451	10570.36
854.774	10522.68
855.096	10498.04
855.419	10537.59
855.741	10436.58
856.063	10471.15
856.385	10403.58
856.708	10308.67
857.03	10283.36
857.352	10325.62
857.674	10265.96
857.996	10248.11
858.318	10136.7
858.64	10133.98
858.961	10154.32
859.283	10079.07
859.605	10100.54
859.926	10145.06
860.248	10035.46
860.57	10007.43
860.891	9993.88
861.212	9966.76
861.534	9897.83
861.855	9917.95
862.176	9898.96
862.498	9912.07
862.819	9892.18
863.14	9806.31
863.461	9777.38
863.782	9727.44
864.103	9738.97
864.424	9739.42
864.745	9784.16
865.065	9766.31
865.386	9686.31
865.707	9673.66
866.027	9694.22
866.348	9593.89
866.668	9626.2
866.989	9605.19
867.309	9546.43
867.63	9613.09
867.95	9578.07
868.27	9488.8
868.59	9528.35
868.91	9548.46
869.23	9496.94
869.55	9449.71
869.87	9493.32
870.19	9466.66
870.51	9461.23
870.83	9423.5
871.15	9343.72
871.469	9400.22
871.789	9400.44
872.109	9440.67
872.428	9358.41
872.748	9337.17
873.067	9386.43
873.386	9318.19
873.706	9248.36
874.025	9243.84
874.344	9232.09
874.663	9237.96
874.982	9161.13
875.301	9205.2
875.62	9209.26
875.939	9133.79
876.258	9112.32
876.577	9146.67
876.896	9117.74
877.214	9060.79
877.533	9109.38
877.852	9096.72
878.17	9146.67
878.489	9076.16
878.807	9090.17
879.125	9029.83
879.444	9029.38
879.762	8976.73
880.08	8982.6
880.398	8936.5
880.716	9007.23
881.034	8901.02
881.352	8922.27
881.67	8915.71
881.988	8883.62
882.306	8902.38
882.624	8828.26
882.941	8815.6
883.259	8713.46
883.577	8809.27
883.894	8670.97
884.212	8677.98
884.529	8713.46
884.846	8699.9
885.164	8645.89
885.481	8628.94
885.798	8704.87
886.115	8576.06
886.432	8633.91
886.75	8549.62
887.067	8555.72
887.383	8556.63
887.7	8508.26
888.017	8501.94
888.334	8471.2
888.651	8426.91
888.967	8413.35
889.284	8352.56
889.6	8374.48
889.917	8317.08
890.233	8352.56
890.55	8331.77
890.866	8291.55
891.182	8322.51
891.498	8245.45
891.815	8209.74
892.131	8163.64
892.447	8149.63
892.763	8172.23
893.079	8117.31
893.395	8123.42
893.71	8101.5
894.026	8087.71
894.342	7988.28
894.657	7946.47
894.973	8061.05
895.289	7910.99
895.604	7966.58
895.92	7830.54
896.235	7872.35
896.55	7846.81
896.865	7810.2
897.181	7781.73
897.496	7754.84
897.811	7730.43
898.126	7701.05
898.441	7710.77
898.756	7652.92
899.071	7592.58
899.386	7593.71
899.7	7576.99
900.015	7519.82
900.33	7519.59
900.644	7509.42
900.959	7527.95
901.273	7430.55
901.588	7420.61
901.902	7418.8
902.216	7340.16
902.531	7316.43
902.845	7260.16
903.159	7227.85
903.473	7284.57
903.787	7219.94
904.101	7210.67
904.415	7198.47
904.729	7159.15
905.042	7073.27
905.356	7081.41
905.67	7081.41
905.984	7081.18
906.297	7036.89
906.611	7015.65
906.924	6965.48
907.237	6946.95
907.551	6939.04
907.864	6903.56
908.177	6864.69
908.491	6886.16
908.804	6855.43
909.117	6806.84
909.43	6717.13
909.743	6730.91
910.056	6658.82
910.368	6699.95
910.681	6663.12
910.994	6577.69
911.307	6574.76
911.619	6555.32
911.932	6559.62
912.244	6489.11
912.557	6545.6
912.869	6499.28
913.181	6444.14
913.494	6393.07
913.806	6365.27
914.118	6354.42
914.43	6278.72
914.742	6348.1
915.054	6273.52
915.366	6266.29
915.678	6246.63
915.99	6248.66
916.302	6151.49
916.613	6114.66
916.925	6131.38
917.236	6131.15
917.548	6077.82
917.859	6083.02
918.171	6027.65
918.482	6008.44
918.794	5968.9
919.105	5900.42
919.416	5899.97
919.727	5871.05
920.038	5895.45
920.349	5844.38
920.66	5816.81
920.971	5815
921.282	5783.14
921.593	5754.67
921.903	5697.72
922.214	5757.15
922.525	5677.6
922.835	5640.32
923.146	5596.48
923.456	5619.53
923.767	5622.92
924.077	5565.74
924.387	5575.91
924.697	5518.74
925.008	5493.88
925.318	5475.12
925.628	5520.77
925.938	5437.16
926.248	5394
926.558	5362.13
926.867	5365.07
927.177	5337.95
927.487	5309.03
927.796	5289.14
928.106	5277.62
928.416	5234.23
928.725	5241.01
929.034	5203.95
929.344	5179.09
929.653	5187.45
929.962	5114.46
930.271	5155.13
930.581	5074.23
930.89	5009.37
931.199	5045.31
931.508	5005.98
931.817	5008.02
932.125	4935.7
932.434	4982.48
932.743	4934.12
933.051	4919.21
933.36	4914.91
933.669	4869.49
933.977	4881.02
934.286	4853.22
934.594	4828.59
934.902	4761.02
935.21	4786.33
935.519	4822.49
935.827	4764.41
936.135	4731.87
936.443	4687.8
936.751	4646.45
937.059	4664.98
937.367	4641.25
937.674	4630.85
937.982	4610.74
938.29	4615.26
938.597	4638.31
938.905	4508.37
939.213	4565.09
939.52	4478.54
939.827	4503.4
940.135	4460.01
940.442	4436.73
940.749	4426.56
941.056	4445.09
941.363	4382.72
941.67	4345.21
941.977	4339.11
942.284	4342.5
942.591	4328.04
942.898	4296.4
943.205	4274.48
943.511	4241.03
943.818	4272.22
944.125	4189.96
944.431	4243.52
944.738	4190.86
945.044	4187.02
945.35	4168.04
945.657	4157.64
945.963	4156.52
946.269	4114.71
946.575	4101.83
946.881	4098.44
947.187	4081.26
947.493	4005.56
947.799	4020.02
948.105	4046.91
948.41	3949.06
948.716	3959.68
949.022	3940.48
949.327	3953.58
949.633	3889.18
949.938	3916.75
950.244	3914.04
950.549	3841.27
950.854	3841.95
951.16	3853.02
951.465	3813.47
951.77	3837.2
952.075	3808.5
952.38	3744.1
952.685	3787.49
952.99	3729.86
953.294	3706.13
953.599	3665
953.904	3661.16
954.209	3677.43
954.513	3679.01
954.818	3663.87
955.122	3643.08
955.426	3609.41
955.731	3575.97
956.035	3526.02
956.339	3573.48
956.643	3561.05
956.948	3505.46
957.252	3501.17
957.556	3523.54
957.86	3475.85
958.163	3523.09
958.467	3407.38
958.771	3448.51
959.075	3425.46
959.378	3431.56
959.682	3419.36
959.985	3370.55
960.289	3373.26
960.592	3319.47
960.896	3354.95
961.199	3345.24
961.502	3323.99
961.805	3306.37
962.108	3281.51
962.411	3263.66
962.714	3248.52
963.017	3214.84
963.32	3243.54
963.623	3189.99
963.926	3198.35
964.228	3186.6
964.531	3150.21
964.833	3186.37
965.136	3177.11
965.438	3120.38
965.741	3118.8
966.043	3095.98
966.345	3065.7
966.648	3060.72
966.95	3070.44
967.252	3043.78
967.554	3052.14
967.856	3044.68
968.158	3018.92
968.46	3000.61
968.761	2977.34
969.063	2964
969.365	2971.46
969.666	2968.98
969.968	2931.46
970.269	2917.9
970.571	2908.86
970.872	2909.54
971.174	2875.64
971.475	2885.36
971.776	2833.61
972.077	2825.02
972.378	2836.55
972.679	2793.61
972.98	2820.5
973.281	2832.48
973.582	2797.23
973.883	2802.65
974.183	2780.73
974.484	2807.4
974.785	2748.19
975.085	2733.28
975.386	2727.4
975.686	2713.16
975.986	2723.56
976.287	2696.44
976.587	2685.37
976.887	2662.09
977.187	2672.71
977.487	2646.27
977.787	2611.47
978.087	2589.1
978.387	2599.04
978.687	2601.75
978.987	2588.19
979.286	2557.24
979.586	2554.3
979.885	2536.67
980.185	2542.55
980.484	2533.73
980.784	2507.97
981.083	2497.58
981.382	2485.82
981.682	2494.64
981.981	2488.31
982.28	2457.35
982.579	2428.42
982.878	2422.1
983.177	2421.19
983.475	2413.74
983.774	2377.35
984.073	2404.92
984.372	2397.01
984.67	2390.69
984.969	2338.48
985.267	2373.74
985.566	2371.7
985.864	2324.47
986.162	2337.35
986.461	2337.35
986.759	2314.53
987.057	2274.3
987.355	2294.19
987.653	2283.8
987.951	2288.09
988.249	2258.03
988.547	2264.36
988.844	2247.86
989.142	2260.75
989.44	2179.84
989.737	2206.74
990.035	2209.67
990.332	2190.92
990.63	2154.31
990.927	2147.08
991.224	2154.53
991.521	2156.57
991.819	2151.37
992.116	2114.53
992.413	2096.91
992.71	2105.27
993.006	2121.77
993.303	2070.24
993.6	2086.29
993.897	2058.27
994.193	2069.34
994.49	2054.65
994.787	2058.94
995.083	2059.4
995.379	2021.43
995.676	2037.7
995.972	2016.46
996.268	1976.69
996.565	1992.05
996.861	1945.27
997.157	1963.13
997.453	1948.89
997.749	1950.7
998.044	1959.96
998.34	1958.83
998.636	1919.96
998.932	1896.69
999.227	1910.7
999.523	1890.36
999.818	1873.64
1000.114	1850.59
1000.409	1874.77
1000.704	1845.62
1001	1828.89
1001.295	1861.66
1001.59	1833.41
1001.885	1804.26
1002.18	1790.93
1002.475	1792.28
1002.77	1790.48
1003.065	1753.87
1003.359	1785.28
1003.654	1735.79
1003.949	1722
1004.243	1751.15
1004.538	1743.02
1004.832	1732.62
1005.127	1706.86
1005.421	1711.38
1005.715	1706.64
1006.009	1693.08
1006.304	1675.22
1006.598	1660.31
1006.892	1645.17
1007.186	1649.91
1007.48	1641.33
1007.773	1630.48
1008.067	1630.48
1008.361	1599.52
1008.655	1583.25
1008.948	1592.97
1009.242	1562.91
1009.535	1559.97
1009.829	1567.43
1010.122	1581.67
1010.415	1571.05
1010.708	1557.94
1011.001	1554.55
1011.295	1505.51
1011.588	1512.06
1011.881	1516.58
1012.173	1501.44
1012.466	1518.62
1012.759	1494.89
1013.052	1513.19
1013.344	1454.21
1013.637	1448.79
1013.93	1433.42
1014.222	1464.38
1014.514	1410.37
1014.807	1408.34
1015.099	1417.83
1015.391	1414.89
1015.683	1405.4
1015.976	1394.33
1016.268	1406.53
1016.56	1395.23
1016.851	1387.1
1017.143	1385.06
1017.435	1336.25
1017.727	1367.44
1018.018	1364.05
1018.31	1331.73
1018.602	1326.76
1018.893	1335.57
1019.185	1313.2
1019.476	1305.97
1019.767	1321.11
1020.058	1266.65
1020.35	1287.66
1020.641	1273.65
1020.932	1257.61
1021.223	1258.29
1021.514	1245.86
1021.804	1250.38
1022.095	1229.36
1022.386	1239.08
1022.677	1222.13
1022.967	1208.12
1023.258	1209.7
1023.548	1168.8
1023.839	1175.58
1024.129	1193.2
1024.419	1194.56
1024.709	1164.05
1025	1170.38
1025.29	1134.67
1025.58	1156.82
1025.87	1137.84
1026.16	1150.94
1026.449	1121.57
1026.739	1118.18
1027.029	1081.34
1027.319	1093.54
1027.608	1089.03
1027.898	1075.69
1028.187	1061.91
1028.477	1086.77
1028.766	1074.11
1029.055	1019.65
1029.344	1065.07
1029.634	1031.63
1029.923	1042.02
1030.212	1040.66
1030.501	1039.53
1030.79	1024.39
1031.078	992.53
1031.367	1016.94
1031.656	984.85
1031.945	991.85
1032.233	974.68
1032.522	969.25
1032.81	991.85
1033.099	974.45
1033.387	962.93
1033.675	934
1033.963	946.88
1034.251	950.95
1034.54	932.64
1034.828	944.4
1035.116	916.6
1035.403	921.12
1035.691	907.79
1035.979	951.18
1036.267	916.6
1036.554	910.05
1036.842	921.12
1037.129	887
1037.417	874.57
1037.704	885.64
1037.992	879.99
1038.279	882.7
1038.566	857.84
1038.853	857.84
1039.14	857.84
