Data from hue_20_FLMS001491_78.txt Node
Date: Mon Feb 06 15:34:38 GMT 2017
User: dcchb
Spectrometer: FLMS00149
Trigger mode: 0
Integration Time (sec): 2.000000E-2
Scans to average: 10
Electric dark correction enabled: true
Nonlinearity correction enabled: false
Boxcar width: 0
XAxis mode: Wavelengths
Number of Pixels in Spectrum: 2048
>>>>>Begin Spectral Data<<<<<
341.393	-31.43
341.776	-31.43
342.16	-31.43
342.543	-73.91
342.927	-60.8
343.31	-96.28
343.693	-75.04
344.077	-49.28
344.46	-69.39
344.843	-57.64
345.226	-66
345.61	-39.56
345.993	-12.44
346.376	10.16
346.759	21.91
347.142	17.16
347.525	43.6
347.908	72.3
348.291	101.9
348.674	77.95
349.057	120.66
349.44	115.92
349.823	148.68
350.206	191.17
350.588	191.39
350.971	206.53
351.354	231.84
351.737	231.17
352.119	254.67
352.502	274.1
352.884	292.18
353.267	279.53
353.65	283.82
354.032	291.96
354.414	309.13
354.797	312.52
355.179	316.36
355.562	336.47
355.944	343.48
356.326	334.21
356.709	320.66
357.091	334.44
357.473	348.45
357.855	362.46
358.238	339.64
358.62	345.29
359.002	338.96
359.384	344.84
359.766	325.4
360.148	352.07
360.53	354.55
360.912	338.73
361.294	345.74
361.676	350.71
362.057	340.99
362.439	339.19
362.821	327.43
363.203	326.98
363.584	324.5
363.966	316.14
364.348	331.05
364.729	319.75
365.111	316.81
365.493	316.36
365.874	336.47
366.256	316.59
366.637	311.16
367.019	309.13
367.4	329.47
367.781	311.16
368.163	329.47
368.544	313.65
368.925	317.49
369.306	325.18
369.688	294.22
370.069	317.04
370.45	313.2
370.831	328.34
371.212	327.43
371.593	310.49
371.974	309.36
372.355	310.94
372.736	305.97
373.117	311.62
373.498	317.94
373.879	316.59
374.26	306.87
374.641	343.71
375.021	327.43
375.402	352.74
375.783	323.82
376.163	349.36
376.544	346.64
376.925	332.18
377.305	345.74
377.686	333.31
378.066	348.45
378.447	309.58
378.827	330.6
379.208	351.39
379.588	347.1
379.968	329.47
380.349	332.63
380.729	352.74
381.109	357.49
381.489	354.33
381.87	354.55
382.25	362.24
382.63	345.06
383.01	349.36
383.39	349.81
383.77	348.23
384.15	361.56
384.53	341.45
384.91	372.63
385.29	356.36
385.67	368.79
386.049	364.95
386.429	369.69
386.809	355.68
387.189	379.64
387.568	360.88
387.948	369.24
388.328	360.43
388.707	378.51
389.087	371.28
389.466	384.61
389.846	383.7
390.225	374.67
390.605	358.17
390.984	370.37
391.363	363.59
391.743	378.96
392.122	357.49
392.501	374.21
392.881	392.97
393.26	385.06
393.639	371.73
394.018	391.61
394.397	400.88
394.776	384.83
395.155	377.83
395.534	404.27
395.913	398.85
396.292	396.36
396.671	394.33
397.05	415.34
397.429	393.87
397.808	395.23
398.186	390.26
398.565	393.42
398.944	408.79
399.323	394.78
399.701	423.25
400.08	431.61
400.458	412.86
400.837	397.94
401.215	432.97
401.594	403.59
401.972	439.52
402.351	424.38
402.729	419.86
403.107	419.86
403.486	418.28
403.864	415.12
404.242	419.86
404.62	424.38
404.999	418.05
405.377	406.08
405.755	450.82
406.133	431.61
406.511	426.42
406.889	446.08
407.267	454.21
407.645	458.73
408.023	470.93
408.401	461.67
408.779	456.92
409.156	471.84
409.534	476.36
409.912	467.09
410.29	470.03
410.667	458.73
411.045	472.29
411.422	506.41
411.8	483.36
412.178	489.69
412.555	480.88
412.933	505.96
413.31	499.63
413.687	490.59
414.065	482.46
414.442	486.75
414.819	523.81
415.197	509.13
415.574	507.09
415.951	519.52
416.328	515.23
416.705	522.68
417.082	545.51
417.46	541.89
417.837	530.82
418.214	515.45
418.591	527.43
418.967	524.72
419.344	538.95
419.721	529.92
420.098	528.11
420.475	557.03
420.852	584.6
421.228	559.07
421.605	562.23
421.982	563.36
422.358	540.54
422.735	575.56
423.111	550.71
423.488	553.19
423.864	579.86
424.241	599.52
424.617	590.03
424.994	582.34
425.37	588.67
425.746	601.1
426.123	593.42
426.499	601.78
426.875	597.94
427.251	605.85
427.627	612.85
428.003	615.79
428.379	650.59
428.756	645.39
429.132	648.56
429.507	640.2
429.883	642
430.259	659.4
430.635	644.94
431.011	691.27
431.387	650.36
431.763	691.04
432.138	703.92
432.514	693.3
432.89	709.35
433.265	716.58
433.641	709.12
434.016	717.93
434.392	732.85
434.767	727.65
435.143	748.89
435.518	729.68
435.894	718.84
436.269	741.89
436.644	745.28
437.02	747.08
437.395	747.31
437.77	783.69
438.145	759.97
438.52	778.72
438.895	768.55
439.271	801.32
439.646	807.2
440.021	795.45
440.395	805.84
440.77	833.86
441.145	829.57
441.52	831.6
441.895	845.61
442.27	841.55
442.645	855.56
443.019	856.46
443.394	842.68
443.769	842
444.143	849.91
444.518	844.48
444.892	852.17
445.267	850.81
445.641	893.07
446.016	866.86
446.39	860.75
446.764	881.09
447.139	901.43
447.513	893.3
447.887	898.04
448.262	906.4
448.636	905.72
449.01	931.03
449.384	910.02
449.758	912.05
450.132	931.49
450.506	930.81
450.88	949.11
451.254	965.38
451.628	968.32
452.002	975.78
452.376	961.54
452.75	990.69
453.123	1005.84
453.497	996.12
453.871	1000.41
454.244	992.73
454.618	1012.84
454.992	1023.46
455.365	1043.35
455.739	1061.2
456.112	1059.17
456.486	1063.91
456.859	1074.99
457.232	1090.58
457.606	1093.74
457.979	1086.06
458.352	1127.19
458.725	1103.69
459.099	1139.39
459.472	1168.32
459.845	1145.27
460.218	1190.01
460.591	1186.62
460.964	1182.1
461.337	1206.06
461.71	1234.53
462.083	1265.72
462.456	1268.65
462.829	1255.09
463.201	1249.22
463.574	1257.35
463.947	1306.62
464.32	1307.52
464.692	1330.8
465.065	1306.84
465.438	1336.22
465.81	1369.44
466.183	1353.4
466.555	1392.94
466.928	1420.51
467.3	1410.12
467.672	1433.62
468.045	1456.67
468.417	1481.53
468.789	1454.18
469.161	1504.81
469.534	1515.65
469.906	1555.65
470.278	1560.62
470.65	1589.32
471.022	1620.51
471.394	1658.47
471.766	1653.73
472.138	1660.96
472.51	1706.16
472.882	1735.76
473.253	1718.58
473.625	1800.84
473.997	1810.79
474.369	1803.78
474.74	1856.89
475.112	1879.26
475.484	1901.18
475.855	1961.97
476.227	2005.36
476.598	2028.86
476.97	2031.8
477.341	2078.35
477.713	2103.21
478.084	2142.98
478.455	2202.19
478.827	2236.76
479.198	2283.54
479.569	2264.11
479.94	2368.06
480.311	2352.24
480.682	2433.14
481.053	2475.63
481.424	2528.96
481.795	2549.3
482.166	2559.92
482.537	2623.42
482.908	2682.4
483.279	2755.39
483.65	2800.14
484.021	2822.28
484.391	2858.67
484.762	2911.77
485.133	2934.82
485.503	2988.16
485.874	3072.22
486.244	3077.87
486.615	3166.91
486.985	3189.28
487.356	3269.05
487.726	3302.5
488.097	3361.93
488.467	3394.25
488.837	3457.07
489.207	3476.96
489.578	3550.63
489.948	3598.99
490.318	3645.77
490.688	3695.26
491.058	3742.49
491.428	3777.74
491.798	3813.22
492.168	3874.01
492.538	3937.74
492.908	4002.14
493.278	4013.44
493.648	4040.78
494.017	4104.74
494.387	4151.06
494.757	4230.61
495.126	4251.63
495.496	4285.07
495.866	4296.82
496.235	4352.87
496.605	4422.47
496.974	4447.78
497.344	4437.61
497.713	4501.56
498.082	4521.45
498.452	4577.27
498.821	4608.68
499.19	4653.2
499.559	4664.27
499.928	4750.14
500.298	4788.56
500.667	4775.45
501.036	4831.5
501.405	4883.25
501.774	4854.1
502.143	4948.1
502.512	4918.5
502.88	4973.87
503.249	5007.76
503.618	5075.78
503.987	5059.51
504.356	5090.47
504.724	5107.2
505.093	5123.92
505.462	5146.29
505.83	5179.51
506.199	5212.5
506.567	5291.6
506.936	5254.09
507.304	5306.29
507.672	5374.08
508.041	5401.43
508.409	5411.59
508.777	5447.53
509.145	5499.5
509.514	5511.48
509.882	5505.38
510.25	5558.71
510.618	5532.5
510.986	5618.37
511.354	5628.31
511.722	5664.92
512.09	5723.45
512.458	5718.71
512.826	5786.73
513.193	5779.04
513.561	5835.09
513.929	5871.02
514.297	5860.17
514.664	5881.64
515.032	5962.77
515.4	5964.8
515.767	5945.82
516.135	5996.66
516.502	6029.21
516.869	6062.43
517.237	6040.05
517.604	6045.93
517.972	6143.1
518.339	6178.35
518.706	6161.41
519.073	6173.38
519.44	6213.16
519.808	6291.8
520.175	6267.62
520.542	6332.93
520.909	6389.65
521.276	6327.05
521.643	6430.78
522.009	6504
522.376	6510.32
522.743	6588.74
523.11	6586.48
523.477	6620.15
523.843	6626.7
524.21	6690.43
524.577	6767.94
524.943	6736.98
525.31	6791.67
525.676	6816.53
526.043	6868.73
526.409	6920.93
526.776	6998.9
527.142	7037.54
527.508	7060.59
527.874	7114.15
528.241	7121.83
528.607	7201.6
528.973	7232.11
529.339	7247.48
529.705	7293.13
530.071	7365.22
530.437	7371.32
530.803	7457.64
531.169	7440.92
531.535	7507.13
531.901	7502.61
532.267	7485.89
532.632	7539.22
532.998	7626.45
533.364	7648.15
533.73	7727.92
534.095	7805.2
534.461	7734.47
534.826	7830.97
535.192	7797.97
535.557	7885.43
535.923	7854.24
536.288	7910.06
536.653	7948.25
537.019	7945.99
537.384	7993.45
537.749	8051.98
538.114	8097.63
538.479	8066.67
538.845	8157.06
539.21	8129.72
539.575	8185.76
539.94	8211.97
540.305	8256.72
540.67	8244.74
541.034	8317.06
541.399	8310.28
541.764	8346.66
542.129	8411.29
542.494	8430.95
542.858	8531.74
543.223	8462.14
543.587	8578.29
543.952	8553.66
544.316	8614.45
544.681	8594.56
545.045	8627.56
545.41	8741.68
545.774	8767.89
546.138	8780.55
546.503	8771.28
546.867	8760.21
547.231	8880.2
547.595	8943.25
547.959	8939.64
548.324	8905.51
548.688	9020.99
549.052	9010.6
549.416	9012.86
549.779	9148.45
550.143	9025.51
550.507	9138.73
550.871	9163.36
551.235	9132.18
551.599	9314.09
551.962	9246.52
552.326	9324.03
552.689	9302.34
553.053	9283.58
553.417	9399.74
553.78	9504.14
554.143	9416.91
554.507	9458.04
554.87	9471.83
555.234	9607.64
555.597	9545.72
555.96	9564.48
556.323	9630.47
556.686	9691.93
557.05	9720.41
557.413	9732.84
557.776	9676.57
558.139	9790.01
558.502	9848.09
558.865	9838.37
559.228	9931.02
559.59	9959.95
559.953	9973.96
560.316	10054.64
560.679	10031.81
561.041	10124.92
561.404	10152.71
561.767	10238.13
562.129	10219.38
562.492	10242.88
562.854	10279.72
563.217	10298.02
563.579	10337.79
563.941	10484.68
564.304	10488.98
564.666	10507.96
565.028	10522.2
565.39	10544.12
565.753	10626.15
566.115	10619.37
566.477	10707.95
566.839	10738.23
567.201	10771.23
567.563	10832.02
567.925	10878.8
568.287	10867.27
568.648	10906.37
569.01	10950.21
569.372	11065.91
569.734	10999.24
570.095	11153.14
570.457	11129.41
570.819	11184.78
571.18	11265.23
571.542	11259.8
571.903	11226.13
572.265	11396.07
572.626	11372.57
572.987	11472.23
573.349	11544.99
573.71	11505.9
574.071	11711.77
574.432	11722.84
574.794	11887.13
575.155	11785.89
575.516	11796.51
575.877	11977.52
576.238	12041.03
576.599	12061.82
576.96	12133
577.32	12179.33
577.681	12399.89
578.042	12386.1
578.403	12512.88
578.763	12642.14
579.124	12718.75
579.485	12803.94
579.845	12988.34
580.206	13037.16
580.566	13050.26
580.927	13253.2
581.287	13380.2
581.648	13436.02
582.008	13586.97
582.368	13668.55
582.728	13796.91
583.089	14028.09
583.449	14191.25
583.809	14331.81
584.169	14485.25
584.529	14639.6
584.889	14986.26
585.249	15010.66
585.609	15096.54
585.969	15444.1
586.329	15722.06
586.688	15901.04
587.048	16066.91
587.408	16334.02
587.768	16513.9
588.127	16716.61
588.487	16951.86
588.846	17366.31
589.206	17496.47
589.565	17792.74
589.925	18090.58
590.284	18322.67
590.643	18618.48
591.003	18935.08
591.362	19190.22
591.721	19556.31
592.08	19810.31
592.44	20192.9
592.799	20443.29
593.158	20736.39
593.517	21009.15
593.876	21438.52
594.235	21695.23
594.593	21981.33
594.952	22450.02
595.311	22608.66
595.67	22874.41
596.029	23546.71
596.387	23876.42
596.746	24079.8
597.104	24267.6
597.463	24721.37
597.822	25093.79
598.18	25409.49
598.538	25652.19
598.897	26130.15
599.255	26364.72
599.613	27041.53
599.972	27074.3
600.33	27502.77
600.688	27857.11
601.046	28106.37
601.404	28490.99
601.762	28842.17
602.12	29245.54
602.478	29661.58
602.836	29879.88
603.194	30123.94
603.552	30490.48
603.91	30744.26
604.268	31097.02
604.625	31384.92
604.983	31834.18
605.341	31991.24
605.698	32365.46
606.056	32797.09
606.413	33008.61
606.771	33348.26
607.128	33553.23
607.485	33710.29
607.843	33994.57
608.2	34548.23
608.557	34785.29
608.914	34845.85
609.272	35356.12
609.629	35634.08
609.986	35970.34
610.343	36069.09
610.7	36591.57
611.057	36733.71
611.414	37026.81
611.771	37077.66
612.127	37512.22
612.484	37804.19
612.841	38184.97
613.198	38020.91
613.554	38309.71
613.911	38715.13
614.267	38878.06
614.624	38998.51
614.98	39218.84
615.337	39561.66
615.693	39617.02
616.05	39789.45
616.406	40198.02
616.762	40206.16
617.118	40362.09
617.475	40465.36
617.831	40741.51
618.187	40880.94
618.543	41262.86
618.899	41362.51
619.255	41463.3
619.611	41694.93
619.967	41878.43
620.323	42120.91
620.678	41994.81
621.034	42062.38
621.39	42225.09
621.746	42274.13
622.101	43009.25
622.457	42647.45
622.812	42906.2
623.168	42994.34
623.523	43235.69
623.879	43242.92
624.234	43135.12
624.589	43508.67
624.945	43486.3
625.3	43660.53
625.655	43679.97
626.01	43725.39
626.365	43828.21
626.72	43947.3
627.075	43969.68
627.43	44068.43
627.785	44035.66
628.14	44132.61
628.495	44494.86
628.85	44233.85
629.205	44333.96
629.559	44676.78
629.914	44468.42
630.269	44618.7
630.623	44532.83
630.978	44437.69
631.332	44634.07
631.687	44967.84
632.041	44772.37
632.396	44781.63
632.75	44702.77
633.104	44719.04
633.459	44664.57
633.813	44745.02
634.167	44764.01
634.521	44784.57
634.875	44894.4
635.229	44845.13
635.583	44733.5
635.937	44752.03
636.291	44760.16
636.645	44851.46
636.999	44780.05
637.352	44768.3
637.706	44701.64
638.06	44826.38
638.413	44800.39
638.767	44735.53
639.121	44792.48
639.474	44617.34
639.828	44696.89
640.181	44796.32
640.534	44857.34
640.888	44618.93
641.241	44533.5
641.594	44634.07
641.947	44843.78
642.301	44703.67
642.654	44615.99
643.007	44630.45
643.36	44724.23
643.713	44518.14
644.066	44732.82
644.419	44359.95
644.771	44232.5
645.124	43817.14
645.477	43852.17
645.83	43656.47
646.182	43534.21
646.535	43462.35
646.888	43442.91
647.24	43286.53
647.593	43659.63
647.945	43569.69
648.298	43280.66
648.65	43224.39
649.002	43072.53
649.355	43300.09
649.707	43258.28
650.059	43350.03
650.411	43837.03
650.763	43866.4
651.115	44288.31
651.467	44274.3
651.819	44186.62
652.171	44105.94
652.523	44058.04
652.875	44134.87
653.227	43954.76
653.578	44224.13
653.93	44058.49
654.282	44022.56
654.633	43870.24
654.985	44041.31
655.337	44062.33
655.688	43924.03
656.039	44190.46
656.391	43657.6
656.742	43880.41
657.094	43884.48
657.445	43965.84
657.796	43873.18
658.147	43815.33
658.498	43787.99
658.849	43846.52
659.2	43887.87
659.551	43596.81
659.902	43895.55
660.253	43736.91
660.604	43867.08
660.955	43597.71
661.306	43701.21
661.656	43810.36
662.007	43732.17
662.358	43704.6
662.708	43635
663.059	43549.12
663.409	43451.05
663.76	43818.95
664.11	43699.4
664.461	43674.09
664.811	43721.32
665.161	43691.04
665.511	43564.04
665.862	43724.94
666.212	43776.69
666.562	43785.95
666.912	43712.51
667.262	43586.64
667.612	43560.2
667.962	43630.93
668.312	43516.58
668.662	43782.34
669.011	43608.33
669.361	43553.42
669.711	43592.29
670.06	43442.69
670.41	43435.23
670.76	43514.77
671.109	43544.15
671.459	43449.69
671.808	43396.13
672.157	43502.8
672.507	43149.13
672.856	43211.73
673.205	43432.29
673.554	43469.58
673.904	43326.98
674.253	43451.5
674.602	43355
674.951	42863.27
675.3	42580.79
675.649	43249.24
675.998	43146.87
676.346	43127.21
676.695	43285.18
677.044	42967.67
677.393	43127.21
677.741	43108.68
678.09	43097.38
678.438	42947.33
678.787	43081.56
679.135	42957.95
679.484	42832.53
679.832	43032.3
680.181	42739.65
680.529	42907.33
680.877	42590.05
681.225	42682.25
681.573	42818.75
681.922	42656.27
682.27	42449.27
682.618	42586.89
682.966	42208.82
683.314	42505.53
683.661	42286.56
684.009	42121.36
684.357	42043.4
684.705	41977.87
685.053	42091.53
685.4	41848.6
685.748	41860.58
686.095	41723.63
686.443	41726.35
686.79	41519.57
687.138	41733.13
687.485	41677.99
687.832	41636.41
688.18	41468.05
688.527	41406.58
688.874	41287.94
689.221	41132.92
689.568	41166.14
689.915	41041.39
690.262	41064.22
690.609	40973.82
690.956	40779.7
691.303	40791.91
691.65	40600.73
691.997	40665.81
692.344	40291.36
692.69	40313.95
693.037	40415.65
693.383	40091.36
693.73	40211.36
694.077	40012.72
694.423	40021.76
694.769	39749.45
695.116	39847.07
695.462	39774.99
695.808	39573.86
696.155	39709.45
696.501	39385.62
696.847	39338.84
697.193	39214.77
697.539	39334.77
697.885	38941.33
698.231	38908.57
698.577	38841.45
698.923	38721
699.269	38553.77
699.614	38523.27
699.96	38499.99
700.306	38405.98
700.651	38257.74
700.997	38021.81
701.342	38020.23
701.688	38042.15
702.033	37818.65
702.379	37806.9
702.724	37746.56
703.069	37892.32
703.415	37402.17
703.76	37414.82
704.105	37478.1
704.45	37253.24
704.795	37281.94
705.14	37011.67
705.485	37073.59
705.83	36972.35
706.175	36859.81
706.52	36735.52
706.865	36740.26
707.209	36702.75
707.554	36561.28
707.899	36625.01
708.243	36488.29
708.588	36309.54
708.932	36158.81
709.277	36102.09
709.621	36157
709.966	35863.9
710.31	35952.49
710.654	35661.87
710.998	35785.49
711.342	35660.07
711.687	35710.01
712.031	35539.62
712.375	35311.6
712.719	35328.32
713.063	35394.54
713.407	35447.64
713.75	35158.84
714.094	35213.98
714.438	35019.86
714.782	35175.78
715.125	34842.23
715.469	34940.54
715.812	34847.66
716.156	34608.79
716.499	34595.91
716.843	34652.41
717.186	34476.14
717.53	34598.17
717.873	34559.08
718.216	34386.65
718.559	34284.96
718.902	34174.45
719.246	34263.27
719.589	34232.76
719.932	33974.69
720.275	34076.6
720.617	33842.71
720.96	33744.64
721.303	33852.66
721.646	33841.58
721.989	33618.31
722.331	33652.66
722.674	33614.24
723.016	33669.84
723.359	33478.88
723.701	33619.67
724.044	33381.48
724.386	33177.42
724.729	33322.73
725.071	33317.98
725.413	33287.92
725.755	33157.98
726.097	32991.21
726.439	32927.93
726.782	32856.07
727.124	32951.66
727.465	32846.58
727.807	32788.73
728.149	32780.14
728.491	32739.01
728.833	32819.24
729.175	32597.32
729.516	32515.06
729.858	32410.66
730.199	32471
730.541	32465.12
730.882	32328.85
731.224	32386.03
731.565	32240.95
731.906	32208.4
732.248	32189.87
732.589	31939.26
732.93	31962.31
733.271	31919.37
733.612	31920.5
733.953	31937
734.294	31805.7
734.635	31873.72
734.976	31881.63
735.317	31719.83
735.658	31641.41
735.999	31751.47
736.339	31687.97
736.68	31771.58
737.021	31585.82
737.361	31380.86
737.702	31479.16
738.042	31421.31
738.383	31306.28
738.723	31470.8
739.063	31285.49
739.404	31327.75
739.744	31147.64
740.084	31123.46
740.424	31261.31
740.764	31052.5
741.104	31203.46
741.444	31050.02
741.784	30821.55
742.124	30897.93
742.464	30915.56
742.804	30742.23
743.143	30848.89
743.483	30744.94
743.823	30547.21
744.162	30548.34
744.502	30525.06
744.841	30368.68
745.181	30596.7
745.52	30416.81
745.86	30353.99
746.199	30430.15
746.538	30407.55
746.877	30302.69
747.216	30307.44
747.556	30224.05
747.895	30231.51
748.234	30135.46
748.573	30062.47
748.911	30073.55
749.25	30097.73
749.589	29892.53
749.928	29878.75
750.267	29995.36
750.605	29868.81
750.944	29805.53
751.283	29728.24
751.621	29776.83
751.96	29584.97
752.298	29622.26
752.636	29669.26
752.975	29371.64
753.313	29376.61
753.651	29481.02
753.989	29236.05
754.327	29253.23
754.666	29156.96
755.004	29252.1
755.342	29228.37
755.679	29067.02
756.017	28811.21
756.355	29022.27
756.693	28796.74
757.031	28919
757.368	28716.07
757.706	28660.25
758.044	28463.19
758.381	28717.42
758.719	28487.82
759.056	28421.16
759.394	28387.94
759.731	28160.38
760.068	28134.39
760.405	28142.97
760.743	27942.53
761.08	27946.6
761.417	27769.65
761.754	27817.56
762.091	27703.66
762.428	27623.89
762.765	27566.27
763.102	27380.96
763.438	27427.29
763.775	27314.97
764.112	27333.96
764.449	27280.4
764.785	27169.21
765.122	26983.23
765.458	26899.39
765.795	26981.42
766.131	26932.84
766.467	26735.55
766.804	26748.66
767.14	26472.74
767.476	26482.23
767.812	26508.67
768.148	26394.77
768.485	26294.21
768.821	26143.03
769.157	26164.5
769.492	26049.24
769.828	25978.74
770.164	25767.44
770.5	25675.24
770.836	25748.46
771.171	25513.89
771.507	25464.18
771.842	25320
772.178	25337.85
772.513	25212.88
772.849	25222.37
773.184	24988.48
773.519	24993.45
773.855	24997.07
774.19	24893.79
774.525	24803.4
774.86	24619.68
775.195	24604.54
775.53	24461.49
775.865	24421.49
776.2	24218.11
776.535	24089.97
776.87	24062.18
777.205	23965.68
777.539	23796.65
777.874	23905.12
778.209	23665.13
778.543	23647.73
778.878	23439.82
779.212	23543.77
779.547	23417.45
779.881	23391.46
780.215	23287.06
780.55	23269.88
780.884	23123.67
781.218	23044.13
781.552	23035.54
781.886	22927.07
782.22	22815.21
782.554	22703.57
782.888	22525.27
783.222	22452.05
783.556	22300.42
783.889	22267.42
784.223	22194.66
784.557	22152.85
784.89	22115.11
785.224	21938.62
785.557	21909.01
785.891	21796.7
786.224	21754.67
786.558	21770.94
786.891	21625.41
787.224	21437.16
787.557	21464.73
787.891	21373.21
788.224	21290.05
788.557	21261.12
788.89	21203.72
789.223	21230.61
789.556	21051.41
789.888	20979.55
790.221	20943.16
790.554	20745.43
790.887	20799.44
791.219	20757.18
791.552	20589.5
791.884	20600.8
792.217	20552.21
792.549	20471.09
792.882	20319.23
793.214	20262.28
793.546	20277.87
793.879	20067.48
794.211	20027.93
794.543	19997.88
794.875	19894.83
795.207	19948.39
795.539	19822.97
795.871	19880.37
796.203	19727.38
796.535	19587.49
796.867	19524.9
797.198	19466.59
797.53	19478.34
797.862	19379.82
798.193	19380.49
798.525	19286.48
798.856	19306.6
799.188	19049.65
799.519	18958.81
799.85	18994.29
800.182	18994.74
800.513	18874.29
800.844	18756.33
801.175	18826.61
801.506	18850.34
801.837	18670
802.168	18628.2
802.499	18569.44
802.83	18457.35
803.161	18344.36
803.491	18437.47
803.822	18408.99
804.153	18230.24
804.483	18172.62
804.814	18083.8
805.145	18091.71
805.475	18060.3
805.805	17962.68
806.136	18013.98
806.466	17898.27
806.796	17882.91
807.126	17667.77
807.457	17635
807.787	17705.74
808.117	17636.81
808.447	17499.19
808.777	17630.26
809.107	17597.72
809.436	17411.96
809.766	17463.26
810.096	17368.34
810.426	17332.86
810.755	17354.56
811.085	17248.8
811.414	17199.31
811.744	17066.2
812.073	17130.16
812.403	17006.77
812.732	16943.04
813.061	16903.5
813.39	16852.42
813.719	16814.68
814.049	16971.97
814.378	16885.87
814.707	16687.23
815.036	16662.15
815.365	16586.89
815.693	16529.95
816.022	16557.74
816.351	16431.87
816.68	16310.97
817.008	16421.93
817.337	16256.51
817.665	16337.64
817.994	16196.85
818.322	16196.85
818.651	16148.49
818.979	16131.09
819.307	16204.53
819.636	15968.38
819.964	15988.49
820.292	16042.73
820.62	16039.56
820.948	15995.95
821.276	16017.42
821.604	15915.05
821.932	16081.82
822.259	15943.3
822.587	15861.04
822.915	15926.35
823.243	15930.87
823.57	15879.34
823.898	15955.05
824.225	15812.23
824.553	15827.82
824.88	15910.53
825.207	15850.42
825.535	15859.91
825.862	15879.12
826.189	15824.43
826.516	15871.21
826.843	15898.1
827.17	15872.79
827.497	15851.77
827.824	15898.1
828.151	15899.91
828.478	15869.85
828.805	15915.27
829.131	15851.32
829.458	15781.72
829.785	15687.93
830.111	15756.86
830.438	15937.42
830.764	15819.91
831.09	15889.96
831.417	15721.38
831.743	15779.91
832.069	15880.47
832.395	15684.32
832.722	15781.27
833.048	15627.37
833.374	15723.19
833.7	15579.24
834.026	15665.11
834.351	15642.96
834.677	15595.06
835.003	15646.13
835.329	15617.65
835.654	15660.59
835.98	15482.97
836.306	15543.31
836.631	15537.2
836.956	15524.55
837.282	15550.31
837.607	15469.64
837.932	15474.38
838.258	15475.51
838.583	15454.04
838.908	15288.4
839.233	15428.28
839.558	15320.71
839.883	15229.42
840.208	15209.53
840.533	15227.61
840.858	15177.44
841.182	15185.35
841.507	15224.67
841.832	15118.68
842.156	15083.88
842.481	15106.93
842.805	14983.55
843.13	14944.23
843.454	14988.74
843.778	14876.88
844.103	14862.87
844.427	14793.04
844.751	14898.35
845.075	14790.11
845.399	14753.72
845.723	14635.76
846.047	14690
846.371	14500.62
846.695	14560.51
847.019	14449.55
847.343	14374.3
847.666	14285.71
847.99	14196.22
848.313	14203.23
848.637	14123.68
848.96	14135.21
849.284	14073.06
849.607	14031.93
849.931	13963.01
850.254	13861.77
850.577	13739.96
850.9	13668.33
851.223	13683.24
851.546	13494.77
851.869	13560.99
852.192	13615.9
852.515	13384.04
852.838	13438.28
853.161	13447.54
853.483	13317.15
853.806	13255.91
854.129	13260.2
854.451	13217.49
854.774	13152.63
855.096	13081
855.419	13148.79
855.741	12985.63
856.063	12964.62
856.385	12909.93
856.708	12900.89
857.03	12828.58
857.352	12810.72
857.674	12797.39
857.996	12768.92
858.318	12678.07
858.64	12695.92
858.961	12605.98
859.283	12554.23
859.605	12523.5
859.926	12557.17
860.248	12461.35
860.57	12535.7
860.891	12425.2
861.212	12399.43
861.534	12427
861.855	12365.54
862.176	12343.39
862.498	12347.23
862.819	12274.69
863.14	12246.22
863.461	12210.51
863.782	12210.96
864.103	12174.13
864.424	12121.48
864.745	12129.84
865.065	12096.39
865.386	12100.68
865.707	12034.7
866.027	11974.59
866.348	12105.88
866.668	12044.19
866.989	11958.09
867.309	11879.67
867.63	11942.72
867.95	11871.31
868.27	11822.5
868.59	11852.1
868.91	11815.27
869.23	11833.8
869.55	11721.94
869.87	11862.27
870.19	11731.65
870.51	11776.17
870.83	11779.56
871.15	11685.78
871.469	11728.94
871.789	11740.92
872.109	11673.35
872.428	11604.65
872.748	11645.56
873.067	11629.28
873.386	11595.84
873.706	11579.79
874.025	11508.16
874.344	11459.8
874.663	11494.6
874.982	11515.62
875.301	11461.61
875.62	11403.75
875.939	11364.66
876.258	11389.97
876.577	11266.13
876.896	11334.83
877.214	11330.31
877.533	11316.3
877.852	11333.02
878.17	11372.57
878.489	11229.75
878.807	11243.76
879.125	11270.88
879.444	11212.35
879.762	11142.29
880.08	11143.87
880.398	11089.64
880.716	11131.22
881.034	11103.87
881.352	11076.76
881.67	11029.07
881.988	11058
882.306	11012.58
882.624	10981.84
882.941	10988.62
883.259	10870.89
883.577	10923.77
883.894	10831.34
884.212	10796.99
884.529	10780.72
884.846	10787.05
885.164	10812.58
885.481	10759.25
885.798	10751.12
886.115	10680.83
886.432	10746.6
886.75	10705.92
887.067	10739.14
887.383	10541.4
887.7	10634.51
888.017	10526.94
888.334	10564.91
888.651	10463.44
888.967	10437.45
889.284	10463.44
889.6	10427.51
889.917	10368.3
890.233	10340.28
890.55	10263.9
890.866	10310.22
891.182	10271.13
891.498	10225.03
891.815	10185.48
892.131	10193.39
892.447	10154.52
892.763	10094.41
893.079	10106.16
893.395	9991.59
893.71	10031.36
894.026	10032.26
894.342	9970.8
894.657	9895.77
894.973	9910.91
895.289	9907.07
895.604	9868.88
895.92	9784.59
896.235	9742.78
896.55	9666.4
896.865	9732.16
897.181	9712.95
897.496	9663.91
897.811	9592.73
898.126	9540.98
898.441	9662.56
898.756	9546.4
899.071	9478.61
899.386	9463.24
899.7	9403.81
900.015	9352.96
900.33	9334.66
900.644	9305.73
900.959	9340.08
901.273	9276.13
901.588	9282
901.902	9190.48
902.216	9183.47
902.531	9101.44
902.845	9034.1
903.159	9081.55
903.473	9045.62
903.787	8957.04
904.101	8949.36
904.415	8962.69
904.729	8869.58
905.042	8823.93
905.356	8806.08
905.67	8874.1
905.984	8809.7
906.297	8821.9
906.611	8678.4
906.924	8623.49
907.237	8640.89
907.551	8639.31
907.864	8558.18
908.177	8524.73
908.491	8521.12
908.804	8504.62
909.117	8407
909.43	8386.88
909.743	8323.83
910.056	8394.12
910.368	8366.55
910.681	8263.5
910.994	8136.04
911.307	8174.01
911.619	8127.91
911.932	8178.98
912.244	8047.91
912.557	8030.06
912.869	8102.6
913.181	8035.93
913.494	7981.24
913.806	7955.93
914.118	7828.25
914.43	7885.65
914.742	7798.88
915.054	7753
915.366	7742.38
915.678	7731.08
915.99	7761.36
916.302	7680.24
916.613	7574.02
916.925	7567.47
917.236	7604.31
917.548	7493.35
917.859	7513.91
918.171	7384.2
918.482	7466
918.794	7381.03
919.105	7333.13
919.416	7379.9
919.727	7335.84
920.038	7328.83
920.349	7296.52
920.66	7244.32
920.971	7232.56
921.282	7180.14
921.593	7054.94
921.903	7111.89
922.214	7082.29
922.525	7037.99
922.835	7015.62
923.146	6940.14
923.456	6991.67
923.767	6906.02
924.077	6910.54
924.387	6978.11
924.697	6840.71
925.008	6823.76
925.318	6781.5
925.628	6761.39
925.938	6752.35
926.248	6678
926.558	6705.35
926.867	6649.08
927.177	6615.63
927.487	6624.67
927.796	6537.22
928.106	6524.33
928.416	6462.19
928.725	6469.87
929.034	6426.71
929.344	6442.53
929.653	6416.54
929.962	6370.67
930.271	6334.06
930.581	6321.4
930.89	6294.74
931.199	6241.63
931.508	6238.69
931.817	6188.3
932.125	6195.98
932.434	6173.16
932.743	6131.35
933.051	6081.63
933.36	6095.64
933.669	6042.99
933.977	6038.7
934.286	5938.13
934.594	5978.81
934.902	5881.41
935.21	5889.77
935.519	5893.16
935.827	5829.89
936.135	5834.18
936.443	5815.88
936.751	5758.93
937.059	5781.08
937.367	5773.62
937.674	5721.87
937.982	5707.63
938.29	5724.58
938.597	5650.23
938.905	5549.22
939.213	5547.41
939.52	5558.71
939.827	5574.98
940.135	5483.46
940.442	5516.45
940.749	5459.73
941.056	5472.16
941.363	5407.75
941.67	5414.08
941.977	5377.02
942.284	5346.06
942.591	5336.79
942.898	5284.82
943.205	5300.64
943.511	5216.12
943.818	5246.18
944.125	5213.63
944.431	5199.85
944.738	5164.37
945.044	5134.99
945.35	5146.74
945.657	5114.65
945.963	5071.04
946.269	5087.08
946.575	5072.39
946.881	5038.72
947.187	5004.37
947.493	4977.93
947.799	4930.93
948.105	4936.58
948.41	4892.51
948.716	4866.07
949.022	4827.2
949.327	4838.73
949.633	4779.07
949.938	4837.6
950.244	4829.69
950.549	4720.09
950.854	4717.83
951.16	4732.06
951.465	4696.81
951.77	4699.98
952.075	4673.08
952.38	4614.55
952.685	4662.69
952.99	4594.22
953.294	4575.01
953.599	4559.19
953.904	4535.91
954.209	4507.89
954.513	4528.91
954.818	4472.18
955.122	4461.34
955.426	4447.55
955.731	4445.97
956.035	4390.83
956.339	4403.71
956.643	4340.66
956.948	4344.73
957.252	4292.53
957.556	4309.03
957.86	4310.83
958.163	4288.01
958.467	4248.24
958.771	4237.39
959.075	4220.89
959.378	4179.99
959.682	4174.11
959.985	4158.29
960.289	4124.17
960.592	4090.27
960.896	4125.75
961.199	4103.83
961.502	4064.96
961.805	4039.65
962.108	3993.1
962.411	4033.78
962.714	3953.33
963.017	3967.34
963.32	3948.81
963.623	3957.4
963.926	3922.14
964.228	3913.56
964.531	3885.08
964.833	3879.21
965.136	3847.34
965.438	3809.83
965.741	3794.46
966.043	3828.59
966.345	3785.2
966.648	3769.6
966.95	3813.9
967.252	3739.77
967.554	3735.03
967.856	3743.62
968.158	3657.29
968.46	3657.06
968.761	3683.5
969.063	3666.33
969.365	3651.42
969.666	3599.89
969.968	3562.38
970.269	3585.43
970.571	3569.61
970.872	3544.75
971.174	3511.31
971.475	3474.24
971.776	3501.14
972.077	3456.84
972.378	3489.39
972.679	3499.78
972.98	3437.86
973.281	3378.43
973.582	3421.14
973.883	3389.95
974.183	3398.99
974.484	3390.86
974.785	3344.76
975.085	3345.66
975.386	3344.08
975.686	3315.6
975.986	3245.78
976.287	3271.76
976.587	3272.22
976.887	3277.64
977.187	3227.47
977.487	3213.91
977.787	3202.61
978.087	3232.44
978.387	3183.86
978.687	3196.06
978.987	3134.14
979.286	3116.29
979.586	3106.8
979.885	3113.35
980.185	3071.54
980.484	3049.85
980.784	3063.63
981.083	3042.62
981.382	3026.35
981.682	3039.45
981.981	3042.39
982.28	2995.39
982.579	2977.99
982.878	2995.16
983.177	2988.83
983.475	2970.98
983.774	2939.57
984.073	2947.25
984.372	2891.66
984.67	2897.54
984.969	2875.16
985.267	2878.33
985.566	2846.69
985.864	2833.58
986.162	2837.65
986.461	2790.42
986.759	2813.92
987.057	2816.18
987.355	2792.68
987.653	2765.11
987.951	2753.81
988.249	2753.13
988.547	2756.3
988.844	2715.62
989.142	2688.28
989.44	2668.16
989.737	2662.74
990.035	2673.59
990.332	2642.18
990.63	2636.3
990.927	2624.78
991.224	2606.47
991.521	2600.82
991.819	2641.5
992.116	2589.97
992.413	2574.38
992.71	2566.7
993.006	2533.48
993.303	2552.91
993.6	2531.67
993.897	2524.21
994.193	2515.63
994.49	2500.71
994.787	2448.51
995.083	2471.11
995.379	2426.81
995.676	2471.11
995.972	2417.55
996.268	2446.48
996.565	2422.3
996.861	2437.21
997.157	2397.89
997.453	2385.01
997.749	2402.18
998.044	2361.28
998.34	2352.01
998.636	2298
998.932	2330.09
999.227	2299.36
999.523	2269.76
999.818	2279.47
1000.114	2279.02
1000.409	2259.59
1000.704	2204.45
1001	2245.12
1001.295	2222.98
1001.59	2222.53
1001.885	2185.47
1002.18	2157.67
1002.475	2173.71
1002.77	2161.96
1003.065	2142.75
1003.359	2129.42
1003.654	2131.23
1003.949	2103.66
1004.243	2126.71
1004.538	2090.33
1004.832	2089.42
1005.127	2053.04
1005.421	2025.24
1005.715	2041.29
1006.009	2025.47
1006.304	2017.56
1006.598	1979.14
1006.892	1992.02
1007.186	1986.37
1007.48	1968.3
1007.773	1952.48
1008.067	1972.82
1008.361	1947.96
1008.655	1925.58
1008.948	1886.94
1009.242	1877.9
1009.535	1881.52
1009.829	1860.28
1010.122	1851.24
1010.415	1850.11
1010.708	1858.92
1011.001	1834.29
1011.295	1865.93
1011.588	1817.79
1011.881	1801.97
1012.173	1827.06
1012.466	1819.6
1012.759	1751.8
1013.052	1784.12
1013.344	1764.46
1013.637	1747.74
1013.93	1727.85
1014.222	1755.65
1014.514	1759.04
1014.807	1732.82
1015.099	1683.33
1015.391	1695.76
1015.683	1681.75
1015.976	1654.41
1016.268	1660.06
1016.56	1629.77
1016.851	1641.75
1017.143	1616.67
1017.435	1583.9
1017.727	1603.56
1018.018	1624.8
1018.31	1619.15
1018.602	1586.38
1018.893	1560.17
1019.185	1568.76
1019.476	1550.23
1019.767	1531.25
1020.058	1552.94
1020.35	1525.6
1020.641	1511.58
1020.932	1521.3
1021.223	1484.24
1021.514	1480.17
1021.804	1458.48
1022.095	1488.76
1022.386	1443.56
1022.677	1446.73
1022.967	1427.74
1023.258	1411.93
1023.548	1418.25
1023.839	1413.06
1024.129	1399.5
1024.419	1403.79
1024.709	1386.16
1025	1393.85
1025.29	1340.06
1025.58	1362.44
1025.87	1338.71
1026.16	1353.17
1026.449	1321.08
1026.739	1320.4
1027.029	1335.77
1027.319	1300.29
1027.608	1281.08
1027.898	1325.37
1028.187	1254.19
1028.477	1244.7
1028.766	1248.77
1029.055	1223.91
1029.344	1239.73
1029.634	1195.43
1029.923	1217.58
1030.212	1207.86
1030.501	1224.59
1030.79	1196.79
1031.078	1182.1
1031.367	1194.76
1031.656	1169.67
1031.945	1163.57
1032.233	1129.9
1032.522	1129
1032.81	1133.29
1033.099	1144.14
1033.387	1112.05
1033.675	1147.07
1033.963	1091.93
1034.251	1115.44
1034.54	1081.09
1034.828	1118.83
1035.116	1098.94
1035.403	1082.9
1035.691	1072.95
1035.979	1073.86
1036.267	1048.09
1036.554	1032.05
1036.842	1035.66
1037.129	1043.12
1037.417	1016
1037.704	1018.72
1037.992	1033.63
1038.279	997.47
1038.566	1001.77
1038.853	1001.77
1039.14	1001.77
