Data from hue_70_FLMS001491_3.txt Node
Date: Mon Feb 06 15:19:59 GMT 2017
User: dcchb
Spectrometer: FLMS00149
Trigger mode: 0
Integration Time (sec): 2.000000E-2
Scans to average: 10
Electric dark correction enabled: true
Nonlinearity correction enabled: false
Boxcar width: 0
XAxis mode: Wavelengths
Number of Pixels in Spectrum: 2048
>>>>>Begin Spectral Data<<<<<
341.393	-2.2
341.776	-2.2
342.16	-2.2
342.543	-68.64
342.927	-71.58
343.31	-77.91
343.693	-74.07
344.077	-72.03
344.46	-51.69
344.843	-53.73
345.226	-27.51
345.61	-23.9
345.993	-30.45
346.376	8.64
346.759	31.69
347.142	34.41
347.525	45.48
347.908	35.99
348.291	73.5
348.674	82.54
349.057	99.04
349.44	140.62
349.823	133.84
350.206	155.08
350.588	183.55
350.971	194.63
351.354	214.29
351.737	234.63
352.119	261.52
352.502	255.19
352.884	261.07
353.267	283.66
353.65	303.33
354.032	296.55
354.414	311.46
354.797	285.47
355.179	308.07
355.562	325.47
355.944	319.6
356.326	325.47
356.709	322.31
357.091	327.96
357.473	312.36
357.855	343.55
358.238	351.23
358.62	346.04
359.002	319.82
359.384	345.81
359.766	340.16
360.148	338.35
360.53	330.67
360.912	332.25
361.294	332.25
361.676	351.01
362.057	323.66
362.439	339.48
362.821	339.93
363.203	339.93
363.584	338.58
363.966	296.32
364.348	304.68
364.729	313.27
365.111	313.49
365.493	312.36
365.874	318.01
366.256	317.11
366.637	296.55
367.019	320.05
367.4	314.17
367.781	300.84
368.163	318.92
368.544	311.69
368.925	320.5
369.306	314.62
369.688	310.56
370.069	321.18
370.45	296.77
370.831	293.16
371.212	309.2
371.593	281.41
371.974	319.82
372.355	325.92
372.736	309.88
373.117	316.66
373.498	309.43
373.879	325.7
374.26	316.88
374.641	325.25
375.021	314.4
375.402	308.3
375.783	312.82
376.163	323.21
376.544	304.23
376.925	315.53
377.305	322.31
377.686	354.4
378.066	325.02
378.447	308.75
378.827	329.99
379.208	335.87
379.588	334.06
379.968	331.57
380.349	330.22
380.729	350.56
381.109	343.32
381.489	331.57
381.87	330.9
382.25	344.23
382.63	342.65
383.01	331.12
383.39	348.3
383.77	326.15
384.15	335.41
384.53	356.21
384.91	332.48
385.29	355.53
385.67	364.11
386.049	342.87
386.429	330.67
386.809	353.27
387.189	334.74
387.568	336.54
387.948	355.98
388.328	345.36
388.707	345.36
389.087	362.98
389.466	342.87
389.846	360.05
390.225	354.85
390.605	340.16
390.984	364.79
391.363	357.56
391.743	344.68
392.122	358.92
392.501	361.63
392.881	382.42
393.26	355.08
393.639	368.41
394.018	372.48
394.397	352.82
394.776	369.54
395.155	364.57
395.534	357.79
395.913	401.18
396.292	393.04
396.671	386.04
397.05	379.71
397.429	390.1
397.808	372.02
398.186	375.64
398.565	389.42
398.944	366.83
399.323	406.83
399.701	378.13
400.08	384.91
400.458	388.07
400.837	393.49
401.215	415.86
401.594	381.06
401.972	388.52
402.351	385.36
402.729	400.27
403.107	401.85
403.486	391.46
403.864	394.85
404.242	402.53
404.62	410.22
404.999	416.32
405.377	401.85
405.755	428.52
406.133	409.76
406.511	422.42
406.889	401.85
407.267	420.38
407.645	404.79
408.023	437.79
408.401	436.43
408.779	414.51
409.156	440.95
409.534	441.63
409.912	437.11
410.29	421.51
410.667	434.4
411.045	439.82
411.422	471.46
411.8	462.87
412.178	465.35
412.555	452.93
412.933	452.02
413.31	472.81
413.687	471
414.065	477.78
414.442	465.13
414.819	469.2
415.197	465.35
415.574	453.83
415.951	477.56
416.328	487.28
416.705	504.45
417.082	502.64
417.46	485.24
417.837	482.3
418.214	486.15
418.591	487.5
418.967	500.16
419.344	487.5
419.721	511.23
420.098	497.44
420.475	513.94
420.852	518.69
421.228	513.72
421.605	521.17
421.982	525.47
422.358	505.13
422.735	505.58
423.111	520.49
423.488	539.7
423.864	525.92
424.241	535.18
424.617	539.25
424.994	556.65
425.37	527.95
425.746	546.48
426.123	556.2
426.499	585.35
426.875	559.82
427.251	553.71
427.627	556.2
428.003	587.61
428.379	581.06
428.756	556.43
429.132	585.35
429.507	591.45
429.883	571.11
430.259	612.24
430.635	600.49
431.011	613.37
431.387	612.24
431.763	629.19
432.138	590.1
432.514	630.55
432.89	618.57
433.265	626.71
433.641	644.33
434.016	644.33
434.392	653.37
434.767	649.76
435.143	647.72
435.518	673.49
435.894	654.5
436.269	675.29
436.644	688.4
437.02	664.45
437.395	685.01
437.77	697.21
438.145	711.45
438.52	705.12
438.895	709.42
439.271	692.92
439.646	723.43
440.021	722.75
440.395	735.86
440.77	725.46
441.145	717.78
441.52	729.3
441.895	757.55
442.27	752.35
442.645	761.84
443.019	748.74
443.394	734.95
443.769	778.34
444.143	766.14
444.518	771.79
444.892	772.69
445.267	769.53
445.641	758.91
446.016	796.87
446.39	788.06
446.764	780.15
447.139	790.77
447.513	777.21
447.887	814.5
448.262	814.5
448.636	809.75
449.01	832.58
449.384	815.63
449.758	813.14
450.132	838.23
450.506	835.74
450.88	831.45
451.254	853.37
451.628	875.51
452.002	870.54
452.376	880.94
452.75	880.94
453.123	875.97
453.497	893.14
453.871	899.47
454.244	908.51
454.618	913.25
454.992	934.04
455.365	931.56
455.739	924.1
456.112	972.91
456.486	968.17
456.859	981.05
457.232	987.83
457.606	983.53
457.979	1001.61
458.352	995.28
458.725	1056.3
459.099	1036.87
459.472	1040.03
459.845	1030.31
460.218	1078.9
460.591	1069.18
460.964	1067.83
461.337	1108.5
461.71	1114.38
462.083	1113.02
462.456	1145.11
462.829	1153.47
463.201	1183.3
463.574	1142.4
463.947	1192.57
464.32	1237.31
464.692	1244.54
465.065	1258.55
465.438	1254.94
465.81	1282.06
466.183	1306.69
466.555	1302.62
466.928	1339
467.3	1323.19
467.672	1326.8
468.045	1390.75
468.417	1420.81
468.789	1436.4
469.161	1469.62
469.534	1461.26
469.906	1476.85
470.278	1503.07
470.65	1526.57
471.022	1559.79
471.394	1590.52
471.766	1640.47
472.138	1619.9
472.51	1652.44
472.882	1746.68
473.253	1762.04
473.625	1803.17
473.997	1821.7
474.369	1880.23
474.74	1878.43
475.112	1952.77
475.484	1997.74
475.855	2033.9
476.227	2076.84
476.598	2139.89
476.97	2172.65
477.341	2223.73
477.713	2297.4
478.084	2346.21
478.455	2408.35
478.827	2484.51
479.198	2578.97
479.569	2580.33
479.94	2695.35
480.311	2731.51
480.682	2784.84
481.053	2901.9
481.424	2997.49
481.795	3052.18
482.166	3130.14
482.537	3218.95
482.908	3302.12
483.279	3415.79
483.65	3505.28
484.021	3624.14
484.391	3694.42
484.762	3835.44
485.133	3860.07
485.503	3982.55
485.874	4131.02
486.244	4185.94
486.615	4340.28
486.985	4447.17
487.356	4589.54
487.726	4695.98
488.097	4804
488.467	4870.44
488.837	5065.23
489.207	5159.02
489.578	5346.81
489.948	5409.63
490.318	5542.74
490.688	5667.48
491.058	5827.93
491.428	5948.6
491.798	6055.04
492.168	6216.39
492.538	6344.75
492.908	6464.97
493.278	6664.97
493.648	6784.96
494.017	6913.1
494.387	7056.82
494.757	7226.99
495.126	7353.99
495.496	7398.96
495.866	7556.24
496.235	7722.79
496.605	7919.85
496.974	8006.4
497.344	8101.54
497.713	8269.44
498.082	8426.73
498.452	8625.14
498.821	8678.25
499.19	8807.96
499.559	8910.78
499.928	9037.56
500.298	9186.71
500.667	9353.93
501.036	9420.6
501.405	9581.27
501.774	9672.8
502.143	9834.37
502.512	9917.31
502.88	10133.8
503.249	10184.65
503.618	10312.33
503.987	10352.33
504.356	10531.98
504.724	10609.5
505.093	10809.04
505.462	10818.53
505.83	11010.84
506.199	11132.19
506.567	11275.69
506.936	11334
507.304	11528.34
507.672	11616.25
508.041	11740.54
508.409	11857.6
508.777	11990.7
509.145	12091.04
509.514	12165.84
509.882	12212.62
510.25	12388.43
510.618	12501.42
510.986	12561.76
511.354	12731.7
511.722	12914.75
512.09	13000.39
512.458	13032.03
512.826	13155.42
513.193	13190.22
513.561	13277.67
513.929	13423.21
514.297	13545.69
514.664	13564.9
515.032	13710.66
515.4	13965.34
515.767	13920.14
516.135	14026.81
516.502	14051.21
516.869	14321.49
517.237	14362.62
517.604	14383.18
517.972	14527.36
518.339	14611.42
518.706	14634.7
519.073	14747.69
519.44	14855.26
519.808	14922.6
520.175	15008.93
520.542	15135.93
520.909	15253.89
521.276	15320.56
521.643	15471.74
522.009	15520.55
522.376	15643.94
522.743	15757.38
523.11	15885.51
523.477	16008.22
523.843	16115.56
524.21	16243.25
524.577	16272.85
524.943	16338.84
525.31	16336.58
525.676	16626.96
526.043	16695.21
526.409	16734.98
526.776	16990.34
527.142	16941.08
527.508	17037.8
527.874	17276.21
528.241	17177.23
528.607	17307.4
528.973	17334.97
529.339	17377.68
529.705	17563.66
530.071	17658.58
530.437	17675.98
530.803	17823.54
531.169	17831.45
531.535	17887.27
531.901	17901.96
532.267	17994.16
532.632	18130.65
532.998	18053.59
533.364	18216.07
533.73	18159.13
534.095	18292
534.461	18343.53
534.826	18436.41
535.192	18447.26
535.557	18533.13
535.923	18526.12
536.288	18532.9
536.653	18672.11
537.019	18590.08
537.384	18603.86
537.749	18730.64
538.114	18730.64
538.479	18656.52
538.845	18802.5
539.21	18733.58
539.575	18849.28
539.94	18807.7
540.305	19028.93
540.67	18916.62
541.034	18933.34
541.399	18958.88
541.764	19044.75
542.129	18992.55
542.494	19081.81
542.858	19120.46
543.223	19196.39
543.587	19172.43
543.952	19208.14
544.316	19139.44
544.681	19255.6
545.045	19233.9
545.41	19362.49
545.774	19321.13
546.138	19386.44
546.503	19270.06
546.867	19351.19
547.231	19463.05
547.595	19431.86
547.959	19523.16
548.324	19431.86
548.688	19499.88
549.052	19583.95
549.416	19541.46
549.779	19473.44
550.143	19633.66
550.507	19737.62
550.871	19717.5
551.235	19661.69
551.599	19714.34
551.962	19726.77
552.326	19785.98
552.689	19892.19
553.053	19738.52
553.417	19787.11
553.78	19982.13
554.143	19899.65
554.507	19917.72
554.87	19954.33
555.234	20071.85
555.597	20058.06
555.96	20102.13
556.323	20158.85
556.686	20155.46
557.05	20345.74
557.413	20267.55
557.776	20255.8
558.139	20397.94
558.502	20356.81
558.865	20425.96
559.228	20610.81
559.59	20583.92
559.953	20541.89
560.316	20789.79
560.679	20757.48
561.041	20844.93
561.404	20880.86
561.767	21054.64
562.129	20905.27
562.492	21081.76
562.854	21045.83
563.217	21126.96
563.579	21107.75
563.941	21308.2
564.304	21368.08
564.666	21454.86
565.028	21403.56
565.39	21387.97
565.753	21674.29
566.115	21689.88
566.477	21587.74
566.839	21702.08
567.201	21848.75
567.563	21815.08
567.925	21923.55
568.287	21929.65
568.648	21950.89
569.01	22224.56
569.372	22191.11
569.734	22119.25
570.095	22189.3
570.457	22292.8
570.819	22327.15
571.18	22342.07
571.542	22406.7
571.903	22592.46
572.265	22502.97
572.626	22626.58
572.987	22660.03
573.349	22667.26
573.71	22839.23
574.071	22759.23
574.432	22842.62
574.794	22978.44
575.155	22865.44
575.516	22896.86
575.877	23055.04
576.238	22960.13
576.599	23029.96
576.96	23054.59
577.32	23019.11
577.681	23264.08
578.042	23215.49
578.403	23114.7
578.763	23235.83
579.124	23154.48
579.485	23304.53
579.845	23465.43
580.206	23273.79
580.566	23342.27
580.927	23391.08
581.287	23587.23
581.648	23447.12
582.008	23402.38
582.368	23401.7
582.728	23432.43
583.089	23427.01
583.449	23503.39
583.809	23547.91
584.169	23585.88
584.529	23420.91
584.889	23602.83
585.249	23351.76
585.609	23345.21
585.969	23499.78
586.329	23358.99
586.688	23492.32
587.048	23367.8
587.408	23429.27
587.768	23504.3
588.127	23476.28
588.487	23407.8
588.846	23449.84
589.206	23369.84
589.565	23410.74
589.925	23529.61
590.284	23387.92
590.643	23551.98
591.003	23415.49
591.362	23574.8
591.721	23520.34
592.08	23563.28
592.44	23559.21
592.799	23634.24
593.158	23555.37
593.517	23645.08
593.876	23525.99
594.235	23568.93
594.593	23529.38
594.952	23595.59
595.311	23572.77
595.67	23677.63
596.029	23660.23
596.387	23561.02
596.746	23760.79
597.104	23644.63
597.463	23587.68
597.822	23712.43
598.18	23602.37
598.538	23537.52
598.897	23652.32
599.255	23448.48
599.613	23748.81
599.972	23619.55
600.33	23754.46
600.688	23601.47
601.046	23693.44
601.404	23758.3
601.762	23758.98
602.12	23857.28
602.478	23884.85
602.836	23837.85
603.194	23711.52
603.552	23754.69
603.91	23757.4
604.268	23834.68
604.625	23820.67
604.983	23899.54
605.341	23808.47
605.698	23826.1
606.056	23876.04
606.413	23988.8
606.771	24017.73
607.128	23978.64
607.485	23932.53
607.843	23978.64
608.2	24071.51
608.557	24157.84
608.914	24140.89
609.272	24203.26
609.629	24211.4
609.986	24317.61
610.343	24264.5
610.7	24377.27
611.057	24406.19
611.414	24425.85
611.771	24449.81
612.127	24453.65
612.484	24446.19
612.841	24572.52
613.198	24390.6
613.554	24487.32
613.911	24721.44
614.267	24617.49
614.624	24649.58
614.98	24694.77
615.337	24776.35
615.693	24746.07
616.05	24780.42
616.406	24836.01
616.762	24716.92
617.118	24843.25
617.475	24782.23
617.831	24870.14
618.187	24859.06
618.543	25026.07
618.899	25084.37
619.255	25095.22
619.611	25021.32
619.967	25119.62
620.323	25276.91
620.678	25054.76
621.034	25029.45
621.39	24982.68
621.746	25124.82
622.101	25337.02
622.457	25130.02
622.812	25121.88
623.168	25161.43
623.523	25175.44
623.879	25283.91
624.234	25106.51
624.589	25151.94
624.945	25269.67
625.3	25278.71
625.655	25340.18
626.01	25376.79
626.365	25372.95
626.72	25254.76
627.075	25249.56
627.43	25258.15
627.785	25313.06
628.14	25312.61
628.495	25326.17
628.85	25353.97
629.205	25272.39
629.559	25298.15
629.914	25407.3
630.269	25307.64
630.623	25268.09
630.978	25225.61
631.332	25361.65
631.687	25353.97
632.041	25221.54
632.396	25266.96
632.75	25143.35
633.104	25162.11
633.459	25076.01
633.813	25062.22
634.167	25099.51
634.521	25007.99
634.875	25126.63
635.229	25079.85
635.583	24941.55
635.937	24988.78
636.291	24869.46
636.645	24987.42
636.999	24776.58
637.352	24937.48
637.706	24852.96
638.06	24895.45
638.413	24882.57
638.767	24860.19
639.121	24829.23
639.474	24612.52
639.828	24656.36
640.181	24677.83
640.534	24764.83
640.888	24790.37
641.241	24507.43
641.594	24711.27
641.947	24749.24
642.301	24628.56
642.654	24533.2
643.007	24641.67
643.36	24585.4
643.713	24524.38
644.066	24540.43
644.419	24417.04
644.771	24411.62
645.124	24089.82
645.477	24064.96
645.83	24053.89
646.182	23906.77
646.535	23813.89
646.888	23920.78
647.24	23776.15
647.593	23842.82
647.945	23789.94
648.298	23672.88
648.65	23630.62
649.002	23637.63
649.355	23738.64
649.707	23549.04
650.059	23643.95
650.411	23991.97
650.763	24010.5
651.115	24189.7
651.467	24210.04
651.819	24127.56
652.171	24125.98
652.523	24104.28
652.875	24145.64
653.227	24038.52
653.578	24154.9
653.93	24148.35
654.282	23937.51
654.633	24053.66
654.985	24161
655.337	24080.1
655.688	24042.36
656.039	24165.75
656.391	23952.87
656.742	24103.6
657.094	24008.92
657.445	24108.8
657.796	24175.92
658.147	23995.81
658.498	23947.22
658.849	23982.25
659.2	24047.33
659.551	24119.87
659.902	24135.69
660.253	24043.04
660.604	24127.56
660.955	23967.79
661.306	24071.51
661.656	24038.97
662.007	24050.5
662.358	24108.12
662.708	24088.69
663.059	24017.05
663.409	23927.79
663.76	24135.92
664.11	24129.14
664.461	24064.96
664.811	24122.59
665.161	24155.58
665.511	23893.89
665.862	23991.06
666.212	24056.37
666.562	24135.47
666.912	23989.26
667.262	24061.12
667.612	23993.1
667.962	24025.64
668.312	23991.97
668.662	24049.14
669.011	23921.91
669.361	24057.5
669.711	23965.3
670.06	23996.94
670.41	23969.37
670.76	23887.56
671.109	24116.26
671.459	23923.5
671.808	23848.69
672.157	23985.87
672.507	23945.64
672.856	23825.87
673.205	23820.9
673.554	23948.58
673.904	23795.59
674.253	23836.72
674.602	23822.93
674.951	23547.91
675.3	23369.61
675.649	23716.04
675.998	23680.11
676.346	23720.34
676.695	23890.05
677.044	23593.33
677.393	23709.72
677.741	23720.34
678.09	23597.85
678.438	23582.49
678.787	23579.78
679.135	23575.93
679.484	23457.74
679.832	23564.63
680.181	23332.1
680.529	23418.65
680.877	23264.3
681.225	23411.42
681.573	23485.31
681.922	23312.66
682.27	23260.69
682.618	23177.07
682.966	23128.49
683.314	23227.47
683.661	23077.42
684.009	23076.74
684.357	22964.2
684.705	22967.81
685.053	22939.57
685.4	22925.1
685.748	22797.42
686.095	22935.05
686.443	22732.79
686.79	22737.99
687.138	22721.04
687.485	22754.26
687.832	22613.25
688.18	22614.15
688.527	22593.81
688.874	22515.17
689.221	22483.53
689.568	22286.25
689.915	22363.76
690.262	22362.63
690.609	22232.69
690.956	22137.78
691.303	22089.87
691.65	22092.58
691.997	21998.57
692.344	21878.35
692.69	21899.14
693.037	21803.33
693.383	21611.01
693.73	21772.37
694.077	21633.84
694.423	21549.77
694.769	21466.16
695.116	21500.51
695.462	21407.63
695.808	21282.21
696.155	21496.21
696.501	21197.92
696.847	21197.01
697.193	21099.61
697.539	21105.26
697.885	20951.37
698.231	20940.97
698.577	20781.66
698.923	20856.01
699.269	20664.6
699.614	20662.34
699.96	20531.72
700.306	20628.44
700.651	20538.95
700.997	20403.14
701.342	20365.17
701.688	20400.65
702.033	20271.16
702.379	20207.43
702.724	20179.64
703.069	20154.55
703.415	19855.58
703.76	19992.3
704.105	19907.1
704.45	19858.97
704.795	19725.64
705.14	19705.98
705.485	19693.1
705.83	19595.7
706.175	19574.46
706.52	19557.28
706.865	19528.13
707.209	19424.86
707.554	19375.82
707.899	19443.84
708.243	19245.88
708.588	19143.06
708.932	19060.35
709.277	19022.61
709.621	19075.49
709.966	18877.07
710.31	19006.34
710.654	18837.75
710.998	18813.57
711.342	18828.04
711.687	18666.23
712.031	18610.64
712.375	18706.23
712.719	18627.14
713.063	18524.54
713.407	18573.58
713.75	18570.19
714.094	18523.41
714.438	18415.84
714.782	18391.21
715.125	18414.49
715.469	18378.78
715.812	18337.43
716.156	18234.38
716.499	18237.77
716.843	18332
717.186	18176.75
717.53	18150.99
717.873	18144.44
718.216	18207.26
718.559	18102.18
718.902	18004.1
719.246	18059.24
719.589	17938.34
719.932	17873.48
720.275	17878.46
720.617	17901.51
720.96	17885.24
721.303	17818.12
721.646	17810.21
721.989	17687.05
722.331	17813.6
722.674	17764.34
723.016	17713.26
723.359	17722.75
723.701	17758.69
724.044	17527.96
724.386	17395.53
724.729	17638.01
725.071	17552.82
725.413	17575.87
725.755	17599.59
726.097	17334.97
726.439	17460.39
726.782	17283.22
727.124	17431.01
727.465	17362.54
727.807	17340.39
728.149	17292.26
728.491	17278.47
728.833	17238.02
729.175	17254.52
729.516	17176.55
729.858	17222.43
730.199	17208.19
730.541	17182.66
730.882	17162.77
731.224	17214.52
731.565	17072.83
731.906	17182.66
732.248	17123.45
732.589	17040.29
732.93	17050.23
733.271	16973.4
733.612	17037.57
733.953	17069.89
734.294	17010
734.635	16965.49
734.976	17054.07
735.317	16912.61
735.658	16956.22
735.999	16867.64
736.339	16924.81
736.68	16969.55
737.021	17043.22
737.361	16935.2
737.702	16927.07
738.042	16952.83
738.383	16927.75
738.723	16951.25
739.063	16834.19
739.404	16893.85
739.744	16874.19
740.084	16762.33
740.424	16880.74
740.764	16909.67
741.104	16954.86
741.444	16764.81
741.784	16821.08
742.124	16842.55
742.464	16870.35
742.804	16888.2
743.143	16814.53
743.483	16928.42
743.823	16812.04
744.162	16771.14
744.502	16960.06
744.841	16889.33
745.181	16939.5
745.52	16888.88
745.86	16980.4
746.199	16925.26
746.538	16984.47
746.877	17023.56
747.216	17026.95
747.556	17068.31
747.895	17149.66
748.234	17067.18
748.573	17151.92
748.911	17110.57
749.25	17264.91
749.589	17255.2
749.928	17235.31
750.267	17401.63
750.605	17287.51
750.944	17321.18
751.283	17299.49
751.621	17434.85
751.96	17486.83
752.298	17582.19
752.636	17580.16
752.975	17548.97
753.313	17634.4
753.651	17774.96
753.989	17654.73
754.327	17789.42
754.666	17840.27
755.004	17859.47
755.342	17960.94
755.679	18005.68
756.017	17968.17
756.355	18120.26
756.693	18089.98
757.031	18326.81
757.368	18326.13
757.706	18264.89
758.044	18353.02
758.381	18477.54
758.719	18558.89
759.056	18647.48
759.394	18585.33
759.731	18589.4
760.068	18692.9
760.405	18774.25
760.743	18801.82
761.08	18924.08
761.417	18959.78
761.754	19051.53
762.091	19035.04
762.428	19051.98
762.765	19084.3
763.102	19079.55
763.438	19089.72
763.775	19048.14
764.112	19296.72
764.449	19325.2
764.785	19253.79
765.122	19334.01
765.458	19290.62
765.795	19337.18
766.131	19326.55
766.467	19370.85
766.804	19254.69
767.14	19408.81
767.476	19375.37
767.812	19362.94
768.148	19481.8
768.485	19369.04
768.821	19369.94
769.157	19353.22
769.492	19415.59
769.828	19324.97
770.164	19251.53
770.5	19247.01
770.836	19361.36
771.171	19189.83
771.507	19208.59
771.842	19111.19
772.178	19257.63
772.513	19261.02
772.849	19148.03
773.184	19169.72
773.519	19221.7
773.855	19144.86
774.19	19062.15
774.525	19136.05
774.86	19079.55
775.195	19112.32
775.53	18955.94
775.865	19016.28
776.2	18872.33
776.535	18722.28
776.87	18884.31
777.205	18743.52
777.539	18721.15
777.874	18844.08
778.209	18595.27
778.543	18649.96
778.878	18641.6
779.212	18516.18
779.547	18495.62
779.881	18514.15
780.215	18442.06
780.55	18426.69
780.884	18285.45
781.218	18234.38
781.552	18336.98
781.886	18270.31
782.22	18102.18
782.554	18078.9
782.888	17946.7
783.222	17991.22
783.556	17818.57
783.889	17807.72
784.223	17668.07
784.557	17701.96
784.89	17802.98
785.224	17627.84
785.557	17552.82
785.891	17496.55
786.224	17497.22
786.558	17509.88
786.891	17321.63
787.224	17265.37
787.557	17279.83
787.891	17232.15
788.224	17213.39
788.557	17134.07
788.89	17139.04
789.223	17061.75
789.556	17026.05
789.888	16908.31
790.221	16866.28
790.554	16747.64
790.887	16812.04
791.219	16654.53
791.552	16644.36
791.884	16534.99
792.217	16475.56
792.549	16480.3
792.882	16329.34
793.214	16236.24
793.546	16332.51
793.879	16222.68
794.211	16155.79
794.543	16240.31
794.875	16195.11
795.207	16183.36
795.539	16085.28
795.871	16015
796.203	16018.84
796.535	15867.21
796.867	15803.71
797.198	15801.22
797.53	15814.78
797.862	15659.08
798.193	15769.36
798.525	15607.33
798.856	15672.41
799.188	15421.8
799.519	15471.97
799.85	15344.96
800.182	15289.37
800.513	15292.76
800.844	15185.42
801.175	15309.26
801.506	15264.51
801.837	15143.39
802.168	15186.32
802.499	15029.49
802.83	14998.31
803.161	14981.81
803.491	14915.14
803.822	14963.73
804.153	14890.06
804.483	14767.13
804.814	14790.85
805.145	14763.74
805.475	14734.13
805.805	14709.95
806.136	14658.2
806.466	14545.44
806.796	14598.54
807.126	14398.32
807.457	14509.73
807.787	14431.77
808.117	14396.29
808.447	14343.41
808.777	14373.46
809.107	14216.86
809.436	14203.3
809.766	14215.95
810.096	14196.52
810.426	14165.56
810.755	14161.72
811.085	14139.8
811.414	14079.91
811.744	14011.89
812.073	13944.55
812.403	13893.02
812.732	13853.03
813.061	13879.24
813.39	13746.14
813.719	13787.72
814.049	13836.08
814.378	13783.87
814.707	13680.37
815.036	13702.97
815.365	13523.32
815.693	13481.06
816.022	13496.42
816.351	13485.58
816.68	13351.34
817.008	13451
817.337	13342.76
817.665	13274.28
817.994	13254.17
818.322	13326.71
818.651	13188.41
818.979	13107.96
819.307	13158.35
819.636	13162.65
819.964	13121.97
820.292	13127.39
820.62	13146.6
820.948	13091.24
821.276	13076.77
821.604	13083.1
821.932	13069.54
822.259	13087.17
822.587	12972.37
822.915	13028.64
823.243	13064.35
823.57	12999.94
823.898	13092.82
824.225	12972.37
824.553	12950.45
824.88	12957.46
825.207	13055.08
825.535	13011.24
825.862	13079.71
826.189	13018.92
826.516	13115.19
826.843	13066.15
827.17	13073.84
827.497	13103.44
827.824	13049.2
828.151	13117.23
828.478	12992.48
828.805	13044.23
829.131	13048.98
829.458	12991.58
829.785	12909.32
830.111	13010.79
830.438	12970.11
830.764	12997
831.09	13004.69
831.417	12934.86
831.743	12966.04
832.069	13006.72
832.395	12905.71
832.722	12955.65
833.048	12930.34
833.374	12867.29
833.7	12810.34
834.026	12838.81
834.351	12898.25
834.677	12827.97
835.003	12877.01
835.329	12832.94
835.654	12786.16
835.98	12782.32
836.306	12734.86
836.631	12789.1
836.956	12754.98
837.282	12767.63
837.607	12677.24
837.932	12675.66
838.258	12712.49
838.583	12675.66
838.908	12604.02
839.233	12575.09
839.558	12544.36
839.883	12581.65
840.208	12502.1
840.533	12518.37
840.858	12610.35
841.182	12519.05
841.507	12502.33
841.832	12406.74
842.156	12396.11
842.481	12354.99
842.805	12369.45
843.13	12337.36
843.454	12275.67
843.778	12245.61
844.103	12197.25
844.427	12131.71
844.751	12137.14
845.075	12096.01
845.399	12107.08
845.723	12000.64
846.047	12115.44
846.371	11939.4
846.695	11948.67
847.019	11782.8
847.343	11805.85
847.666	11709.13
847.99	11755.23
848.313	11680.2
848.637	11552.3
848.96	11628.68
849.284	11574.22
849.607	11464.84
849.931	11453.77
850.254	11359.08
850.577	11283.38
850.9	11214.9
851.223	11234.79
851.546	11190.72
851.869	11100.56
852.192	11195.47
852.515	11016.72
852.838	10995.25
853.161	10915.25
853.483	10901.69
853.806	10931.52
854.129	10936.94
854.451	10849.94
854.774	10858.75
855.096	10790.06
855.419	10748.02
855.741	10671.64
856.063	10605.65
856.385	10599.1
856.708	10623.96
857.03	10525.66
857.352	10609.27
857.674	10510.97
857.996	10494.7
858.318	10424.87
858.64	10442.04
858.961	10398.2
859.283	10397.3
859.605	10372.89
859.926	10350.29
860.248	10281.59
860.57	10208.6
860.891	10280.24
861.212	10223.74
861.534	10240.69
861.855	10129.73
862.176	10125.67
862.498	10228.94
862.819	10118.89
863.14	10069.17
863.461	10012.45
863.782	9980.36
864.103	10038.89
864.424	9974.94
864.745	10009.51
865.065	10024.2
865.386	9915.5
865.707	9918.89
866.027	9894.94
866.348	9835.96
866.668	9897.42
866.989	9809.74
867.309	9784.43
867.63	9765.22
867.95	9784.88
868.27	9705.79
868.59	9803.41
868.91	9754.15
869.23	9736.98
869.55	9665.57
869.87	9736.98
870.19	9744.21
870.51	9681.84
870.83	9717.77
871.15	9604.55
871.469	9570.2
871.789	9631.89
872.109	9640.93
872.428	9546.02
872.748	9591.67
873.067	9551.67
873.386	9545.79
873.706	9546.92
874.025	9470.54
874.344	9525.46
874.663	9578.56
874.982	9392.58
875.301	9428.28
875.62	9404.55
875.939	9378.57
876.258	9404.33
876.577	9368.17
876.896	9341.96
877.214	9326.14
877.533	9405.68
877.852	9339.02
878.17	9299.47
878.489	9233.49
878.807	9250.66
879.125	9229.19
879.444	9208.85
879.762	9195.07
880.08	9218.8
880.398	9134.28
880.716	9190.55
881.034	9133.38
881.352	9191
881.67	9147.16
881.988	9092.25
882.306	9109.65
882.624	9035.53
882.941	8991.23
883.259	8991.23
883.577	8916.88
883.894	8947.84
884.212	8908.52
884.529	8882.31
884.846	8885.25
885.164	8862.42
885.481	8853.38
885.798	8843.21
886.115	8809.32
886.432	8722.99
886.75	8753.5
887.067	8823.1
887.383	8719.15
887.7	8698.36
888.017	8682.09
888.334	8671.92
888.651	8701.97
888.967	8573.62
889.284	8594.41
889.6	8584.01
889.917	8523.22
890.233	8521.64
890.55	8520.06
890.866	8466.95
891.182	8486.39
891.498	8450.91
891.815	8434.64
892.131	8347.63
892.447	8431.25
892.763	8385.6
893.079	8321.65
893.395	8272.83
893.71	8275.09
894.026	8325.71
894.342	8234.42
894.657	8151.48
894.973	8180.86
895.289	8107.87
895.604	8163.23
895.92	8051.6
896.235	8085.72
896.55	8021.31
896.865	8034.2
897.181	8032.61
897.496	7974.08
897.811	7951.94
898.126	7942.67
898.441	7846.4
898.756	7858.38
899.071	7807.99
899.386	7856.12
899.7	7776.12
900.015	7720.08
900.33	7669.01
900.644	7702
900.959	7645.28
901.273	7671.04
901.588	7640.99
901.902	7584.94
902.216	7539.07
902.531	7483.93
902.845	7485.28
903.159	7429.24
903.473	7446.41
903.787	7418.17
904.101	7364.38
904.415	7370.71
904.729	7309.02
905.042	7271.05
905.356	7276.7
905.67	7194.22
905.984	7267.89
906.297	7215.23
906.611	7122.36
906.924	7117.16
907.237	7067.22
907.551	7065.86
907.864	6982.02
908.177	7065.18
908.491	7060.44
908.804	6978.86
909.117	6932.53
909.43	6894.79
909.743	6893.89
910.056	6863.83
910.368	6803.72
910.681	6784.51
910.994	6790.84
911.307	6751.97
911.619	6665.64
911.932	6767.79
912.244	6661.35
912.557	6655.02
912.869	6636.49
913.181	6674.01
913.494	6572.77
913.806	6507
914.118	6536.83
914.43	6491.41
914.742	6530.73
915.054	6433.79
915.366	6393.33
915.678	6387.01
915.99	6333.9
916.302	6285.99
916.613	6226.56
916.925	6293.45
917.236	6294.13
917.548	6178.2
917.859	6220.46
918.171	6160.35
918.482	6167.35
918.794	6140.69
919.105	6136.84
919.416	6011.2
919.727	6040.12
920.038	6031.76
920.349	5998.77
920.66	5972.78
920.971	6010.75
921.282	5930.52
921.593	5889.17
921.903	5878.09
922.214	5858.66
922.525	5852.33
922.835	5775.95
923.146	5776.18
923.456	5770.53
923.767	5737.76
924.077	5729.85
924.387	5714.48
924.697	5671.77
925.008	5627.25
925.318	5594.71
925.628	5607.59
925.938	5563.07
926.248	5573.24
926.558	5532.11
926.867	5512.68
927.177	5498.67
927.487	5445.11
927.796	5409.18
928.106	5385.9
928.416	5380.93
928.725	5343.64
929.034	5306.81
929.344	5317.88
929.653	5362.4
929.962	5232.01
930.271	5276.98
930.581	5201.73
930.89	5217.09
931.199	5157.66
931.508	5164.89
931.817	5167.15
932.125	5116.98
932.434	5122.86
932.743	5018
933.051	5025.01
933.36	5025.69
933.669	4984.33
933.977	4963.32
934.286	4983.43
934.594	4914.05
934.902	4887.61
935.21	4893.71
935.519	4854.84
935.827	4901.4
936.135	4874.96
936.443	4807.61
936.751	4820.72
937.059	4748.86
937.367	4752.02
937.674	4743.66
937.982	4719.71
938.29	4681.97
938.597	4754.73
938.905	4592.25
939.213	4571.46
939.52	4583.21
939.827	4615.08
940.135	4553.84
940.442	4563.1
940.749	4540.95
941.056	4571.69
941.363	4451.46
941.67	4510.22
941.977	4446.04
942.284	4433.61
942.591	4462.31
942.898	4419.83
943.205	4383.67
943.511	4370.11
943.818	4350
944.125	4305.71
944.431	4325.37
944.738	4340.28
945.044	4274.52
945.35	4254.41
945.657	4239.27
945.963	4227.29
946.269	4234.52
946.575	4193.84
946.881	4143
947.187	4194.3
947.493	4121.76
947.799	4107.07
948.105	4153.39
948.41	4078.82
948.716	4055.32
949.022	4041.98
949.327	3995.66
949.633	4011.48
949.938	3995.88
950.244	3967.18
950.549	3925.83
950.854	3982.78
951.16	3939.61
951.465	3902.33
951.77	3902.55
952.075	3858.71
952.38	3872.95
952.685	3891.48
952.99	3822.55
953.294	3799.28
953.599	3820.07
953.904	3772.84
954.209	3763.12
954.513	3780.75
954.818	3691.71
955.122	3738.94
955.426	3703.46
955.731	3674.08
956.035	3664.37
956.339	3649.9
956.643	3667.98
956.948	3625.95
957.252	3623.01
957.556	3554.54
957.86	3586.63
958.163	3603.35
958.467	3568.78
958.771	3575.33
959.075	3561.32
959.378	3514.99
959.682	3507.53
959.985	3472.73
960.289	3424.83
960.592	3442.45
960.896	3423.02
961.199	3425.73
961.502	3383.47
961.805	3375.33
962.108	3348.44
962.411	3341.66
962.714	3335.79
963.017	3312.96
963.32	3301.21
963.623	3302.79
963.926	3283.59
964.228	3300.53
964.531	3268.9
964.833	3298.05
965.136	3237.03
965.438	3219.63
965.741	3204.72
966.043	3179.41
966.345	3148.67
966.648	3146.41
966.95	3156.58
967.252	3162.23
967.554	3128.34
967.856	3122.46
968.158	3078.85
968.46	3083.37
968.761	3064.61
969.063	3005.63
969.365	3043.59
969.666	3039.07
969.968	3013.31
970.269	2959.75
970.571	2985.51
970.872	2957.27
971.174	2947.1
971.475	2965.18
971.776	2943.26
972.077	2919.08
972.378	2922.01
972.679	2906.19
972.98	2889.25
973.281	2859.87
973.582	2842.92
973.883	2875.69
974.183	2860.77
974.484	2819.42
974.785	2834.33
975.085	2848.8
975.386	2808.8
975.686	2759.08
975.986	2777.16
976.287	2764.73
976.587	2770.38
976.887	2696.48
977.187	2685.18
977.487	2709.82
977.787	2676.37
978.087	2672.75
978.387	2661.91
978.687	2637.95
978.987	2622.36
979.286	2635.24
979.586	2584.62
979.885	2617.39
980.185	2608.12
980.484	2598.18
980.784	2584.62
981.083	2558.86
981.382	2533.32
981.682	2564.96
981.981	2527.9
982.28	2561.35
982.579	2518.41
982.878	2545.07
983.177	2500.1
983.475	2472.31
983.774	2489.71
984.073	2463.95
984.372	2430.73
984.67	2404.51
984.969	2439.99
985.267	2399.32
985.566	2412.2
985.864	2386.21
986.162	2369.94
986.461	2361.35
986.759	2359.09
987.057	2350.96
987.355	2335.81
987.653	2305.31
987.951	2294.23
988.249	2306.89
988.547	2293.78
988.844	2272.77
989.142	2263.27
989.44	2273.22
989.737	2268.02
990.035	2247.91
990.332	2236.83
990.63	2228.92
990.927	2196.38
991.224	2199.77
991.521	2207.68
991.819	2187.57
992.116	2161.13
992.413	2157.97
992.71	2181.47
993.006	2171.3
993.303	2163.39
993.6	2127.68
993.897	2131.53
994.193	2117.74
994.49	2128.81
994.787	2077.06
995.083	2046.56
995.379	2074.13
995.676	2047.01
995.972	2059.21
996.268	2065.54
996.565	2021.47
996.861	2033.9
997.157	2013.56
997.453	2004.3
997.749	2003.39
998.044	1959.55
998.34	1957.97
998.636	1967.01
998.932	1939.21
999.227	1922.72
999.523	1911.42
999.818	1922.04
1000.114	1881.81
1000.409	1896.73
1000.704	1890.4
1001	1885.2
1001.295	1847.24
1001.59	1852.66
1001.885	1868.71
1002.18	1826
1002.475	1840.23
1002.77	1844.3
1003.065	1836.39
1003.359	1806.34
1003.654	1818.09
1003.949	1782.38
1004.243	1788.03
1004.538	1758.2
1004.832	1765.43
1005.127	1739.67
1005.421	1750.74
1005.715	1743.06
1006.009	1713.23
1006.304	1737.19
1006.598	1690.86
1006.892	1691.31
1007.186	1700.12
1007.48	1688.15
1007.773	1665.1
1008.067	1631.2
1008.361	1633.46
1008.655	1621.48
1008.948	1628.94
1009.242	1606.12
1009.535	1647.7
1009.829	1603.4
1010.122	1610.18
1010.415	1567.47
1010.708	1577.42
1011.001	1560.24
1011.295	1588.26
1011.588	1571.31
1011.881	1530.41
1012.173	1519.11
1012.466	1525.89
1012.759	1511.66
1013.052	1519.11
1013.344	1520.47
1013.637	1499
1013.93	1445.67
1014.222	1492.67
1014.514	1482.5
1014.807	1450.64
1015.099	1452.22
1015.391	1430.75
1015.683	1424.2
1015.976	1428.49
1016.268	1431.88
1016.56	1394.6
1016.851	1416.52
1017.143	1374.03
1017.435	1367.25
1017.727	1391.43
1018.018	1355.05
1018.31	1369.29
1018.602	1354.37
1018.893	1334.26
1019.185	1341.04
1019.476	1346.69
1019.767	1309.63
1020.058	1317.31
1020.35	1297.65
1020.641	1331.55
1020.932	1303.98
1021.223	1294.71
1021.514	1285.9
1021.804	1270.08
1022.095	1260.14
1022.386	1242.51
1022.677	1236.63
1022.967	1220.82
1023.258	1238.44
1023.548	1199.8
1023.839	1192.34
1024.129	1191.89
1024.419	1196.64
1024.709	1190.99
1025	1178.56
1025.29	1178.56
1025.58	1193.7
1025.87	1195.28
1026.16	1128.61
1026.449	1165.68
1026.739	1125
1027.029	1115.06
1027.319	1106.02
1027.608	1111.89
1027.898	1114.38
1028.187	1103.08
1028.477	1080.25
1028.766	1079.58
1029.055	1061.5
1029.344	1086.81
1029.634	1077.32
1029.923	1044.1
1030.212	1054.72
1030.501	1039.35
1030.79	1039.35
1031.078	1047.03
1031.367	1017.88
1031.656	1016.75
1031.945	1007.26
1032.233	1000.03
1032.522	1010.65
1032.81	992.8
1033.099	983.53
1033.387	973.36
1033.675	955.74
1033.963	934.95
1034.251	958.68
1034.54	955.06
1034.828	972.91
1035.116	956.64
1035.403	902.41
1035.691	949.18
1035.979	907.83
1036.267	922.07
1036.554	932.24
1036.842	919.58
1037.129	938.34
1037.417	898.79
1037.704	879.58
1037.992	887.04
1038.279	869.86
1038.566	853.82
1038.853	853.82
1039.14	853.82
