Data from hue_220_FLMS001491_00077.txt Node
Date: Tue Feb 07 16:39:56 GMT 2017
User: dcchb
Spectrometer: FLMS00149
Trigger mode: 0
Integration Time (sec): 2.000000E-2
Scans to average: 10
Electric dark correction enabled: true
Nonlinearity correction enabled: false
Boxcar width: 0
XAxis mode: Wavelengths
Number of Pixels in Spectrum: 2048
>>>>>Begin Spectral Data<<<<<
341.393	-5.66
341.776	-5.66
342.16	-5.66
342.543	-39.79
342.927	-46.34
343.31	-82.72
343.693	-71.42
344.077	-63.52
344.46	-63.06
344.843	-61.26
345.226	-35.27
345.61	-37.53
345.993	-7.02
346.376	6.77
346.759	1.34
347.142	38.18
347.525	27.1
347.908	49.48
348.291	78.85
348.674	97.38
349.057	122.69
349.44	115.01
349.823	119.98
350.206	163.82
350.588	192.52
350.971	200.88
351.354	214.67
351.737	255.35
352.119	249.02
352.502	253.09
352.884	275.01
353.267	289.47
353.65	282.24
354.032	294.89
354.414	295.12
354.797	286.53
355.179	312.75
355.562	309.58
355.944	327.21
356.326	317.94
356.709	336.25
357.091	349.13
357.473	324.95
357.855	341.22
358.238	336.7
358.62	328.56
359.002	345.06
359.384	332.18
359.766	326.08
360.148	338.06
360.53	327.43
360.912	344.38
361.294	345.97
361.676	339.64
362.057	331.95
362.439	329.47
362.821	292.63
363.203	310.71
363.584	312.52
363.966	326.3
364.348	320.88
364.729	331.05
365.111	308.68
365.493	331.05
365.874	302.58
366.256	314.55
366.637	309.36
367.019	318.17
367.4	333.76
367.781	321.79
368.163	321.11
368.544	295.35
368.925	313.42
369.306	284.5
369.688	326.08
370.069	305.06
370.45	305.74
370.831	308
371.212	293.31
371.593	308.68
371.974	319.75
372.355	308.9
372.736	325.63
373.117	305.97
373.498	311.39
373.879	336.93
374.26	312.75
374.641	300.54
375.021	304.16
375.402	325.18
375.783	285.85
376.163	318.4
376.544	305.29
376.925	319.07
377.305	307.55
377.686	318.17
378.066	308.68
378.447	317.94
378.827	314.55
379.208	339.41
379.588	343.48
379.968	336.93
380.349	331.73
380.729	333.76
381.109	313.42
381.489	329.69
381.87	345.06
382.25	328.56
382.63	328.11
383.01	324.5
383.39	336.93
383.77	326.53
384.15	326.98
384.53	337.38
384.91	352.07
385.29	352.29
385.67	362.46
386.049	350.49
386.429	364.72
386.809	355.23
387.189	346.19
387.568	333.54
387.948	337.83
388.328	358.17
388.707	362.01
389.087	355.46
389.466	366.98
389.846	361.78
390.225	382.35
390.605	382.57
390.984	369.02
391.363	358.62
391.743	351.39
392.122	381.67
392.501	375.8
392.881	395
393.26	392.07
393.639	388.22
394.018	368.56
394.397	380.77
394.776	384.38
395.155	376.02
395.534	387.09
395.913	387.77
396.292	389.81
396.671	369.02
397.05	375.57
397.429	381.9
397.808	378.51
398.186	403.37
398.565	400.65
398.944	393.87
399.323	419.41
399.701	414.21
400.08	395.46
400.458	409.92
400.837	409.47
401.215	425.96
401.594	422.57
401.972	437.26
402.351	440.88
402.729	404.95
403.107	450.37
403.486	431.39
403.864	429.81
404.242	422.8
404.62	440.88
404.999	459.18
405.377	436.58
405.755	435.91
406.133	446.53
406.511	459.86
406.889	477.49
407.267	458.73
407.645	467.54
408.023	476.36
408.401	508.67
408.779	473.65
409.156	493.31
409.534	491.5
409.912	525.17
410.29	517.26
410.667	524.27
411.045	545.06
411.422	536.92
411.8	552.74
412.178	548.67
412.555	559.97
412.933	550.48
413.31	566.75
413.687	587.32
414.065	578.05
414.442	605.62
414.819	605.39
415.197	632.29
415.574	613.3
415.951	654.88
416.328	624.38
416.705	645.62
417.082	646.52
417.46	677.26
417.837	672.96
418.214	650.82
418.591	693.75
418.967	675.9
419.344	692.4
419.721	698.95
420.098	721.77
420.475	710.02
420.852	721.77
421.228	766.07
421.605	762
421.982	766.75
422.358	770.14
422.735	808.1
423.111	802.68
423.488	859.62
423.864	823.92
424.241	841.32
424.617	852.17
424.994	873.41
425.37	891.94
425.746	889.45
426.123	915.44
426.499	879.28
426.875	923.13
427.251	954.31
427.627	971.71
428.003	979.17
428.379	1007.64
428.756	999.28
429.132	1020.75
429.507	1011.03
429.883	1016.91
430.259	1037.47
430.635	1063.91
431.011	1047.19
431.387	1082.22
431.763	1070.24
432.138	1101.43
432.514	1120.18
432.89	1129.22
433.265	1164.93
433.641	1190.01
434.016	1181.2
434.392	1248.77
434.767	1253.74
435.143	1248.54
435.518	1279.05
435.894	1279.27
436.269	1339.61
436.644	1352.72
437.02	1343.68
437.395	1378.03
437.77	1399.5
438.145	1446.28
438.52	1454.41
438.895	1462.09
439.271	1483.79
439.646	1521.3
440.021	1520.4
440.395	1551.58
440.77	1561.53
441.145	1578.48
441.52	1607.85
441.895	1626.84
442.27	1674.07
442.645	1642.2
443.019	1671.35
443.394	1714.74
443.769	1691.24
444.143	1702.31
444.518	1745.25
444.892	1706.16
445.267	1757.91
445.641	1747.28
446.016	1768.3
446.39	1801.07
446.764	1799.71
447.139	1811.24
447.513	1834.97
447.887	1813.72
448.262	1847.17
448.636	1873.83
449.01	1882.87
449.384	1909.77
449.758	1909.31
450.132	1939.14
450.506	1941.4
450.88	1952.93
451.254	1960.39
451.628	1973.27
452.002	1998.35
452.376	2014.62
452.75	2042.64
453.123	2040.61
453.497	2082.64
453.871	2114.05
454.244	2129.42
454.618	2144.34
454.992	2160.38
455.365	2188.85
455.739	2227.27
456.112	2231.79
456.486	2250.55
456.859	2273.82
457.232	2304.56
457.606	2333.71
457.979	2333.71
458.352	2384.78
458.725	2392.24
459.099	2421.84
459.472	2451.45
459.845	2470.2
460.218	2498.68
460.591	2504.78
460.964	2509.07
461.337	2572.8
461.71	2645.57
462.083	2658
462.456	2661.84
462.829	2682.63
463.201	2722.85
463.574	2703.42
463.947	2771.21
464.32	2798.1
464.692	2813.7
465.065	2820.7
465.438	2865.45
465.81	2897.54
466.183	2915.84
466.555	2991.77
466.928	2990.42
467.3	2996.07
467.672	3067.25
468.045	3141.37
468.417	3121.71
468.789	3095.95
469.161	3159.68
469.534	3233.8
469.906	3302.72
470.278	3304.53
470.65	3319.67
471.022	3418.65
471.394	3470.4
471.766	3466.56
472.138	3499.1
472.51	3559.89
472.882	3636.95
473.253	3640.79
473.625	3679.89
473.997	3772.32
474.369	3764.18
474.74	3799.89
475.112	3873.56
475.484	3948.13
475.855	3936.15
476.227	3982.25
476.598	4120.56
476.97	4127.56
477.341	4207.11
477.713	4272.42
478.084	4288.46
478.455	4409.59
478.827	4440.55
479.198	4477.38
479.569	4502.47
479.94	4613.65
480.311	4659.3
480.682	4740.2
481.053	4840.08
481.424	4918.5
481.795	4919.86
482.166	5047.31
482.537	5031.72
482.908	5153.07
483.279	5166.86
483.65	5266.74
484.021	5354.2
484.391	5415.66
484.762	5449.11
485.133	5461.31
485.503	5534.53
485.874	5672.61
486.244	5692.49
486.615	5715.09
486.985	5791.92
487.356	5890
487.726	5967.51
488.097	6005.25
488.467	6007.74
488.837	6143.1
489.207	6174.74
489.578	6293.83
489.948	6324.11
490.318	6438.46
490.688	6443.88
491.058	6513.26
491.428	6552.81
491.798	6604.56
492.168	6691.34
492.538	6750.32
492.908	6795.97
493.278	6906.02
493.648	6876.64
494.017	6922.97
494.387	6969.52
494.757	7077.54
495.126	7068.27
495.496	7099.91
495.866	7127.26
496.235	7249.96
496.605	7253.35
496.974	7299
497.344	7299.23
497.713	7349.4
498.082	7433.24
498.452	7399.34
498.821	7413.12
499.19	7478.89
499.559	7552.33
499.928	7568.37
500.298	7530.64
500.667	7626.45
501.036	7650.18
501.405	7699.67
501.774	7707.58
502.143	7699.67
502.512	7698.99
502.88	7809.72
503.249	7749.61
503.618	7859.89
503.987	7923.39
504.356	7924.3
504.724	7889.72
505.093	7925.2
505.462	7946.44
505.83	8004.97
506.199	7986.22
506.567	8108.02
506.936	8056.72
507.304	8056.72
507.672	8170.39
508.041	8148.25
508.409	8158.19
508.777	8205.42
509.145	8254.68
509.514	8205.87
509.882	8273.44
510.25	8309.15
510.618	8309.15
510.986	8214.01
511.354	8344.4
511.722	8397.96
512.09	8404.96
512.458	8358.86
512.826	8425.98
513.193	8418.75
513.561	8437.73
513.929	8478.86
514.297	8538.97
514.664	8502.59
515.032	8493.1
515.4	8552.08
515.767	8525.86
516.135	8545.98
516.502	8479.99
516.869	8586.65
517.237	8576.71
517.604	8548.69
517.972	8637.27
518.339	8577.16
518.706	8547.33
519.073	8626.88
519.44	8603.15
519.808	8667.1
520.175	8594.34
520.542	8653.77
520.909	8651.06
521.276	8672.53
521.643	8668.91
522.009	8646.54
522.376	8722.92
522.743	8741.22
523.11	8757.95
523.477	8784.84
523.843	8848.34
524.21	8900.09
524.577	8923.37
524.943	8849.24
525.31	8842.24
525.676	8878.85
526.043	8896.48
526.409	8882.01
526.776	8943.93
527.142	8939.41
527.508	9016.92
527.874	8962.46
528.241	8965.63
528.607	8964.27
528.973	8998.39
529.339	8950.26
529.705	9025.96
530.071	9007.66
530.437	9002.01
530.803	9005.85
531.169	9078.84
531.535	8973.31
531.901	9000.88
532.267	8941.45
532.632	9042.69
532.998	8948
533.364	8895.57
533.73	8992.52
534.095	9035
534.461	8987.32
534.826	9036.58
535.192	8951.16
535.557	8969.47
535.923	8963.82
536.288	8966.98
536.653	8968.11
537.019	8900.32
537.384	8923.14
537.749	8887.66
538.114	8880.43
538.479	8815.8
538.845	8846.08
539.21	8799.08
539.575	8779.19
539.94	8785.74
540.305	8805.18
540.67	8710.49
541.034	8726.99
541.399	8744.84
541.764	8743.71
542.129	8659.42
542.494	8686.76
542.858	8630.49
543.223	8630.49
543.587	8702.81
543.952	8599.53
544.316	8614.9
544.681	8605.86
545.045	8560.44
545.41	8628.91
545.774	8590.04
546.138	8628.91
546.503	8561.34
546.867	8504.62
547.231	8574.22
547.595	8504.17
547.959	8482.25
548.324	8465.07
548.688	8478.41
549.052	8445.41
549.416	8387.79
549.779	8379.65
550.143	8372.87
550.507	8388.24
550.871	8374.23
551.235	8315.7
551.599	8350.27
551.962	8330.84
552.326	8277.96
552.689	8286.1
553.053	8278.86
553.417	8238.41
553.78	8268.7
554.143	8274.8
554.507	8231.41
554.87	8247
555.234	8279.54
555.597	8194.35
555.96	8180.34
556.323	8198.87
556.686	8108.25
557.05	8181.24
557.413	8149.38
557.776	8226.44
558.139	8191.63
558.502	8222.59
558.865	8209.94
559.228	8117.51
559.59	8109.15
559.953	8183.73
560.316	8209.71
560.679	8194.57
561.041	8283.16
561.404	8239.09
561.767	8188.92
562.129	8201.35
562.492	8267.57
562.854	8182.37
563.217	8179.88
563.579	8274.57
563.941	8274.34
564.304	8276.6
564.666	8323.16
565.028	8315.7
565.39	8264.85
565.753	8253.1
566.115	8252.88
566.477	8353.66
566.839	8310.95
567.201	8356.83
567.563	8320.22
567.925	8401.57
568.287	8405.64
568.648	8430.5
569.01	8448.58
569.372	8411.97
569.734	8377.84
570.095	8474.34
570.457	8465.75
570.819	8487.22
571.18	8530.61
571.542	8528.35
571.903	8527.45
572.265	8536.26
572.626	8560.89
572.987	8611.51
573.349	8598.18
573.71	8529.03
574.071	8573.77
574.432	8593.43
574.794	8672.75
575.155	8670.04
575.516	8635.69
575.877	8694.67
576.238	8687.67
576.599	8731.06
576.96	8706.65
577.32	8783.48
577.681	8785.07
578.042	8775.8
578.403	8789.81
578.763	8872.07
579.124	8888.57
579.485	8893.54
579.845	8952.52
580.206	8917.94
580.566	8859.41
580.927	8910.49
581.287	8943.48
581.648	8953.2
582.008	9032.74
582.368	9000.2
582.728	9051.05
583.089	9051.05
583.449	9029.58
583.809	9102.8
584.169	9126.98
584.529	9079.52
584.889	9182.8
585.249	9096.7
585.609	9169.69
585.969	9116.13
586.329	9158.16
586.688	9162
587.048	9157.03
587.408	9209.91
587.768	9173.53
588.127	9193.42
588.487	9227.99
588.846	9315.9
589.206	9192.74
589.565	9251.04
589.925	9278.16
590.284	9259.18
590.643	9251.04
591.003	9374.88
591.362	9344.82
591.721	9371.26
592.08	9324.03
592.44	9364.49
592.799	9346.63
593.158	9389.12
593.517	9389.34
593.876	9433.18
594.235	9380.08
594.593	9435.22
594.952	9434.54
595.311	9418.72
595.67	9378.5
596.029	9524.93
596.387	9493.52
596.746	9473.64
597.104	9416.46
597.463	9513.86
597.822	9506.4
598.18	9459.62
598.538	9493.97
598.897	9526.06
599.255	9498.72
599.613	9552.73
599.972	9518.15
600.33	9557.93
600.688	9553.86
601.046	9552.28
601.404	9577.59
601.762	9618.49
602.12	9602.45
602.478	9565.16
602.836	9644.03
603.194	9491.94
603.552	9596.34
603.91	9590.69
604.268	9611.26
604.625	9630.24
604.983	9615.55
605.341	9587.08
605.698	9666.4
606.056	9653.29
606.413	9638.6
606.771	9697.13
607.128	9646.96
607.485	9679.73
607.843	9644.25
608.2	9697.36
608.557	9729.22
608.914	9698.04
609.272	9776.23
609.629	9794.08
609.986	9777.81
610.343	9769.45
610.7	9729.67
611.057	9864.81
611.414	9809.9
611.771	9753.4
612.127	9804.93
612.484	9793.17
612.841	9852.38
613.198	9819.61
613.554	9809.9
613.911	9825.94
614.267	9858.26
614.624	9890.8
614.98	9885.83
615.337	9947.29
615.693	9939.61
616.05	9892.38
616.406	9978.71
616.762	9903
617.118	9913.62
617.475	9863.91
617.831	9998.14
618.187	9915.66
618.543	9933.51
618.899	9996.33
619.255	10007.18
619.611	9987.29
619.967	10037.46
620.323	10069.33
620.678	10025.03
621.034	9910.91
621.39	10025.94
621.746	9954.3
622.101	10027.97
622.457	9972.15
622.812	9995.43
623.168	10021.87
623.523	10033.62
623.879	10045.6
624.234	9997.69
624.589	10090.57
624.945	10020.51
625.3	10071.59
625.655	10056.44
626.01	10032.49
626.365	10036.33
626.72	10004.69
627.075	10072.26
627.43	9966.28
627.785	10001.53
628.14	10021.19
628.495	9990.46
628.85	9996.56
629.205	9954.07
629.559	9949.33
629.914	9966.73
630.269	9924.7
630.623	9898.48
630.978	9953.85
631.332	9919.73
631.687	9988.42
632.041	9848.09
632.396	9906.62
632.75	9811.03
633.104	9866.62
633.459	9881.08
633.813	9820.07
634.167	9834.3
634.521	9831.82
634.875	9774.64
635.229	9806.73
635.583	9732.16
635.937	9797.69
636.291	9770.8
636.645	9694.19
636.999	9736.45
637.352	9704.14
637.706	9710.47
638.06	9714.08
638.413	9689.45
638.767	9725.61
639.121	9708.21
639.474	9649
639.828	9667.53
640.181	9592.95
640.534	9686.74
640.888	9597.02
641.241	9579.17
641.594	9602.45
641.947	9629.34
642.301	9606.51
642.654	9635.66
643.007	9602.9
643.36	9672.73
643.713	9536.91
644.066	9583.69
644.419	9479.96
644.771	9493.3
645.124	9397.03
645.477	9399.96
645.83	9345.95
646.182	9309.35
646.535	9273.64
646.888	9298.27
647.24	9275
647.593	9365.39
647.945	9264.83
648.298	9227.99
648.65	9212.4
649.002	9163.81
649.355	9317.93
649.707	9211.27
650.059	9228.9
650.411	9387.99
650.763	9419.17
651.115	9442.22
651.467	9439.51
651.819	9449.91
652.171	9423.24
652.523	9425.95
652.875	9432.96
653.227	9377.37
653.578	9498.95
653.93	9484.03
654.282	9373.52
654.633	9357.25
654.985	9426.18
655.337	9421.21
655.688	9484.93
656.039	9484.03
656.391	9375.33
656.742	9461.21
657.094	9410.36
657.445	9464.37
657.796	9445.61
658.147	9444.26
658.498	9441.55
658.849	9442.9
659.2	9431.6
659.551	9406.74
659.902	9465.95
660.253	9452.84
660.604	9515.89
660.955	9471.15
661.306	9481.09
661.656	9444.71
662.007	9481.54
662.358	9472.05
662.708	9495.33
663.059	9534.42
663.409	9420.08
663.76	9470.02
664.11	9508.21
664.461	9523.13
664.811	9516.57
665.161	9551.37
665.511	9471.6
665.862	9556.34
666.212	9469.34
666.562	9496.69
666.912	9511.15
667.262	9443.35
667.612	9469.57
667.962	9454.65
668.312	9505.95
668.662	9501.88
669.011	9526.29
669.361	9472.96
669.711	9443.81
670.06	9461.88
670.41	9465.95
670.76	9495.78
671.109	9485.39
671.459	9418.5
671.808	9432.05
672.157	9479.06
672.507	9393.19
672.856	9393.41
673.205	9382.79
673.554	9423.92
673.904	9410.13
674.253	9430.02
674.602	9415.33
674.951	9368.55
675.3	9269.35
675.649	9387.76
675.998	9416.91
676.346	9423.24
676.695	9373.52
677.044	9255.79
677.393	9337.82
677.741	9351.38
678.09	9312.06
678.438	9280.65
678.787	9279.29
679.135	9236.35
679.484	9266.18
679.832	9310.02
680.181	9197.48
680.529	9206.75
680.877	9145.51
681.225	9146.41
681.573	9191.16
681.922	9155.68
682.27	9120.65
682.618	9101.22
682.966	9062.57
683.314	9077.26
683.661	9022.12
684.009	9042.69
684.357	9011.05
684.705	8969.02
685.053	8953.87
685.4	9029.8
685.748	8911.16
686.095	8917.49
686.443	8832.97
686.79	8852.86
687.138	8926.3
687.485	8930.37
687.832	8918.62
688.18	8868.23
688.527	8830.04
688.874	8731.96
689.221	8743.94
689.568	8717.27
689.915	8723.37
690.262	8703.49
690.609	8703.03
690.956	8635.69
691.303	8596.37
691.65	8555.69
691.997	8592.08
692.344	8516.6
692.69	8469.14
693.037	8526.54
693.383	8391.18
693.73	8445.64
694.077	8442.48
694.423	8361.35
694.769	8330.84
695.116	8296.49
695.462	8313.67
695.808	8294.23
696.155	8294.01
696.501	8193.22
696.847	8174.69
697.193	8157.29
697.539	8165.19
697.885	8041.13
698.231	8055.14
698.577	8032.32
698.923	8022.83
699.269	7958.19
699.614	7914.58
699.96	7902.38
700.306	7858.08
700.651	7831.19
700.997	7847.69
701.342	7811.76
701.688	7779.22
702.033	7760.69
702.379	7739.44
702.724	7644.08
703.069	7747.8
703.415	7558.21
703.76	7616.28
704.105	7530.41
704.45	7539
704.795	7493.35
705.14	7484.99
705.485	7465.33
705.83	7419.45
706.175	7452.45
706.52	7401.6
706.865	7461.71
707.209	7407.47
707.554	7369.96
707.899	7321.6
708.243	7342.39
708.588	7276.18
708.932	7242.96
709.277	7222.85
709.621	7200.93
709.966	7147.37
710.31	7188.95
710.654	7120.48
710.998	7130.19
711.342	7091.1
711.687	7097.2
712.031	7061.72
712.375	7038.44
712.719	7068.05
713.063	7063.3
713.407	7047.26
713.75	7026.69
714.094	6972.91
714.438	6963.64
714.782	6973.59
715.125	6945.34
715.469	6939.92
715.812	6899.24
716.156	6885
716.499	6972.46
716.843	6916.19
717.186	6890.88
717.53	6925.68
717.873	6880.26
718.216	6833.25
718.559	6847.26
718.902	6826.25
719.246	6855.17
719.589	6806.36
719.932	6788.28
720.275	6761.16
720.617	6802.29
720.96	6842.07
721.303	6717.78
721.646	6803.87
721.989	6755.06
722.331	6749.41
722.674	6694.95
723.016	6715.52
723.359	6695.63
723.701	6830.31
724.044	6699.47
724.386	6668.06
724.729	6711.22
725.071	6705.57
725.413	6705.12
725.755	6697.89
726.097	6669.42
726.439	6616.99
726.782	6663.09
727.124	6694.73
727.465	6685.01
727.807	6663.77
728.149	6648.4
728.491	6575.18
728.833	6640.26
729.175	6611.56
729.516	6672.58
729.858	6604.56
730.199	6646.14
730.541	6618.79
730.882	6645.23
731.224	6676.65
731.565	6611.11
731.906	6619.92
732.248	6569.53
732.589	6555.52
732.93	6630.32
733.271	6629.19
733.612	6609.98
733.953	6606.37
734.294	6631.22
734.635	6581.51
734.976	6638.23
735.317	6550.55
735.658	6592.58
735.999	6650.21
736.339	6632.58
736.68	6710.09
737.021	6603.88
737.361	6613.15
737.702	6678.45
738.042	6658.79
738.383	6598.68
738.723	6680.26
739.063	6652.01
739.404	6683.65
739.744	6713.48
740.084	6682.3
740.424	6708.96
740.764	6678.23
741.104	6759.81
741.444	6712.58
741.784	6742.63
742.124	6775.4
742.464	6773.37
742.804	6797.77
743.143	6833.48
743.483	6834.38
743.823	6860.6
744.162	6888.39
744.502	6872.35
744.841	6945.79
745.181	6928.62
745.52	6948.28
745.86	6930.43
746.199	7061.95
746.538	7144.66
746.877	7123.41
747.216	7126.35
747.556	7211.55
747.895	7216.07
748.234	7287.03
748.573	7356.4
748.911	7375.16
749.25	7396.18
749.589	7435.04
749.928	7554.36
750.267	7631.42
750.605	7650.63
750.944	7689.28
751.283	7755.26
751.621	7875.26
751.96	7967.23
752.298	8050.62
752.636	8146.66
752.975	8185.53
753.313	8267.34
753.651	8397.51
753.989	8497.62
754.327	8597.73
754.666	8686.54
755.004	8876.14
755.342	8971.5
755.679	9044.49
756.017	9162.91
756.355	9310.02
756.693	9437.7
757.031	9642.22
757.368	9729.22
757.706	9818.71
758.044	9992.49
758.381	10201.07
758.719	10323.78
759.056	10506.83
759.394	10628.41
759.731	10737.56
760.068	10842.41
760.405	10985.01
760.743	11170.54
761.08	11426.58
761.417	11472.45
761.754	11743.86
762.091	11842.61
762.428	12051.87
762.765	12165.99
763.102	12431.3
763.438	12490.73
763.775	12648.69
764.112	12880.55
764.449	13140.21
764.785	13251.39
765.122	13370.93
765.458	13524.15
765.795	13712.17
766.131	13854.31
766.467	13958.49
766.804	14099.73
767.14	14358.7
767.476	14477.57
767.812	14560.51
768.148	14759.37
768.485	14846.83
768.821	14914.17
769.157	15149.19
769.492	15221.05
769.828	15444.55
770.164	15384.89
770.5	15586.69
770.836	15671.89
771.171	15766.35
771.507	15937.19
771.842	16021.71
772.178	16065.33
772.513	16117.98
772.849	16273.68
773.184	16377.63
773.519	16563.39
773.855	16539.21
774.19	16664.63
774.525	16643.62
774.86	16797.06
775.195	16904.17
775.53	16945.75
775.865	17001.12
776.2	17005.87
776.535	16983.72
776.87	17139.42
777.205	17151.85
777.539	17261.68
777.874	17343.71
778.209	17237.95
778.543	17336.03
778.878	17308.68
779.212	17371.73
779.547	17357.04
779.881	17580.54
780.215	17447.89
780.55	17645.17
780.884	17509.81
781.218	17566.76
781.552	17649.24
781.886	17591.61
782.22	17615.12
782.554	17580.54
782.888	17580.31
783.222	17587.09
783.556	17534.44
783.889	17567.89
784.223	17559.75
784.557	17509.13
784.89	17574.67
785.224	17531.28
785.557	17511.16
785.891	17575.79
786.224	17454.67
786.558	17577.38
786.891	17492.18
787.224	17384.16
787.557	17449.7
787.891	17430.26
788.224	17462.8
788.557	17532.18
788.89	17444.05
789.223	17556.59
789.556	17411.51
789.888	17389.81
790.221	17303.49
790.554	17265.97
790.887	17241.11
791.219	17239.53
791.552	17286.99
791.884	17126.32
792.217	17186.88
792.549	17058.07
792.882	16995.92
793.214	17025.3
793.546	17134.22
793.879	16895.13
794.211	16982.59
794.543	16974.91
794.875	16923.61
795.207	17017.39
795.539	16892.65
795.871	17009.93
796.203	16713.44
796.535	16778.98
796.867	16734.91
797.198	16700.56
797.53	16694.69
797.862	16651.75
798.193	16726.33
798.525	16601.81
798.856	16581.47
799.188	16470.51
799.519	16383.06
799.85	16348.71
800.182	16468.93
800.513	16371.31
800.844	16256.96
801.175	16383.28
801.506	16284.98
801.837	16249.28
802.168	16141.03
802.499	16213.8
802.83	16044.31
803.161	16068.26
803.491	15992.56
803.822	16053.58
804.153	15944.2
804.483	15952.79
804.814	15895.39
805.145	15855.84
805.475	15779.46
805.805	15828.95
806.136	15773.36
806.466	15769.06
806.796	15743.75
807.126	15576.07
807.457	15569.07
807.787	15619.46
808.117	15558.9
808.447	15520.71
808.777	15531.33
809.107	15419.69
809.436	15386.25
809.766	15491.33
810.096	15407.72
810.426	15242.07
810.755	15251.34
811.085	15272.58
811.414	15223.77
811.744	15158.46
812.073	15112.81
812.403	15199.81
812.732	15049.31
813.061	15096.99
813.39	15015.41
813.719	15000.72
814.049	15094.96
814.378	14972.47
814.707	14991.46
815.036	14951.01
815.365	14900.84
815.693	14833.95
816.022	14847.05
816.351	14826.71
816.68	14733.84
817.008	14865.81
817.337	14659.26
817.665	14528.87
817.994	14596.21
818.322	14719.6
818.651	14531.36
818.979	14537.68
819.307	14616.32
819.636	14647.74
819.964	14434.18
820.292	14545.14
820.62	14560.06
820.948	14575.2
821.276	14533.16
821.604	14446.61
821.932	14503.79
822.259	14460.85
822.587	14493.39
822.915	14431.02
823.243	14536.55
823.57	14429.89
823.898	14528.19
824.225	14449.55
824.553	14439.61
824.88	14354.64
825.207	14449.1
825.535	14488.42
825.862	14440.51
826.189	14360.51
826.516	14485.71
826.843	14439.61
827.17	14503.11
827.497	14403.9
827.824	14441.64
828.151	14481.41
828.478	14509.21
828.805	14532.03
829.131	14568.19
829.458	14483.67
829.785	14433.73
830.111	14462.88
830.438	14501.98
830.764	14533.16
831.09	14470.57
831.417	14418.82
831.743	14437.8
832.069	14457.01
832.395	14392.38
832.722	14490.9
833.048	14417.69
833.374	14399.16
833.7	14317.8
834.026	14361.19
834.351	14332.94
834.677	14353.05
835.003	14394.86
835.329	14336.33
835.654	14337.24
835.98	14229.22
836.306	14283
836.631	14275.54
836.956	14310.8
837.282	14319.16
837.607	14261.98
837.932	14177.24
838.258	14157.81
838.583	14239.16
838.908	14141.53
839.233	14203
839.558	14115.09
839.883	14092.95
840.208	14008.21
840.533	14004.14
840.858	14024.93
841.182	13993.74
841.507	13976.34
841.832	13917.81
842.156	13889.56
842.481	13938.38
842.805	13845.05
843.13	13832.62
843.454	13812.96
843.778	13678.04
844.103	13702.45
844.427	13747.87
844.751	13650.7
845.075	13575.9
845.399	13643.02
845.723	13578.61
846.047	13518.27
846.371	13399.41
846.695	13380.2
847.019	13286.64
847.343	13304.49
847.666	13228.79
847.99	13103.14
848.313	13206.42
848.637	13127.55
848.96	13009.81
849.284	13013.65
849.607	12939.76
849.931	12936.14
850.254	12819.08
850.577	12694.57
850.9	12697.73
851.223	12714.68
851.546	12594.91
851.869	12563.5
852.192	12567.34
852.515	12561.92
852.838	12440.56
853.161	12446.89
853.483	12346.33
853.806	12294.8
854.129	12305.43
854.451	12148.82
854.774	12194.47
855.096	12106.33
855.419	12123.06
855.741	12108.14
856.063	12050.06
856.385	11950.18
856.708	11970.97
857.03	11939.11
857.352	11927.13
857.674	11842.61
857.996	11820.92
858.318	11741.15
858.64	11771.65
858.961	11728.04
859.283	11739.34
859.605	11649.85
859.926	11584.31
860.248	11555.61
860.57	11605.1
860.891	11554.71
861.212	11479.91
861.534	11565.78
861.855	11406.69
862.176	11486.92
862.498	11424.77
862.819	11413.02
863.14	11319.69
863.461	11300.25
863.782	11278.11
864.103	11273.14
864.424	11227.26
864.745	11304.1
865.065	11205.79
865.386	11239.69
865.707	11229.97
866.027	11139.35
866.348	11111.11
866.668	11192.23
866.989	11089.41
867.309	11048.06
867.63	11079.47
867.95	11105
868.27	10952.69
868.59	11048.28
868.91	10994.27
869.23	10953.6
869.55	10889.19
869.87	10956.53
870.19	10919.92
870.51	10965.35
870.83	10923.77
871.15	10960.15
871.469	10914.28
871.789	10756.99
872.109	10876.54
872.428	10796.76
872.748	10814.16
873.067	10758.57
873.386	10786.82
873.706	10754.28
874.025	10645.36
874.344	10620.05
874.663	10651.23
874.982	10649.42
875.301	10715.64
875.62	10596.77
875.939	10591.35
876.258	10593.15
876.577	10537.56
876.896	10583.89
877.214	10451.01
877.533	10454.63
877.852	10537.79
878.17	10464.34
878.489	10550.67
878.807	10566.04
879.125	10396.1
879.444	10351.8
879.762	10517
880.08	10412.82
880.398	10332.82
880.716	10363.78
881.034	10357.45
881.352	10340.96
881.67	10253.28
881.988	10309.32
882.306	10239.04
882.624	10265.25
882.941	10246.72
883.259	10231.58
883.577	10146.61
883.894	10200.17
884.212	10104.35
884.529	10057.8
884.846	10107.29
885.164	10008.08
885.481	9947.97
885.798	10024.81
886.115	9957.24
886.432	9998.82
886.75	9853.06
887.067	9902.1
887.383	9844.7
887.7	9926.5
888.017	9796.56
888.334	9829.33
888.651	9705.27
888.967	9853.51
889.284	9685.38
889.6	9712.05
889.917	9643.35
890.233	9639.73
890.55	9608.55
890.866	9621.43
891.182	9553.41
891.498	9542.56
891.815	9546.63
892.131	9498.95
892.447	9424.82
892.763	9439.96
893.079	9400.19
893.395	9383.47
893.71	9349.34
894.026	9313.19
894.342	9294.2
894.657	9225.28
894.973	9211.72
895.289	9187.99
895.604	9153.87
895.92	9156.81
896.235	9056.24
896.55	9080.88
896.865	9069.58
897.181	9013.99
897.496	8966.53
897.811	8919.3
898.126	8914.55
898.441	8836.36
898.756	8864.16
899.071	8819.87
899.386	8762.02
899.7	8743.71
900.015	8701.9
900.33	8668.01
900.644	8646.31
900.959	8695.58
901.273	8575.81
901.588	8579.42
901.902	8570.38
902.216	8485.19
902.531	8517.28
902.845	8454.23
903.159	8416.26
903.473	8361.12
903.787	8331.07
904.101	8303.72
904.415	8213.1
904.729	8209.26
905.042	8195.48
905.356	8204.52
905.67	8196.83
905.984	8130.62
906.297	8046.55
906.611	8066.89
906.924	8066.21
907.237	7995.26
907.551	7980.57
907.864	7875.94
908.177	7900.8
908.491	7891.76
908.804	7797.75
909.117	7795.26
909.43	7736.05
909.743	7691.99
910.056	7706.22
910.368	7672.33
910.681	7593.23
910.994	7605.21
911.307	7575.61
911.619	7540.8
911.932	7510.07
912.244	7423.07
912.557	7483.86
912.869	7401.15
913.181	7377.64
913.494	7343.75
913.806	7292.22
914.118	7299
914.43	7201.6
914.742	7197.54
915.054	7212.45
915.366	7169.29
915.678	7084.55
915.99	7153.02
916.302	7043.19
916.613	7049.29
916.925	7000.03
917.236	6980.59
917.548	6973.14
917.859	6954.61
918.171	6948.05
918.482	6827.38
918.794	6843.42
919.105	6870.09
919.416	6783.08
919.727	6783.08
920.038	6781.95
920.349	6680.04
920.66	6673.26
920.971	6656.53
921.282	6678.91
921.593	6596.65
921.903	6598
922.214	6579.02
922.525	6559.36
922.835	6528.85
923.146	6455.41
923.456	6511
923.767	6443.88
924.077	6453.38
924.387	6351.23
924.697	6307.39
925.008	6349.2
925.318	6307.39
925.628	6304
925.938	6277.11
926.248	6209.99
926.558	6237.34
926.867	6181.97
927.177	6162.08
927.487	6084.8
927.796	6077.34
928.106	6080.96
928.416	6025.36
928.725	6000.51
929.034	5990.34
929.344	5967.51
929.653	5964.57
929.962	5899.27
930.271	5903.56
930.581	5881.41
930.89	5829.21
931.199	5841.87
931.508	5771.13
931.817	5743.34
932.125	5791.02
932.434	5730.68
932.743	5710.8
933.051	5687.29
933.36	5660.63
933.669	5655.2
933.977	5596.67
934.286	5599.61
934.594	5564.36
934.902	5577.01
935.21	5507.86
935.519	5466.96
935.827	5514.64
936.135	5455.21
936.443	5413.4
936.751	5421.09
937.059	5417.92
937.367	5355.33
937.674	5342.22
937.982	5320.75
938.29	5299.73
938.597	5313.74
938.905	5214.99
939.213	5219.96
939.52	5219.74
939.827	5215.89
940.135	5189.91
940.442	5093.64
940.749	5168.89
941.056	5110.36
941.363	5070.14
941.67	5040.98
941.977	5025.84
942.284	4933.87
942.591	5011.83
942.898	4943.36
943.205	4990.36
943.511	4925.51
943.818	4895.45
944.125	4877.82
944.431	4885.51
944.738	4879.41
945.044	4805.28
945.35	4835.11
945.657	4802.57
945.963	4750.82
946.269	4718.51
946.575	4755.57
946.881	4662.69
947.187	4667.89
947.493	4654.78
947.799	4618.62
948.105	4610.94
948.41	4603.71
948.716	4586.53
949.022	4553.31
949.327	4555.12
949.633	4494.1
949.938	4513.31
950.244	4516.48
950.549	4441.45
950.854	4464.05
951.16	4409.14
951.465	4376.59
951.77	4375.69
952.075	4391.96
952.38	4357.39
952.685	4318.74
952.99	4304.05
953.294	4263.38
953.599	4313.09
953.904	4217.73
954.209	4267.9
954.513	4238.29
954.818	4226.77
955.122	4237.16
955.426	4197.84
955.731	4192.64
956.035	4164.62
956.339	4117.17
956.643	4099.99
956.948	4070.61
957.252	4079.2
957.556	4041.46
957.86	4020.9
958.163	4001.91
958.467	4004.17
958.771	3977.73
959.075	3976.6
959.378	3944.29
959.682	3940.9
959.985	3929.37
960.289	3881.24
960.592	3900.9
960.896	3885.08
961.199	3873.56
961.502	3869.26
961.805	3812.32
962.108	3790.39
962.411	3799.89
962.714	3744.29
963.017	3740.68
963.32	3739.55
963.623	3716.05
963.926	3719.66
964.228	3688.25
964.531	3653.22
964.833	3677.18
965.136	3592.43
965.438	3627.69
965.741	3603.96
966.043	3587.91
966.345	3586.56
966.648	3565.32
966.95	3556.73
967.252	3544.07
967.554	3558.31
967.856	3451.19
968.158	3473.79
968.46	3456.62
968.761	3475.6
969.063	3415.26
969.365	3421.59
969.666	3395.6
969.968	3398.09
970.269	3407.58
970.571	3349.73
970.872	3342.5
971.174	3318.32
971.475	3348.6
971.776	3309.28
972.077	3314.02
972.378	3272.67
972.679	3287.58
972.98	3269.96
973.281	3234.48
973.582	3225.66
973.883	3188.15
974.183	3201.48
974.484	3180.69
974.785	3154.48
975.085	3181.37
975.386	3176.4
975.686	3098.44
975.986	3102.5
976.287	3124.88
976.587	3101.83
976.887	3067.93
977.187	3083.97
977.487	3023.18
977.787	3046.46
978.087	2984.54
978.387	2989.96
978.687	2998.55
978.987	2963.98
979.286	2941.38
979.586	2960.59
979.885	2946.12
980.185	2940.47
980.484	2921.04
980.784	2911.55
981.083	2886.92
981.382	2877.88
981.682	2871.1
981.981	2865.22
982.28	2828.39
982.579	2822.74
982.878	2818.89
983.177	2798.78
983.475	2794.71
983.774	2754.49
984.073	2776.41
984.372	2716.98
984.67	2732.57
984.969	2737.77
985.267	2720.82
985.566	2684.44
985.864	2649.18
986.162	2670.2
986.461	2663.19
986.759	2652.57
987.057	2616.64
987.355	2607.6
987.653	2579.13
987.951	2605.34
988.249	2613.48
988.547	2597.88
988.844	2563.31
989.142	2547.72
989.44	2559.69
989.737	2516.3
990.035	2516.08
990.332	2493.25
990.63	2490.54
990.927	2480.82
991.224	2428.17
991.521	2478.79
991.819	2443.54
992.116	2406.48
992.413	2425.68
992.71	2403.54
993.006	2424.78
993.303	2376.65
993.6	2373.03
993.897	2369.19
994.193	2354.95
994.49	2349.3
994.787	2356.99
995.083	2324.67
995.379	2325.35
995.676	2282.64
995.972	2300.26
996.268	2277.44
996.565	2242.19
996.861	2248.97
997.157	2225.46
997.453	2214.62
997.749	2225.01
998.044	2182.98
998.34	2192.24
998.636	2205.13
998.932	2165.13
999.227	2155.18
999.523	2128.97
999.818	2166.03
1000.114	2106.37
1000.409	2130.55
1000.704	2103.89
1001	2107.28
1001.295	2102.53
1001.59	2072.7
1001.885	2087.16
1002.18	2049.42
1002.475	2013.94
1002.77	2047.39
1003.065	2008.75
1003.359	1992.48
1003.654	2004.45
1003.949	1956.09
1004.243	1953.83
1004.538	1960.16
1004.832	1969.43
1005.127	1953.83
1005.421	1944.57
1005.715	1933.95
1006.009	1928.3
1006.304	1900.05
1006.598	1903.66
1006.892	1879.03
1007.186	1889.88
1007.48	1858.02
1007.773	1861.18
1008.067	1853.5
1008.361	1827.96
1008.655	1822.99
1008.948	1798.81
1009.242	1795.19
1009.535	1785.7
1009.829	1760.62
1010.122	1764.91
1010.415	1748.87
1010.708	1760.17
1011.001	1723.33
1011.295	1719.49
1011.588	1724.69
1011.881	1677.91
1012.173	1714.97
1012.466	1696.89
1012.759	1698.25
1013.052	1660.06
1013.344	1648.3
1013.637	1653.5
1013.93	1605.82
1014.222	1646.72
1014.514	1635.88
1014.807	1631.81
1015.099	1599.27
1015.391	1607.18
1015.683	1608.31
1015.976	1585.71
1016.268	1556.33
1016.56	1552.94
1016.851	1552.26
1017.143	1542.54
1017.435	1532.15
1017.727	1508.65
1018.018	1511.13
1018.31	1484.01
1018.602	1501.87
1018.893	1438.37
1019.185	1454.86
1019.476	1451.02
1019.767	1443.34
1020.058	1426.39
1020.35	1463
1020.641	1429.78
1020.932	1420.06
1021.223	1410.34
1021.514	1394.75
1021.804	1392.72
1022.095	1379.84
1022.386	1354.98
1022.677	1348.88
1022.967	1344.36
1023.258	1332.83
1023.548	1336.67
1023.839	1319.27
1024.129	1306.84
1024.419	1290.12
1024.709	1271.14
1025	1325.6
1025.29	1271.82
1025.58	1272.95
1025.87	1270.23
1026.16	1244.25
1026.449	1261.87
1026.739	1260.29
1027.029	1238.37
1027.319	1218.48
1027.608	1241.76
1027.898	1201.54
1028.187	1201.54
1028.477	1201.54
1028.766	1223.91
1029.055	1212.16
1029.344	1165.38
1029.634	1174.19
1029.923	1156.11
1030.212	1146.85
1030.501	1150.46
1030.79	1139.39
1031.078	1112.95
1031.367	1101.65
1031.656	1110.69
1031.945	1106.85
1032.233	1116.11
1032.522	1060.75
1032.81	1092.16
1033.099	1063.91
1033.387	1077.92
1033.675	1063.91
1033.963	1058.94
1034.251	1059.17
1034.54	1050.58
1034.828	1015.1
1035.116	1045.16
1035.403	1031.15
1035.691	1006.51
1035.979	1007.87
1036.267	1001.99
1036.554	986.17
1036.842	1020.3
1037.129	982.56
1037.417	959.96
1037.704	975.33
1037.992	968.32
1038.279	972.84
1038.566	971.71
1038.853	971.71
1039.14	971.71
