Data from hue_28_FLMS001491_00020.txt Node
Date: Tue Feb 07 17:16:56 GMT 2017
User: dcchb
Spectrometer: FLMS00149
Trigger mode: 0
Integration Time (sec): 2.000000E-2
Scans to average: 10
Electric dark correction enabled: true
Nonlinearity correction enabled: false
Boxcar width: 0
XAxis mode: Wavelengths
Number of Pixels in Spectrum: 2048
>>>>>Begin Spectral Data<<<<<
341.393	-20.47
341.776	-20.47
342.16	-20.47
342.543	-40.8
342.927	-89.84
343.31	-57.53
343.693	-70.18
344.077	-76.06
344.46	-49.62
344.843	-69.96
345.226	-52.78
345.61	-34.93
345.993	-12.78
346.376	-9.84
346.759	-9.17
347.142	22.02
347.525	56.14
347.908	73.54
348.291	86.2
348.674	94.56
349.057	110.38
349.44	128.01
349.823	140.66
350.206	176.59
350.588	202.81
350.971	213.43
351.354	228.12
351.737	226.08
352.119	232.86
352.502	291.84
352.884	268.34
353.267	283.71
353.65	290.49
354.032	309.02
354.414	328.9
354.797	313.76
355.179	305.18
355.562	335.01
355.944	347.21
356.326	339.52
356.709	326.42
357.091	337.72
357.473	359.19
357.855	356.47
358.238	332.75
358.62	358.73
359.002	344.72
359.384	359.41
359.766	358.51
360.148	343.82
360.53	339.98
360.912	335.46
361.294	339.3
361.676	339.75
362.057	347.66
362.439	353.99
362.821	340.43
363.203	331.62
363.584	326.19
363.966	321.22
364.348	330.03
364.729	327.77
365.111	308.34
365.493	315.12
365.874	323.48
366.256	341.56
366.637	325.51
367.019	322.8
367.4	317.83
367.781	325.51
368.163	316.7
368.544	318.73
368.925	318.28
369.306	332.75
369.688	321.9
370.069	306.31
370.45	305.63
370.831	334.33
371.212	317.6
371.593	284.61
371.974	309.92
372.355	311.28
372.736	323.48
373.117	315.8
373.498	313.54
373.879	321.9
374.26	323.03
374.641	283.71
375.021	314.67
375.402	324.38
375.783	323.03
376.163	325.97
376.544	333.88
376.925	319.64
377.305	318.28
377.686	320.32
378.066	341.33
378.447	321.67
378.827	332.75
379.208	320.32
379.588	349.92
379.968	331.62
380.349	372.97
380.729	317.38
381.109	334.1
381.489	329.58
381.87	335.01
382.25	335.68
382.63	347.21
383.01	339.52
383.39	350.37
383.77	338.62
384.15	336.81
384.53	347.21
384.91	347.21
385.29	316.7
385.67	341.33
386.049	347.66
386.429	353.54
386.809	360.09
387.189	359.19
387.568	371.84
387.948	348.79
388.328	355.57
388.707	365.96
389.087	368
389.466	358.73
389.846	358.06
390.225	358.96
390.605	369.13
390.984	361.22
391.363	362.12
391.743	392.18
392.122	382.01
392.501	360.32
392.881	376.13
393.26	368
393.639	360.99
394.018	369.35
394.397	381.56
394.776	370.03
395.155	372.29
395.534	389.02
395.913	396.7
396.292	377.94
396.671	400.99
397.05	379.75
397.429	397.6
397.808	377.49
398.186	375.46
398.565	380.2
398.944	374.78
399.323	407.32
399.701	399.64
400.08	399.18
400.458	402.35
400.837	388.79
401.215	395.34
401.594	391.05
401.972	385.4
402.351	406.42
402.729	405.96
403.107	400.09
403.486	421.56
403.864	434.66
404.242	420.43
404.62	445.96
404.999	421.56
405.377	429.24
405.755	400.77
406.133	404.61
406.511	435.57
406.889	430.14
407.267	418.62
407.645	438.73
408.023	430.37
408.401	433.08
408.779	439.86
409.156	433.99
409.534	450.48
409.912	448
410.29	436.47
410.667	450.48
411.045	427.21
411.422	460.88
411.8	440.99
412.178	462.23
412.555	448.45
412.933	455.68
413.31	472.85
413.687	475.79
414.065	490.93
414.442	466.3
414.819	501.33
415.197	480.99
415.574	493.65
415.951	512.63
416.328	494.32
416.705	501.33
417.082	492.06
417.46	507.66
417.837	507.88
418.214	504.49
418.591	483.48
418.967	495.91
419.344	511.27
419.721	518.5
420.098	525.73
420.475	526.41
420.852	489.35
421.228	526.41
421.605	551.72
421.982	530.03
422.358	544.27
422.735	526.41
423.111	530.93
423.488	539.75
423.864	531.84
424.241	555.56
424.617	534.1
424.994	544.27
425.37	549.01
425.746	558.95
426.123	539.07
426.499	558.95
426.875	562.57
427.251	553.08
427.627	591.72
428.003	567.54
428.379	575.9
428.756	586.52
429.132	580.2
429.507	584.26
429.883	600.31
430.259	603.47
430.635	600.99
431.011	603.92
431.387	627.88
431.763	615.68
432.138	622
432.514	624.04
432.89	633.98
433.265	645.28
433.641	643.92
434.016	643.25
434.392	638.05
434.767	678.5
435.143	669.91
435.518	651.38
435.894	689.57
436.269	671.27
436.644	668.33
437.02	696.35
437.395	693.41
437.77	704.94
438.145	709.91
438.52	700.87
438.895	717.37
439.271	710.14
439.646	741.32
440.021	709.46
440.395	718.72
440.77	722.11
441.145	749.23
441.52	756.92
441.895	746.29
442.27	744.71
442.645	743.13
443.019	792.62
443.394	748.55
443.769	763.24
444.143	760.08
444.518	779.29
444.892	802.11
445.267	771.6
445.641	773.86
446.016	777.03
446.39	790.59
446.764	799.4
447.139	816.57
447.513	791.72
447.887	801.21
448.262	790.36
448.636	817.7
449.01	820.64
449.384	845.27
449.758	837.82
450.132	838.72
450.506	839.4
450.88	855.9
451.254	846.4
451.628	866.29
452.002	873.52
452.376	877.36
452.75	869.68
453.123	870.13
453.497	877.59
453.871	895.44
454.244	911.94
454.618	921.2
454.992	911.04
455.365	906.06
455.739	965.27
456.112	955.1
456.486	949.23
456.859	963.92
457.232	954.65
457.606	963.46
457.979	1002.78
458.352	987.64
458.725	1003.46
459.099	1015.67
459.472	1032.84
459.845	1039.85
460.218	1035.55
460.591	1047.98
460.964	1062.9
461.337	1094.53
461.71	1099.5
462.083	1134.98
462.456	1121.2
462.829	1097.25
463.201	1151.03
463.574	1136.34
463.947	1156.45
464.32	1156.9
464.692	1178.15
465.065	1177.02
465.438	1209.11
465.81	1213.4
466.183	1220.86
466.555	1241.2
466.928	1241.87
467.3	1276.22
467.672	1265.15
468.045	1308.77
468.417	1291.36
468.789	1331.82
469.161	1379.05
469.534	1361.19
469.906	1400.74
470.278	1385.15
470.65	1427.41
471.022	1438.25
471.394	1452.94
471.766	1490.91
472.138	1502.88
472.51	1521.87
472.882	1543.79
473.253	1608.87
473.625	1592.15
473.997	1617.68
474.369	1662.43
474.74	1652.03
475.112	1702.65
475.484	1711.92
475.855	1785.81
476.227	1789.43
476.598	1817.23
476.97	1841.63
477.341	1871.46
477.713	1924.34
478.084	1920.73
478.455	1999.37
478.827	2023.77
479.198	2119.37
479.569	2091.8
479.94	2125.47
480.311	2189.87
480.682	2240.72
481.053	2285.24
481.424	2306.7
481.795	2357.33
482.166	2379.47
482.537	2432.8
482.908	2518.22
483.279	2526.59
483.65	2570.2
484.021	2633.7
484.391	2688.39
484.762	2696.53
485.133	2767.71
485.503	2835.96
485.874	2880.02
486.244	2905.79
486.615	3016.06
486.985	3032.79
487.356	3109.85
487.726	3148.26
488.097	3195.5
488.467	3245.66
488.837	3308.26
489.207	3306
489.578	3414.02
489.948	3455.38
490.318	3510.74
490.688	3529.05
491.058	3614.92
491.428	3691.98
491.798	3722.94
492.168	3813.11
492.538	3849.49
492.908	3880
493.278	3920.67
493.648	3956.38
494.017	4015.81
494.387	4088.8
494.757	4108.69
495.126	4167.67
495.496	4219.42
495.866	4256.94
496.235	4291.96
496.605	4399.31
496.974	4415.8
497.344	4449.02
497.713	4472.52
498.082	4540.32
498.452	4576.25
498.821	4561.11
499.19	4624.16
499.559	4635.01
499.928	4732.63
500.298	4769.01
500.667	4758.17
501.036	4803.36
501.405	4849.69
501.774	4873.87
502.143	4933.53
502.512	4916.58
502.88	5034.99
503.249	4969.91
503.618	5047.2
503.987	5050.36
504.356	5102.34
504.724	5087.42
505.093	5127.87
505.462	5181.21
505.83	5194.09
506.199	5211.94
506.567	5305.5
506.936	5331.03
507.304	5411.71
507.672	5373.06
508.041	5456.9
508.409	5397.7
508.777	5513.4
509.145	5535.55
509.514	5509.78
509.882	5559.73
510.25	5556.56
510.618	5632.49
510.986	5613.74
511.354	5679.27
511.722	5741.42
512.09	5792.04
512.458	5753.62
512.826	5794.75
513.193	5803.11
513.561	5858.25
513.929	5880.62
514.297	5940.73
514.664	6041.52
515.032	5984.12
515.4	6011.69
515.767	6070.67
516.135	6059.37
516.502	6042.88
516.869	6080.16
517.237	6126.49
517.604	6152.25
517.972	6154.74
518.339	6193.16
518.706	6202.65
519.073	6260.5
519.44	6236.09
519.808	6305.47
520.175	6280.39
520.542	6352.7
520.909	6430.21
521.276	6361.29
521.643	6472.47
522.009	6488.97
522.376	6502.75
522.743	6542.98
523.11	6614.61
523.477	6656.2
523.843	6641.51
524.21	6743.65
524.577	6773.25
524.943	6796.3
525.31	6863.87
525.676	6864.55
526.043	6929.18
526.409	6904.55
526.776	7003.53
527.142	7018.67
527.508	6984.77
527.874	7060.93
528.241	7066.58
528.607	7121.27
528.973	7235.16
529.339	7139.8
529.705	7222.51
530.071	7330.53
530.437	7344.54
530.803	7370.75
531.169	7430.41
531.535	7409.85
531.901	7438.55
532.267	7456.85
532.632	7514.93
532.998	7550.86
533.364	7592.22
533.73	7683.96
534.095	7655.04
534.461	7682.16
534.826	7771.42
535.192	7791.53
535.557	7879.44
535.923	7821.81
536.288	7871.53
536.653	7918.08
537.019	7888.48
537.384	7999.89
537.749	8018.87
538.114	8019.32
538.479	7995.37
538.845	8054.12
539.21	8016.16
539.575	8092.77
539.94	8175.7
540.305	8217.96
540.67	8238.75
541.034	8288.47
541.399	8313.33
541.764	8267.45
542.129	8302.03
542.494	8365.98
542.858	8444.4
543.223	8368.69
543.587	8510.84
543.952	8518.07
544.316	8518.29
544.681	8525.75
545.045	8651.4
545.41	8722.13
545.774	8678.74
546.138	8687.1
546.503	8709.02
546.867	8743.82
547.231	8847.32
547.595	8810.04
547.959	8899.75
548.324	8891.84
548.688	8870.37
549.052	8918.96
549.416	8949.47
549.779	8986.76
550.143	9040.31
550.507	9059.07
550.871	9034.21
551.235	9071.72
551.599	9176.13
551.962	9161.89
552.326	9189.91
552.689	9300.19
553.053	9215.22
553.417	9330.93
553.78	9402.11
554.143	9374.32
554.507	9347.2
554.87	9409.12
555.234	9539.96
555.597	9461.32
555.96	9473.75
556.323	9493.41
556.686	9600.07
557.05	9612.73
557.413	9574.31
557.776	9676.91
558.139	9628.55
558.502	9721.2
558.865	9706.51
559.228	9845.94
559.59	9815.43
559.953	9799.84
560.316	9900.63
560.679	9927.3
561.041	10010.68
561.404	10037.35
561.767	10105.82
562.129	10040.06
562.492	10137.69
562.854	10112.6
563.217	10176.78
563.579	10228.76
563.941	10247.51
564.304	10303.56
564.666	10341.97
565.028	10394.18
565.39	10370.45
565.753	10425.14
566.115	10454.06
566.477	10527.73
566.839	10523.89
567.201	10599.59
567.563	10592.14
567.925	10682.98
568.287	10685.47
568.648	10664.9
569.01	10712.81
569.372	10742.64
569.734	10798.01
570.095	10836.42
570.457	10951.22
570.819	11006.82
571.18	11045.01
571.542	11100.6
571.903	11062.63
572.265	11177.43
572.626	11179.24
572.987	11212.69
573.349	11280.25
573.71	11399.12
574.071	11414.26
574.432	11520.25
574.794	11590.53
575.155	11634.14
575.516	11640.24
575.877	11770.64
576.238	11860.58
576.599	11922.5
576.96	12032.78
577.32	12028.48
577.681	12249.49
578.042	12237.74
578.403	12371.07
578.763	12483.84
579.124	12564.06
579.485	12755.24
579.845	12905.75
580.206	12892.87
580.566	13050.15
580.927	13153.2
581.287	13310.71
581.648	13427.32
582.008	13648.55
582.368	13752.51
582.728	13891.03
583.089	14101.2
583.449	14168.09
583.809	14426.61
584.169	14531.24
584.529	14846.94
584.889	15064.11
585.249	15123.09
585.609	15355.4
585.969	15604.43
586.329	15744.77
586.688	15960.13
587.048	16203.97
587.408	16427.69
587.768	16704.97
588.127	16933.66
588.487	17176.37
588.846	17534.78
589.206	17626.98
589.565	17926.63
589.925	18200.3
590.284	18474.42
590.643	18727.74
591.003	19187.62
591.362	19391.91
591.721	19606.81
592.08	19917.09
592.44	20276.63
592.799	20493.35
593.158	20744.64
593.517	21037.74
593.876	21202.93
594.235	21480.89
594.593	21797.94
594.952	22199.06
595.311	22438.38
595.67	22875.43
596.029	23246.72
596.387	23496.2
596.746	23865.23
597.104	23992.69
597.463	24316.75
597.822	24645.1
598.18	24882.16
598.538	25141.36
598.897	25641.68
599.255	25677.62
599.613	26362.34
599.972	26410.25
600.33	26727.31
600.688	26832.61
601.046	27268.99
601.404	27680.73
601.762	27868.74
602.12	28364.55
602.478	28544.89
602.836	28721.15
603.194	28880.92
603.552	29193.46
603.91	29317.75
604.268	29710.73
604.625	29860.56
604.983	30250.38
605.341	30446.98
605.698	30724.94
606.056	31080.86
606.413	31216.68
606.771	31549.1
607.128	31911.58
607.485	31868.87
607.843	32211.46
608.2	32481.73
608.557	32742.06
608.914	32871.1
609.272	33155.61
609.629	33496.85
609.986	33778.19
610.343	33682.38
610.7	34355.35
611.057	34314
611.414	34410.04
611.771	34655.01
612.127	34908.56
612.484	35126.41
612.841	35441.65
613.198	35378.15
613.554	35598.48
613.911	35807.74
614.267	36010.9
614.624	36126.83
614.98	36419.03
615.337	36763.43
615.693	36782.18
616.05	36979.24
616.406	37211.78
616.762	37228.27
617.118	37388.95
617.475	37460.81
617.831	37707.58
618.187	37724.53
618.543	38003.85
618.899	38294.46
619.255	38225.08
619.611	38433.44
619.967	38613.09
620.323	38687.9
620.678	38757.72
621.034	38748.91
621.39	38940.77
621.746	38944.61
622.101	39424.15
622.457	39175.11
622.812	39260.76
623.168	39633.41
623.523	39668.66
623.879	39719.51
624.234	39547.99
624.589	39745.95
624.945	39969.9
625.3	39973.74
625.655	40074.75
626.01	40264.12
626.365	40187.74
626.72	40254.63
627.075	40319.26
627.43	40395.19
627.785	40346.16
628.14	40566.72
628.495	40634.74
628.85	40711.12
629.205	40454.4
629.559	40900.94
629.914	40745.69
630.269	40804.68
630.623	40743.66
630.978	40660.27
631.332	40948.17
631.687	40995.18
632.041	40918.35
632.396	40902.07
632.75	40894.39
633.104	41055.29
633.459	40835.41
633.813	40807.61
634.167	40958.8
634.521	41047.16
634.875	41090.54
635.229	40948.17
635.583	40851.68
635.937	40955.18
636.291	40906.14
636.645	41034.73
636.999	40947.04
637.352	41060.26
637.706	40850.78
638.06	41064.78
638.413	41058.91
638.767	40924.67
639.121	40915.41
639.474	40770.33
639.828	40783.21
640.181	40831.12
640.534	40841.51
640.888	40756.99
641.241	40744.56
641.594	40742.53
641.947	40757.22
642.301	40838.12
642.654	40773.26
643.007	40926.71
643.36	40727.84
643.713	40639.71
644.066	40725.36
644.419	40757.45
644.771	40311.81
645.124	40088.54
645.477	40100.74
645.83	39825.27
646.182	39754.08
646.535	39599.28
646.888	39619.17
647.24	39308.22
647.593	39746.4
647.945	39635.89
648.298	39351.61
648.65	39385.28
649.002	39291.04
649.355	39573.75
649.707	39484.94
650.059	39676.34
650.411	40168.99
650.763	40118.37
651.115	40512.48
651.467	40399.26
651.819	40531.24
652.171	40264.58
652.523	40258.7
652.875	40257.12
653.227	40028.42
653.578	40434.06
653.93	40363.33
654.282	40092.83
654.633	40139.61
654.985	40190.45
655.337	40241.53
655.688	40204.69
656.039	40382.31
656.391	40003.57
656.742	40095.77
657.094	40133.96
657.445	40241.07
657.796	40128.99
658.147	40061.42
658.498	40071.59
658.849	40085.37
659.2	40051.7
659.551	39954.53
659.902	40113.17
660.253	40082.66
660.604	40004.7
660.955	39809.45
661.306	40073.62
661.656	40010.8
662.007	40101.42
662.358	40053.06
662.708	39915.66
663.059	40004.92
663.409	39742.33
663.76	39963.12
664.11	40020.52
664.461	40234.97
664.811	39999.27
665.161	40049.44
665.511	39971.7
665.862	39863.68
666.212	39956.56
666.562	40088.76
666.912	39818.03
667.262	39930.35
667.612	40023.68
667.962	40042.66
668.312	39740.52
668.662	40163.56
669.011	39922.21
669.361	39971.7
669.711	39957.92
670.06	39835.21
670.41	39793.63
670.76	39781.88
671.109	39982.1
671.459	39821.88
671.808	39600.64
672.157	39865.27
672.507	39482.9
672.856	39594.99
673.205	39628.21
673.554	39713.4
673.904	39721.77
674.253	39826.4
674.602	39730.13
674.951	39235.68
675.3	38820.32
675.649	39623.46
675.998	39486.97
676.346	39600.64
676.695	39700.98
677.044	39462.34
677.393	39528.55
677.741	39592.5
678.09	39417.37
678.438	39422.11
678.787	39453.07
679.135	39465.05
679.484	39239.75
679.832	39319.52
680.181	39209.92
680.529	39170.82
680.877	39238.62
681.225	39091.05
681.573	39346.18
681.922	39023.03
682.27	38929.7
682.618	38918.62
682.966	38836.14
683.314	38960.88
683.661	38889.47
684.009	38622.13
684.357	38512.31
684.705	38435.92
685.053	38577.39
685.4	38462.82
685.748	38252.88
686.095	38307.57
686.443	38197.29
686.79	38201.81
687.138	38312.54
687.485	38178.3
687.832	38159.32
688.18	38088.36
688.527	37910.51
688.874	37907.8
689.221	37733.34
689.568	37653.8
689.915	37628.94
690.262	37557.53
690.609	37523.41
690.956	37334.71
691.303	37320.02
691.65	37286.58
691.997	37246.8
692.344	37070.54
692.69	36828.06
693.037	37075.96
693.383	36708.74
693.73	36899.47
694.077	36615.86
694.423	36643.2
694.769	36499.48
695.116	36468.29
695.462	36469.65
695.808	36381.06
696.155	36341.97
696.501	36072.14
696.847	35977.68
697.193	35750.12
697.539	36059.26
697.885	35669.22
698.231	35552.84
698.577	35550.35
698.923	35599.84
699.269	35447.3
699.614	35320.53
699.96	35160.3
700.306	35210.7
700.651	35113.75
700.997	35022.68
701.342	34967.32
701.688	34751.73
702.033	34792.4
702.379	34672.63
702.724	34613.2
703.069	34640.54
703.415	34264.51
703.76	34373.21
704.105	34395.35
704.45	34260.21
704.795	34051.41
705.14	34049.15
705.485	34061.35
705.83	33796.95
706.175	33850.51
706.52	33745.88
706.865	33593.57
707.209	33521.25
707.554	33511.76
707.899	33564.64
708.243	33438.09
708.588	33377.07
708.932	33077.87
709.277	33023.86
709.621	33067.48
709.966	32890.53
710.31	32885.34
710.654	32763.98
710.998	32842.17
711.342	32722.85
711.687	32687.83
712.031	32573.48
712.375	32446.25
712.719	32573.71
713.063	32439.02
713.407	32548.85
713.75	32215.07
714.094	32306.14
714.438	32105.02
714.782	32152.7
715.125	31869.09
715.469	31968.52
715.812	31827.96
716.156	31669.77
716.499	31729.43
716.843	31752.71
717.186	31546.39
717.53	31759.49
717.873	31717.46
718.216	31604.92
718.559	31516.11
718.902	31343.23
719.246	31359.05
719.589	31292.16
719.932	31189.79
720.275	31164.25
720.617	31119.51
720.96	31035.67
721.303	31119.96
721.646	31115.66
721.989	30833.64
722.331	30939.85
722.674	30817.82
723.016	30867.08
723.359	30817.14
723.701	30797.48
724.044	30697.14
724.386	30483.14
724.729	30588.67
725.071	30517.04
725.413	30552.52
725.755	30443.37
726.097	30369.24
726.439	30136.71
726.782	30178.74
727.124	30282.47
727.465	30163.6
727.807	30119.08
728.149	29986.66
728.491	30056.71
728.833	30049.03
729.175	29941.23
729.516	29909.37
729.858	29868.92
730.199	29768.36
730.541	29753.89
730.882	29766.77
731.224	29794.57
731.565	29642.26
731.906	29608.36
732.248	29766.1
732.589	29490.17
732.93	29475.71
733.271	29483.39
733.612	29446.1
733.953	29417.63
734.294	29345.54
734.635	29333.56
734.976	29226.22
735.317	29205.66
735.658	29180.57
735.999	29168.37
736.339	29099.45
736.68	29075.72
737.021	29046.11
737.361	28919.79
737.702	29148.48
738.042	28910.53
738.383	28880.7
738.723	28793.92
739.063	28843.18
739.404	28748.04
739.744	28787.14
740.084	28630.53
740.424	28757.99
740.764	28544.21
741.104	28682.06
741.444	28469.63
741.784	28451.78
742.124	28448.62
742.464	28434.83
742.804	28333.59
743.143	28287.04
743.483	28319.35
743.823	28114.61
744.162	28071.23
744.502	28258.11
744.841	27999.59
745.181	28168.85
745.52	28000.27
745.86	28001.4
746.199	28010.44
746.538	27975.86
746.877	27990.55
747.216	27954.62
747.556	27847.73
747.895	27917.56
748.234	27779.03
748.573	27791.46
748.911	27707.39
749.25	27672.82
749.589	27622.2
749.928	27578.13
750.267	27627.62
750.605	27669.2
750.944	27523.22
751.283	27486.16
751.621	27462.2
751.96	27240.29
752.298	27294.52
752.636	27277.57
752.975	27190.57
753.313	27027.64
753.651	27307.18
753.989	26970.69
754.327	26982.89
754.666	26777.93
755.004	26879.17
755.342	26891.37
755.679	26898.15
756.017	26645.95
756.355	26807.53
756.693	26516.01
757.031	26602.56
757.368	26477.59
757.706	26451.38
758.044	26322.12
758.381	26349.46
758.719	26252.52
759.056	26398.5
759.394	26090.71
759.731	25946.99
760.068	26002.35
760.405	25915.8
760.743	25810.72
761.08	25860.44
761.417	25832.87
761.754	25696.15
762.091	25668.58
762.428	25633.1
762.765	25391.3
763.102	25446.66
763.438	25379.32
763.775	25255.25
764.112	25295.93
764.449	25198.53
764.785	25087.8
765.122	25010.51
765.458	24942.95
765.795	24942.49
766.131	24956.73
766.467	24723.52
766.804	24721.48
767.14	24540.02
767.476	24615.27
767.812	24425.67
768.148	24524.43
768.485	24296.86
768.821	24179.58
769.157	24051.22
769.492	24115.4
769.828	23872.47
770.164	23770.1
770.5	23703.43
770.836	23734.84
771.171	23614.85
771.507	23545.47
771.842	23402.87
772.178	23294.63
772.513	23302.31
772.849	23183.44
773.184	23058.7
773.519	23175.99
773.855	23041.07
774.19	22923.79
774.525	22862.77
774.86	22813.28
775.195	22679.95
775.53	22693.51
775.865	22538.49
776.2	22356.8
776.535	22204.71
776.87	22299.4
777.205	22217.59
777.539	22043.81
777.874	22107.31
778.209	21926.53
778.543	21813.08
778.878	21676.59
779.212	21706.42
779.547	21572.19
779.881	21652.41
780.215	21411.29
780.55	21421
780.884	21263.04
781.218	21284.51
781.552	21312.31
781.886	21187.34
782.22	20948.7
782.554	21025.76
782.888	20835.48
783.222	20722.72
783.556	20670.29
783.889	20524.53
784.223	20420.35
784.557	20461.48
784.89	20515.27
785.224	20313.24
785.557	20248.15
785.891	20161.15
786.224	20159.57
786.558	20131.55
786.891	19870.31
787.224	19875.51
787.557	19819.69
787.891	19800.93
788.224	19852.46
788.557	19707.83
788.89	19725.46
789.223	19567.27
789.556	19470.32
789.888	19494.28
790.221	19413.6
790.554	19189.65
790.887	19171.8
791.219	19144
791.552	19048.64
791.884	18951.92
792.217	18898.36
792.549	18871.02
792.882	18778.36
793.214	18658.37
793.546	18720.96
793.879	18541.08
794.211	18547.63
794.543	18558.48
794.875	18468.77
795.207	18523.68
795.539	18402.78
795.871	18344.7
796.203	18141.99
796.535	18042.11
796.867	18081.66
797.198	18088.44
797.53	17979.74
797.862	17875.34
798.193	17941.1
798.525	17833.98
798.856	17776.81
799.188	17652.29
799.519	17572.74
799.85	17465.4
800.182	17538.62
800.513	17439.64
800.844	17345.18
801.175	17425.18
801.506	17367.33
801.837	17276.25
802.168	17243.04
802.499	17159.42
802.83	17064.28
803.161	17035.36
803.491	17038.07
803.822	16956.49
804.153	16859.77
804.483	16812.99
804.814	16652.32
805.145	16734.35
805.475	16666.78
805.805	16573.45
806.136	16546.1
806.466	16482.38
806.796	16437.18
807.126	16382.94
807.457	16430.18
807.787	16338.88
808.117	16253.68
808.447	16302.95
808.777	16139.34
809.107	16220.92
809.436	16168.71
809.766	16104.99
810.096	16064.31
810.426	15980.92
810.755	16015.72
811.085	15997.64
811.414	15860.25
811.744	15758.33
812.073	15785.9
812.403	15769.85
812.732	15639.69
813.061	15660.93
813.39	15566.47
813.719	15535.51
814.049	15597.65
814.378	15487.15
814.707	15438.56
815.036	15399.24
815.365	15361.05
815.693	15195.86
816.022	15209.87
816.351	15283.54
816.68	15212.35
817.008	15230.88
817.337	15033.15
817.665	15054.84
817.994	15109.53
818.322	15120.83
818.651	14887.39
818.979	14885.81
819.307	14946.37
819.636	14879.71
819.964	14742.54
820.292	14808.07
820.62	14851.23
820.948	14696.44
821.276	14853.49
821.604	14662.09
821.932	14784.12
822.259	14726.04
822.587	14734.63
822.915	14655.53
823.243	14718.36
823.57	14745.7
823.898	14702.76
824.225	14637.23
824.553	14600.84
824.88	14669.32
825.207	14670.22
825.535	14655.98
825.862	14734.4
826.189	14616.21
826.516	14648.75
826.843	14672.71
827.17	14720.62
827.497	14700.28
827.824	14726.49
828.151	14670.45
828.478	14745.7
828.805	14698.24
829.131	14613.05
829.458	14667.28
829.785	14631.8
830.111	14638.58
830.438	14747.28
830.764	14612.37
831.09	14649.88
831.417	14560.85
831.743	14632.26
832.069	14546.16
832.395	14651.47
832.722	14477.46
833.048	14495.08
833.374	14592.94
833.7	14378.48
834.026	14515.65
834.351	14527.63
834.677	14494.18
835.003	14499.6
835.329	14466.61
835.654	14423.45
835.98	14434.75
836.306	14411.47
836.631	14312.26
836.956	14390.68
837.282	14391.81
837.607	14302.55
837.932	14185.04
838.258	14288.99
838.583	14201.53
838.908	14176.45
839.233	14161.76
839.558	14173.51
839.883	14094.87
840.208	14037.24
840.533	14026.17
840.858	14041.76
841.182	13994.08
841.507	14065.94
841.832	13900.3
842.156	13919.05
842.481	13863.69
842.805	13904.14
843.13	13806.06
843.454	13771.49
843.778	13787.31
844.103	13712.05
844.427	13694.43
844.751	13736.01
845.075	13705.95
845.399	13602.23
845.723	13610.81
846.047	13703.69
846.371	13468.45
846.695	13580.31
847.019	13320.2
847.343	13265.51
847.666	13130.6
847.99	13151.62
848.313	13200.88
848.637	13023.94
848.96	13046.54
849.284	12962.47
849.607	12915.24
849.931	12912.98
850.254	12839.08
850.577	12778.52
850.9	12718.18
851.223	12614.46
851.546	12597.51
851.869	12506.66
852.192	12532.88
852.515	12424.63
852.838	12437.29
853.161	12477.96
853.483	12275.03
853.806	12303.28
854.129	12308.25
854.451	12221.25
854.774	12156.62
855.096	12176.05
855.419	12069.39
855.741	12063.51
856.063	12001.37
856.385	11920.01
856.708	11971.99
857.03	11892.44
857.352	11914.81
857.674	11847.24
857.996	11766.57
858.318	11715.05
858.64	11660.58
858.961	11720.92
859.283	11590.53
859.605	11552.56
859.926	11633.92
860.248	11539
860.57	11497.2
860.891	11532.23
861.212	11484.32
861.534	11442.96
861.855	11417.88
862.176	11421.95
862.498	11388.73
862.819	11445.22
863.14	11360.48
863.461	11325.68
863.782	11309.41
864.103	11313.7
864.424	11252.46
864.745	11258.11
865.065	11172.91
865.386	11142.4
865.707	11158.68
866.027	11097.21
866.348	11075.74
866.668	11079.58
866.989	11096.98
867.309	11010.88
867.63	11061.28
867.95	10997.32
868.27	10884.78
868.59	11028.51
868.91	10926.37
869.23	10926.37
869.55	10826.93
869.87	10934.73
870.19	10900.6
870.51	10871
870.83	10881.39
871.15	10872.81
871.469	10825.12
871.789	10792.36
872.109	10807.27
872.428	10704.68
872.748	10769.53
873.067	10720.04
873.386	10725.01
873.706	10762.3
874.025	10644.56
874.344	10624.68
874.663	10677.11
874.982	10628.29
875.301	10631.68
875.62	10544.23
875.939	10496.09
876.258	10509.65
876.577	10519.14
876.896	10510.33
877.214	10489.31
877.533	10542.42
877.852	10459.03
878.17	10449.77
878.489	10512.14
878.807	10471.24
879.125	10425.14
879.444	10436.66
879.762	10403.67
880.08	10401.63
880.398	10319.83
880.716	10329.32
881.034	10369.09
881.352	10282.77
881.67	10301.97
881.988	10336.55
882.306	10223.78
882.624	10249.77
882.941	10108.99
883.259	10117.8
883.577	10095.43
883.894	10122.54
884.212	10068.08
884.529	10018.59
884.846	10022.21
885.164	10029.44
885.481	9965.94
885.798	9994.86
886.115	9876.68
886.432	9904.92
886.75	9864.47
887.067	9940.18
887.383	9784.02
887.7	9835.55
888.017	9800.97
888.334	9753.97
888.651	9696.79
888.967	9699.28
889.284	9680.52
889.6	9602.33
889.917	9608.66
890.233	9543.58
890.55	9576.12
890.866	9493.18
891.182	9545.16
891.498	9485.5
891.815	9443.92
892.131	9424.26
892.447	9378.61
892.763	9424.26
893.079	9300.19
893.395	9277.6
893.71	9276.47
894.026	9331.15
894.342	9293.19
894.657	9143.36
894.973	9163.7
895.289	9226.75
895.604	9071.95
895.92	9061.56
896.235	9027.88
896.55	8980.2
896.865	8983.59
897.181	8965.29
897.496	9013.2
897.811	8905.85
898.126	8920.77
898.441	8834.44
898.756	8843.71
899.071	8749.02
899.386	8766.65
899.7	8739.98
900.015	8739.98
900.33	8615.24
900.644	8629.02
900.959	8598.97
901.273	8552.42
901.588	8560.55
901.902	8493.66
902.216	8512.42
902.531	8432.87
902.845	8429.71
903.159	8364.17
903.473	8309.94
903.787	8323.27
904.101	8330.05
904.415	8295.93
904.729	8234.91
905.042	8189.94
905.356	8201.24
905.67	8136.61
905.984	8160.34
906.297	8121.47
906.611	8034.92
906.924	7996.72
907.237	8027.91
907.551	7964.86
907.864	7908.59
908.177	7877.41
908.491	7910.17
908.804	7806.45
909.117	7789.95
909.43	7786.79
909.743	7727.13
910.056	7806.45
910.368	7663.63
910.681	7604.64
910.994	7647.13
911.307	7629.73
911.619	7559
911.932	7519.9
912.244	7431.09
912.557	7479.9
912.869	7451.43
913.181	7427.93
913.494	7358.55
913.806	7334.14
914.118	7328.72
914.43	7315.61
914.742	7265.9
915.054	7217.99
915.366	7225.67
915.678	7150.19
915.99	7163.98
916.302	7080.14
916.613	7100.7
916.925	7024.32
917.236	7012.12
917.548	6997.88
917.859	6956.53
918.171	6944.1
918.482	6906.13
918.794	6844.44
919.105	6882.4
919.416	6813.03
919.727	6839.47
920.038	6764.67
920.349	6744.55
920.66	6681.73
920.971	6658.23
921.282	6684.67
921.593	6591.56
921.903	6559.47
922.214	6550.89
922.525	6516.09
922.835	6488.29
923.146	6445.58
923.456	6444.45
923.767	6400.38
924.077	6346.82
924.387	6368.07
924.697	6335.3
925.008	6326.03
925.318	6303.21
925.628	6219.14
925.938	6298.92
926.248	6194.29
926.558	6173.5
926.867	6152.93
927.177	6114.06
927.487	6058.7
927.796	6053.95
928.106	6044.91
928.416	5982.99
928.725	6035.87
929.034	5984.12
929.344	5942.54
929.653	5951.35
929.962	5841.75
930.271	5836.56
930.581	5844.24
930.89	5789.1
931.199	5739.61
931.508	5823.22
931.817	5768.08
932.125	5706.84
932.434	5756.78
932.743	5670.91
933.051	5668.65
933.36	5580.07
933.669	5560.63
933.977	5575.32
934.286	5557.92
934.594	5569.67
934.902	5546.17
935.21	5466.85
935.519	5469.33
935.827	5475.89
936.135	5425.72
936.443	5422.33
936.751	5351.82
937.059	5394.08
937.367	5311.6
937.674	5337.59
937.982	5331.26
938.29	5290.58
938.597	5251.71
938.905	5202
939.213	5183.24
939.52	5126.29
939.827	5173.52
940.135	5142.11
940.442	5113.18
940.749	5108.89
941.056	5103.69
941.363	5051.27
941.67	5026.63
941.977	5011.27
942.284	4986.18
942.591	4938.95
942.898	4925.17
943.205	4918.84
943.511	4916.35
943.818	4884.94
944.125	4870.48
944.431	4830.93
944.738	4795
945.044	4784.83
945.35	4766.98
945.657	4791.39
945.963	4694.89
946.269	4719.3
946.575	4688.34
946.881	4658.51
947.187	4638.17
947.493	4591.16
947.799	4599.3
948.105	4576.7
948.41	4591.62
948.716	4546.65
949.022	4524.73
949.327	4504.39
949.633	4477.5
949.938	4492.64
950.244	4450.6
950.549	4387.78
950.854	4401.34
951.16	4352.98
951.465	4357.05
951.77	4357.27
952.075	4347.78
952.38	4298.74
952.685	4342.13
952.99	4208.58
953.294	4225.07
953.599	4247.44
953.904	4248.35
954.209	4169.93
954.513	4174
954.818	4171.29
955.122	4114.34
955.426	4125.41
955.731	4171.29
956.035	4089.03
956.339	4062.82
956.643	4074.12
956.948	4007.23
957.252	4016.94
957.556	4007.23
957.86	4001.35
958.163	3972.88
958.467	3967.23
958.771	3968.58
959.075	3920.45
959.378	3904.85
959.682	3871.64
959.985	3896.95
960.289	3824.41
960.592	3816.04
960.896	3778.08
961.199	3802.71
961.502	3809.04
961.805	3747.8
962.108	3745.76
962.411	3764.97
962.714	3739.66
963.017	3699.21
963.32	3676.84
963.623	3680.91
963.926	3664.86
964.228	3611.3
964.531	3619.89
964.833	3604.3
965.136	3592.09
965.438	3553.68
965.741	3580.12
966.043	3527.69
966.345	3567.24
966.648	3531.31
966.95	3529.05
967.252	3507.8
967.554	3496.96
967.856	3482.95
968.158	3445.66
968.46	3432.33
968.761	3412.44
969.063	3390.52
969.365	3411.53
969.666	3366.79
969.968	3400.69
970.269	3313.01
970.571	3358.65
970.872	3299
971.174	3283.63
971.475	3276.85
971.776	3260.35
972.077	3276.17
972.378	3263.97
972.679	3231.43
972.98	3220.81
973.281	3209.96
973.582	3211.77
973.883	3156.85
974.183	3150.3
974.484	3190.52
974.785	3150.98
975.085	3108.72
975.386	3129.96
975.686	3078.44
975.986	3073.01
976.287	3106.01
976.587	3026.69
976.887	3029.17
977.187	3028.72
977.487	3000.25
977.787	2970.42
978.087	2975.39
978.387	2972
978.687	2978.33
978.987	2938.55
979.286	2915.28
979.586	2922.28
979.885	2892
980.185	2877.09
980.484	2869.85
980.784	2871.44
981.083	2852
981.382	2843.41
981.682	2819.91
981.981	2839.35
982.28	2785.34
982.579	2791.44
982.878	2786.92
983.177	2760.48
983.475	2716.41
983.774	2739.01
984.073	2699.91
984.372	2723.64
984.67	2712.8
984.969	2705.79
985.267	2682.74
985.566	2679.12
985.864	2690.42
986.162	2611.56
986.461	2654.04
986.759	2589.64
987.057	2598.45
987.355	2602.74
987.653	2601.84
987.951	2572.01
988.249	2544.66
988.547	2546.02
988.844	2560.71
989.142	2537.89
989.44	2546.92
989.737	2530.2
990.035	2522.52
990.332	2465.57
990.63	2439.36
990.927	2454.27
991.224	2471.9
991.521	2448.4
991.819	2409.3
992.116	2443.2
992.413	2417.66
992.71	2390.32
993.006	2370.88
993.303	2377.44
993.6	2368.4
993.897	2332.47
994.193	2314.16
994.49	2338.79
994.787	2330.66
995.083	2314.84
995.379	2263.99
995.676	2295.18
995.972	2270.77
996.268	2261.06
996.565	2303.77
996.861	2241.85
997.157	2252.7
997.453	2243.66
997.749	2227.38
998.044	2185.8
998.34	2204.11
998.636	2191
998.932	2154.17
999.227	2164.56
999.523	2150.1
999.818	2138.8
1000.114	2118.24
1000.409	2123.43
1000.704	2123.43
1001	2087.5
1001.295	2069.65
1001.59	2093.83
1001.885	2068.97
1002.18	2022.87
1002.475	2040.05
1002.77	2016.09
1003.065	2048.41
1003.359	2002.76
1003.654	1994.85
1003.949	2005.47
1004.243	1991.91
1004.538	1927.73
1004.832	1964.57
1005.127	1955.08
1005.421	1939.48
1005.715	1906.26
1006.009	1904.91
1006.304	1904.23
1006.598	1878.24
1006.892	1867.17
1007.186	1841.41
1007.48	1877.11
1007.773	1869.43
1008.067	1872.37
1008.361	1819.71
1008.655	1813.61
1008.948	1819.71
1009.242	1788.98
1009.535	1779.71
1009.829	1768.87
1010.122	1764.12
1010.415	1742.88
1010.708	1756.89
1011.001	1743.1
1011.295	1739.04
1011.588	1709.66
1011.881	1702.2
1012.173	1680.05
1012.466	1704.46
1012.759	1678.25
1013.052	1654.74
1013.344	1650.45
1013.637	1628.53
1013.93	1640.96
1014.222	1574.29
1014.514	1591.24
1014.807	1627.17
1015.099	1594.41
1015.391	1552.37
1015.683	1549.89
1015.976	1583.79
1016.268	1561.87
1016.56	1533.17
1016.851	1539.72
1017.143	1548.31
1017.435	1515.31
1017.727	1535.2
1018.018	1518.03
1018.31	1506.27
1018.602	1489.55
1018.893	1500.85
1019.185	1459.5
1019.476	1459.04
1019.767	1445.26
1020.058	1403.9
1020.35	1406.84
1020.641	1417.69
1020.932	1391.47
1021.223	1419.04
1021.514	1413.62
1021.804	1400.29
1022.095	1346.5
1022.386	1377.01
1022.677	1378.59
1022.967	1325.71
1023.258	1318.26
1023.548	1337.01
1023.839	1314.64
1024.129	1302.21
1024.419	1307.64
1024.709	1292.72
1025	1273.29
1025.29	1285.49
1025.58	1254.98
1025.87	1275.77
1026.16	1265.6
1026.449	1268.77
1026.739	1246.39
1027.029	1243
1027.319	1223.34
1027.608	1224.02
1027.898	1178.82
1028.187	1217.02
1028.477	1158.26
1028.766	1180.63
1029.055	1196.9
1029.344	1175.21
1029.634	1175.21
1029.923	1157.13
1030.212	1161.42
1030.501	1148.32
1030.79	1147.64
1031.078	1141.09
1031.367	1113.29
1031.656	1144.93
1031.945	1122.56
1032.233	1093.63
1032.522	1083.46
1032.81	1081.43
1033.099	1070.81
1033.387	1098.83
1033.675	1062.9
1033.963	1066.96
1034.251	1060.41
1034.54	1051.82
1034.828	1049.79
1035.116	1054.53
1035.403	1005.04
1035.691	1010.92
1035.979	992.62
1036.267	992.16
1036.554	990.13
1036.842	976.12
1037.129	958.72
1037.417	964.59
1037.704	959.4
1037.992	972.28
1038.279	944.25
1038.566	963.92
1038.853	963.92
1039.14	963.92
