Data from hue_10_FLMS001491_2.txt Node
Date: Mon Feb 06 15:31:18 GMT 2017
User: dcchb
Spectrometer: FLMS00149
Trigger mode: 0
Integration Time (sec): 2.000000E-2
Scans to average: 10
Electric dark correction enabled: true
Nonlinearity correction enabled: false
Boxcar width: 0
XAxis mode: Wavelengths
Number of Pixels in Spectrum: 2048
>>>>>Begin Spectral Data<<<<<
341.393	-13.88
341.776	-13.88
342.16	-13.88
342.543	-23.38
342.927	-59.53
343.31	-51.4
343.693	-73.77
344.077	-72.64
344.46	-71.74
344.843	-50.49
345.226	-43.26
345.61	-22.47
345.993	-30.61
346.376	-9.82
346.759	5.55
347.142	27.47
347.525	33.8
347.908	63.18
348.291	78.32
348.674	100.24
349.057	117.64
349.44	126.9
349.823	152.44
350.206	168.71
350.588	208.48
350.971	215.94
351.354	227.69
351.737	235.6
352.119	241.02
352.502	263.4
352.884	274.24
353.267	290.29
353.65	300.46
354.032	308.14
354.414	296.84
354.797	309.5
355.179	328.03
355.562	338.65
355.944	312.89
356.326	324.19
356.709	345.88
357.091	342.49
357.473	333.23
357.855	321.02
358.238	334.13
358.62	322.15
359.002	329.16
359.384	335.94
359.766	326.9
360.148	337.07
360.53	346.78
360.912	319.44
361.294	326.9
361.676	353.79
362.057	309.5
362.439	354.69
362.821	316.95
363.203	318.08
363.584	314.47
363.966	339.1
364.348	324.19
364.729	330.51
365.111	306.79
365.493	309.72
365.874	325.77
366.256	305.43
366.637	323.73
367.019	326.9
367.4	315.83
367.781	317.63
368.163	319.21
368.544	301.59
368.925	313.57
369.306	320.57
369.688	321.02
370.069	304.75
370.45	298.65
370.831	325.99
371.212	316.05
371.593	322.6
371.974	311.31
372.355	310.4
372.736	309.72
373.117	342.72
373.498	308.82
373.879	321.25
374.26	320.57
374.641	313.57
375.021	326.22
375.402	305.2
375.783	342.04
376.163	335.94
376.544	320.34
376.925	315.15
377.305	331.64
377.686	328.93
378.066	318.54
378.447	323.73
378.827	336.39
379.208	328.03
379.588	345.2
379.968	327.12
380.349	320.57
380.729	336.84
381.109	335.94
381.489	328.71
381.87	314.7
382.25	331.42
382.63	350.63
383.01	349.5
383.39	331.19
383.77	347.46
384.15	350.63
384.53	347.69
384.91	336.39
385.29	338.65
385.67	333.23
386.049	366.9
386.429	358.54
386.809	356.28
387.189	363.96
387.568	351.08
387.948	357.63
388.328	356.28
388.707	346.78
389.087	368.03
389.466	343.17
389.846	351.98
390.225	351.08
390.605	376.84
390.984	363.96
391.363	347.01
391.743	362.15
392.122	370.06
392.501	372.09
392.881	358.54
393.26	381.13
393.639	344.98
394.018	375.48
394.397	369.83
394.776	369.61
395.155	373.68
395.534	374.81
395.913	373
396.292	376.84
396.671	363.73
397.05	396.05
397.429	398.99
397.808	375.48
398.186	364.86
398.565	388.37
398.944	379.33
399.323	407.35
399.701	369.61
400.08	410.51
400.458	381.13
400.837	393.34
401.215	394.47
401.594	377.97
401.972	388.59
402.351	392.89
402.729	398.53
403.107	395.14
403.486	404.86
403.864	427.46
404.242	401.92
404.62	408.03
404.999	383.39
405.377	400.34
405.755	385.43
406.133	425.2
406.511	395.82
406.889	420.46
407.267	405.54
407.645	404.86
408.023	428.14
408.401	409.38
408.779	419.78
409.156	413.68
409.534	447.57
409.912	440.12
410.29	429.95
410.667	456.61
411.045	461.13
411.422	441.25
411.8	432.21
412.178	442.38
412.555	438.76
412.933	456.84
413.31	450.28
413.687	432.66
414.065	457.29
414.442	472.88
414.819	478.98
415.197	472.88
415.574	468.82
415.951	488.02
416.328	455.93
416.705	480.11
417.082	484.86
417.46	488.02
417.837	503.16
418.214	488.93
418.591	494.8
418.967	475.37
419.344	490.06
419.721	490.28
420.098	514.69
420.475	506.33
420.852	507.68
421.228	493.67
421.605	515.37
421.982	533.9
422.358	530.96
422.735	517.85
423.111	517.63
423.488	528.02
423.864	514.24
424.241	515.59
424.617	534.35
424.994	531.41
425.37	521.92
425.746	550.4
426.123	542.71
426.499	549.04
426.875	525.54
427.251	554.24
427.627	562.82
428.003	572.54
428.379	544.07
428.756	549.49
429.132	563.28
429.507	557.4
429.883	558.08
430.259	577.06
430.635	565.08
431.011	576.84
431.387	589.26
431.763	596.72
432.138	611.86
432.514	626.1
432.89	611.86
433.265	600.11
433.641	604.18
434.016	617.51
434.392	629.49
434.767	629.49
435.143	615.93
435.518	625.2
435.894	657.28
436.269	646.21
436.644	649.15
437.02	665.87
437.395	646.89
437.77	668.58
438.145	644.4
438.52	674.91
438.895	694.12
439.271	676.27
439.646	689.6
440.021	670.62
440.395	693.44
440.77	689.37
441.145	708.81
441.52	731.63
441.895	681.69
442.27	719.66
442.645	717.62
443.019	709.94
443.394	725.08
443.769	725.08
444.143	738.19
444.518	745.19
444.892	724.4
445.267	712.65
445.641	761.24
446.016	747
446.39	747.23
446.764	753.78
447.139	758.98
447.513	756.72
447.887	773.44
448.262	769.6
448.636	781.35
449.01	775.25
449.384	768.47
449.758	781.58
450.132	768.24
450.506	781.8
450.88	784.06
451.254	827.22
451.628	795.36
452.002	812.76
452.376	800.56
452.75	816.83
453.123	812.31
453.497	819.54
453.871	832.2
454.244	846.43
454.618	831.29
454.992	866.09
455.365	874.68
455.739	875.81
456.112	883.27
456.486	870.61
456.859	885.53
457.232	882.14
457.606	909.48
457.979	908.58
458.352	932.98
458.725	910.39
459.099	933.44
459.472	956.03
459.845	973.43
460.218	956.49
460.591	981.12
460.964	970.05
461.337	988.8
461.71	1005.98
462.083	1041.23
462.456	1011.63
462.829	1018.18
463.201	1034.9
463.574	1057.27
463.947	1059.53
464.32	1072.42
464.692	1099.53
465.065	1083.04
465.438	1110.61
465.81	1141.57
466.183	1128.91
466.555	1141.79
466.928	1153.77
467.3	1154.67
467.672	1186.31
468.045	1170.27
468.417	1186.31
468.789	1164.39
469.161	1197.38
469.534	1217.72
469.906	1249.59
470.278	1255.24
470.65	1273.77
471.022	1296.59
471.394	1316.93
471.766	1309.25
472.138	1332.07
472.51	1374.33
472.882	1397.15
473.253	1384.27
473.625	1446.42
473.997	1431.73
474.369	1443.25
474.74	1451.61
475.112	1484.61
475.484	1524.83
475.855	1572.52
476.227	1574.32
476.598	1612.51
476.97	1635.79
477.341	1635.56
477.713	1660.65
478.084	1694.09
478.455	1749.91
478.827	1739.06
479.198	1800.98
479.569	1803.92
479.94	1850.93
480.311	1907.42
480.682	1921.66
481.053	1969.34
481.424	1982.9
481.795	2003.69
482.166	2038.49
482.537	2061.99
482.908	2086.4
483.279	2093.41
483.65	2180.86
484.021	2246.85
484.391	2261.76
484.762	2305.38
485.133	2310.8
485.503	2327.75
485.874	2405.04
486.244	2427.86
486.615	2495.2
486.985	2499.95
487.356	2550.12
487.726	2565.48
488.097	2637.35
488.467	2666.72
488.837	2741.75
489.207	2770
489.578	2779.04
489.948	2794.63
490.318	2905.59
490.688	2901.52
491.058	2920.05
491.428	2965.47
491.798	2983.78
492.168	3067.84
492.538	3096.54
492.908	3105.58
493.278	3176.54
493.648	3169.99
494.017	3253.37
494.387	3278.91
494.757	3275.97
495.126	3308.74
495.496	3342.86
495.866	3368.17
496.235	3436.19
496.605	3453.37
496.974	3481.39
497.344	3524.1
497.713	3560.71
498.082	3562.29
498.452	3591.67
498.821	3537.44
499.19	3643.87
499.559	3671.89
499.928	3677.09
500.298	3696.53
500.667	3750.31
501.036	3764.1
501.405	3831.44
501.774	3815.62
502.143	3832.57
502.512	3855.39
502.88	3914.15
503.249	3879.8
503.618	3893.36
503.987	3946.92
504.356	4007.48
504.724	3980.14
505.093	3990.53
505.462	3966.58
505.83	4018.55
506.199	4062.17
506.567	4151.88
506.936	4127.02
507.304	4164.99
507.672	4206.57
508.041	4186.01
508.409	4210.64
508.777	4206.57
509.145	4249.96
509.514	4262.61
509.882	4316.4
510.25	4328.15
510.618	4326.12
510.986	4317.53
511.354	4387.81
511.722	4378.09
512.09	4418.99
512.458	4461.48
512.826	4474.36
513.193	4501.25
513.561	4503.51
513.929	4514.58
514.297	4575.37
514.664	4543.51
515.032	4612.66
515.4	4624.19
515.767	4668.7
516.135	4674.35
516.502	4618.99
516.869	4722.94
517.237	4718.65
517.604	4664.64
517.972	4717.52
518.339	4771.75
518.706	4792.32
519.073	4771.08
519.44	4774.92
519.808	4807.91
520.175	4804.07
520.542	4918.19
520.909	4900.11
521.276	4918.64
521.643	4941.24
522.009	4953.44
522.376	4971.97
522.743	5009.26
523.11	5018.07
523.477	5085.42
523.843	5064.17
524.21	5153.44
524.577	5181.01
524.943	5181.69
525.31	5238.18
525.676	5206.09
526.043	5270.72
526.409	5311.63
526.776	5347.33
527.142	5323.83
527.508	5349.82
527.874	5391.62
528.241	5413.09
528.607	5432.98
528.973	5443.83
529.339	5473.88
529.705	5559.98
530.071	5566.31
530.437	5522.92
530.803	5625.74
531.169	5641.33
531.535	5609.7
531.901	5632.52
532.267	5712.07
532.632	5706.19
532.998	5735.34
533.364	5824.15
533.73	5846.75
534.095	5837.04
534.461	5854.44
534.826	5877.49
535.192	5886.53
535.557	5939.86
535.923	5958.16
536.288	5943.02
536.653	6019.63
537.019	6012.62
537.384	6009.91
537.749	6072.51
538.114	6109.57
538.479	6130.14
538.845	6103.47
539.21	6108.67
539.575	6153.41
539.94	6159.74
540.305	6189.79
540.67	6220.53
541.034	6224.6
541.399	6284.03
541.764	6300.3
542.129	6361.77
542.494	6305.27
542.858	6387.08
543.223	6328.55
543.587	6441.31
543.952	6467.3
544.316	6478.37
544.681	6465.04
545.045	6566.28
545.41	6580.97
545.774	6566.96
546.138	6576.23
546.503	6623
546.867	6664.81
547.231	6653.74
547.595	6633.63
547.959	6733.51
548.324	6706.39
548.688	6765.15
549.052	6799.95
549.416	6838.37
549.779	6846.95
550.143	6885.37
550.507	6872.94
550.871	6909.55
551.235	6919.72
551.599	6998.14
551.962	6984.35
552.326	7000.62
552.689	7059.38
553.053	7057.79
553.417	7071.35
553.78	7110
554.143	7135.53
554.507	7196.1
554.87	7169.66
555.234	7245.59
555.597	7159.26
555.96	7229.99
556.323	7266.83
556.686	7255.76
557.05	7281.52
557.413	7357.9
557.776	7337.11
558.139	7389.54
558.502	7391.57
558.865	7417.33
559.228	7464.56
559.59	7478.57
559.953	7533.94
560.316	7553.15
560.679	7536.65
561.041	7589.98
561.404	7610.32
561.767	7698.68
562.129	7604.22
562.492	7738.45
562.854	7676.54
563.217	7706.59
563.579	7796.53
563.941	7825.91
564.304	7857.77
564.666	7892.8
565.028	7872.24
565.39	7887.38
565.753	7942.29
566.115	7970.31
566.477	7960.14
566.839	8037.43
567.201	8142.96
567.563	8064.1
567.925	8070.65
568.287	8158.78
568.648	8193.81
569.01	8199.01
569.372	8323.52
569.734	8258.44
570.095	8343.86
570.457	8341.15
570.819	8407.82
571.18	8386.8
571.542	8423.41
571.903	8522.84
572.265	8582.05
572.626	8556.96
572.987	8649.84
573.349	8581.14
573.71	8694.14
574.071	8695.27
574.432	8771.2
574.794	8884.41
575.155	8863.85
575.516	8872.44
575.877	8964.86
576.238	9055.03
576.599	9084.86
576.96	9180.22
577.32	9275.36
577.681	9315.81
578.042	9382.48
578.403	9495.7
578.763	9514.91
579.124	9614.56
579.485	9719.42
579.845	9828.57
580.206	9886.65
580.566	9916.7
580.927	10077.38
581.287	10182.23
581.648	10291.38
582.008	10409.8
582.368	10461.32
582.728	10674.87
583.089	10851.59
583.449	10923.46
583.809	11026.05
584.169	11170.23
584.529	11351.47
584.889	11614.29
585.249	11692.02
585.609	11874.39
585.969	12040.49
586.329	12190.09
586.688	12428.27
587.048	12652.45
587.408	12783.29
587.768	13008.37
588.127	13201.36
588.487	13377.4
588.846	13658.53
589.206	13797.05
589.565	14143.71
589.925	14373.99
590.284	14437.71
590.643	14829.12
591.003	15075.44
591.362	15367.41
591.721	15601.75
592.08	15801.97
592.44	16119.7
592.799	16323.77
593.158	16685.79
593.517	16905.22
593.876	17156.96
594.235	17424.08
594.593	17690.96
594.952	18027.9
595.311	18241.46
595.67	18592.63
596.029	19049.12
596.387	19221.32
596.746	19677.35
597.104	19641.87
597.463	19993.73
597.822	20311.68
598.18	20565.46
598.538	20865.12
598.897	21228.72
599.255	21378.32
599.613	21980.57
599.972	22031.19
600.33	22423.49
600.688	22709.59
601.046	22914.33
601.404	23320.87
601.762	23504.59
602.12	23887.41
602.478	24156.33
602.836	24366.72
603.194	24540.5
603.552	24938.45
603.91	25128.51
604.268	25307.71
604.625	25592.45
604.983	25942.04
605.341	26098.65
605.698	26521.46
606.056	26839.2
606.413	26952.41
606.771	27294.55
607.128	27568.67
607.485	27657.03
607.843	27924.36
608.2	28195.09
608.557	28516.67
608.914	28647.28
609.272	29015.86
609.629	29112.81
609.986	29531.33
610.343	29640.93
610.7	30087.92
611.057	30235.49
611.414	30312.1
611.771	30648.36
612.127	30822.37
612.484	30928.35
612.841	31234.79
613.198	31312.52
613.554	31549.58
613.911	31813.75
614.267	32040.19
614.624	32117.7
614.98	32385.94
615.337	32728.53
615.693	32739.15
616.05	32710
616.406	33132.14
616.762	33212.81
617.118	33312.02
617.475	33507.72
617.831	33748.62
618.187	33763.08
618.543	33979.35
618.899	34228.15
619.255	34229.96
619.611	34468.6
619.967	34642.83
620.323	34862.94
620.678	34839.44
621.034	34718.31
621.39	34997.62
621.746	35075.59
622.101	35547.44
622.457	35326.43
622.812	35457.5
623.168	35665.4
623.523	35775.23
623.879	36026.98
624.234	35791.5
624.589	36064.49
624.945	36125.5
625.3	36226.75
625.655	36225.16
626.01	36426.97
626.365	36435.78
626.72	36520.52
627.075	36455.89
627.43	36671.25
627.785	36631.03
628.14	36762.55
628.495	36843.45
628.85	36886.16
629.205	36838.25
629.559	37023.79
629.914	36965.93
630.269	37065.37
630.623	36822.44
630.978	36881.19
631.332	37100.85
631.687	37318.69
632.041	37131.58
632.396	37190.34
632.75	37074.18
633.104	37325.93
633.459	37262.42
633.813	37174.52
634.167	37322.54
634.521	37316.21
634.875	37311.46
635.229	37252.25
635.583	37125.03
635.937	37275.53
636.291	37228.3
636.645	37323.44
636.999	37146.72
637.352	37374.29
637.706	37224.91
638.06	37454.51
638.413	37223.1
638.767	37200.05
639.121	37309.88
639.474	37135.2
639.828	37107.63
640.181	37246.38
640.534	37354.4
640.888	37131.58
641.241	37132.71
641.594	37080.96
641.947	37309.43
642.301	37167.29
642.654	37189.43
643.007	37235.76
643.36	37226.49
643.713	37102.88
644.066	37148.75
644.419	36973.84
644.771	36807.52
645.124	36482.11
645.477	36406.63
645.83	36359.17
646.182	36216.12
646.535	36063.13
646.888	36084.83
647.24	36049.8
647.593	36190.81
647.945	36099.97
648.298	35874.66
648.65	35785.63
649.002	35878.51
649.355	36055.45
649.707	35830.15
650.059	36137.48
650.411	36578.37
650.763	36599.62
651.115	36840.51
651.467	36883.23
651.819	36800.06
652.171	36718.94
652.523	36634.64
652.875	36640.75
653.227	36554.42
653.578	36841.42
653.93	36710.57
654.282	36583.35
654.633	36412.05
654.985	36699.5
655.337	36601.2
655.688	36564.14
656.039	36698.37
656.391	36388.32
656.742	36573.85
657.094	36453.18
657.445	36682.55
657.796	36500.64
658.147	36514.65
658.498	36650.46
658.849	36612.05
659.2	36553.29
659.551	36369.34
659.902	36627.19
660.253	36361.88
660.604	36446.17
660.955	36287.31
661.306	36396.01
661.656	36394.65
662.007	36441.43
662.358	36297.7
662.708	36307.87
663.059	36304.26
663.409	36066.07
663.76	36373.86
664.11	36381.32
664.461	36382.45
664.811	36379.74
665.161	36338.38
665.511	36370.47
665.862	36417.02
666.212	36394.88
666.562	36497.7
666.912	36287.08
667.262	36441.88
667.612	36269.46
667.962	36302.45
668.312	36398.04
668.662	36420.64
669.011	36286.63
669.361	36269.68
669.711	36251.6
670.06	36239.63
670.41	36134.54
670.76	36161.89
671.109	36205.28
671.459	36313.52
671.808	36150.14
672.157	36087.99
672.507	35923.48
672.856	36220.87
673.205	36112.17
673.554	36171.38
673.904	36057.71
674.253	36358.49
674.602	36020.42
674.951	35645.97
675.3	35334.57
675.649	35899.97
675.998	35872.86
676.346	35905.62
676.695	36130.48
677.044	35810.94
677.393	35956.02
677.741	36017.94
678.09	35745.4
678.438	35713.09
678.787	35994.89
679.135	35745.4
679.484	35627.44
679.832	35745.18
680.181	35626.99
680.529	35770.94
680.877	35436.48
681.225	35404.85
681.573	35654.1
681.922	35439.87
682.27	35322.81
682.618	35335.47
682.966	35290.05
683.314	35290.5
683.661	35215.7
684.009	35052.31
684.357	35095.48
684.705	34999.66
685.053	35064.52
685.4	34918.76
685.748	34736.16
686.095	34862.04
686.443	34606
686.79	34673.79
687.138	34740.46
687.485	34729.16
687.832	34511.99
688.18	34537.07
688.527	34307.7
688.874	34386.57
689.221	34320.58
689.568	34188.61
689.915	34090.08
690.262	34195.16
690.609	34034.49
690.956	33984.32
691.303	34028.84
691.65	33724.66
691.997	33711.33
692.344	33526.25
692.69	33588.62
693.037	33556.08
693.383	33227.95
693.73	33407.84
694.077	33342.75
694.423	33146.6
694.769	33196.32
695.116	33020.28
695.462	33025.47
695.808	32890.34
696.155	32900.05
696.501	32691.7
696.847	32629.1
697.193	32474.3
697.539	32565.37
697.885	32321.09
698.231	32296.91
698.577	32377.35
698.923	32121.99
699.269	32009.23
699.614	31820.08
699.96	31950.7
700.306	31829.57
700.651	31795.45
700.997	31712.51
701.342	31588.68
701.688	31520.88
702.033	31413.76
702.379	31410.6
702.724	31369.25
703.069	31514.1
703.415	30985.3
703.76	31131.29
704.105	31141.46
704.45	30904.4
704.795	30757.06
705.14	30719.77
705.485	30542.15
705.83	30618.53
706.175	30600.68
706.52	30537.63
706.865	30422.38
707.209	30383.73
707.554	30314.58
707.899	30335.6
708.243	30195.94
708.588	30149.16
708.932	29993.69
709.277	30013.35
709.621	29875.27
709.966	29766.35
710.31	29830.3
710.654	29575.62
710.998	29605
711.342	29689.29
711.687	29478.22
712.031	29470.31
712.375	29311.67
712.719	29342.86
713.063	29300.15
713.407	29326.81
713.75	29135.63
714.094	29211.79
714.438	29037.78
714.782	29195.97
715.125	28827.39
715.469	28989.87
715.812	28833.27
716.156	28687.96
716.499	28680.05
716.843	28769.77
717.186	28562.31
717.53	28659.49
717.873	28678.92
718.216	28540.62
718.559	28443.9
718.902	28363.45
719.246	28404.35
719.589	28250.46
719.932	28149.9
720.275	28115.09
720.617	28122.33
720.96	27982.67
721.303	27993.97
721.646	28022.89
721.989	27802.79
722.331	28007.98
722.674	27806.85
723.016	27779.51
723.359	27886.85
723.701	27692.96
724.044	27582.68
724.386	27486.86
724.729	27663.81
725.071	27471.5
725.413	27572.51
725.755	27433.76
726.097	27399.41
726.439	27326.64
726.782	27290.26
727.124	27401.67
727.465	27199.86
727.807	27202.8
728.149	27136.14
728.491	27108.79
728.833	27063.14
729.175	26995.35
729.516	26983.6
729.858	26927.55
730.199	26838.97
730.541	26900.66
730.882	26834.45
731.224	26895.92
731.565	26745.64
731.906	26730.05
732.248	26757.39
732.589	26614.34
732.93	26502.03
733.271	26572.76
733.612	26572.08
733.953	26551.52
734.294	26450.96
734.635	26368.47
734.976	26417.06
735.317	26273.33
735.658	26250.74
735.999	26306.78
736.339	26147.91
736.68	26209.61
737.021	26124.86
737.361	26090.51
737.702	26187.69
738.042	26091.64
738.383	25963.96
738.723	26138.87
739.063	25897.07
739.404	25984.3
739.744	25949.73
740.084	25908.15
740.424	25853.46
740.764	25718.32
741.104	25756.29
741.444	25679.45
741.784	25581.38
742.124	25708.38
742.464	25639.68
742.804	25677.42
743.143	25541.6
743.483	25523.75
743.823	25435.84
744.162	25461.38
744.502	25487.37
744.841	25260.25
745.181	25493.69
745.52	25353.58
745.86	25273.36
746.199	25184.32
746.538	25204.89
746.877	25196.53
747.216	25105.46
747.556	25071.11
747.895	25197.2
748.234	24885.57
748.573	24950.21
748.911	24861.62
749.25	25086.25
749.589	24708.86
749.928	24861.17
750.267	24691.91
750.605	24663.66
750.944	24705.01
751.283	24614.62
751.621	24758.35
751.96	24540.05
752.298	24525.13
752.636	24621.4
752.975	24473.38
753.313	24387.51
753.651	24472.25
753.989	24297.57
754.327	24420.95
754.666	24177.57
755.004	24323.78
755.342	24204.69
755.679	24120.62
756.017	24120.17
756.355	24120.62
756.693	24017.35
757.031	24068.42
757.368	23841.99
757.706	23942.1
758.044	23776
758.381	23829.56
758.719	23610.13
759.056	23646.51
759.394	23637.25
759.731	23367.42
760.068	23464.14
760.405	23320.64
760.743	23203.13
761.08	23217.82
761.417	23205.17
761.754	23094.44
762.091	23085.85
762.428	23023.48
762.765	22894.89
763.102	23025.28
763.438	22702.81
763.775	22732.86
764.112	22703.71
764.449	22670.72
764.785	22607.44
765.122	22511.63
765.458	22439.54
765.795	22409.93
766.131	22357.51
766.467	22190.73
766.804	22113.9
767.14	22071.64
767.476	22034.35
767.812	21990.51
768.148	21862.15
768.485	21825.77
768.821	21758.2
769.157	21554.81
769.492	21655.38
769.828	21573.12
770.164	21500.58
770.5	21371.54
770.836	21284.99
771.171	21252.45
771.507	21177.88
771.842	21052
772.178	21057.2
772.513	20891.1
772.849	20914.38
773.184	20798.45
773.519	20769.07
773.855	20704.22
774.19	20668.28
774.525	20505.8
774.86	20552.13
775.195	20440.95
775.53	20339.48
775.865	20208.86
776.2	20080.28
776.535	19909.89
776.87	20007.51
777.205	19840.51
777.539	19847.97
777.874	19800.06
778.209	19661.53
778.543	19758.48
778.878	19554.87
779.212	19633.96
779.547	19434.87
779.881	19492.95
780.215	19410.24
780.55	19266.06
780.884	19137.93
781.218	19213.86
781.552	19137.48
781.886	19053.64
782.22	18958.27
782.554	18869.01
782.888	18769.58
783.222	18674.89
783.556	18588.79
783.889	18462.92
784.223	18335.01
784.557	18377.95
784.89	18447.78
785.224	18266.09
785.557	18194.22
785.891	18171.63
786.224	18104.96
786.558	18097.5
786.891	17871.07
787.224	17937.96
787.557	17873.33
787.891	17822.03
788.224	17800.79
788.557	17717.18
788.89	17668.36
789.223	17651.64
789.556	17548.14
789.888	17434.47
790.221	17379.11
790.554	17307.92
790.887	17325.55
791.219	17198.77
791.552	17203.06
791.884	17094.37
792.217	16982.28
792.549	16980.47
792.882	16891.89
793.214	16739.8
793.546	16761.72
793.879	16670.65
794.211	16634.04
794.543	16657.77
794.875	16526.02
795.207	16589.97
795.539	16544.32
795.871	16436.76
796.203	16298.23
796.535	16243.09
796.867	16176.2
797.198	16170.1
797.53	16115.64
797.862	16044.9
798.193	16099.36
798.525	15936.66
798.856	15993.6
799.188	15856.43
799.519	15729.66
799.85	15756.55
800.182	15685.36
800.513	15678.36
800.844	15483.34
801.175	15662.54
801.506	15580.06
801.837	15541.64
802.168	15455.31
802.499	15365.15
802.83	15266.84
803.161	15263.91
803.491	15219.61
803.822	15246.28
804.153	15176.68
804.483	15083.12
804.814	15036.34
805.145	15011.71
805.475	14949.34
805.805	14907.08
806.136	14981.88
806.466	14875.67
806.796	14842.45
807.126	14681.32
807.457	14698.95
807.787	14642.91
808.117	14563.36
808.447	14532.63
808.777	14601.78
809.107	14480.88
809.436	14495.11
809.766	14484.72
810.096	14336.7
810.426	14276.36
810.755	14474.55
811.085	14307.1
811.414	14282.92
811.744	14149.13
812.073	14154.78
812.403	14144.61
812.732	14054.67
813.061	14048.35
813.39	14082.69
813.719	14047.44
814.049	14048.35
814.378	13962.02
814.707	13926.31
815.036	13906.2
815.365	13802.93
815.693	13697.17
816.022	13690.39
816.351	13629.6
816.68	13614.46
817.008	13656.94
817.337	13567.91
817.665	13416.5
817.994	13496.72
818.322	13519.32
818.651	13397.74
818.979	13421.47
819.307	13336.95
819.636	13355.03
819.964	13298.53
820.292	13374.24
820.62	13340.57
820.948	13284.07
821.276	13357.29
821.604	13221.7
821.932	13289.5
822.259	13259.89
822.587	13264.64
822.915	13212.66
823.243	13306.9
823.57	13138.31
823.898	13253.79
824.225	13139.89
824.553	13145.09
824.88	13195.49
825.207	13155.94
825.535	13173.11
825.862	13208.37
826.189	13140.57
826.516	13266.67
826.843	13265.32
827.17	13285.43
827.497	13220.57
827.824	13229.84
828.151	13143.51
828.478	13162.72
828.805	13288.14
829.131	13092.89
829.458	13075.94
829.785	13073.46
830.111	13177.41
830.438	13108.26
830.764	13171.31
831.09	13196.39
831.417	13110.74
831.743	13104.64
832.069	13068.94
832.395	13017.19
832.722	13062.61
833.048	13007.69
833.374	13081.59
833.7	12997.98
834.026	13071.65
834.351	13018.09
834.677	12989.39
835.003	13052.44
835.329	12952.33
835.654	12997.98
835.98	12876.4
836.306	12912.56
836.631	12871.88
836.956	12923.4
837.282	12896.74
837.607	12857.64
837.932	12820.58
838.258	12771.09
838.583	12834.14
838.908	12709.85
839.233	12789.62
839.558	12647.25
839.883	12657.2
840.208	12660.59
840.533	12636.18
840.858	12710.53
841.182	12684.09
841.507	12618.1
841.832	12595.28
842.156	12482.51
842.481	12476.18
842.805	12490.87
843.13	12356.86
843.454	12439.8
843.778	12325.9
844.103	12329.52
844.427	12302.4
844.751	12311.67
845.075	12286.36
845.399	12246.36
845.723	12221.5
846.047	12187.15
846.371	11964.78
846.695	12036.42
847.019	11940.6
847.343	11982.64
847.666	11906.25
847.99	11789.42
848.313	11911.9
848.637	11760.95
848.96	11750.1
849.284	11683.21
849.607	11551.69
849.931	11486.15
850.254	11483.89
850.577	11447.51
850.9	11304.01
851.223	11339.94
851.546	11298.59
851.869	11190.34
852.192	11273.05
852.515	11168.42
852.838	11135.65
853.161	11123.9
853.483	11006.62
853.806	11026.28
854.129	11015.43
854.451	10952.16
854.774	10937.47
855.096	10865.83
855.419	10912.38
855.741	10790.8
856.063	10777.02
856.385	10795.1
856.708	10642.33
857.03	10701.54
857.352	10686.63
857.674	10687.3
857.996	10579.06
858.318	10518.72
858.64	10565.27
858.961	10527.31
859.283	10497.7
859.605	10429.01
859.926	10475.56
860.248	10436.24
860.57	10367.99
860.891	10377.93
861.212	10306.52
861.534	10231.27
861.855	10295
862.176	10323.7
862.498	10231.95
862.819	10256.58
863.14	10164.83
863.461	10234.89
863.782	10154.44
864.103	10142.01
864.424	10098.17
864.745	10139.97
865.065	10088.68
865.386	10046.42
865.707	10013.65
866.027	9996.25
866.348	10027.89
866.668	10049.13
866.989	9979.98
867.309	9902.01
867.63	9977.94
867.95	9847.78
868.27	9769.14
868.59	9834.9
868.91	9806.42
869.23	9822.47
869.55	9797.84
869.87	9817.04
870.19	9818.63
870.51	9724.62
870.83	9753.32
871.15	9670.38
871.469	9719.65
871.789	9659.76
872.109	9705.41
872.428	9633.32
872.748	9717.39
873.067	9687.56
873.386	9691.4
873.706	9640.1
874.025	9618.63
874.344	9555.58
874.663	9501.8
874.982	9516.71
875.301	9483.04
875.62	9497.28
875.939	9471.52
876.258	9545.41
876.577	9400.78
876.896	9515.81
877.214	9423.16
877.533	9437.85
877.852	9372.76
878.17	9380.45
878.489	9414.79
878.807	9391.29
879.125	9329.15
879.444	9317.17
879.762	9277.17
880.08	9291.63
880.398	9241.01
880.716	9267
881.034	9224.29
881.352	9181.81
881.67	9224.52
881.988	9202.15
882.306	9117.18
882.624	9079.44
882.941	9064.97
883.259	9107.46
883.577	8976.16
883.894	9051.87
884.212	9085.54
884.529	8984.52
884.846	9021.36
885.164	9010.51
885.481	8955.6
885.798	8966.45
886.115	8876.28
886.432	8903.62
886.75	8875.83
887.067	8843.96
887.383	8836.05
887.7	8872.21
888.017	8752.21
888.334	8801.93
888.651	8785.21
888.967	8749.95
889.284	8686.68
889.6	8676.28
889.917	8589.28
890.233	8622.27
890.55	8539.11
890.866	8548.83
891.182	8563.52
891.498	8562.16
891.815	8573.46
892.131	8477.42
892.447	8449.85
892.763	8399.45
893.079	8409.62
893.395	8366.23
893.71	8367.36
894.026	8370.08
894.342	8306.35
894.657	8289.4
894.973	8257.76
895.289	8240.81
895.604	8186.58
895.92	8142.06
896.235	8126.69
896.55	8182.74
896.865	8087.15
897.181	8069.97
897.496	8083.53
897.811	7997.2
898.126	7999.24
898.441	7961.27
898.756	7907.72
899.071	7875.17
899.386	7870.65
899.7	7887.6
900.015	7854.61
900.33	7710.43
900.644	7803.09
900.959	7739.13
901.273	7730.09
901.588	7702.52
901.902	7635.63
902.216	7597.89
902.531	7538.91
902.845	7558.12
903.159	7528.52
903.473	7496.43
903.787	7426.37
904.101	7470.21
904.415	7396.99
904.729	7374.17
905.042	7308.41
905.356	7316.54
905.67	7329.88
905.984	7304.79
906.297	7261.41
906.611	7198.13
906.924	7245.13
907.237	7126.27
907.551	7129.66
907.864	7079.71
908.177	7104.12
908.491	7094.63
908.804	7000.85
909.117	7047.17
909.43	6991.36
909.743	7024.12
910.056	6932.83
910.368	6912.71
910.681	6849.66
910.994	6880.62
911.307	6778.48
911.619	6770.57
911.932	6751.36
912.244	6729.22
912.557	6656.45
912.869	6704.36
913.181	6666.84
913.494	6672.95
913.806	6642.89
914.118	6578.26
914.43	6540.07
914.742	6550.69
915.054	6429.56
915.366	6466.4
915.678	6474.53
915.99	6417.81
916.302	6372.84
916.613	6346.17
916.925	6347.3
917.236	6287.19
917.548	6270.92
917.859	6237.25
918.171	6232.05
918.482	6209
918.794	6158.38
919.105	6154.32
919.416	6099.4
919.727	6075.22
920.038	6103.7
920.349	6059.63
920.66	6019.18
920.971	5996.58
921.282	5993.87
921.593	5960.42
921.903	5881.33
922.214	5911.16
922.525	5863.48
922.835	5826.19
923.146	5845.17
923.456	5806.3
923.767	5783.7
924.077	5809.69
924.387	5780.31
924.697	5741.45
925.008	5721.33
925.318	5686.53
925.628	5652.86
925.938	5601.56
926.248	5563.82
926.558	5556.37
926.867	5560.43
927.177	5532.41
927.487	5486.76
927.796	5476.82
928.106	5512.75
928.416	5436.14
928.725	5444.73
929.034	5341.68
929.344	5367.67
929.653	5366.09
929.962	5307.78
930.271	5268.24
930.581	5290.16
930.89	5229.82
931.199	5209.03
931.508	5208.13
931.817	5201.35
932.125	5180.56
932.434	5193.44
932.743	5108.92
933.051	5069.37
933.36	5121.35
933.669	5044.29
933.977	5040.9
934.286	5054.68
934.594	4991.41
934.902	4906.66
935.21	4955.25
935.519	4909.15
935.827	4889.94
936.135	4918.87
936.443	4854.46
936.751	4847.68
937.059	4830.51
937.367	4814.24
937.674	4758.87
937.982	4742.38
938.29	4709.16
938.597	4741.02
938.905	4651.98
939.213	4664.86
939.52	4673.45
939.827	4651.98
940.135	4640.46
940.442	4618.99
940.749	4588.26
941.056	4611.98
941.363	4523.17
941.67	4552.1
941.977	4517.75
942.284	4493.79
942.591	4479.78
942.898	4461.48
943.205	4439.56
943.511	4428.94
943.818	4384.19
944.125	4345.55
944.431	4401.37
944.738	4352.33
945.044	4363.85
945.35	4293.35
945.657	4288.15
945.963	4305.78
946.269	4259.9
946.575	4251.09
946.881	4208.15
947.187	4193.92
947.493	4165.22
947.799	4158.44
948.105	4135.39
948.41	4105.56
948.716	4105.33
949.022	4106.91
949.327	4085.67
949.633	4083.18
949.938	4045.9
950.244	4032.11
950.549	3959.12
950.854	3957.31
951.16	3974.49
951.465	3953.47
951.77	3953.47
952.075	3921.15
952.38	3911.21
952.685	3911.89
952.99	3866.47
953.294	3809.97
953.599	3837.54
953.904	3830.31
954.209	3789.63
954.513	3818.56
954.818	3809.29
955.122	3804.55
955.426	3742.4
955.731	3709.18
956.035	3704.21
956.339	3663.08
956.643	3659.01
956.948	3667.83
957.252	3621.27
957.556	3619.24
957.86	3658.34
958.163	3644.33
958.467	3600.94
958.771	3556.42
959.075	3545.8
959.378	3507.61
959.682	3524.33
959.985	3514.84
960.289	3476.65
960.592	3456.99
960.896	3461.05
961.199	3452.01
961.502	3402.98
961.805	3400.49
962.108	3392.13
962.411	3387.61
962.714	3357.1
963.017	3358.68
963.32	3372.02
963.623	3357.33
963.926	3341.51
964.228	3307.84
964.531	3307.38
964.833	3301.96
965.136	3242.08
965.438	3235.3
965.741	3213.83
966.043	3209.99
966.345	3188.07
966.648	3195.98
966.95	3154.39
967.252	3127.05
967.554	3135.19
967.856	3106.94
968.158	3137.22
968.46	3130.21
968.761	3112.36
969.063	3066.04
969.365	3086.37
969.666	3047.5
969.968	3041.86
970.269	3008.86
970.571	3014.51
970.872	3033.49
971.174	3005.25
971.475	2959.15
971.776	2944.68
972.077	2956.43
972.378	2912.82
972.679	2915.53
972.98	2921.63
973.281	2906.27
973.582	2913.27
973.883	2895.19
974.183	2869.2
974.484	2848.64
974.785	2867.85
975.085	2854.06
975.386	2812.48
975.686	2791.47
975.986	2775.42
976.287	2801.41
976.587	2773.39
976.887	2732.71
977.187	2739.72
977.487	2734.07
977.787	2699.04
978.087	2699.27
978.387	2661.75
978.687	2685.03
978.987	2701.53
979.286	2646.39
979.586	2633.96
979.885	2660.4
980.185	2639.38
980.484	2613.39
980.784	2576.56
981.083	2608.19
981.382	2579.04
981.682	2552.38
981.981	2524.13
982.28	2542.66
982.579	2515.99
982.878	2513.96
983.177	2523.22
983.475	2541.08
983.774	2483.23
984.073	2476.67
984.372	2455.66
984.67	2455.66
984.969	2449.55
985.267	2461.31
985.566	2470.34
985.864	2410.69
986.162	2402.55
986.461	2411.59
986.759	2398.71
987.057	2378.37
987.355	2363
987.653	2346.51
987.951	2335.21
988.249	2332.27
988.547	2316.68
988.844	2296.56
989.142	2325.94
989.44	2293.4
989.737	2287.3
990.035	2266.28
990.332	2272.84
990.63	2240.29
990.927	2240.29
991.224	2248.88
991.521	2239.84
991.819	2191.71
992.116	2200.75
992.413	2158.49
992.71	2184.25
993.006	2181.09
993.303	2180.41
993.6	2134.76
993.897	2118.49
994.193	2122.11
994.49	2125.72
994.787	2139.51
995.083	2093.41
995.379	2099.96
995.676	2061.77
995.972	2072.39
996.268	2058.38
996.565	2054.08
996.861	2039.4
997.157	2031.49
997.453	2023.12
997.749	2015.22
998.044	2014.31
998.34	2002.79
998.636	1962.11
998.932	1966.86
999.227	1947.65
999.523	1930.47
999.818	1933.64
1000.114	1930.47
1000.409	1895.67
1000.704	1932.51
1001	1888.21
1001.295	1905.61
1001.59	1870.36
1001.885	1836.69
1002.18	1849.8
1002.475	1837.37
1002.77	1841.66
1003.065	1841.21
1003.359	1812.73
1003.654	1814.77
1003.949	1813.86
1004.243	1810.25
1004.538	1789.68
1004.832	1800.53
1005.127	1779.52
1005.421	1749.01
1005.715	1759.85
1006.009	1706.07
1006.304	1713.53
1006.598	1739.06
1006.892	1698.39
1007.186	1701.33
1007.48	1715.34
1007.773	1690.7
1008.067	1681.44
1008.361	1693.87
1008.655	1658.39
1008.948	1650.48
1009.242	1613.87
1009.535	1623.36
1009.829	1631.72
1010.122	1619.97
1010.415	1637.15
1010.708	1593.31
1011.001	1587.88
1011.295	1558.5
1011.588	1561.44
1011.881	1574.1
1012.173	1547.88
1012.466	1553.08
1012.759	1552.63
1013.052	1521.67
1013.344	1527.54
1013.637	1539.75
1013.93	1499.75
1014.222	1491.39
1014.514	1472.4
1014.807	1493.87
1015.099	1465.4
1015.391	1458.62
1015.683	1433.99
1015.976	1441.45
1016.268	1436.02
1016.56	1394.44
1016.851	1423.82
1017.143	1406.87
1017.435	1414.1
1017.727	1403.25
1018.018	1371.39
1018.31	1352.86
1018.602	1387.21
1018.893	1368.23
1019.185	1333.88
1019.476	1340.88
1019.767	1349.7
1020.058	1313.54
1020.35	1292.3
1020.641	1313.76
1020.932	1314.22
1021.223	1288
1021.514	1302.24
1021.804	1245.29
1022.095	1245.74
1022.386	1253.2
1022.677	1239.19
1022.967	1246.65
1023.258	1225.63
1023.548	1257.04
1023.839	1220.43
1024.129	1229.02
1024.419	1198.74
1024.709	1219.08
1025	1200.55
1025.29	1189.93
1025.58	1177.72
1025.87	1135.46
1026.16	1176.82
1026.449	1153.32
1026.739	1136.37
1027.029	1164.39
1027.319	1144.05
1027.608	1137.27
1027.898	1109.7
1028.187	1141.34
1028.477	1092.08
1028.766	1083.49
1029.055	1097.5
1029.344	1086.43
1029.634	1084.17
1029.923	1070.83
1030.212	1046.65
1030.501	1079.87
1030.79	1069.7
1031.078	1045.75
1031.367	1027.22
1031.656	999.42
1031.945	1035.13
1032.233	1012.3
1032.522	1016.37
1032.81	1016.37
1033.099	989.71
1033.387	991.74
1033.675	987.22
1033.963	995.13
1034.251	984.28
1034.54	968.92
1034.828	971.63
1035.116	959.88
1035.403	938.18
1035.691	948.35
1035.979	965.98
1036.267	933.66
1036.554	923.27
1036.842	909.03
1037.129	943.38
1037.417	921.46
1037.704	916.26
1037.992	895.92
1038.279	874.23
1038.566	874.45
1038.853	874.45
1039.14	874.45
