Data from hue_350_FLMS001491_97.txt Node
Date: Mon Feb 06 15:38:47 GMT 2017
User: dcchb
Spectrometer: FLMS00149
Trigger mode: 0
Integration Time (sec): 2.000000E-2
Scans to average: 10
Electric dark correction enabled: true
Nonlinearity correction enabled: false
Boxcar width: 0
XAxis mode: Wavelengths
Number of Pixels in Spectrum: 2048
>>>>>Begin Spectral Data<<<<<
341.393	-19.02
341.776	-19.02
342.16	-19.02
342.543	-50.21
342.927	-53.37
343.31	-62.19
343.693	-59.93
344.077	-51.34
344.46	-72.58
344.843	-45.46
345.226	-35.3
345.61	-26.71
345.993	-15.41
346.376	5.61
346.759	10.13
347.142	19.62
347.525	37.02
347.908	39.73
348.291	87.64
348.674	72.05
349.057	97.13
349.44	126.96
349.823	122.44
350.206	163.57
350.588	194.08
350.971	223.45
351.354	220.74
351.737	253.74
352.119	258.93
352.502	267.07
352.884	296.67
353.267	276.79
353.65	289.22
354.032	283.34
354.414	319.5
354.797	315.88
355.179	318.14
355.562	319.5
355.944	317.69
356.326	316.79
356.709	338.48
357.091	337.12
357.473	332.38
357.855	324.69
358.238	333.51
358.62	326.05
359.002	301.42
359.384	328.99
359.766	343.9
360.148	312.04
360.53	334.41
360.912	328.54
361.294	319.27
361.676	316.79
362.057	313.85
362.439	323.56
362.821	308.65
363.203	335.99
363.584	306.62
363.966	319.72
364.348	312.49
364.729	316.11
365.111	321.08
365.493	318.37
365.874	326.73
366.256	330.8
366.637	315.66
367.019	307.07
367.4	307.29
367.781	326.5
368.163	310.91
368.544	327.18
368.925	303.45
369.306	320.63
369.688	315.66
370.069	318.37
370.45	315.43
370.831	318.14
371.212	304.36
371.593	293.96
371.974	316.79
372.355	285.15
372.736	307.52
373.117	309.33
373.498	293.96
373.879	334.64
374.26	320.85
374.641	298.71
375.021	295.32
375.402	314.53
375.783	306.62
376.163	324.69
376.544	298.71
376.925	300.74
377.305	321.08
377.686	346.16
378.066	306.84
378.447	321.53
378.827	328.54
379.208	320.85
379.588	335.54
379.968	311.81
380.349	323.34
380.729	340.29
381.109	302.1
381.489	309.55
381.87	305.94
382.25	334.19
382.63	356.56
383.01	341.64
383.39	359.95
383.77	322.89
384.15	337.58
384.53	343.23
384.91	326.95
385.29	341.42
385.67	356.78
386.049	357.69
386.429	325.37
386.809	335.54
387.189	339.16
387.568	342.77
387.948	380.74
388.328	354.98
388.707	332.15
389.087	355.65
389.466	341.64
389.846	339.38
390.225	362.21
390.605	357.69
390.984	344.58
391.363	355.88
391.743	345.49
392.122	351.59
392.501	352.26
392.881	381.64
393.26	367.63
393.639	367.86
394.018	368.54
394.397	354.07
394.776	382.32
395.155	354.07
395.534	391.59
395.913	374.19
396.292	369.44
396.671	362.66
397.05	379.61
397.429	379.16
397.808	375.54
398.186	371.7
398.565	377.35
398.944	367.86
399.323	383.22
399.701	387.07
400.08	376.22
400.458	382.32
400.837	382.09
401.215	390.23
401.594	374.64
401.972	380.51
402.351	393.39
402.729	404.24
403.107	370.8
403.486	428.19
403.864	404.69
404.242	397.01
404.62	411.47
404.999	412.38
405.377	421.42
405.755	421.64
406.133	413.96
406.511	409.44
406.889	407.86
407.267	424.13
407.645	419.83
408.023	406.27
408.401	423.9
408.779	411.92
409.156	422.32
409.534	438.14
409.912	448.08
410.29	443.79
410.667	441.3
411.045	426.61
411.422	450.12
411.8	458.02
412.178	454.86
412.555	458.48
412.933	446.73
413.31	440.4
413.687	444.92
414.065	455.54
414.442	472.26
414.819	465.03
415.197	475.43
415.574	490.79
415.951	472.94
416.328	476.33
416.705	498.48
417.082	478.14
417.46	506.16
417.837	500.28
418.214	501.87
418.591	504.8
418.967	490.57
419.344	499.83
419.721	536.67
420.098	510.45
420.475	498.93
420.852	529.21
421.228	515.88
421.605	519.49
421.982	524.92
422.358	536.89
422.735	541.86
423.111	542.77
423.488	514.07
423.864	535.31
424.241	554.97
424.617	541.64
424.994	547.97
425.37	565.82
425.746	553.39
426.123	560.62
426.499	573.95
426.875	565.14
427.251	563.56
427.627	600.17
428.003	583.9
428.379	576.89
428.756	595.42
429.132	584.35
429.507	593.61
429.883	620.96
430.259	608.76
430.635	604.69
431.011	622.77
431.387	638.13
431.763	645.82
432.138	636.33
432.514	646.04
432.89	636.55
433.265	662.77
433.641	668.64
434.016	679.94
434.392	675.87
434.767	691.24
435.143	680.84
435.518	683.78
435.894	687.62
436.269	719.94
436.644	710
437.02	719.03
437.395	685.36
437.77	710.67
438.145	708.64
438.52	731.46
438.895	725.36
439.271	741.86
439.646	760.39
440.021	759.49
440.395	764.91
440.77	761.52
441.145	764.68
441.52	762.42
441.895	772.59
442.27	776.66
442.645	770.33
443.019	803.33
443.394	752.25
443.769	792.71
444.143	768.98
444.518	807.62
444.892	787.96
445.267	806.72
445.641	796.32
446.016	833.83
446.39	813.72
446.764	833.16
447.139	813.95
447.513	817.11
447.887	805.13
448.262	822.08
448.636	814.17
449.01	832.48
449.384	849.2
449.758	852.36
450.132	851.46
450.506	859.14
450.88	845.13
451.254	841.74
451.628	872.48
452.002	893.04
452.376	910.89
452.75	865.92
453.123	925.58
453.497	922.87
453.871	910.89
454.244	909.76
454.618	926.49
454.992	928.75
455.365	950.22
455.739	954.51
456.112	966.49
456.486	970.1
456.859	988.86
457.232	983.43
457.606	980.95
457.979	999.25
458.352	1003.1
458.725	990.89
459.099	1011.23
459.472	1038.12
459.845	1035.41
460.218	1046.94
460.591	1060.49
460.964	1054.39
461.337	1087.61
461.71	1078.35
462.083	1078.8
462.456	1107.05
462.829	1104.34
463.201	1136.2
463.574	1112.24
463.947	1147.72
464.32	1141.62
464.692	1170.32
465.065	1170.77
465.438	1197.21
465.81	1188.4
466.183	1209.19
466.555	1239.25
466.928	1235.41
467.3	1227.95
467.672	1261.39
468.045	1287.61
468.417	1303.65
468.789	1313.37
469.161	1334.84
469.534	1333.93
469.906	1378.45
470.278	1397.66
470.65	1395.4
471.022	1401.95
471.394	1434.27
471.766	1440.82
472.138	1455.51
472.51	1470.88
472.882	1519.47
473.253	1518.34
473.625	1536.41
473.997	1577.54
474.369	1593.36
474.74	1589.29
475.112	1631.33
475.484	1670.87
475.855	1687.82
476.227	1695.73
476.598	1731.89
476.97	1741.61
477.341	1810.98
477.713	1816.63
478.084	1812.57
478.455	1909.74
478.827	1877.65
479.198	1940.47
479.569	1975.27
479.94	1985.44
480.311	2034.25
480.682	2092.33
481.053	2147.02
481.424	2134.36
481.795	2151.09
482.166	2168.04
482.537	2260.01
482.908	2288.94
483.279	2288.03
483.65	2363.74
484.021	2365.32
484.391	2409.39
484.762	2416.39
485.133	2453.9
485.503	2478.31
485.874	2507.46
486.244	2592.66
486.615	2644.86
486.985	2655.48
487.356	2720.11
487.726	2730.06
488.097	2760.11
488.467	2797.17
488.837	2839.88
489.207	2890.73
489.578	2932.76
489.948	2947.45
490.318	3005.98
490.688	3022.03
491.058	3041.91
491.428	3071.97
491.798	3136.6
492.168	3183.83
492.538	3186.31
492.908	3231.51
493.278	3324.39
493.648	3273.54
494.017	3366.65
494.387	3319.42
494.757	3407.33
495.126	3411.85
495.496	3457.27
495.866	3469.7
496.235	3505.85
496.605	3548.79
496.974	3568.45
497.344	3576.59
497.713	3613.65
498.082	3645.74
498.452	3678.28
498.821	3688.45
499.19	3690.93
499.559	3747.43
499.928	3774.77
500.298	3819.29
500.667	3808.9
501.036	3841.44
501.405	3870.36
501.774	3897.03
502.143	3900.19
502.512	3933.19
502.88	3963.47
503.249	3972.51
503.618	3906.07
503.987	3989.23
504.356	4041.66
504.724	4075.33
505.093	4067.2
505.462	4087.53
505.83	4080.3
506.199	4085.95
506.567	4174.09
506.936	4157.14
507.304	4213.41
507.672	4231.48
508.041	4225.61
508.409	4214.76
508.777	4292.5
509.145	4315.32
509.514	4290.24
509.882	4342.22
510.25	4351.26
510.618	4363.46
510.986	4356.23
511.354	4416.34
511.722	4445.72
512.09	4433.97
512.458	4466.05
512.826	4445.04
513.193	4488.43
513.561	4492.49
513.929	4517.13
514.297	4543.57
514.664	4600.51
515.032	4568.65
515.4	4590.35
515.767	4618.37
516.135	4643.45
516.502	4614.3
516.869	4727.29
517.237	4751.47
517.604	4702.88
517.972	4758.93
518.339	4737.46
518.706	4714.64
519.073	4770.23
519.44	4790.57
519.808	4803.67
520.175	4807.74
520.542	4887.74
520.909	4858.59
521.276	4910.56
521.643	4915.08
522.009	4976.1
522.376	4994.85
522.743	4974.06
523.11	5036.89
523.477	5087.28
523.843	5050.22
524.21	5109.43
524.577	5118.24
524.943	5174.74
525.31	5146.71
525.676	5176.54
526.043	5253.38
526.409	5250.67
526.776	5295.86
527.142	5265.58
527.508	5304.22
527.874	5390.78
528.241	5369.99
528.607	5403.88
528.973	5440.72
529.339	5432.13
529.705	5501.28
530.071	5507.38
530.437	5555.52
530.803	5580.83
531.169	5646.36
531.535	5558.68
531.901	5611.56
532.267	5655.85
532.632	5710.99
532.998	5715.51
533.364	5738.11
533.73	5742.41
534.095	5822.4
534.461	5860.82
534.826	5859.92
535.192	5881.61
535.557	5871.44
535.923	5947.6
536.288	5924.1
536.653	5958.67
537.019	5990.76
537.384	5980.37
537.749	6052.68
538.114	6046.8
538.479	6056.52
538.845	6066.46
539.21	6084.77
539.575	6084.54
539.94	6144.65
540.305	6212.45
540.67	6216.07
541.034	6212.9
541.399	6220.13
541.764	6242.05
542.129	6219.91
542.494	6340.13
542.858	6404.08
543.223	6345.78
543.587	6405.21
543.952	6428.49
544.316	6452.9
544.681	6413.12
545.045	6510.52
545.41	6479.79
545.774	6502.16
546.138	6531.99
546.503	6588.26
546.867	6582.84
547.231	6639.11
547.595	6692.89
547.959	6680.69
548.324	6743.28
548.688	6730.4
549.052	6700.12
549.416	6769.27
549.779	6756.39
550.143	6791.64
550.507	6905.09
550.871	6872.09
551.235	6905.99
551.599	6874.13
551.962	6924.3
552.326	6958.64
552.689	7005.42
553.053	6924.97
553.417	6997.74
553.78	7097.4
554.143	7031.19
554.507	7117.28
554.87	7089.94
555.234	7216.27
555.597	7145.98
555.96	7193.44
556.323	7199.32
556.686	7197.28
557.05	7249.71
557.413	7236.83
557.776	7279.77
558.139	7278.41
558.502	7277.96
558.865	7373.55
559.228	7398.41
559.59	7462.36
559.953	7444.28
560.316	7548.23
560.679	7498.52
561.041	7512.53
561.404	7621
561.767	7633.2
562.129	7557.05
562.492	7690.15
562.854	7686.08
563.217	7663.94
563.579	7689.25
563.941	7731.96
564.304	7771.05
564.666	7770.15
565.028	7860.54
565.39	7816.48
565.753	7919.75
566.115	7919.75
566.477	7924.95
566.839	7897.15
567.201	8020.99
567.563	8018.96
567.925	8091.5
568.287	8021.89
568.648	8088.56
569.01	8152.29
569.372	8105.73
569.734	8218.27
570.095	8198.61
570.457	8306.41
570.819	8254.43
571.18	8309.34
571.542	8311.38
571.903	8351.83
572.265	8375.56
572.626	8461.88
572.987	8523.12
573.349	8615.32
573.71	8642.22
574.071	8650.8
574.432	8669.33
574.794	8801.31
575.155	8826.17
575.516	8803.57
575.877	8926.95
576.238	8893.51
576.599	9017.8
576.96	9133.28
577.32	9105.71
577.681	9193.61
578.042	9324.91
578.403	9369.43
578.763	9501.4
579.124	9617.56
579.485	9645.58
579.845	9804.9
580.206	9865.01
580.566	9981.39
580.927	10116.53
581.287	10202.63
581.648	10256.64
582.008	10474.26
582.368	10563.3
582.728	10623.18
583.089	10751.99
583.449	10871.31
583.809	11068.37
584.169	11185.88
584.529	11327.8
584.889	11606.43
585.249	11753.32
585.609	11945.63
585.969	12127.32
586.329	12217.04
586.688	12500.19
587.048	12692.51
587.408	12869
587.768	13099.27
588.127	13247.52
588.487	13461.98
588.846	13822.42
589.206	13908.97
589.565	14234.84
589.925	14422.63
590.284	14727.48
590.643	14961.6
591.003	15086.57
591.362	15423.73
591.721	15623.73
592.08	15969.48
592.44	16293.99
592.799	16454.67
593.158	16796.8
593.517	17038.38
593.876	17340.97
594.235	17606.05
594.593	17874.06
594.952	18182.53
595.311	18445.57
595.67	18740.71
596.029	19089.4
596.387	19436.06
596.746	19710.85
597.104	19869.27
597.463	20137.06
597.822	20471.06
598.18	20717.83
598.538	20951.95
598.897	21360.53
599.255	21516.23
599.613	22040.28
599.972	22210
600.33	22617.22
600.688	22650.21
601.046	23123.87
601.404	23418.78
601.762	23659.67
602.12	23985.32
602.478	24299.21
602.836	24467.34
603.194	24728.35
603.552	24962.47
603.91	25087.21
604.268	25542.79
604.625	25669.34
604.983	26006.96
605.341	26147.29
605.698	26463.67
606.056	26792.02
606.413	27049.42
606.771	27392.01
607.128	27416.64
607.485	27625.22
607.843	27962.61
608.2	28262.94
608.557	28584.06
608.914	28653.89
609.272	29077.16
609.629	29240.77
609.986	29545.62
610.343	29551.95
610.7	30046.4
611.057	30261.99
611.414	30362.1
611.771	30528.87
612.127	30820.62
612.484	30883.44
612.841	31103.09
613.198	31285.01
613.554	31379.02
613.911	31758.9
614.267	31963.18
614.624	32028.72
614.98	32267.81
615.337	32486.11
615.693	32543.73
616.05	32577.18
616.406	33045.87
616.762	33037.73
617.118	33122.25
617.475	33278.86
617.831	33588.45
618.187	33729.69
618.543	33782.12
618.899	34133.07
619.255	34275.21
619.611	34153.18
619.967	34525.38
620.323	34429.79
620.678	34585.71
621.034	34629.1
621.39	34803.56
621.746	34905.03
622.101	35474.28
622.457	35058.92
622.812	35313.61
623.168	35520.15
623.523	35652.81
623.879	35644.22
624.234	35413.72
624.589	35910.65
624.945	35911.1
625.3	35945.68
625.655	36069.52
626.01	36191.77
626.365	36285.11
626.72	36382.96
627.075	36280.81
627.43	36370.3
627.785	36404.2
628.14	36502.73
628.495	36578.66
628.85	36562.61
629.205	36580.92
629.559	36853.23
629.914	36661.37
630.269	36767.58
630.623	36666.79
630.978	36617.3
631.332	36919.44
631.687	37030.85
632.041	36874.92
632.396	36985.2
632.75	36822.49
633.104	37003.96
633.459	36913.79
633.813	36993.11
634.167	36870.17
634.521	36878.08
634.875	36984.07
635.229	37028.59
635.583	36989.95
635.937	37025.2
636.291	36880.57
636.645	37030.4
636.999	36925.77
637.352	37094.58
637.706	36951.75
638.06	37055.03
638.413	36964.41
638.767	36960.79
639.121	36965.09
639.474	36885.77
639.828	36953.34
640.181	37083.28
640.534	36933.9
640.888	36841.47
641.241	36695.26
641.594	36867.69
641.947	36783.85
642.301	36935.26
642.654	36972.32
643.007	36891.64
643.36	36964.86
643.713	36837.63
644.066	37056.16
644.419	36679.22
644.771	36563.74
645.124	36277.42
645.477	36081.95
645.83	36006.92
646.182	35846.47
646.535	35818.9
646.888	35938.67
647.24	35570.32
647.593	35844.89
647.945	35696.65
648.298	35622.52
648.65	35534.84
649.002	35500.04
649.355	35773.48
649.707	35658.23
650.059	35817.09
650.411	36127.82
650.763	36191.1
651.115	36629.95
651.467	36401.03
651.819	36463.41
652.171	36370.3
652.523	36378.89
652.875	36343.18
653.227	36219.12
653.578	36519.9
653.93	36441.49
654.282	36368.94
654.633	36217.08
654.985	36303.41
655.337	36299.12
655.688	36257.54
656.039	36606.9
656.391	36118.56
656.742	36131.21
657.094	36304.31
657.445	36347.7
657.796	36269.74
658.147	36085.56
658.498	36091.89
658.849	36246.69
659.2	36288.72
659.551	36066.35
659.902	36227.71
660.253	36269.06
660.604	36238.78
660.955	36009.41
661.306	36158.78
661.656	36007.15
662.007	36036.98
662.358	36057.09
662.708	35960.59
663.059	36121.49
663.409	35898.22
663.76	36180.7
664.11	36052.79
664.461	36108.84
664.811	36135.05
665.161	36140.25
665.511	36022.06
665.862	36086.47
666.212	36124.43
666.562	36052.57
666.912	36044.21
667.262	36026.13
667.612	36123.53
667.962	36038.78
668.312	35975.51
668.662	36244.65
669.011	36013.7
669.361	35967.37
669.711	35995.17
670.06	35846.02
670.41	35875.85
670.76	35754.27
671.109	36051.89
671.459	35964.89
671.808	35869.52
672.157	35940.48
672.507	35709.08
672.856	35690.77
673.205	35781.84
673.554	35873.36
673.904	35607.83
674.253	35890.54
674.602	35780.26
674.951	35245.58
675.3	34938.02
675.649	35693.26
675.998	35745.23
676.346	35555.86
676.695	35685.35
677.044	35508.4
677.393	35577.55
677.741	35566.25
678.09	35524.9
678.438	35344.34
678.787	35557.89
679.135	35521.51
679.484	35444.68
679.832	35447.61
680.181	35157.68
680.529	35331.91
680.877	35205.13
681.225	35149.32
681.573	35422.3
681.922	35191.8
682.27	35195.64
682.618	35079.71
682.966	34987.51
683.314	35065.25
683.661	34889.44
684.009	34759.5
684.357	34599.73
684.705	34605.83
685.053	34669.1
685.4	34611.48
685.748	34446.51
686.095	34450.8
686.443	34493.51
686.79	34359.28
687.138	34387.98
687.485	34383.46
687.832	34261.88
688.18	34316.34
688.527	34136.91
688.874	34025.73
689.221	34042.23
689.568	33918.16
689.915	33890.14
690.262	33823.02
690.609	33676.59
690.956	33623.03
691.303	33450.15
691.65	33465.74
691.997	33523.82
692.344	33191.85
692.69	33310.49
693.037	33355.69
693.383	33072.53
693.73	33109.82
694.077	32968.36
694.423	33027.56
694.769	32819.21
695.116	32730.4
695.462	32793.67
695.808	32517.97
696.155	32712.32
696.501	32544.64
696.847	32475.94
697.193	32164.76
697.539	32247.47
697.885	32066.69
698.231	32069.62
698.577	31871.44
698.923	31988.95
699.269	31666.92
699.614	31623.08
699.96	31662.85
700.306	31506.93
700.651	31400.04
700.997	31213.37
701.342	31329.53
701.688	31142.42
702.033	31189.19
702.379	31255.41
702.724	31031.91
703.069	31110.1
703.415	30682.99
703.76	30752.82
704.105	30741.07
704.45	30757.34
704.795	30527.06
705.14	30477.8
705.485	30393.28
705.83	30205.27
706.175	30315.32
706.52	30259.27
706.865	30183.34
707.209	30060.18
707.554	29978.38
707.899	30003.46
708.243	29900.19
708.588	29869
708.932	29659.74
709.277	29640.53
709.621	29623.59
709.966	29512.18
710.31	29455.45
710.654	29368
710.998	29290.03
711.342	29343.37
711.687	29313.54
712.031	29149.47
712.375	29026.54
712.719	29025.64
713.063	29013.43
713.407	29105.41
713.75	28942.93
714.094	28841.23
714.438	28761.24
714.782	28758.98
715.125	28577.74
715.469	28630.39
715.812	28614.12
716.156	28436.05
716.499	28365.31
716.843	28334.58
717.186	28201.48
717.53	28313.34
717.873	28367.57
718.216	28248.71
718.559	28081.93
718.902	27918.09
719.246	28057.52
719.589	27896.4
719.932	27908.6
720.275	27834.93
720.617	27920.81
720.96	27707.7
721.303	27770.75
721.646	27715.61
721.989	27570.31
722.331	27669.96
722.674	27551.1
723.016	27666.57
723.359	27536.41
723.701	27563.07
724.044	27338
724.386	27153.59
724.729	27364.89
725.071	27179.13
725.413	27170.09
725.755	27291.44
726.097	27089.64
726.439	26998.57
726.782	26967.61
727.124	27089.87
727.465	26944.56
727.807	26960.15
728.149	26846.94
728.491	26815.52
728.833	26870.44
729.175	26673.38
729.516	26613.72
729.858	26613.72
730.199	26702.31
730.541	26592.93
730.882	26590.9
731.224	26660.95
731.565	26322.66
731.906	26515.64
732.248	26518.13
732.589	26251.02
732.93	26251.92
733.271	26299.83
733.612	26290.11
733.953	26271.81
734.294	26132.6
734.635	26127.18
734.976	26123.56
735.317	25990.23
735.658	26098.25
735.999	25983.46
736.339	25939.16
736.68	26057.8
737.021	25835.21
737.361	25863.91
737.702	25924.93
738.042	25808.32
738.383	25750.69
738.723	25786.4
739.063	25692.62
739.404	25647.19
739.744	25704.37
740.084	25577.59
740.424	25645.39
740.764	25502.79
741.104	25585.27
741.444	25469.34
741.784	25259.18
742.124	25366.07
742.464	25317.94
742.804	25357.71
743.143	25355.45
743.483	25304.38
743.823	25103.25
744.162	25207.43
744.502	25137.15
744.841	25071.39
745.181	25100.99
745.52	25037.94
745.86	25100.77
746.199	24995.46
746.538	24910.72
746.877	24975.8
747.216	24860.32
747.556	24783.03
747.895	24942.35
748.234	24674.34
748.573	24629.59
748.911	24643.83
749.25	24636.82
749.589	24590.27
749.928	24574
750.267	24625.52
750.605	24450.84
750.944	24390.05
751.283	24412.2
751.621	24579.2
751.96	24385.98
752.298	24258.3
752.636	24380.33
752.975	24202.71
753.313	24097.63
753.651	24271.86
753.989	24098.76
754.327	24010.63
754.666	23926.79
755.004	23973.56
755.342	23900.57
755.679	23815.38
756.017	23697.41
756.355	23867.35
756.693	23549.85
757.031	23766.79
757.368	23640.47
757.706	23508.27
758.044	23474.59
758.381	23514.14
758.719	23449.06
759.056	23414.26
759.394	23225.34
759.731	23114.38
760.068	23241.61
760.405	23148.73
760.743	23041.61
761.08	23156.18
761.417	22856.98
761.754	22863.09
762.091	22745.57
762.428	22815.4
762.765	22608.63
763.102	22694.95
763.438	22486.37
763.775	22390.78
764.112	22540.83
764.449	22440.95
764.785	22316.88
765.122	22227.85
765.458	22227.62
765.795	22107.85
766.131	22078.25
766.467	22070.34
766.804	21808.42
767.14	21783.79
767.476	21785.37
767.812	21700.63
768.148	21724.81
768.485	21569.79
768.821	21430.81
769.157	21441.43
769.492	21443.01
769.828	21387.19
770.164	21177.48
770.5	21142.68
770.836	21227.65
771.171	20874.66
771.507	21016.58
771.842	20737.94
772.178	20810.26
772.513	20749.69
772.849	20741.79
773.184	20570.72
773.519	20567.33
773.855	20452.98
774.19	20334.34
774.525	20359.65
774.86	20357.39
775.195	20251.63
775.53	20130.05
775.865	20084.18
776.2	19916.5
776.535	19818.87
776.87	19815.48
777.205	19790.62
777.539	19601.48
777.874	19586.79
778.209	19558.99
778.543	19427.47
778.878	19408.94
779.212	19366.23
779.547	19188.61
779.881	19297.98
780.215	19112.68
780.55	19100.7
780.884	18973.02
781.218	18983.64
781.552	19012.11
781.886	18829.29
782.22	18736.64
782.554	18690.31
782.888	18521.28
783.222	18473.14
783.556	18308.63
783.889	18280.61
784.223	18076.32
784.557	18201.06
784.89	18137.11
785.224	18091.91
785.557	17925.81
785.891	17921.52
786.224	17980.5
786.558	17853.05
786.891	17813.73
787.224	17755.42
787.557	17656.22
787.891	17628.87
788.224	17540.97
788.557	17582.32
788.89	17528.31
789.223	17489.44
789.556	17298.49
789.888	17320.41
790.221	17153.86
790.554	17006.74
790.887	17030.47
791.219	17034.99
791.552	16888.78
791.884	16826.86
792.217	16899.85
792.549	16752.06
792.882	16605.4
793.214	16599.07
793.546	16575.34
793.879	16431.84
794.211	16383.26
794.543	16406.08
794.875	16357.49
795.207	16385.74
795.539	16287.89
795.871	16346.65
796.203	16129.7
796.535	16034.11
796.867	15989.82
797.198	15933.32
797.53	15950.72
797.862	15856.26
798.193	15890.16
798.525	15750.28
798.856	15836.6
799.188	15582.82
799.519	15596.16
799.85	15553.9
800.182	15525.2
800.513	15575.59
800.844	15429.83
801.175	15452.43
801.506	15443.17
801.837	15332.89
802.168	15313.91
802.499	15261.48
802.83	15207.24
803.161	15103.52
803.491	15040.47
803.822	15093.8
804.153	14975.38
804.483	14913.01
804.814	14897.65
805.145	14837.99
805.475	14810.87
805.805	14740.81
806.136	14745.33
806.466	14701.27
806.796	14675.5
807.126	14586.69
807.457	14526.13
807.787	14556.41
808.117	14498.11
808.447	14440.48
808.777	14480.71
809.107	14397.77
809.436	14309.64
809.766	14340.15
810.096	14245.68
810.426	14172.24
810.755	14208.17
811.085	14185.57
811.414	14082.75
811.744	13953.26
812.073	13994.84
812.403	13970.89
812.732	13871.01
813.061	13881.85
813.39	13756.66
813.719	13805.7
814.049	13913.72
814.378	13749.88
814.707	13669.65
815.036	13663.78
815.365	13673.5
815.693	13502.43
816.022	13583.78
816.351	13546.04
816.68	13387.63
817.008	13490.9
817.337	13362.77
817.665	13366.61
817.994	13389.66
818.322	13330.91
818.651	13301.08
818.979	13216.11
819.307	13297.46
819.636	13226.73
819.964	13166.84
820.292	13217.92
820.62	13170.91
820.948	13156.22
821.276	13162.1
821.604	13198.48
821.932	13174.98
822.259	13112.16
822.587	13176.33
822.915	13106.73
823.243	13078.71
823.57	13044.36
823.898	13110.8
824.225	12996.68
824.553	13053.17
824.88	13051.82
825.207	13086.85
825.535	13099.73
825.862	13022.67
826.189	13060.63
826.516	13035.32
826.843	13081.65
827.17	13118.93
827.497	13085.49
827.824	13024.25
828.151	13033.29
828.478	13030.58
828.805	13087.75
829.131	13044.13
829.458	12945.15
829.785	12929.56
830.111	12920.52
830.438	13037.13
830.764	12989.22
831.09	12993.74
831.417	12916.23
831.743	13053.63
832.069	12967.3
832.395	12916.23
832.722	12970.24
833.048	12890.92
833.374	12883.46
833.7	12843.91
834.026	12855.21
834.351	12919.62
834.677	12896.12
835.003	12933.63
835.329	12819.06
835.654	12905.38
835.98	12806.85
836.306	12785.38
836.631	12727.98
836.956	12814.31
837.282	12763.01
837.607	12695.22
837.932	12682.79
838.258	12631.26
838.583	12647.76
838.908	12555.56
839.233	12609.34
839.558	12523.24
839.883	12557.82
840.208	12514.66
840.533	12507.2
840.858	12560.08
841.182	12508.78
841.507	12445.51
841.832	12373.42
842.156	12379.75
842.481	12331.84
842.805	12370.71
843.13	12223.37
843.454	12286.19
843.778	12199.86
844.103	12161.9
844.427	12153.31
844.751	12173.2
845.075	12083.03
845.399	12065.63
845.723	11986.76
846.047	12017.72
846.371	11979.76
846.695	11957.61
847.019	11848.91
847.343	11775.92
847.666	11721.68
847.99	11635.13
848.313	11620.67
848.637	11577.05
848.96	11581.35
849.284	11585.64
849.607	11455.02
849.931	11424.97
850.254	11340
850.577	11257.29
850.9	11223.84
851.223	11228.81
851.546	11226.1
851.869	11126.22
852.192	11170.74
852.515	11055.71
852.838	11044.64
853.161	10975.94
853.483	10916.05
853.806	10937.98
854.129	10952.44
854.451	10793.12
854.774	10789.05
855.096	10757.87
855.419	10729.17
855.741	10688.72
856.063	10607.36
856.385	10647.81
856.708	10595.61
857.03	10541.38
857.352	10500.47
857.674	10577.76
857.996	10423.86
858.318	10432.9
858.64	10477.65
858.961	10295.05
859.283	10364.88
859.605	10399.46
859.926	10357.65
860.248	10257.99
860.57	10212.34
860.891	10309.52
861.212	10175.74
861.534	10143.65
861.855	10112.23
862.176	10132.57
862.498	10177.77
862.819	10128.28
863.14	10098.9
863.461	10047.83
863.782	9964.22
864.103	9961.05
864.424	9974.16
864.745	10064.78
865.065	9963.76
865.386	9929.64
865.707	9841.96
866.027	9936.65
866.348	9827.95
866.668	9858.91
866.989	9829.3
867.309	9807.16
867.63	9822.75
867.95	9854.16
868.27	9733.71
868.59	9738.68
868.91	9797.21
869.23	9729.42
869.55	9645.81
869.87	9759.7
870.19	9720.83
870.51	9663.88
870.83	9693.49
871.15	9590.89
871.469	9628.86
871.789	9641.29
872.109	9603.09
872.428	9504.34
872.748	9597.67
873.067	9586.82
873.386	9554.73
873.706	9519.71
874.025	9458.69
874.344	9473.38
874.663	9509.54
874.982	9469.77
875.301	9392.71
875.62	9365.36
875.939	9404.68
876.258	9389.99
876.577	9330.79
876.896	9359.03
877.214	9323.33
877.533	9348.19
877.852	9302.31
878.17	9289.66
878.489	9300.5
878.807	9259.83
879.125	9197.68
879.444	9233.16
879.762	9188.42
880.08	9267.74
880.398	9066.84
880.716	9175.31
881.034	9144.58
881.352	9149.77
881.67	9120.17
881.988	9077.23
882.306	9085.37
882.624	9111.36
882.941	9006.95
883.259	8935.09
883.577	8986.39
883.894	8946.84
884.212	8925.82
884.529	8916.33
884.846	8904.58
885.164	8843.57
885.481	8848.54
885.798	8838.82
886.115	8821.42
886.432	8760.18
886.75	8827.07
887.067	8748.43
887.383	8714.98
887.7	8771.93
888.017	8697.58
888.334	8771.25
888.651	8626.85
888.967	8651.71
889.284	8557.92
889.6	8569.68
889.917	8555.21
890.233	8529.9
890.55	8518.6
890.866	8536.46
891.182	8481.54
891.498	8442.45
891.815	8478.83
892.131	8385.05
892.447	8372.84
892.763	8345.05
893.079	8293.75
893.395	8289.01
893.71	8277.93
894.026	8263.7
894.342	8257.59
894.657	8142.34
894.973	8121.33
895.289	8165.62
895.604	8152.29
895.92	8065.28
896.235	8040.2
896.55	8023.25
896.865	8052.63
897.181	8019.86
897.496	7987.32
897.811	7914.33
898.126	7868.9
898.441	7917.04
898.756	7899.41
899.071	7823.93
899.386	7857.6
899.7	7730.15
900.015	7778.96
900.33	7653.99
900.644	7682.47
900.959	7639.08
901.273	7614.67
901.588	7538.06
901.902	7522.7
902.216	7525.64
902.531	7509.59
902.845	7475.69
903.159	7447.9
903.473	7409.48
903.787	7357.28
904.101	7384.4
904.415	7329.03
904.729	7298.97
905.042	7293.1
905.356	7249.03
905.67	7286.77
905.984	7284.74
906.297	7196.6
906.611	7117.96
906.924	7133.78
907.237	7110.28
907.551	7089.04
907.864	7076.83
908.177	7031.86
908.491	7070.96
908.804	7005.88
909.117	6911.64
909.43	6910.28
909.743	6863.73
910.056	6864.64
910.368	6808.37
910.681	6820.8
910.994	6814.69
911.307	6781.02
911.619	6694.7
911.932	6730.4
912.244	6658.09
912.557	6719.55
912.869	6631.65
913.181	6611.08
913.494	6609.5
913.806	6550.07
914.118	6579.9
914.43	6520.24
914.742	6473.23
915.054	6426.46
915.366	6394.14
915.678	6382.84
915.99	6334.03
916.302	6296.74
916.613	6300.36
916.925	6300.13
917.236	6247.48
917.548	6239.12
917.859	6228.04
918.171	6140.36
918.482	6172.68
918.794	6094.26
919.105	6123.41
919.416	6044.32
919.727	6021.04
920.038	6083.19
920.349	6022.4
920.66	5961.83
920.971	5923.64
921.282	5954.6
921.593	5881.61
921.903	5906.24
922.214	5812.01
922.525	5830.09
922.835	5745.34
923.146	5732.69
923.456	5733.14
923.767	5737.89
924.077	5722.07
924.387	5708.73
924.697	5650.43
925.008	5643.88
925.318	5625.35
925.628	5607.27
925.938	5576.31
926.248	5517.78
926.558	5496.99
926.867	5498.8
927.177	5513.48
927.487	5435.97
927.796	5419.25
928.106	5457.67
928.416	5414.5
928.725	5346.71
929.034	5315.98
929.344	5354.17
929.653	5306.71
929.962	5282.08
930.271	5233.72
930.581	5185.36
930.89	5195.3
931.199	5140.84
931.508	5128.86
931.817	5164.34
932.125	5093.16
932.434	5094.06
932.743	5076.43
933.051	5040.5
933.36	5021.07
933.669	4992.37
933.977	5010
934.286	4950.11
934.594	4940.17
934.902	4954.4
935.21	4873.95
935.519	4925.93
935.827	4854.52
936.135	4819.72
936.443	4788.53
936.751	4747.18
937.059	4785.37
937.367	4710.79
937.674	4725.94
937.982	4721.19
938.29	4694.3
938.597	4671.02
938.905	4638.93
939.213	4663.56
939.52	4619.05
939.827	4610.01
940.135	4556.22
940.442	4601.19
940.749	4553.96
941.056	4536.11
941.363	4462.67
941.67	4497.24
941.977	4439.61
942.284	4422.89
942.591	4436.23
942.898	4416.34
943.205	4419.95
943.511	4409.79
943.818	4373.4
944.125	4339.05
944.431	4311.03
944.738	4326.85
945.044	4286.85
945.35	4281.43
945.657	4213.86
945.963	4193.97
946.269	4198.04
946.575	4205.72
946.881	4158.94
947.187	4136.35
947.493	4147.42
947.799	4101.09
948.105	4060.87
948.41	4089.34
948.716	4098.83
949.022	4057.48
949.327	4025.84
949.633	3999.4
949.938	3979.51
950.244	4045.05
950.549	3955.33
950.854	3961.21
951.16	3927.09
951.465	3934.54
951.77	3877.37
952.075	3823.13
952.38	3840.99
952.685	3870.59
952.99	3797.82
953.294	3784.49
953.599	3791.5
953.904	3750.37
954.209	3740.65
954.513	3734.77
954.818	3732.97
955.122	3674.89
955.426	3680.54
955.731	3643.25
956.035	3671.73
956.339	3666.53
956.643	3627.43
956.948	3607.09
957.252	3593.99
957.556	3638.28
957.86	3576.13
958.163	3531.39
958.467	3545.63
958.771	3532.29
959.075	3474.44
959.378	3516.93
959.682	3507.89
959.985	3483.48
960.289	3475.35
960.592	3436.48
960.896	3430.15
961.199	3398.74
961.502	3421.79
961.805	3377.5
962.108	3356.03
962.411	3358.51
962.714	3328.91
963.017	3339.3
963.32	3319.42
963.623	3286.88
963.926	3307.89
964.228	3244.39
964.531	3249.59
964.833	3243.26
965.136	3206.88
965.438	3210.95
965.741	3192.87
966.043	3192.64
966.345	3163.04
966.648	3169.82
966.95	3161.23
967.252	3114.68
967.554	3113.32
967.856	3120.78
968.158	3095.92
968.46	3082.36
968.761	3051.18
969.063	3075.36
969.365	3075.58
969.666	3007.56
969.968	2987.9
970.269	2993.55
970.571	3006.43
970.872	2952.87
971.174	2925.53
971.475	2924.85
971.776	2925.3
972.077	2906.55
972.378	2908.81
972.679	2909.26
972.98	2904.06
973.281	2864.29
973.582	2877.62
973.883	2839.43
974.183	2857.06
974.484	2793.56
974.785	2786.78
975.085	2799.88
975.386	2816.38
975.686	2761.01
975.986	2758.53
976.287	2761.92
976.587	2729.38
976.887	2715.82
977.187	2680.57
977.487	2707.68
977.787	2683.73
978.087	2679.66
978.387	2648.25
978.687	2619.78
978.987	2613.22
979.286	2602.38
979.586	2637.63
979.885	2591.98
980.185	2597.18
980.484	2587.23
980.784	2566.44
981.083	2555.6
981.382	2546.78
981.682	2514.24
981.981	2531.87
982.28	2530.29
982.579	2493.45
982.878	2511.08
983.177	2488.71
983.475	2466.79
983.774	2453.9
984.073	2437.18
984.372	2418.2
984.67	2438.99
984.969	2430.63
985.267	2431.08
985.566	2409.61
985.864	2395.83
986.162	2375.49
986.461	2371.19
986.759	2338.88
987.057	2332.55
987.355	2346.11
987.653	2312.89
987.951	2322.16
988.249	2285.1
988.547	2354.25
988.844	2306.79
989.142	2299.78
989.44	2244.19
989.737	2248.26
990.035	2278.99
990.332	2227.24
990.63	2220.24
990.927	2196.51
991.224	2197.19
991.521	2157.64
991.819	2191.99
992.116	2161.93
992.413	2163.29
992.71	2179.11
993.006	2147.92
993.303	2115.83
993.6	2110.86
993.897	2119.22
994.193	2118.77
994.49	2130.75
994.787	2114.93
995.083	2106.12
995.379	2086
995.676	2038.32
995.972	2053.69
996.268	2055.95
996.565	2028.6
996.861	2026.57
997.157	2004.2
997.453	2029.73
997.749	1990.41
998.044	1989.06
998.34	2000.58
998.636	1933.24
998.932	1967.36
999.227	1932.56
999.523	1938.21
999.818	1931.43
1000.114	1933.69
1000.409	1867.48
1000.704	1903.18
1001	1868.16
1001.295	1889.17
1001.59	1820.25
1001.885	1898.89
1002.18	1822.73
1002.475	1841.94
1002.77	1847.14
1003.065	1817.76
1003.359	1805.33
1003.654	1775.28
1003.949	1794.26
1004.243	1793.58
1004.538	1763.53
1004.832	1736.41
1005.127	1747.71
1005.421	1725.79
1005.715	1762.17
1006.009	1687.82
1006.304	1694.83
1006.598	1728.73
1006.892	1721.95
1007.186	1665.9
1007.48	1709.52
1007.773	1662.06
1008.067	1641.04
1008.361	1646.24
1008.655	1601.05
1008.948	1639.91
1009.242	1598.56
1009.535	1598.79
1009.829	1602.85
1010.122	1564.89
1010.415	1592.46
1010.708	1601.95
1011.001	1585.68
1011.295	1560.82
1011.588	1566.92
1011.881	1542.52
1012.173	1507.49
1012.466	1499.13
1012.759	1504.55
1013.052	1480.82
1013.344	1522.63
1013.637	1485.34
1013.93	1481.05
1014.222	1460.71
1014.514	1459.13
1014.807	1450.54
1015.099	1451.9
1015.391	1437.66
1015.683	1397.44
1015.976	1470.88
1016.268	1417.55
1016.56	1424.1
1016.851	1421.16
1017.143	1383.65
1017.435	1396.76
1017.727	1371
1018.018	1351.33
1018.31	1362.18
1018.602	1358.34
1018.893	1351.56
1019.185	1335.29
1019.476	1341.17
1019.767	1345.23
1020.058	1325.12
1020.35	1324.67
1020.641	1283.77
1020.932	1312.24
1021.223	1239.25
1021.514	1283.09
1021.804	1260.49
1022.095	1286.25
1022.386	1254.39
1022.677	1255.07
1022.967	1252.58
1023.258	1223.2
1023.548	1219.13
1023.839	1232.47
1024.129	1195.18
1024.419	1212.58
1024.709	1179.14
1025	1173.03
1025.29	1159.25
1025.58	1150.21
1025.87	1154.5
1026.16	1162.19
1026.449	1134.39
1026.739	1148.4
1027.029	1106.6
1027.319	1132.13
1027.608	1107.05
1027.898	1125.8
1028.187	1091.45
1028.477	1114.28
1028.766	1100.04
1029.055	1073.15
1029.344	1073.83
1029.634	1105.69
1029.923	1088.29
1030.212	1041.29
1030.501	1042.87
1030.79	1028.63
1031.078	1024.34
1031.367	1025.24
1031.656	1017.56
1031.945	1038.35
1032.233	989.08
1032.522	1008.29
1032.81	990.44
1033.099	1015.07
1033.387	979.59
1033.675	986.37
1033.963	964.9
1034.251	953.15
1034.54	963.77
1034.828	937.11
1035.116	961.06
1035.403	940.95
1035.691	938.69
1035.979	937.79
1036.267	931.46
1036.554	913.15
1036.842	949.76
1037.129	924.91
1037.417	931.91
1037.704	863.89
1037.992	919.71
1038.279	892.82
1038.566	886.04
1038.853	886.04
1039.14	886.04
