Data from hue_170_FLMS001491_00035.txt Node
Date: Tue Feb 07 16:48:36 GMT 2017
User: dcchb
Spectrometer: FLMS00149
Trigger mode: 0
Integration Time (sec): 2.000000E-2
Scans to average: 10
Electric dark correction enabled: true
Nonlinearity correction enabled: false
Boxcar width: 0
XAxis mode: Wavelengths
Number of Pixels in Spectrum: 2048
>>>>>Begin Spectral Data<<<<<
341.393	-24.21
341.776	-24.21
342.16	-24.21
342.543	-52.46
342.927	-49.07
343.31	-95.17
343.693	-78.44
344.077	-68.05
344.46	-50.42
344.843	-32.34
345.226	-28.28
345.61	-40.48
345.993	-8.62
346.376	-10.42
346.759	-13.59
347.142	39.52
347.525	60.08
347.908	51.72
348.291	74.32
348.674	93.98
349.057	106.18
349.44	128.78
349.823	133.53
350.206	178.72
350.588	178.72
350.971	222.34
351.354	243.36
351.737	225.73
352.119	251.72
352.502	254.65
352.884	266.41
353.267	283.58
353.65	275.9
354.032	295.33
354.414	300.53
354.797	306.86
355.179	314.09
355.562	291.49
355.944	319.74
356.326	343.01
356.709	323.35
357.091	349.57
357.473	351.6
357.855	324.48
358.238	349.79
358.62	343.47
359.002	354.31
359.384	342.56
359.766	340.53
360.148	364.03
360.53	339.62
360.912	318.83
361.294	338.27
361.676	340.75
362.057	344.14
362.439	343.24
362.821	337.59
363.203	329.91
363.584	320.87
363.966	298.49
364.348	307.76
364.729	309.79
365.111	331.71
365.493	321.55
365.874	295.78
366.256	317.7
366.637	318.61
367.019	299.4
367.4	296.69
367.781	317.48
368.163	320.42
368.544	310.02
368.925	303.69
369.306	336.91
369.688	318.38
370.069	328.55
370.45	323.35
370.831	320.64
371.212	304.37
371.593	333.07
371.974	324.93
372.355	328.55
372.736	307.08
373.117	329
373.498	331.71
373.879	314.09
374.26	332.39
374.641	315.67
375.021	326.29
375.402	310.7
375.783	330.81
376.163	321.77
376.544	334.88
376.925	317.7
377.305	322.22
377.686	314.99
378.066	314.09
378.447	316.57
378.827	345.5
379.208	321.55
379.588	342.11
379.968	338.04
380.349	329
380.729	323.13
381.109	338.49
381.489	328.32
381.87	345.05
382.25	348.89
382.63	345.27
383.01	342.56
383.39	357.25
383.77	342.79
384.15	325.84
384.53	343.69
384.91	353.86
385.29	362.22
385.67	337.82
386.049	334.65
386.429	355.89
386.809	361.54
387.189	348.89
387.568	364.26
387.948	326.29
388.328	379.62
388.707	354.31
389.087	354.54
389.466	359.06
389.846	338.04
390.225	365.61
390.605	373.97
390.984	367.42
391.363	379.17
391.743	379.62
392.122	377.36
392.501	359.96
392.881	386.63
393.26	359.28
393.639	369.23
394.018	391.6
394.397	370.58
394.776	383.92
395.155	370.13
395.534	412.16
395.913	396.35
396.292	390.24
396.671	387.08
397.05	386.63
397.429	392.28
397.808	385.95
398.186	402.45
398.565	402.67
398.944	387.08
399.323	391.15
399.701	395.67
400.08	384.59
400.458	401.09
400.837	402.67
401.215	425.27
401.594	401.54
401.972	407.64
402.351	411.03
402.729	412.84
403.107	408.1
403.486	427.98
403.864	412.84
404.242	441.99
404.62	432.95
404.999	427.98
405.377	433.41
405.755	454.65
406.133	451.03
406.511	462.11
406.889	451.26
407.267	442.45
407.645	463.01
408.023	473.63
408.401	460.98
408.779	451.26
409.156	477.25
409.534	461.2
409.912	484.25
410.29	488.32
410.667	496.68
411.045	490.13
411.422	492.39
411.8	505.72
412.178	502.33
412.555	531.26
412.933	533.52
413.31	513.4
413.687	520.41
414.065	528.55
414.442	533.97
414.819	550.92
415.197	551.82
415.574	570.58
415.951	559.28
416.328	559.51
416.705	560.18
417.082	568.77
417.46	575.55
417.837	593.85
418.214	577.81
418.591	584.36
418.967	583.46
419.344	593.63
419.721	594.98
420.098	599.05
420.475	613.97
420.852	622.55
421.228	617.81
421.605	631.37
421.982	640.18
422.358	640.63
422.735	639.5
423.111	637.7
423.488	667.52
423.864	661.88
424.241	661.65
424.617	712.5
424.994	693.06
425.37	699.39
425.746	724.92
426.123	709.56
426.499	729.22
426.875	718.6
427.251	738.26
427.627	749.56
428.003	733.96
428.379	733.96
428.756	772.15
429.132	763.12
429.507	783.68
429.883	806.28
430.259	807.41
430.635	801.76
431.011	814.19
431.387	818.03
431.763	830.23
432.138	814.87
432.514	844.02
432.89	829.33
433.265	873.85
433.641	873.62
434.016	862.77
434.392	880.85
434.767	891.47
435.143	916.78
435.518	907.52
435.894	931.7
436.269	951.13
436.644	972.15
437.02	976.44
437.395	983
437.77	999.04
438.145	993.84
438.52	1027.52
438.895	1015.76
439.271	1022.77
439.646	1072.94
440.021	1081.3
440.395	1069.77
440.77	1062.99
441.145	1112.03
441.52	1090.11
441.895	1124.91
442.27	1114.29
442.645	1115.87
443.019	1135.76
443.394	1142.54
443.769	1170.79
444.143	1145.03
444.518	1193.39
444.892	1186.16
445.267	1168.08
445.641	1207.17
446.016	1193.61
446.39	1215.76
446.764	1218.92
447.139	1216.44
447.513	1230.45
447.887	1249.66
448.262	1263.44
448.636	1249.88
449.01	1272.48
449.384	1296.89
449.758	1291.01
450.132	1323.55
450.506	1318.58
450.88	1339.37
451.254	1354.29
451.628	1352.7
452.002	1361.74
452.376	1371.24
452.75	1392.93
453.123	1407.17
453.497	1417.56
453.871	1452.14
454.244	1484.23
454.618	1469.76
454.992	1483.55
455.365	1522.19
455.739	1538.01
456.112	1559.48
456.486	1555.86
456.859	1592.02
457.232	1577.78
457.606	1612.36
457.979	1640.38
458.352	1664.79
458.725	1643.54
459.099	1696.42
459.472	1718.12
459.845	1719.25
460.218	1761.73
460.591	1782.52
460.964	1790.43
461.337	1822.3
461.71	1846.7
462.083	1879.47
462.456	1872.46
462.829	1899.13
463.201	1953.37
463.574	1963.54
463.947	2019.13
464.32	2018.68
464.692	2039.24
465.065	2076.3
465.438	2098
465.81	2146.58
466.183	2205.79
466.555	2210.99
466.928	2212.12
467.3	2240.14
467.672	2282.62
468.045	2319.91
468.417	2334.83
468.789	2400.81
469.161	2403.07
469.534	2481.49
469.906	2528.94
470.278	2557.87
470.65	2600.81
471.022	2643.74
471.394	2697.3
471.766	2725.32
472.138	2789.95
472.51	2873.57
472.882	2948.59
473.253	2988.37
473.625	2973.9
473.997	3094.13
474.369	3135.71
474.74	3141.36
475.112	3240.34
475.484	3311.3
475.855	3346.78
476.227	3450.73
476.598	3540.67
476.97	3575.47
477.341	3670.61
477.713	3762.13
478.084	3793.32
478.455	3947.44
478.827	3974.78
479.198	4105.85
479.569	4177.94
479.94	4304.49
480.311	4392.17
480.682	4477.82
481.053	4559.17
481.424	4703.35
481.795	4762.56
482.166	4890.92
482.537	4939.28
482.908	5171.81
483.279	5205.71
483.65	5358.02
484.021	5471.01
484.391	5558.24
484.762	5636.89
485.133	5686.83
485.503	5911.68
485.874	5978.35
486.244	6070.55
486.615	6269.19
486.985	6374.04
487.356	6525.45
487.726	6581.27
488.097	6716.18
488.467	6838.66
488.837	6967.92
489.207	7119.33
489.578	7324.52
489.948	7380.79
490.318	7560.22
490.688	7593.22
491.058	7785.98
491.428	7931.06
491.798	7937.84
492.168	8165.86
492.538	8260.32
492.908	8387.77
493.278	8512.29
493.648	8602.01
494.017	8704.83
494.387	8835.22
494.757	8877.25
495.126	9103.46
495.496	9134.19
495.866	9259.39
496.235	9347.3
496.605	9450.34
496.974	9531.92
497.344	9659.6
497.713	9700.28
498.082	9828.41
498.452	9921.07
498.821	9963.55
499.19	10005.58
499.559	10060.72
499.928	10222.08
500.298	10259.59
500.667	10395.63
501.036	10370.32
501.405	10592.24
501.774	10602.4
502.143	10655.51
502.512	10687.6
502.88	10776.86
503.249	10854.6
503.618	10945.22
503.987	10961.49
504.356	11096.18
504.724	11103.41
505.093	11059.34
505.462	11199
505.83	11247.36
506.199	11336.4
506.567	11491.65
506.936	11366
507.304	11471.53
507.672	11514.92
508.041	11592.21
508.409	11668.14
508.777	11733.22
509.145	11888.25
509.514	11820.45
509.882	11806.67
510.25	11836.27
510.618	11897.29
510.986	11932.09
511.354	11992.88
511.722	12032.42
512.09	12186.32
512.458	12147.45
512.826	12200.55
513.193	12302.93
513.561	12246.88
513.929	12338.63
514.297	12456.37
514.664	12570.94
515.032	12455.69
515.4	12580.66
515.767	12603.93
516.135	12580.43
516.502	12426.09
516.869	12630.37
517.237	12663.82
517.604	12727.55
517.972	12753.53
518.339	12737.04
518.706	12666.98
519.073	12749.92
519.44	12762.12
519.808	12869.46
520.175	12832.63
520.542	12940.42
520.909	12988.78
521.276	12913.3
521.643	13014.54
522.009	12953.76
522.376	13052.74
522.743	13015
523.11	13118.95
523.477	13229.68
523.843	13225.16
524.21	13322.33
524.577	13334.08
524.943	13331.15
525.31	13353.74
525.676	13367.08
526.043	13392.16
526.409	13413.18
526.776	13411.37
527.142	13474.19
527.508	13503.8
527.874	13530.24
528.241	13556
528.607	13453.18
528.973	13508.09
529.339	13397.13
529.705	13580.41
530.071	13551.71
530.437	13516.45
530.803	13634.64
531.169	13576.11
531.535	13552.61
531.901	13590.8
532.267	13490.92
532.632	13512.16
532.998	13498.83
533.364	13539.05
533.73	13501.76
534.095	13556
534.461	13460.86
534.826	13457.47
535.192	13430.58
535.557	13372.28
535.923	13381.09
536.288	13336.8
536.653	13389.68
537.019	13282.11
537.384	13269.23
537.749	13262.9
538.114	13201.43
538.479	13229.68
538.845	13216.12
539.21	13094.99
539.575	13177.25
539.94	13033.53
540.305	13063.13
540.67	13019.29
541.034	13020.19
541.399	12937.03
541.764	12986.07
542.129	12852.52
542.494	12885.28
542.858	12913.3
543.223	12880.54
543.587	12835.11
543.952	12785.4
544.316	12772.07
544.681	12642.8
545.045	12633.54
545.41	12611.62
545.774	12565.97
546.138	12587.66
546.503	12551.51
546.867	12448.01
547.231	12602.58
547.595	12450.04
547.959	12402.13
548.324	12467.44
548.688	12336.82
549.052	12259.08
549.416	12292.76
549.779	12222.48
550.143	12113.78
550.507	12154.23
550.871	12171.18
551.235	12096.15
551.599	12117.85
551.962	12044.17
552.326	12054.12
552.689	12052.99
553.053	11948.81
553.417	11927.12
553.78	11960.56
554.143	11902.94
554.507	11914.91
554.87	11885.53
555.234	11941.58
555.597	11765.99
555.96	11812.09
556.323	11755.37
556.686	11765.54
557.05	11761.47
557.413	11758.31
557.776	11703.84
558.139	11791.3
558.502	11732.54
558.865	11708.59
559.228	11728.25
559.59	11771.87
559.953	11642.38
560.316	11796.95
560.679	11761.92
561.041	11702.94
561.404	11684.86
561.767	11692.32
562.129	11598.76
562.492	11784.29
562.854	11631.98
563.217	11699.1
563.579	11681.02
563.941	11731.19
564.304	11713.79
564.666	11795.59
565.028	11747.23
565.39	11719.44
565.753	11705.43
566.115	11721.92
566.477	11768.93
566.839	11732.54
567.201	11828.36
567.563	11740.45
567.925	11799.89
568.287	11806.89
568.648	11820.45
569.01	11863.84
569.372	11869.26
569.734	11834.46
570.095	11854.12
570.457	11827.68
570.819	11920.11
571.18	11874.24
571.542	11900.68
571.903	11825.65
572.265	11816.16
572.626	11802.15
572.987	11893.44
573.349	11915.59
573.71	11933.22
574.071	11931.64
574.432	11953.1
574.794	11986.32
575.155	12019.99
575.516	11930.73
575.877	11982.71
576.238	11990.62
576.599	12010.28
576.96	12019.09
577.32	11929.83
577.681	12016.15
578.042	11953.1
578.403	11986.78
578.763	11949.94
579.124	11944.06
579.485	11961.69
579.845	12021.12
580.206	11953.1
580.566	11984.06
580.927	11946.55
581.287	11954.69
581.648	11927.57
582.008	12011.86
582.368	11954.69
582.728	11950.84
583.089	11903.39
583.449	11913.78
583.809	11868.36
584.169	11909.04
584.529	11834.46
584.889	11935.93
585.249	11883.05
585.609	11815.93
585.969	11963.27
586.329	11786.1
586.688	11908.81
587.048	11838.53
587.408	11849.15
587.768	11715.37
588.127	11828.59
588.487	11745.65
588.846	11835.37
589.206	11731.64
589.565	11762.6
589.925	11846.89
590.284	11810.96
590.643	11688.7
591.003	11817.29
591.362	11761.92
591.721	11834.24
592.08	11782.71
592.44	11765.09
592.799	11755.59
593.158	11705.88
593.517	11705.2
593.876	11707.69
594.235	11601.93
594.593	11691.42
594.952	11727.35
595.311	11688.7
595.67	11620.23
596.029	11685.31
596.387	11707.46
596.746	11756.95
597.104	11594.7
597.463	11694.13
597.822	11681.02
598.18	11651.64
598.538	11650.74
598.897	11669.72
599.255	11530.52
599.613	11765.31
599.972	11713.56
600.33	11595.83
600.688	11612.1
601.046	11695.71
601.404	11694.58
601.762	11677.18
602.12	11693.45
602.478	11690.51
602.836	11650.74
603.194	11562.38
603.552	11627.69
603.91	11549.72
604.268	11522.83
604.625	11505.21
604.983	11500.23
605.341	11538.2
605.698	11537.52
606.056	11619.78
606.413	11566
606.771	11594.92
607.128	11674.02
607.485	11606.45
607.843	11563.28
608.2	11595.15
608.557	11731.87
608.914	11617.75
609.272	11690.51
609.629	11653.22
609.986	11673.56
610.343	11713.34
610.7	11755.59
611.057	11698.87
611.414	11707.91
611.771	11650.29
612.127	11747.01
612.484	11783.39
612.841	11748.36
613.198	11701.13
613.554	11664.3
613.911	11740.68
614.267	11782.71
614.624	11743.62
614.98	11705.2
615.337	11851.41
615.693	11808.25
616.05	11836.95
616.406	11847.8
616.762	11816.16
617.118	11795.59
617.475	11802.37
617.831	11891.18
618.187	11842.82
618.543	11897.51
618.899	11934.8
619.255	11940.67
619.611	11861.13
619.967	11869.49
620.323	11914.46
620.678	11881.02
621.034	11892.09
621.39	11913.33
621.746	11852.99
622.101	11957.62
622.457	11873.56
622.812	11900.68
623.168	11918.53
623.523	11918.08
623.879	11923.27
624.234	11824.07
624.589	11889.83
624.945	11916.95
625.3	11917.4
625.655	11829.94
626.01	11911.97
626.365	11820.23
626.72	11891.64
627.075	11878.08
627.43	11910.17
627.785	11744.3
628.14	11850.28
628.495	11872.88
628.85	11893.22
629.205	11759.21
629.559	11852.99
629.914	11799.21
630.269	11799.66
630.623	11761.02
630.978	11773.22
631.332	11851.41
631.687	11828.14
632.041	11715.14
632.396	11712.21
632.75	11701.58
633.104	11774.13
633.459	11657.07
633.813	11680.34
634.167	11679.44
634.521	11673.79
634.875	11690.74
635.229	11627.46
635.583	11582.72
635.937	11650.74
636.291	11470.86
636.645	11526.9
636.999	11599.21
637.352	11481.03
637.706	11473.34
638.06	11579.78
638.413	11525.54
638.767	11526
639.121	11499.78
639.474	11438.32
639.828	11413.91
640.181	11541.14
640.534	11416.39
640.888	11410.75
641.241	11368.94
641.594	11415.94
641.947	11389.5
642.301	11358.54
642.654	11396.06
643.007	11416.85
643.36	11460.01
643.713	11425.66
644.066	11490.29
644.419	11380.46
644.771	11282.16
645.124	11169.4
645.477	11134.59
645.83	11147.93
646.182	11105.22
646.535	11065.44
646.888	11058.89
647.24	10976.18
647.593	10987.48
647.945	11058.66
648.298	10942.96
648.65	10962.62
649.002	10988.38
649.355	11021.38
649.707	10984.77
650.059	11082.84
650.411	11153.8
650.763	11163.97
651.115	11178.89
651.467	11245.78
651.819	11211.88
652.171	11281.26
652.523	11222.28
652.875	11209.85
653.227	11143.86
653.578	11240.58
653.93	11239.22
654.282	11134.82
654.633	11206.68
654.985	11192.9
655.337	11209.62
655.688	11199.23
656.039	11248.49
656.391	11176.85
656.742	11186.57
657.094	11198.32
657.445	11230.64
657.796	11196.74
658.147	11201.71
658.498	11190.64
658.849	11176.63
659.2	11251.65
659.551	11153.35
659.902	11230.86
660.253	11232.9
660.604	11248.94
660.955	11216.63
661.306	11263.86
661.656	11289.39
662.007	11307.02
662.358	11318.77
662.708	11247.13
663.059	11268.83
663.409	11206.46
663.76	11364.87
664.11	11244.42
664.461	11345.44
664.811	11325.1
665.161	11323.29
665.511	11315.83
665.862	11298.66
666.212	11301.82
666.562	11384.08
666.912	11280.58
667.262	11351.09
667.612	11331.88
667.962	11294.14
668.312	11229.96
668.662	11272.44
669.011	11309.96
669.361	11301.82
669.711	11266.34
670.06	11270.64
670.41	11280.13
670.76	11175.72
671.109	11286.45
671.459	11244.42
671.808	11194.93
672.157	11298.21
672.507	11142.05
672.856	11189.28
673.205	11201.03
673.554	11223.63
673.904	11247.13
674.253	11201.71
674.602	11181.37
674.951	11009.63
675.3	11032
675.649	11151.09
675.998	11129.4
676.346	11183.86
676.695	11149.28
677.044	11055.73
677.393	11090.75
677.741	11115.84
678.09	11023.64
678.438	11000.81
678.787	11073.35
679.135	11013.69
679.484	11010.3
679.832	10988.38
680.181	10956.52
680.529	10998.55
680.877	10961.72
681.225	10902.74
681.573	10963.53
681.922	10912.23
682.27	10872.45
682.618	10918.55
682.966	10803.3
683.314	10844.66
683.661	10831.1
684.009	10747.94
684.357	10705.45
684.705	10718.56
685.053	10672.46
685.4	10615.96
685.748	10617.77
686.095	10601.5
686.443	10523.31
686.79	10545.46
687.138	10625
687.485	10558.56
687.832	10556.53
688.18	10569.86
688.527	10438.34
688.874	10412.13
689.221	10398.79
689.568	10412.35
689.915	10351.56
690.262	10350.89
690.609	10323.54
690.956	10217.56
691.303	10256.43
691.65	10215.3
691.997	10187.05
692.344	10102.08
692.69	10080.84
693.037	10098.01
693.383	9998.58
693.73	10031.57
694.077	9931.69
694.423	9891.46
694.769	9855.31
695.116	9892.82
695.462	9903.89
695.808	9823.22
696.155	9861.63
696.501	9756.55
696.847	9662.99
697.193	9637.23
697.539	9690.79
697.885	9619.38
698.231	9565.37
698.577	9551.36
698.923	9563.79
699.269	9469.55
699.614	9434.75
699.96	9439.27
700.306	9412.15
700.651	9359.5
700.997	9312.95
701.342	9228.88
701.688	9296.68
702.033	9243.34
702.379	9188.66
702.724	9133.52
703.069	9177.58
703.415	9043.58
703.76	9048.55
704.105	9025.05
704.45	9052.84
704.795	8933.52
705.14	8947.08
705.485	8867.08
705.83	8889.91
706.175	8905.05
706.52	8829.34
706.865	8830.7
707.209	8812.17
707.554	8773.53
707.899	8789.12
708.243	8654.66
708.588	8668.67
708.932	8648.33
709.277	8617.37
709.621	8602.01
709.966	8573.08
710.31	8528.34
710.654	8463.48
710.998	8460.54
711.342	8508.45
711.687	8423.71
712.031	8376.25
712.375	8383.03
712.719	8364.95
713.063	8424.83
713.407	8459.86
713.75	8411.73
714.094	8271.39
714.438	8343.03
714.782	8373.08
715.125	8242.92
715.469	8247.66
715.812	8248.34
716.156	8225.97
716.499	8217.16
716.843	8162.92
717.186	8148.46
717.53	8206.31
717.873	8144.16
718.216	8176.93
718.559	8162.24
718.902	8141.45
719.246	8075.47
719.589	8039.53
719.932	8040.44
720.275	8026.2
720.617	8072.53
720.96	8044.28
721.303	8000.21
721.646	8063.04
721.989	8016.03
722.331	8027.78
722.674	8090.38
723.016	8004.51
723.359	7988.24
723.701	8050.83
724.044	7930.16
724.386	7982.36
724.729	7991.63
725.071	7962.47
725.413	7916.6
725.755	7913.66
726.097	7905.3
726.439	7906.88
726.782	7869.14
727.124	7920.22
727.465	7911.63
727.807	7913.21
728.149	7832.76
728.491	7938.29
728.833	7894.91
729.175	7835.02
729.516	7835.7
729.858	7865.3
730.199	7833.44
730.541	7851.06
730.882	7859.65
731.224	7846.09
731.565	7833.89
731.906	7856.71
732.248	7814.68
732.589	7795.47
732.93	7765.19
733.271	7794.57
733.612	7878.18
733.953	7778.3
734.294	7810.84
734.635	7825.53
734.976	7846.55
735.317	7869.6
735.658	7867.34
735.999	7858.07
736.339	7833.89
736.68	7788.02
737.021	7861.69
737.361	7734.91
737.702	7917.96
738.042	7838.64
738.383	7908.01
738.723	7941.68
739.063	7912.31
739.404	7959.99
739.744	7936.49
740.084	7938.52
740.424	7910.27
740.764	7959.99
741.104	7949.37
741.444	8009.93
741.784	7988.24
742.124	8033.21
742.464	8037.05
742.804	8003.15
743.143	8025.52
743.483	8071.17
743.823	8068.23
744.162	8077.95
744.502	8141.9
744.841	8158.18
745.181	8274.56
745.52	8236.37
745.86	8211.96
746.199	8319.75
746.538	8347.1
746.877	8446.98
747.216	8427.77
747.556	8437.49
747.895	8535.57
748.234	8549.13
748.573	8583.47
748.911	8627.99
749.25	8689.01
749.589	8707.54
749.928	8870.02
750.267	8947.76
750.605	8944.14
750.944	9010.81
751.283	9121.77
751.621	9241.08
751.96	9306.85
752.298	9354.08
752.636	9436.79
752.975	9536.67
753.313	9618.02
753.651	9792.48
753.989	9887.4
754.327	9948.41
754.666	10037
755.004	10188.86
755.342	10277.44
755.679	10412.81
756.017	10490.32
756.355	10693.48
756.693	10787.03
757.031	10938.89
757.368	11041.04
757.706	11197.42
758.044	11357.87
758.381	11510.18
758.719	11605.32
759.056	11693.45
759.394	11939.32
759.731	11990.84
760.068	12196.94
760.405	12396.03
760.743	12530.94
761.08	12775.46
761.417	12816.13
761.754	12962.57
762.091	13138.84
762.428	13360.3
762.765	13452.05
763.102	13641.65
763.438	13745.83
763.775	13889.78
764.112	14107.85
764.449	14239.15
764.785	14449.08
765.122	14550.78
765.458	14619.93
765.795	14871.67
766.131	15048.62
766.467	15195.96
766.804	15289.97
767.14	15414.93
767.476	15497.64
767.812	15652.89
768.148	15831.65
768.485	15951.87
768.821	15976.95
769.157	16138.53
769.492	16320.22
769.828	16478.41
770.164	16454
770.5	16545.98
770.836	16721.11
771.171	16728.12
771.507	16812.19
771.842	16857.38
772.178	17055.79
772.513	17145.96
772.849	17238.39
773.184	17315.9
773.519	17412.4
773.855	17420.98
774.19	17427.76
774.525	17494.65
774.86	17708.43
775.195	17761.54
775.53	17732.61
775.865	17723.57
776.2	17752.95
776.535	17740.75
776.87	17823.91
777.205	17861.2
777.539	17945.04
777.874	17978.26
778.209	17915.21
778.543	17979.61
778.878	17964.92
779.212	18079.04
779.547	18051.25
779.881	18215.54
780.215	18104.13
780.55	18212.83
780.884	18164.47
781.218	18046.28
781.552	18153.17
781.886	18132.15
782.22	18090.57
782.554	18100.74
782.888	18012.61
783.222	17972.38
783.556	18071.14
783.889	17957.69
784.223	17949.56
784.557	17963.79
784.89	17956.79
785.224	17912.72
785.557	17922.21
785.891	17918.6
786.224	17949.78
786.558	17946.17
786.891	17843.12
787.224	17936.22
787.557	17793.85
787.891	17854.87
788.224	17855.55
788.557	17822.1
788.89	17832.5
789.223	17801.54
789.556	17720.41
789.888	17732.16
790.221	17684.93
790.554	17614.42
790.887	17617.59
791.219	17655.55
791.552	17564.71
791.884	17504.6
792.217	17543.24
792.549	17445.39
792.882	17310.48
793.214	17336.47
793.546	17410.81
793.879	17278.39
794.211	17253.98
794.543	17284.26
794.875	17224.15
795.207	17220.99
795.539	17205.85
795.871	17181.44
796.203	17080.2
796.535	16947.77
796.867	16914.56
797.198	17068.22
797.53	16923.59
797.862	16859.64
798.193	16893.09
798.525	16747.33
798.856	16802.02
799.188	16766.76
799.519	16624.62
799.85	16552.53
800.182	16639.99
800.513	16631.4
800.844	16418.52
801.175	16438.64
801.506	16548.69
801.837	16405.64
802.168	16419.65
802.499	16342.37
802.83	16320.45
803.161	16322.25
803.491	16230.96
803.822	16223.05
804.153	16153.67
804.483	16110.28
804.814	16039.78
805.145	15977.86
805.475	15962.49
805.805	15983.96
806.136	15977.4
806.466	15942.15
806.796	15967.91
807.126	15898.99
807.457	15791.19
807.787	15819.89
808.117	15693.57
808.447	15617.19
808.777	15720.01
809.107	15657.41
809.436	15638.66
809.766	15599.11
810.096	15491.54
810.426	15453.12
810.755	15507.36
811.085	15469.4
811.414	15493.12
811.744	15295.61
812.073	15315.73
812.403	15365.22
812.732	15248.16
813.061	15214.49
813.39	15238.67
813.719	15161.83
814.049	15268.27
814.378	15163.87
814.707	15064.66
815.036	15080.71
815.365	15037.32
815.693	14923.2
816.022	15034.38
816.351	14869.86
816.68	14837.1
817.008	14939.69
817.337	14783.54
817.665	14720.94
817.994	14762.3
818.322	14733.82
818.651	14726.36
818.979	14679.36
819.307	14785.8
819.636	14628.51
819.964	14541.28
820.292	14680.94
820.62	14663.32
820.948	14620.38
821.276	14680.49
821.604	14576.31
821.932	14576.54
822.259	14613.15
822.587	14613.6
822.915	14469.42
823.243	14574.05
823.57	14590.32
823.898	14551.91
824.225	14555.97
824.553	14569.76
824.88	14563.43
825.207	14566.82
825.535	14541.28
825.862	14575.18
826.189	14516.2
826.516	14632.58
826.843	14630.55
827.17	14577.67
827.497	14576.09
827.824	14585.58
828.151	14542.64
828.478	14579.25
828.805	14613.37
829.131	14555.3
829.458	14567.95
829.785	14520.72
830.111	14573.37
830.438	14607.5
830.764	14549.19
831.09	14528.86
831.417	14590.55
831.743	14640.94
832.069	14586.25
832.395	14482.98
832.722	14503.32
833.048	14508.29
833.374	14519.14
833.7	14415.19
834.026	14497.67
834.351	14439.14
834.677	14502.42
835.003	14480.49
835.329	14452.93
835.654	14429.2
835.98	14374.74
836.306	14344.23
836.631	14355.53
836.956	14354.17
837.282	14369.99
837.607	14287.96
837.932	14219.94
838.258	14326.37
838.583	14235.53
838.908	14143.55
839.233	14173.84
839.558	14188.75
839.883	14124.35
840.208	14127.96
840.533	14068.08
840.858	14067.17
841.182	14061.97
841.507	14012.94
841.832	13934.29
842.156	13901.75
842.481	13898.82
842.805	13830.34
843.13	13947.85
843.454	13855.43
843.778	13826.73
844.103	13812.49
844.427	13781.08
844.751	13729.33
845.075	13692.04
845.399	13660.63
845.723	13620.63
846.047	13552.84
846.371	13459.96
846.695	13448.21
847.019	13414.76
847.343	13302.67
847.666	13299.28
847.99	13172.96
848.313	13298.83
848.637	13163.69
848.96	13146.07
849.284	13029.69
849.607	12971.83
849.931	12891.61
850.254	12958.95
850.577	12809.8
850.9	12773.2
851.223	12695.68
851.546	12582.24
851.869	12593.99
852.192	12563.71
852.515	12514.44
852.838	12425.86
853.161	12478.97
853.483	12437.84
853.806	12325.98
854.129	12283.49
854.451	12323.49
854.774	12214.34
855.096	12171.63
855.419	12235.13
855.741	12139.09
856.063	12086.89
856.385	12041.24
856.708	12014.57
857.03	11984.97
857.352	11930.51
857.674	11933.22
857.996	11858.42
858.318	11789.49
858.64	11803.96
858.961	11700
859.283	11711.08
859.605	11713.34
859.926	11726.44
860.248	11670.63
860.57	11610.51
860.891	11613.45
861.212	11519.67
861.534	11482.83
861.855	11435.83
862.176	11499.78
862.498	11446.9
862.819	11421.59
863.14	11457.75
863.461	11436.28
863.782	11336.17
864.103	11354.7
864.424	11329.62
864.745	11344.53
865.065	11235.16
865.386	11252.78
865.707	11217.98
866.027	11186.12
866.348	11172.11
866.668	11231.31
866.989	11158.1
867.309	11130.98
867.63	11147.25
867.95	11124.43
868.27	11097.31
868.59	11066.8
868.91	10963.53
869.23	10996.97
869.55	10930.76
869.87	11059.57
870.19	11027.7
870.51	10941.6
870.83	10960.36
871.15	10905.67
871.469	10915.62
871.789	10929.85
872.109	10880.59
872.428	10849.18
872.748	10839.69
873.067	10742.74
873.386	10827.26
873.706	10762.63
874.025	10753.36
874.344	10730.31
874.663	10775.96
874.982	10754.94
875.301	10692.57
875.62	10682.85
875.939	10634.49
876.258	10702.29
876.577	10584.78
876.896	10609.41
877.214	10507.94
877.533	10617.32
877.852	10546.59
878.17	10526.02
878.489	10510.43
878.807	10523.99
879.125	10495.97
879.444	10468.17
879.762	10465.69
880.08	10430.21
880.398	10359.02
880.716	10421.84
881.034	10403.77
881.352	10401.51
881.67	10294.84
881.988	10343.2
882.306	10316.99
882.624	10229.99
882.941	10227.05
883.259	10188.18
883.577	10220.95
883.894	10189.53
884.212	10180.72
884.529	10120.61
884.846	10083.1
885.164	10082.19
885.481	10079.25
885.798	10072.25
886.115	9926.49
886.432	9971.23
886.75	9917.23
887.067	9982.08
887.383	9912.93
887.7	9959.26
888.017	9886.72
888.334	9872.48
888.651	9855.76
888.967	9767.62
889.284	9709.77
889.6	9751.58
889.917	9626.16
890.233	9709.77
890.55	9589.55
890.866	9605.82
891.182	9607.4
891.498	9552.94
891.815	9502.09
892.131	9476.11
892.447	9458.71
892.763	9412.83
893.079	9434.3
893.395	9368.09
893.71	9397.46
894.026	9348.65
894.342	9321.08
894.657	9211.25
894.973	9268.2
895.289	9229.56
895.604	9213.97
895.92	9056
896.235	9006.06
896.55	9073.18
896.865	9077.47
897.181	8974.43
897.496	9013.97
897.811	8975.33
898.126	8947.53
898.441	8836.12
898.756	8837.71
899.071	8846.74
899.386	8845.39
899.7	8726.52
900.015	8670.93
900.33	8634.32
900.644	8682.46
900.959	8687.65
901.273	8602.91
901.588	8551.39
901.902	8564.49
902.216	8538.5
902.531	8485.85
902.845	8451.27
903.159	8419.19
903.473	8385.29
903.787	8403.37
904.101	8324.5
904.415	8319.98
904.729	8244.5
905.042	8248.79
905.356	8196.37
905.67	8185.52
905.984	8220.55
906.297	8195.01
906.611	8035.24
906.924	7995.92
907.237	7995.92
907.551	7968.12
907.864	7977.39
908.177	7931.51
908.491	7973.77
908.804	7912.08
909.117	7814.91
909.43	7780.33
909.743	7767
910.056	7778.07
910.368	7656.72
910.681	7618.98
910.994	7579.43
911.307	7621.01
911.619	7541.92
911.932	7522.94
912.244	7493.56
912.557	7463.28
912.869	7442.94
913.181	7450.4
913.494	7370.17
913.806	7358.2
914.118	7343.96
914.43	7353
914.742	7315.71
915.054	7247.24
915.366	7251.31
915.678	7201.14
915.99	7191.87
916.302	7106.9
916.613	7117.3
916.925	7122.04
917.236	7004.99
917.548	7006.79
917.859	6933.57
918.171	6932.44
918.482	6923.63
918.794	6890.41
919.105	6854.25
919.416	6783.75
919.727	6844.76
920.038	6708.5
920.349	6747.59
920.66	6709.4
920.971	6732.45
921.282	6664.43
921.593	6668.5
921.903	6619.68
922.214	6598.89
922.525	6594.15
922.835	6539.46
923.146	6484.32
923.456	6492.91
923.767	6484.77
924.077	6510.08
924.387	6435.51
924.697	6364.32
925.008	6318.9
925.318	6293.37
925.628	6303.08
925.938	6333.14
926.248	6236.19
926.558	6224.67
926.867	6227.6
927.177	6175.85
927.487	6134.95
927.796	6123.43
928.106	6073.71
928.416	6099.25
928.725	6065.8
929.034	6014.95
929.344	6002.53
929.653	5986.71
929.962	5930.66
930.271	5921.85
930.581	5882.08
930.89	5821.06
931.199	5783.55
931.508	5815.86
931.817	5808.41
932.125	5778.35
932.434	5797.79
932.743	5775.19
933.051	5679.37
933.36	5662.2
933.669	5624.23
933.977	5631.91
934.286	5652.25
934.594	5643.67
934.902	5566.61
935.21	5520.96
935.519	5499.49
935.827	5495.19
936.135	5432.82
936.443	5404.8
936.751	5398.25
937.059	5451.13
937.367	5370.23
937.674	5354.86
937.982	5358.25
938.29	5376.1
938.597	5312.15
938.905	5285.71
939.213	5225.37
939.52	5215.65
939.827	5196.9
940.135	5217.24
940.442	5167.07
940.749	5185.15
941.056	5160.74
941.363	5105.15
941.67	5085.49
941.977	5010.01
942.284	5034.64
942.591	5009.78
942.898	5025.15
943.205	4985.15
943.511	4923.23
943.818	4906.96
944.125	4880.75
944.431	4917.58
944.738	4831.03
945.044	4855.21
945.35	4843.23
945.657	4806.17
945.963	4768.21
946.269	4766.85
946.575	4762.78
946.881	4702.45
947.187	4716.23
947.493	4666.29
947.799	4682.56
948.105	4697.02
948.41	4602.79
948.716	4563.02
949.022	4542
949.327	4551.72
949.633	4519.17
949.938	4520.08
950.244	4520.08
950.549	4458.16
950.854	4485.05
951.16	4444.15
951.465	4427.65
951.77	4398.05
952.075	4406.18
952.38	4395.56
952.685	4328.9
952.99	4322.34
953.294	4326.41
953.599	4280.99
953.904	4283.47
954.209	4239.41
954.513	4216.13
954.818	4176.13
955.122	4255.68
955.426	4141.78
955.731	4126.64
956.035	4158.73
956.339	4109.47
956.643	4132.74
956.948	4131.16
957.252	4061.56
957.556	4032.86
957.86	4041.67
958.163	4091.62
958.467	4024.27
958.771	4004.61
959.075	3974.33
959.378	3941.34
959.682	3917.61
959.985	3913.77
960.289	3884.39
960.592	3914.67
960.896	3906.76
961.199	3885.52
961.502	3839.42
961.805	3838.74
962.108	3813.2
962.411	3806.88
962.714	3772.98
963.017	3797.84
963.32	3755.35
963.623	3714
963.926	3735.24
964.228	3715.81
964.531	3713.55
964.833	3674.45
965.136	3636.26
965.438	3646.2
965.741	3615.24
966.043	3568.24
966.345	3594.45
966.648	3547.22
966.95	3564.4
967.252	3537.96
967.554	3504.06
967.856	3516.72
968.158	3522.14
968.46	3497.73
968.761	3424.74
969.063	3442.82
969.365	3415.02
969.666	3437.85
969.968	3376.83
970.269	3362.14
970.571	3354.01
970.872	3380.22
971.174	3347.91
971.475	3364.4
971.776	3324.4
972.077	3326.66
972.378	3326.66
972.679	3288.47
972.98	3230.17
973.281	3259.1
973.582	3203.05
973.883	3253.45
974.183	3197.63
974.484	3185.88
974.785	3194.69
975.085	3169.38
975.386	3119.89
975.686	3095.48
975.986	3110.62
976.287	3083.96
976.587	3062.26
976.887	3104.75
977.187	3074.69
977.487	3045.32
977.787	3016.84
978.087	3010.74
978.387	2990.18
978.687	3029.72
978.987	3000.12
979.286	2952.66
979.586	2959.44
979.885	2934.58
980.185	2955.15
980.484	2899.78
980.784	2892.78
981.083	2900.91
981.382	2881.48
981.682	2879.44
981.981	2853
982.28	2819.33
982.579	2871.08
982.878	2810.29
983.177	2814.36
983.475	2790.63
983.774	2758.32
984.073	2743.4
984.372	2737.98
984.67	2728.49
984.969	2765.32
985.267	2726.23
985.566	2708.15
985.864	2652.78
986.162	2667.92
986.461	2701.14
986.759	2681.03
987.057	2640.58
987.355	2614.14
987.653	2611.2
987.951	2608.72
988.249	2590.19
988.547	2611.65
988.844	2561.71
989.142	2601.49
989.44	2526.91
989.737	2537.53
990.035	2498.21
990.332	2542.5
990.63	2474.26
990.927	2508.38
991.224	2472.45
991.521	2482.62
991.819	2456.63
992.116	2446.69
992.413	2428.16
992.71	2439.46
993.006	2433.35
993.303	2368.72
993.6	2361.49
993.897	2415.73
994.193	2400.36
994.49	2372.34
994.787	2341.83
995.083	2296.18
995.379	2309.29
995.676	2350.42
995.972	2334.37
996.268	2290.08
996.565	2297.31
996.861	2280.59
997.157	2255.51
997.453	2209.63
997.749	2260.93
998.044	2218.22
998.34	2239.46
998.636	2223.87
998.932	2192.91
999.227	2148.39
999.523	2163.98
999.818	2136.41
1000.114	2149.97
1000.409	2151.1
1000.704	2121.72
1001	2108.62
1001.295	2088.96
1001.59	2112.91
1001.885	2084.44
1002.18	2099.58
1002.475	2052.8
1002.77	2032.46
1003.065	2043.31
1003.359	2025.46
1003.654	2038.79
1003.949	2024.55
1004.243	1979.58
1004.538	1950.2
1004.832	1984.78
1005.127	1935.06
1005.421	1929.64
1005.715	1905.91
1006.009	1930.32
1006.304	1922.41
1006.598	1899.13
1006.892	1908.17
1007.186	1873.82
1007.48	1832.24
1007.773	1876.08
1008.067	1872.92
1008.361	1840.83
1008.655	1822.3
1008.948	1806.25
1009.242	1812.13
1009.535	1813.71
1009.829	1764.9
1010.122	1767.83
1010.415	1739.59
1010.708	1742.3
1011.001	1740.72
1011.295	1719.47
1011.588	1695.29
1011.881	1714.28
1012.173	1708.4
1012.466	1686.26
1012.759	1677.44
1013.052	1666.59
1013.344	1660.72
1013.637	1620.72
1013.93	1648.06
1014.222	1646.26
1014.514	1621.4
1014.807	1639.48
1015.099	1600.61
1015.391	1588.63
1015.683	1596.77
1015.976	1588.86
1016.268	1582.3
1016.56	1531
1016.851	1542.3
1017.143	1540.95
1017.435	1514.28
1017.727	1521.74
1018.018	1516.54
1018.31	1512.25
1018.602	1500.5
1018.893	1485.36
1019.185	1481.97
1019.476	1473.38
1019.767	1438.58
1020.058	1448.07
1020.35	1424.34
1020.641	1426.6
1020.932	1403.78
1021.223	1397.22
1021.514	1392.25
1021.804	1397.45
1022.095	1388.86
1022.386	1374.17
1022.677	1363.78
1022.967	1326.49
1023.258	1338.47
1023.548	1327.39
1023.839	1328.52
1024.129	1331.46
1024.419	1319.94
1024.709	1295.3
1025	1301.86
1025.29	1316.77
1025.58	1243.55
1025.87	1259.37
1026.16	1275.87
1026.449	1256.66
1026.739	1239.26
1027.029	1260.05
1027.319	1241.3
1027.608	1224.12
1027.898	1236.78
1028.187	1216.89
1028.477	1228.87
1028.766	1234.06
1029.055	1200.39
1029.344	1170.34
1029.634	1172.6
1029.923	1167.4
1030.212	1152.94
1030.501	1126.27
1030.79	1137.12
1031.078	1119.49
1031.367	1146.61
1031.656	1117.91
1031.945	1110.45
1032.233	1107.51
1032.522	1083.79
1032.81	1070
1033.099	1072.03
1033.387	1060.06
1033.675	1041.53
1033.963	1067.97
1034.251	1035.42
1034.54	1037.46
1034.828	1047.18
1035.116	1052.37
1035.403	1042.66
1035.691	997.01
1035.979	1023.45
1036.267	1031.58
1036.554	1001.98
1036.842	971.25
1037.129	1009.44
1037.417	990.91
1037.704	988.19
1037.992	951.36
1038.279	980.51
1038.566	954.52
1038.853	954.52
1039.14	954.52
