Data from hue_00_FLMS001491_9.txt Node
Date: Mon Feb 06 15:29:12 GMT 2017
User: dcchb
Spectrometer: FLMS00149
Trigger mode: 0
Integration Time (sec): 2.000000E-2
Scans to average: 10
Electric dark correction enabled: true
Nonlinearity correction enabled: false
Boxcar width: 0
XAxis mode: Wavelengths
Number of Pixels in Spectrum: 2048
>>>>>Begin Spectral Data<<<<<
341.393	-5.99
341.776	-5.99
342.16	-5.99
342.543	-66.55
342.927	-55.7
343.31	-90.05
343.693	-75.59
344.077	-48.47
344.46	-73.56
344.843	-47.12
345.226	-20.23
345.61	-36.04
345.993	-19.77
346.376	-1.69
346.759	-1.92
347.142	14.12
347.525	54.8
347.908	56.61
348.291	67.68
348.674	110.39
349.057	110.84
349.44	127.34
349.823	135.7
350.206	160.79
350.588	186.55
350.971	205.98
351.354	215.7
351.737	226.32
352.119	261.58
352.502	255.7
352.884	296.6
353.267	275.59
353.65	296.15
354.032	296.83
354.414	302.03
354.797	312.65
355.179	306.09
355.562	316.26
355.944	325.75
356.326	330.95
356.709	332.31
357.091	343.38
357.473	337.05
357.855	324.4
358.238	351.97
358.62	330.05
359.002	325.75
359.384	358.97
359.766	341.8
360.148	346.09
360.53	346.54
360.912	338.18
361.294	334.57
361.676	328.01
362.057	323.72
362.439	330.5
362.821	327.34
363.203	312.87
363.584	312.87
363.966	334.57
364.348	314
364.729	315.81
365.111	321.46
365.493	324.85
365.874	316.04
366.256	319.2
366.637	324.4
367.019	330.5
367.4	291.4
367.781	318.75
368.163	299.09
368.544	312.2
368.925	315.13
369.306	338.41
369.688	318.75
370.069	307.22
370.45	305.87
370.831	326.21
371.212	283.5
371.593	306.77
371.974	306.32
372.355	294.12
372.736	311.07
373.117	307.45
373.498	309.94
373.879	317.17
374.26	300.22
374.641	297.73
375.021	311.29
375.402	306.77
375.783	310.16
376.163	317.39
376.544	330.05
376.925	327.56
377.305	331.18
377.686	314
378.066	340.44
378.447	321.46
378.827	318.07
379.208	322.36
379.588	302.03
379.968	313.55
380.349	321.23
380.729	346.77
381.109	325.08
381.489	328.24
381.87	326.66
382.25	322.82
382.63	332.99
383.01	340.22
383.39	354.68
383.77	326.88
384.15	336.83
384.53	339.54
384.91	334.57
385.29	348.13
385.67	349.03
386.049	307.45
386.429	355.36
386.809	341.35
387.189	357.84
387.568	344.28
387.948	360.56
388.328	357.39
388.707	356.26
389.087	340.67
389.466	339.99
389.846	371.18
390.225	351.74
390.605	358.75
390.984	343.61
391.363	359.2
391.743	344.51
392.122	368.01
392.501	354
392.881	360.78
393.26	374.11
393.639	381.8
394.018	365.98
394.397	363.72
394.776	363.27
395.155	384.51
395.534	378.41
395.913	372.53
396.292	365.75
396.671	389.93
397.05	373.44
397.429	369.59
397.808	378.41
398.186	387.22
398.565	367.56
398.944	387.9
399.323	378.18
399.701	367.56
400.08	386.09
400.458	372.76
400.837	398.75
401.215	386.77
401.594	394.23
401.972	381.57
402.351	377.5
402.729	387.22
403.107	408.01
403.486	416.15
403.864	424.06
404.242	407.79
404.62	438.97
404.999	401.91
405.377	413.44
405.755	405.53
406.133	419.54
406.511	415.02
406.889	429.03
407.267	403.49
407.645	438.75
408.023	437.39
408.401	437.39
408.779	416.15
409.156	414.79
409.534	449.82
409.912	437.62
410.29	427.9
410.667	426.32
411.045	430.84
411.422	456.6
411.8	461.57
412.178	462.93
412.555	455.24
412.933	458.41
413.31	487.11
413.687	469.71
414.065	463.15
414.442	456.82
414.819	478.29
415.197	488.91
415.574	484.17
415.951	489.59
416.328	495.47
416.705	494.79
417.082	478.52
417.46	478.97
417.837	490.04
418.214	489.14
418.591	506.99
418.967	496.6
419.344	506.09
419.721	531.62
420.098	525.07
420.475	505.18
420.852	525.97
421.228	521.46
421.605	516.71
421.982	525.52
422.358	528.46
422.735	528.69
423.111	541.34
423.488	573.43
423.864	539.76
424.241	553.09
424.617	539.31
424.994	564.62
425.37	544.73
425.746	550.61
426.123	558.29
426.499	557.84
426.875	562.58
427.251	579.08
427.627	601.68
428.003	585.86
428.379	592.87
428.756	576.14
429.132	576.37
429.507	603.71
429.883	597.16
430.259	621.79
430.635	619.76
431.011	623.37
431.387	638.97
431.763	620.66
432.138	639.19
432.514	639.42
432.89	654.56
433.265	644.84
433.641	654.56
434.016	652.98
434.392	659.76
434.767	670.15
435.143	679.42
435.518	670.6
435.894	666.99
436.269	689.81
436.644	707.44
437.02	719.19
437.395	716.7
437.77	702.69
438.145	723.26
438.52	741.34
438.895	733.65
439.271	731.62
439.646	746.99
440.021	747.44
440.395	741.11
440.77	734.78
441.145	737.49
441.52	777.04
441.895	763.93
442.27	758.96
442.645	752.41
443.019	781.11
443.394	781.56
443.769	761
444.143	782.24
444.518	804.84
444.892	790.6
445.267	806.42
445.641	766.65
446.016	792.41
446.39	816.14
446.764	784.27
447.139	832.63
447.513	828.11
447.887	837.15
448.262	849.36
448.636	845.97
449.01	848.23
449.384	859.53
449.758	862.01
450.132	871.95
450.506	875.12
450.88	837.15
451.254	871.28
451.628	894.78
452.002	880.32
452.376	876.02
452.75	891.39
453.123	909.92
453.497	880.09
453.871	918.96
454.244	923.25
454.618	904.95
454.992	912.41
455.365	936.36
455.739	959.18
456.112	975.23
456.486	979.3
456.859	972.74
457.232	1018.39
457.606	992.18
457.979	993.99
458.352	1033.76
458.725	1029.24
459.099	1039.41
459.472	1045.51
459.845	1031.05
460.218	1080.31
460.591	1042.8
460.964	1064.94
461.337	1078.5
461.71	1097.71
462.083	1113.53
462.456	1089.8
462.829	1115.79
463.201	1143.13
463.574	1136.13
463.947	1137.03
464.32	1175.45
464.692	1181.78
465.065	1186.75
465.438	1238.95
465.81	1201.44
466.183	1225.17
466.555	1250.93
466.928	1246.86
467.3	1258.84
467.672	1295.67
468.045	1305.62
468.417	1304.49
468.789	1302.9
469.161	1335.9
469.534	1364.37
469.906	1354.2
470.278	1382.22
470.65	1382.45
471.022	1418.15
471.394	1468.1
471.766	1450.02
472.138	1458.83
472.51	1510.13
472.882	1537.93
473.253	1551.03
473.625	1565.72
473.997	1586.96
474.369	1611.6
474.74	1624.93
475.112	1642.1
475.484	1681.42
475.855	1719.62
476.227	1703.35
476.598	1767.07
476.97	1791.48
477.341	1810.91
477.713	1857.24
478.084	1867.18
478.455	1895.2
478.827	1888.65
479.198	1986.5
479.569	1979.5
479.94	2032.6
480.311	2064.01
480.682	2090.68
481.053	2113.96
481.424	2195.08
481.795	2157.57
482.166	2198.93
482.537	2220.85
482.908	2304.46
483.279	2361.86
483.65	2361.63
484.021	2406.83
484.391	2434.85
484.762	2457.9
485.133	2489.77
485.503	2525.47
485.874	2598.01
486.244	2615.64
486.615	2632.81
486.985	2650.89
487.356	2752.81
487.726	2756.2
488.097	2829.42
488.467	2883.2
488.837	2932.69
489.207	2972.92
489.578	2960.26
489.948	3002.75
490.318	3054.27
490.688	3078.68
491.058	3111.22
491.428	3166.13
491.798	3195.96
492.168	3275.06
492.538	3278.22
492.908	3296.98
493.278	3328.84
493.648	3341.04
494.017	3429.85
494.387	3439.57
494.757	3484.77
495.126	3542.84
495.496	3522.73
495.866	3562.73
496.235	3593.01
496.605	3592.79
496.974	3633.92
497.344	3702.61
497.713	3724.31
498.082	3744.87
498.452	3762.95
498.821	3776.96
499.19	3816.28
499.559	3825.55
499.928	3870.75
500.298	3873.91
500.667	3892.21
501.036	3952.1
501.405	3984.87
501.774	4020.57
502.143	4040.01
502.512	4000.69
502.88	4014.7
503.249	4064.41
503.618	4054.92
503.987	4129.72
504.356	4145.77
504.724	4137.18
505.093	4226.44
505.462	4210.62
505.83	4176.05
506.199	4295.59
506.567	4279.77
506.936	4291.53
507.304	4360.45
507.672	4357.51
508.041	4402.71
508.409	4357.96
508.777	4417.62
509.145	4457.62
509.514	4473.67
509.882	4455.82
510.25	4482.71
510.618	4551.18
510.986	4545.76
511.354	4551.18
511.722	4603.16
512.09	4640.44
512.458	4630.27
512.826	4695.81
513.193	4700.78
513.561	4702.36
513.929	4723.38
514.297	4766.77
514.664	4802.92
515.032	4755.69
515.4	4744.4
515.767	4848.57
516.135	4849.93
516.502	4828.91
516.869	4909.14
517.237	4881.79
517.604	4935.8
517.972	4975.35
518.339	5002.92
518.706	4997.95
519.073	4985.07
519.44	5022.35
519.808	5032.52
520.175	5063.93
520.542	5098.51
520.909	5094.44
521.276	5110.94
521.643	5133.54
522.009	5199.75
522.376	5178.96
522.743	5223.93
523.11	5310.71
523.477	5289.47
523.843	5312.74
524.21	5333.31
524.577	5392.29
524.943	5438.39
525.31	5417.37
525.676	5473.87
526.043	5530.36
526.409	5503.92
526.776	5591.83
527.142	5621.66
527.508	5646.74
527.874	5691.26
528.241	5712.51
528.607	5688.1
528.973	5806.29
529.339	5794.99
529.705	5846.74
530.071	5879.51
530.437	5886.06
530.803	5901.2
531.169	5947.08
531.535	5956.11
531.901	5948.43
532.267	6008.77
532.632	6021.2
532.998	6119.05
533.364	6072.5
533.73	6102.55
534.095	6170.35
534.461	6159.5
534.826	6147.97
535.192	6234.75
535.557	6250.12
535.923	6258.25
536.288	6369.44
536.653	6338.93
537.019	6357.46
537.384	6390
537.749	6434.97
538.114	6417.8
538.479	6432.03
538.845	6465.03
539.21	6444.24
539.575	6501.86
539.94	6491.69
540.305	6592.03
540.67	6523.56
541.034	6586.61
541.399	6647.4
541.764	6679.94
542.129	6629.09
542.494	6687.85
542.858	6738.92
543.223	6795.87
543.587	6810.78
543.952	6859.37
544.316	6829.09
544.681	6818.92
545.045	6870.44
545.41	6901.17
545.774	6893.94
546.138	6979.36
546.503	6970.55
546.867	6964.45
547.231	7072.47
547.595	7006.93
547.959	7107.5
548.324	7145.91
548.688	7136.42
549.052	7175.29
549.416	7167.38
549.779	7196.08
550.143	7207.83
550.507	7255.97
550.871	7318.34
551.235	7250.77
551.599	7342.52
551.962	7340.03
552.326	7395.62
552.689	7444.66
553.053	7418.67
553.417	7454.83
553.78	7517.43
554.143	7500.71
554.507	7527.15
554.87	7549.07
555.234	7573.47
555.597	7523.98
555.96	7644.21
556.323	7651.44
556.686	7620.7
557.05	7653.47
557.413	7753.58
557.776	7706.35
558.139	7716.29
558.502	7870.87
558.865	7817.76
559.228	7850.08
559.59	7839.91
559.953	7916.52
560.316	7987.7
560.679	7961.26
561.041	8033.57
561.404	8084.19
561.767	8089.62
562.129	8132.33
562.492	8197.64
562.854	8167.81
563.217	8221.59
563.579	8256.85
563.941	8220.91
564.304	8298.65
564.666	8327.35
565.028	8317.18
565.39	8348.14
565.753	8396.28
566.115	8428.14
566.477	8412.1
566.839	8486.22
567.201	8514.47
567.563	8491.19
567.925	8601.02
568.287	8603.28
568.648	8564.41
569.01	8645.54
569.372	8695.93
569.734	8726.44
570.095	8811.63
570.457	8830.39
570.819	8846.66
571.18	8808.47
571.542	8930.73
571.903	8978.41
572.265	9023.6
572.626	9065.86
572.987	9075.35
573.349	9108.12
573.71	9177.72
574.071	9234.22
574.432	9302.92
574.794	9306.76
575.155	9346.08
575.516	9356.93
575.877	9478.51
576.238	9492.74
576.599	9652.06
576.96	9642.35
577.32	9697.71
577.681	9780.19
578.042	9896.35
578.403	9979.06
578.763	9936.8
579.124	10074.2
579.485	10183.12
579.845	10298.15
580.206	10342.67
580.566	10471.02
580.927	10510.57
581.287	10650
581.648	10703.11
582.008	10843.67
582.368	10993.04
582.728	11143.32
583.089	11226.94
583.449	11295.18
583.809	11429.19
584.169	11667.6
584.529	11722.97
584.889	11951.89
585.249	12091.09
585.609	12153.47
585.969	12434.81
586.329	12574.25
586.688	12717.52
587.048	12863.96
587.408	13138.3
587.768	13239.09
588.127	13464.39
588.487	13673.2
588.846	13892.86
589.206	13995.45
589.565	14258.72
589.925	14518.38
590.284	14672.95
590.643	14905.26
591.003	15157
591.362	15427.05
591.721	15576.2
592.08	15881.5
592.44	16146.58
592.799	16431.32
593.158	16559.9
593.517	16923.51
593.876	17151.3
594.235	17309.26
594.593	17575.47
594.952	17817.5
595.311	18000.32
595.67	18363.25
596.029	18703.8
596.387	18953.74
596.746	19236.67
597.104	19405.93
597.463	19727.5
597.822	19997.55
598.18	20086.14
598.538	20418.56
598.897	20798.44
599.255	20805.89
599.613	21495.14
599.972	21547.8
600.33	21886.77
600.688	21966.32
601.046	22381.22
601.404	22609.46
601.762	22887.87
602.12	23173.06
602.478	23410.12
602.836	23699.6
603.194	23733.95
603.552	24043.1
603.91	24176.88
604.268	24597.88
604.625	24651.67
604.983	24990.19
605.341	25244.87
605.698	25435.83
606.056	25629.5
606.413	25848.7
606.771	26222.47
607.128	26541.34
607.485	26451.62
607.843	26734.55
608.2	27065.62
608.557	27379.73
608.914	27489.79
609.272	27587.41
609.629	27941.75
609.986	28244.57
610.343	28190.11
610.7	28575.86
611.057	28745.8
611.414	28897.88
611.771	28940.59
612.127	29314.6
612.484	29419.9
612.841	29708.26
613.198	29736.73
613.554	29983.28
613.911	30218.98
614.267	30406.77
614.624	30507.33
614.98	30651.06
615.337	31007.43
615.693	30972.18
616.05	31140.31
616.406	31439.74
616.762	31425.05
617.118	31542.33
617.475	31682.9
617.831	31931.7
618.187	31952.27
618.543	32260.28
618.899	32396.32
619.255	32498.47
619.611	32526.49
619.967	32708.86
620.323	32865.46
620.678	32911.79
621.034	32943.65
621.39	33056.87
621.746	33125.8
622.101	33521.49
622.457	33426.13
622.812	33492.34
623.168	33655.05
623.523	33782.73
623.879	33852.33
624.234	33549.51
624.589	33951.08
624.945	34038.09
625.3	34157.63
625.655	34154.02
626.01	34243.05
626.365	34241.02
626.72	34384.07
627.075	34502.71
627.43	34409.83
627.785	34548.81
628.14	34639.43
628.495	34633.33
628.85	34693.44
629.205	34722.36
629.559	34942.92
629.914	34851.17
630.269	34877.16
630.623	34772.31
630.978	34672.65
631.332	34915.13
631.687	34969.59
632.041	34856.6
632.396	35036.93
632.75	34943.6
633.104	34935.69
633.459	34992.41
633.813	35015.69
634.167	34928.46
634.521	35008.23
634.875	35122.35
635.229	35056.37
635.583	34977.72
635.937	35033.32
636.291	35036.03
636.645	35120.77
636.999	34936.14
637.352	35188.57
637.706	34904.73
638.06	35219.53
638.413	35021.57
638.767	35033.54
639.121	35066.08
639.474	34908.57
639.828	35019.98
640.181	34975.01
640.534	35138.62
640.888	34885.75
641.241	34801.91
641.594	34911.74
641.947	35077.83
642.301	34909.7
642.654	35014.56
643.007	34878.97
643.36	34805.07
643.713	34954.9
644.066	35031.73
644.419	34840.33
644.771	34677.39
645.124	34302.94
645.477	34224.98
645.83	34073.57
646.182	33891.2
646.535	33935.72
646.888	34001.03
647.24	33736.4
647.593	34017.52
647.945	34013.23
648.298	33714.71
648.65	33786.57
649.002	33848.04
649.355	33801.48
649.707	33826.79
650.059	33858.66
650.411	34349.04
650.763	34361.92
651.115	34667.22
651.467	34619.09
651.819	34605.98
652.171	34368.7
652.523	34476.72
652.875	34529.37
653.227	34415.03
653.578	34601.92
653.93	34475.36
654.282	34358.31
654.633	34241.02
654.985	34406.44
655.337	34259.33
655.688	34492.09
656.039	34461.81
656.391	34280.12
656.742	34295.26
657.094	34309.95
657.445	34411.64
657.796	34301.13
658.147	34253.68
658.498	34203.28
658.849	34303.62
659.2	34309.72
659.551	34107.01
659.902	34349.49
660.253	34211.42
660.604	34285.77
660.955	34156.5
661.306	34238.08
661.656	34079.67
662.007	34067.47
662.358	34133
662.708	34307.01
663.059	34199.67
663.409	33977.07
663.76	34301.13
664.11	34261.13
664.461	34238.76
664.811	34224.52
665.161	34187.01
665.511	33990.41
665.862	34158.76
666.212	34317.18
666.562	34165.54
666.912	34155.37
667.262	34099.33
667.612	34128.03
667.962	34124.87
668.312	34043.06
668.662	34222.72
669.011	34007.58
669.361	33999.45
669.711	34093.91
670.06	34011.42
670.41	33989.95
670.76	34045.32
671.109	34113.79
671.459	34027.92
671.808	33832.22
672.157	33955.6
672.507	33901.59
672.856	33926.68
673.205	33814.37
673.554	33908.83
673.904	33840.35
674.253	33954.47
674.602	33873.12
674.951	33399.69
675.3	33352.68
675.649	33686.01
675.998	33690.53
676.346	33705.89
676.695	33846.45
677.044	33473.58
677.393	33617.08
677.741	33614.6
678.09	33682.62
678.438	33497.99
678.787	33629.06
679.135	33613.01
679.484	33308.16
679.832	33538.89
680.181	33436.97
680.529	33405.56
680.877	33345.22
681.225	33316.07
681.573	33491.44
681.922	33260.03
682.27	33179.13
682.618	33309.75
682.966	33095.29
683.314	33068.4
683.661	32995.86
684.009	32899.13
684.357	32930.09
684.705	32766.03
685.053	32768.06
685.4	32795.86
685.748	32713.83
686.095	32748.18
686.443	32525.59
686.79	32561.74
687.138	32597
687.485	32566.49
687.832	32360.84
688.18	32476.1
688.527	32366.72
688.874	32288.53
689.221	32314.07
689.568	32073.39
689.915	32073.62
690.262	32014.86
690.609	31847.41
690.956	31733.29
691.303	31792.72
691.65	31674.53
691.997	31737.36
692.344	31412.17
692.69	31516.8
693.037	31448.1
693.383	31177.15
693.73	31378.95
694.077	31113.19
694.423	31226.41
694.769	31031.61
695.116	30969.69
695.462	30948
695.808	30849.02
696.155	30894.44
696.501	30762.47
696.847	30718.4
697.193	30442.48
697.539	30596.82
697.885	30329.03
698.231	30340.33
698.577	30330.84
698.923	30268.24
699.269	30072.99
699.614	29976.05
699.96	29981.02
700.306	29995.93
700.651	29840.46
700.997	29831.87
701.342	29729.73
701.688	29537.19
702.033	29549.84
702.379	29485.44
702.724	29357.53
703.069	29541.26
703.415	29092
703.76	29132.91
704.105	29161.83
704.45	29184.2
704.795	28818.11
705.14	28872.57
705.485	28905.12
705.83	28648.63
706.175	28820.6
706.52	28557.55
706.865	28540.83
707.209	28616.08
707.554	28437.33
707.899	28348.75
708.243	28298.8
708.588	28375.19
708.932	28160.5
709.277	28133.84
709.621	28172.25
709.966	27951.47
710.31	28019.72
710.654	27802.55
710.998	27837.57
711.342	27760.51
711.687	27778.82
712.031	27645.26
712.375	27489.11
712.719	27546.28
713.063	27494.53
713.407	27596
713.75	27405.27
714.094	27430.58
714.438	27292.5
714.782	27336.8
715.125	27175.22
715.469	27192.39
715.812	27120.98
716.156	26849.58
716.499	26942.23
716.843	26935.22
717.186	26723.7
717.53	27066.97
717.873	26838.28
718.216	26855.68
718.559	26598.06
718.902	26553.54
719.246	26545.86
719.589	26524.16
719.932	26434.22
720.275	26459.53
720.617	26324.39
720.96	26312.19
721.303	26322.36
721.646	26252.08
721.989	26100.22
722.331	26158.97
722.674	26106.32
723.016	26056.38
723.359	26137.28
723.701	26159.43
724.044	25927.11
724.386	25846.44
724.729	25923.05
725.071	25878.53
725.413	25918.98
725.755	25748.81
726.097	25716.95
726.439	25631.3
726.782	25602.6
727.124	25762.6
727.465	25528.71
727.807	25573.45
728.149	25442.83
728.491	25469.95
728.833	25533.45
729.175	25384.98
729.516	25388.15
729.858	25288.04
730.199	25338.2
730.541	25196.51
730.882	25260.24
731.224	25395.6
731.565	25065.89
731.906	25142.05
732.248	25050.98
732.589	25027.7
732.93	24861.83
733.271	24934.15
733.612	25021.38
733.953	25006.01
734.294	24925.11
734.635	24793.36
734.976	24874.71
735.317	24724.43
735.658	24653.93
735.999	24667.26
736.339	24534.61
736.68	24777.54
737.021	24608.51
737.361	24367.61
737.702	24650.76
738.042	24507.72
738.383	24456.87
738.723	24463.88
739.063	24310.21
739.404	24313.6
739.744	24258.01
740.084	24113.38
740.424	24339.13
740.764	24242.19
741.104	24254.16
741.444	24121.74
741.784	23996.09
742.124	24099.82
742.464	24104.79
742.804	23901.63
743.143	23846.27
743.483	23935.08
743.823	23859.15
744.162	23761.3
744.502	23821.18
744.841	23788.41
745.181	23918.13
745.52	23707.74
745.86	23803.78
746.199	23654.18
746.538	23701.41
746.877	23758.81
747.216	23618.02
747.556	23667.74
747.895	23568.31
748.234	23396.79
748.573	23452.15
748.911	23378.71
749.25	23434.98
749.589	23368.54
749.928	23370.8
750.267	23242.67
750.605	23263.46
750.944	23189.11
751.283	23152.27
751.621	23253.51
751.96	22981.88
752.298	23010.58
752.636	23102.1
752.975	23015.78
753.313	22858.5
753.651	22994.99
753.989	22764.03
754.327	22715
754.666	22776.69
755.004	22734.43
755.342	22649.46
755.679	22696.01
756.017	22440.88
756.355	22595.23
756.693	22581.67
757.031	22514.1
757.368	22411.73
757.706	22423.03
758.044	22250.83
758.381	22240.21
758.719	22172.41
759.056	22243.37
759.394	22103.49
759.731	21999.08
760.068	21952.76
760.405	21889.93
760.743	21904.17
761.08	21937.39
761.417	21691.07
761.754	21702.14
762.091	21544.63
762.428	21630.28
762.765	21492.66
763.102	21453.11
763.438	21404.75
763.775	21273.45
764.112	21346.22
764.449	21388.25
764.785	21205.66
765.122	21028.94
765.458	20898.09
765.795	20935.61
766.131	20861.49
766.467	20771.09
766.804	20770.19
767.14	20606.12
767.476	20572.91
767.812	20594.37
768.148	20565.22
768.485	20374.49
768.821	20293.14
769.157	20228.96
769.492	20232.12
769.828	20273.48
770.164	20063.31
770.5	20048.4
770.836	20073.94
771.171	19825.81
771.507	19833.26
771.842	19762.31
772.178	19764.34
772.513	19732.25
772.849	19636.66
773.184	19532.25
773.519	19551.69
773.855	19390.11
774.19	19320.06
774.525	19300.62
774.86	19216.33
775.195	19195.77
775.53	19101.08
775.865	18992.38
776.2	18882.78
776.535	18734.76
776.87	18768.66
777.205	18666.29
777.539	18625.16
777.874	18649.11
778.209	18472.85
778.543	18405.05
778.878	18330.25
779.212	18392.85
779.547	18216.81
779.881	18233.31
780.215	18148.56
780.55	18137.94
780.884	18015.91
781.218	18044.38
781.552	18012.29
781.886	17888.46
782.22	17780.44
782.554	17660.44
782.888	17575.24
783.222	17473.55
783.556	17457.73
783.889	17407.56
784.223	17269.04
784.557	17335.93
784.89	17301.35
785.224	17185.2
785.557	17071.98
785.891	17007.35
786.224	16880.57
786.558	16997.41
786.891	16753.57
787.224	16713.8
787.557	16672.67
787.891	16655.04
788.224	16664.31
788.557	16664.99
788.89	16514.71
789.223	16537.31
789.556	16453.69
789.888	16368.5
790.221	16283.3
790.554	16179.35
790.887	16111.78
791.219	16100.71
791.552	16091.89
791.884	15955.85
792.217	15944.78
792.549	15945.91
792.882	15803.77
793.214	15771.9
793.546	15829.98
793.879	15625.69
794.211	15554.05
794.543	15650.55
794.875	15553.6
795.207	15514.06
795.539	15468.63
795.871	15484.23
796.203	15321.29
796.535	15221.18
796.867	15230.9
797.198	15131.92
797.53	15109.09
797.862	15013.28
798.193	15109.55
798.525	15003.79
798.856	14955.65
799.188	14798.14
799.519	14787.75
799.85	14738.93
800.182	14727.41
800.513	14712.04
800.844	14547.53
801.175	14657.13
801.506	14527.87
801.837	14566.74
802.168	14447.19
802.499	14397.02
802.83	14345.5
803.161	14382.11
803.491	14331.04
803.822	14319.74
804.153	14141.21
804.483	14145.05
804.814	14042
805.145	14041.33
805.475	14124.04
805.805	13867.09
806.136	13968.11
806.466	13997.71
806.796	14042.46
807.126	13795
807.457	13769.69
807.787	13731.73
808.117	13750.26
808.447	13653.09
808.777	13666.19
809.107	13687.44
809.436	13608.79
809.766	13589.81
810.096	13495.35
810.426	13508.68
810.755	13472.98
811.085	13334.23
811.414	13459.42
811.744	13300.1
812.073	13252.65
812.403	13347.78
812.732	13156.83
813.061	13244.28
813.39	13094.68
813.719	13139.65
814.049	13173.33
814.378	13048.58
814.707	13059.2
815.036	13024.86
815.365	12938.3
815.693	12815.82
816.022	12882.26
816.351	12864.18
816.68	12717.74
817.008	12749.83
817.337	12670.74
817.665	12619.89
817.994	12646.11
818.322	12693.11
818.651	12582.16
818.979	12559.33
819.307	12625.77
819.636	12508.03
819.964	12486.34
820.292	12519.11
820.62	12437.07
820.948	12440.24
821.276	12517.07
821.604	12442.05
821.932	12421.26
822.259	12433.68
822.587	12400.92
822.915	12373.12
823.243	12500.58
823.57	12438.88
823.898	12414.93
824.225	12404.08
824.553	12409.5
824.88	12430.97
825.207	12454.02
825.535	12428.71
825.862	12390.3
826.189	12310.98
826.516	12455.6
826.843	12478.65
827.17	12430.07
827.497	12336.74
827.824	12351.2
828.151	12376.96
828.478	12377.64
828.805	12433.01
829.131	12412.67
829.458	12346.46
829.785	12325.89
830.111	12334.25
830.438	12363.86
830.764	12400.01
831.09	12335.61
831.417	12345.1
831.743	12266.68
832.069	12320.24
832.395	12230.3
832.722	12320.24
833.048	12241.37
833.374	12233.01
833.7	12191.43
834.026	12203.18
834.351	12197.31
834.677	12253.58
835.003	12226.46
835.329	12215.84
835.654	12180.13
835.98	12118.44
836.306	12129.74
836.631	12087.25
836.956	12123.86
837.282	12094.26
837.607	12092
837.932	12037.99
838.258	12062.39
838.583	11951.44
838.908	11922.74
839.233	11957.54
839.558	11989.18
839.883	11872.8
840.208	11833.47
840.533	11844.1
840.858	11936.3
841.182	11841.16
841.507	11880.7
841.832	11788.73
842.156	11649.52
842.481	11706.25
842.805	11696.98
843.13	11668.73
843.454	11566.81
843.778	11536.53
844.103	11623.08
844.427	11503.99
844.751	11558.23
845.075	11458.57
845.399	11466.03
845.723	11413.37
846.047	11406.59
846.371	11311.23
846.695	11320.04
847.019	11262.64
847.343	11132.48
847.666	11116.43
847.99	11101.29
848.313	11116.43
848.637	11019.71
848.96	10972.48
849.284	10974.51
849.607	10922.54
849.931	10848.42
850.254	10785.37
850.577	10750.56
850.9	10624.24
851.223	10672.6
851.546	10617.46
851.869	10595.31
852.192	10637.8
852.515	10475.54
852.838	10454.98
853.161	10397.81
853.483	10412.04
853.806	10373.63
854.129	10324.36
854.451	10238.94
854.774	10181.54
855.096	10213.86
855.419	10187.87
855.741	10108.55
856.063	10090.02
856.385	10114.42
856.708	10093.18
857.03	10040.98
857.352	9980.42
857.674	9979.96
857.996	9956.69
858.318	9928.44
858.64	9870.59
858.961	9837.37
859.283	9786.75
859.605	9840.08
859.926	9809.57
860.248	9769.12
860.57	9702
860.891	9766.86
861.212	9622.91
861.534	9658.84
861.855	9658.84
862.176	9627.43
862.498	9678.73
862.819	9598.5
863.14	9556.7
863.461	9636.92
863.782	9477.15
864.103	9443.93
864.424	9515.34
864.745	9493.2
865.065	9427.21
865.386	9457.72
865.707	9423.37
866.027	9340.21
866.348	9385.63
866.668	9371.62
866.989	9377.49
867.309	9306.76
867.63	9381.56
867.95	9242.81
868.27	9287.1
868.59	9277.16
868.91	9215.92
869.23	9259.3
869.55	9215.92
869.87	9245.52
870.19	9207.1
870.51	9173.21
870.83	9223.37
871.15	9158.29
871.469	9114.22
871.789	9125.75
872.109	9140.44
872.428	9073.32
872.748	9093.66
873.067	9054.34
873.386	9034
873.706	9068.8
874.025	9013.66
874.344	9014.11
874.663	8968.69
874.982	8969.59
875.301	8945.41
875.62	8928.01
875.939	8916.04
876.258	8885.3
876.577	8872.2
876.896	8923.27
877.214	8827.45
877.533	8869.03
877.852	8835.36
878.17	8849.37
878.489	8850.95
878.807	8816.83
879.125	8820.67
879.444	8800.79
879.762	8745.42
880.08	8791.29
880.398	8733.22
880.716	8725.53
881.034	8668.59
881.352	8680.79
881.67	8623.62
881.988	8648.93
882.306	8612.54
882.624	8656.38
882.941	8627.68
883.259	8560.11
883.577	8531.87
883.894	8500
884.212	8468.36
884.529	8485.54
884.846	8485.31
885.164	8419.78
885.481	8449.38
885.798	8411.87
886.115	8344.75
886.432	8341.81
886.75	8290.29
887.067	8358.54
887.383	8275.6
887.7	8297.07
888.017	8266.11
888.334	8297.97
888.651	8224.53
888.967	8215.04
889.284	8143.85
889.6	8106.11
889.917	8083.74
890.233	8138.43
890.55	8102.95
890.866	8065.44
891.182	8051.65
891.498	7989.51
891.815	7951.99
892.131	7928.94
892.447	7897.53
892.763	7884.65
893.079	7902.05
893.395	7873.13
893.71	7912
894.026	7829.51
894.342	7806.46
894.657	7794.48
894.973	7705.22
895.289	7779.8
895.604	7703.41
895.92	7654.38
896.235	7604.21
896.55	7667.03
896.865	7609.86
897.181	7566.69
897.496	7531.89
897.811	7548.39
898.126	7542.29
898.441	7483.53
898.756	7448.73
899.071	7436.3
899.386	7491.89
899.7	7328.06
900.015	7368.51
900.33	7334.38
900.644	7323.76
900.959	7300.26
901.273	7240.6
901.588	7225.91
901.902	7240.37
902.216	7161.28
902.531	7140.26
902.845	7111.34
903.159	7092.36
903.473	7027.72
903.787	7058.01
904.101	7036.09
904.415	6958.35
904.729	6947.05
905.042	6915.86
905.356	6956.54
905.67	6928.29
905.984	6842.87
906.297	6874.96
906.611	6816.88
906.924	6787.51
907.237	6785.02
907.551	6753.38
907.864	6729.65
908.177	6732.14
908.491	6742.53
908.804	6637.23
909.117	6594.29
909.43	6587.06
909.743	6538.7
910.056	6563.1
910.368	6513.61
910.681	6469.32
910.994	6499.38
911.307	6418.02
911.619	6359.72
911.932	6350
912.244	6383.45
912.557	6339.38
912.869	6294.18
913.181	6329.44
913.494	6288.76
913.806	6250.8
914.118	6197.24
914.43	6187.52
914.742	6179.61
915.054	6108.2
915.366	6078.37
915.678	6085.38
915.99	6059.84
916.302	5980.29
916.613	5987.98
916.925	5995.21
917.236	5943.01
917.548	5974.65
917.859	5870.47
918.171	5899.62
918.482	5851.26
918.794	5816.91
919.105	5857.13
919.416	5821.65
919.727	5788.44
920.038	5792.96
920.349	5733.07
920.66	5704.14
920.971	5683.58
921.282	5631.83
921.593	5653.3
921.903	5550.02
922.214	5554.32
922.525	5531.27
922.835	5509.8
923.146	5504.38
923.456	5493.75
923.767	5474.09
924.077	5453.53
924.387	5416.47
924.697	5399.07
925.008	5377.82
925.318	5317.71
925.628	5304.83
925.938	5329.01
926.248	5293.99
926.558	5271.61
926.867	5285.62
927.177	5193.42
927.487	5180.54
927.796	5153.2
928.106	5119.75
928.416	5113.65
928.725	5122.69
929.034	5108.23
929.344	5106.19
929.653	5062.8
929.962	4972.64
930.271	4962.92
930.581	4969.7
930.89	4935.12
931.199	4926.76
931.508	4902.36
931.817	4917.05
932.125	4922.92
932.434	4881.34
932.743	4828.23
933.051	4802.7
933.36	4783.26
933.669	4770.84
933.977	4750.27
934.286	4754.79
934.594	4756.37
934.902	4715.24
935.21	4665.08
935.519	4652.19
935.827	4657.17
936.135	4565.42
936.443	4538.3
936.751	4516.83
937.059	4558.41
937.367	4489.71
937.674	4520.9
937.982	4505.53
938.29	4445.87
938.597	4508.7
938.905	4435.7
939.213	4420.34
939.52	4369.72
939.827	4424.18
940.135	4367.23
940.442	4408.81
940.749	4326.55
941.056	4323.84
941.363	4283.16
941.67	4315.48
941.977	4223.28
942.284	4192.55
942.591	4206.56
942.898	4258.53
943.205	4187.8
943.511	4166.33
943.818	4178.99
944.125	4149.16
944.431	4136.28
944.738	4115.94
945.044	4100.57
945.35	4076.16
945.657	4063.28
945.963	4033
946.269	4011.31
946.575	3999.1
946.881	3961.59
947.187	3953.46
947.493	3960.01
947.799	3955.94
948.105	3907.58
948.41	3887.47
948.716	3863.97
949.022	3876.17
949.327	3868.71
949.633	3820.35
949.938	3780.8
950.244	3813.57
950.549	3752.1
950.854	3759.11
951.16	3787.13
951.465	3727.02
951.77	3701.26
952.075	3708.72
952.38	3724.31
952.685	3703.97
952.99	3623.07
953.294	3634.14
953.599	3626.91
953.904	3621.94
954.209	3558.89
954.513	3583.75
954.818	3560.7
955.122	3541.71
955.426	3526.8
955.731	3537.65
956.035	3494.71
956.339	3469.4
956.643	3468.72
956.948	3485.9
957.252	3460.59
957.556	3437.08
957.86	3453.13
958.163	3410.64
958.467	3417.65
958.771	3379.91
959.075	3372
959.378	3406.8
959.682	3338.78
959.985	3335.62
960.289	3356.41
960.592	3303.98
960.896	3278.22
961.199	3252.46
961.502	3280.93
961.805	3174.04
962.108	3181.72
962.411	3194.83
962.714	3191.67
963.017	3202.97
963.32	3161.61
963.623	3153.02
963.926	3110.09
964.228	3112.57
964.531	3106.02
964.833	3084.78
965.136	3038.9
965.438	3093.59
965.741	3058.11
966.043	3062.86
966.345	3016.76
966.648	3006.14
966.95	2972.24
967.252	2962.97
967.554	2956.19
967.856	2957.1
968.158	2963.88
968.46	2936.98
968.761	2955.97
969.063	2938.34
969.365	2920.04
969.666	2908.74
969.968	2848.4
970.269	2856.54
970.571	2829.42
970.872	2820.38
971.174	2848.63
971.475	2862.18
971.776	2842.75
972.077	2821.73
972.378	2769.08
972.679	2770.44
972.98	2760.94
973.281	2785.35
973.582	2736.76
973.883	2752.81
974.183	2712.36
974.484	2707.84
974.785	2673.72
975.085	2704.67
975.386	2672.59
975.686	2624.68
975.986	2629.2
976.287	2635.98
976.587	2623.09
976.887	2614.28
977.187	2587.62
977.487	2605.92
977.787	2560.95
978.087	2564.57
978.387	2571.8
978.687	2512.59
978.987	2535.41
979.286	2505.13
979.586	2495.41
979.885	2503.78
980.185	2461.52
980.484	2478.47
980.784	2490.89
981.083	2449.54
981.382	2425.13
981.682	2458.13
981.981	2406.15
982.28	2434.4
982.579	2415.19
982.878	2409.32
983.177	2378.36
983.475	2433.72
983.774	2371.8
984.073	2353.72
984.372	2341.52
984.67	2337.9
984.969	2354.4
985.267	2336.1
985.566	2330
985.864	2304.23
986.162	2271.47
986.461	2280.96
986.759	2250.45
987.057	2264.91
987.355	2245.93
987.653	2229.66
987.951	2220.85
988.249	2211.13
988.547	2158.47
988.844	2151.47
989.142	2212.26
989.44	2172.49
989.737	2141.3
990.035	2169.77
990.332	2130
990.63	2138.36
990.927	2139.04
991.224	2123.22
991.521	2118.48
991.819	2106.95
992.116	2098.59
992.413	2078.48
992.71	2069.89
993.006	2053.84
993.303	2069.44
993.6	2069.21
993.897	2043.9
994.193	2074.41
994.49	2033.05
994.787	1983.11
995.083	1990.57
995.379	1986.05
995.676	1948.54
995.972	1981.76
996.268	1980.17
996.565	1951.47
996.861	1940.63
997.157	1904.7
997.453	1913.96
997.749	1921.19
998.044	1899.05
998.34	1885.49
998.636	1895.2
998.932	1878.03
999.227	1871.93
999.523	1844.81
999.818	1857.47
1000.114	1833.74
1000.409	1824.92
1000.704	1809.1
1001	1809.1
1001.295	1788.09
1001.59	1806.62
1001.885	1802.78
1002.18	1784.92
1002.475	1748.77
1002.77	1747.64
1003.065	1729.79
1003.359	1744.93
1003.654	1719.62
1003.949	1687.53
1004.243	1738.15
1004.538	1700.86
1004.832	1683.46
1005.127	1678.71
1005.421	1673.29
1005.715	1684.81
1006.009	1652.5
1006.304	1648.88
1006.598	1602.33
1006.892	1620.18
1007.186	1605.72
1007.48	1616.34
1007.773	1604.59
1008.067	1594.2
1008.361	1579.51
1008.655	1606.17
1008.948	1589.45
1009.242	1576.79
1009.535	1558.26
1009.829	1535.44
1010.122	1520.3
1010.415	1526.4
1010.708	1530.24
1011.001	1497.93
1011.295	1495.44
1011.588	1497.93
1011.881	1471.94
1012.173	1485.05
1012.466	1457.02
1012.759	1459.74
1013.052	1445.95
1013.344	1452.28
1013.637	1445.5
1013.93	1428.1
1014.222	1433.3
1014.514	1403.01
1014.807	1411.6
1015.099	1405.73
1015.391	1445.05
1015.683	1365.27
1015.976	1379.74
1016.268	1365.5
1016.56	1373.41
1016.851	1337.93
1017.143	1347.87
1017.435	1348.33
1017.727	1314.88
1018.018	1327.08
1018.31	1323.92
1018.602	1300.19
1018.893	1284.6
1019.185	1251.38
1019.476	1276.01
1019.767	1290.47
1020.058	1262.45
1020.35	1238.5
1020.641	1262.23
1020.932	1229.69
1021.223	1236.24
1021.514	1239.18
1021.804	1218.84
1022.095	1225.84
1022.386	1203.25
1022.677	1203.47
1022.967	1190.82
1023.258	1163.92
1023.548	1157.37
1023.839	1191.95
1024.129	1154.21
1024.419	1157.82
1024.709	1164.15
1025	1150.37
1025.29	1134.32
1025.58	1122.34
1025.87	1105.62
1026.16	1112.63
1026.449	1106.07
1026.739	1113.98
1027.029	1106.52
1027.319	1095.68
1027.608	1081.89
1027.898	1074.66
1028.187	1073.31
1028.477	1087.77
1028.766	1055.9
1029.055	1026.75
1029.344	1051.38
1029.634	1055.23
1029.923	1047.09
1030.212	1026.53
1030.501	1031.95
1030.79	1000.09
1031.078	1002.57
1031.367	1000.76
1031.656	1009.58
1031.945	987.66
1032.233	940.43
1032.522	990.14
1032.81	978.84
1033.099	960.09
1033.387	962.35
1033.675	944.49
1033.963	949.01
1034.251	932.52
1034.54	945.62
1034.828	923.25
1035.116	928.45
1035.403	903.37
1035.691	911.28
1035.979	896.81
1036.267	891.61
1036.554	877.15
1036.842	878.28
1037.129	887.55
1037.417	870.37
1037.704	872.63
1037.992	866.3
1038.279	859.53
1038.566	850.71
1038.853	850.71
1039.14	850.71
