Data from hue_110_FLMS001491_00025.txt Node
Date: Tue Feb 07 17:01:06 GMT 2017
User: dcchb
Spectrometer: FLMS00149
Trigger mode: 0
Integration Time (sec): 2.000000E-2
Scans to average: 10
Electric dark correction enabled: true
Nonlinearity correction enabled: false
Boxcar width: 0
XAxis mode: Wavelengths
Number of Pixels in Spectrum: 2048
>>>>>Begin Spectral Data<<<<<
341.393	-38.25
341.776	-38.25
342.16	-38.25
342.543	-60.62
342.927	-79.38
343.31	-64.46
343.693	-85.93
344.077	-65.82
344.46	-54.07
344.843	-53.16
345.226	-53.16
345.61	-18.81
345.993	-12.94
346.376	-11.81
346.759	18.02
347.142	9.43
347.525	49.21
347.908	68.64
348.291	54.63
348.674	96.66
349.057	123.56
349.44	131.92
349.823	133.5
350.206	147.28
350.588	204.01
350.971	209.2
351.354	241.29
351.737	249.43
352.119	258.69
352.502	245.59
352.884	251.01
353.267	258.92
353.65	288.52
354.032	286.26
354.414	284.46
354.797	307.28
355.179	309.99
355.562	314.51
355.944	322.87
356.326	315.19
356.709	311.12
357.091	320.61
357.473	344.34
357.855	341.86
358.238	356.09
358.62	320.39
359.002	341.18
359.384	332.14
359.766	335.53
360.148	333.95
360.53	329.88
360.912	327.17
361.294	324
361.676	327.62
362.057	318.81
362.439	329.2
362.821	336.21
363.203	329.43
363.584	353.38
363.966	300.5
364.348	315.87
364.729	328.52
365.111	303.66
365.493	309.77
365.874	306.83
366.256	311.57
366.637	319.03
367.019	319.71
367.4	350.22
367.781	307.96
368.163	291.46
368.544	298.92
368.925	296.21
369.306	306.83
369.688	325.13
370.069	318.81
370.45	325.36
370.831	312.25
371.212	307.05
371.593	338.92
371.974	300.95
372.355	317
372.736	309.77
373.117	300.27
373.498	303.89
373.879	316.32
374.26	313.38
374.641	313.61
375.021	304.57
375.402	316.32
375.783	330.78
376.163	315.42
376.544	309.09
376.925	318.13
377.305	303.89
377.686	319.71
378.066	329.2
378.447	323.78
378.827	355.41
379.208	326.26
379.588	315.19
379.968	333.27
380.349	330.1
380.729	333.27
381.109	309.54
381.489	331.69
381.87	340.95
382.25	320.84
382.63	340.95
383.01	343.89
383.39	333.72
383.77	344.79
384.15	321.97
384.53	349.54
384.91	348.63
385.29	348.63
385.67	368.3
386.049	344.34
386.429	328.07
386.809	363.1
387.189	326.04
387.568	352.93
387.948	356.77
388.328	370.78
388.707	348.41
389.087	331.46
389.466	351.12
389.846	340.27
390.225	363.55
390.605	377.56
390.984	357.9
391.363	347.05
391.743	355.64
392.122	362.42
392.501	368.3
392.881	380.27
393.26	373.27
393.639	351.35
394.018	371.01
394.397	360.16
394.776	376.43
395.155	363.32
395.534	371.46
395.913	366.71
396.292	391.12
396.671	382.98
397.05	367.62
397.429	377.11
397.808	361.52
398.186	396.09
398.565	380.27
398.944	367.84
399.323	375.75
399.701	382.31
400.08	385.92
400.458	386.6
400.837	390.22
401.215	391.8
401.594	390.22
401.972	394.51
402.351	393.61
402.729	373.49
403.107	386.37
403.486	395.19
403.864	399.26
404.242	387.73
404.62	394.51
404.999	409.88
405.377	410.55
405.755	400.61
406.133	444.23
406.511	406.49
406.889	408.29
407.267	406.49
407.645	418.69
408.023	416.66
408.401	422.76
408.779	445.36
409.156	419.82
409.534	435.41
409.912	428.63
410.29	458.24
410.667	429.54
411.045	439.03
411.422	445.36
411.8	439.25
412.178	434.51
412.555	460.27
412.933	447.84
413.31	443.32
413.687	456.43
414.065	474.51
414.442	469.76
414.819	487.39
415.197	455.75
415.574	477.22
415.951	491.91
416.328	479.93
416.705	481.96
417.082	469.31
417.46	491.46
417.837	498.24
418.214	505.01
418.591	472.47
418.967	483.77
419.344	506.82
419.721	509.76
420.098	507.05
420.475	515.86
420.852	514.51
421.228	533.49
421.605	522.42
421.982	521.96
422.358	531.68
422.735	536.43
423.111	542.75
423.488	543.66
423.864	540.95
424.241	575.97
424.617	545.92
424.994	536.43
425.37	566.93
425.746	547.27
426.123	575.97
426.499	537.1
426.875	566.48
427.251	598.12
427.627	597.67
428.003	596.99
428.379	589.31
428.756	586.82
429.132	591.11
429.507	595.18
429.883	626.37
430.259	599.25
430.635	598.57
431.011	611.23
431.387	623.88
431.763	639.47
432.138	630.21
432.514	640.83
432.89	646.48
433.265	650.1
433.641	664.56
434.016	658.23
434.392	654.84
434.767	656.42
435.143	675.18
435.518	664.11
435.894	683.09
436.269	674.73
436.644	682.41
437.02	705.69
437.395	709.3
437.77	702.98
438.145	734.39
438.52	729.19
438.895	743.43
439.271	704.11
439.646	698.68
440.021	735.29
440.395	727.83
440.77	735.29
441.145	752.47
441.52	748.62
441.895	763.31
442.27	773.48
442.645	788.62
443.019	762.18
443.394	765.57
443.769	775.06
444.143	763.09
444.518	788.4
444.892	798.11
445.267	802.86
445.641	825.23
446.016	818.45
446.39	829.3
446.764	840.83
447.139	823.42
447.513	822.75
447.887	835.18
448.262	847.6
448.636	837.44
449.01	825.01
449.384	866.59
449.758	873.37
450.132	878.34
450.506	857.32
450.88	892.58
451.254	891.67
451.628	902.97
452.002	909.98
452.376	895.51
452.75	897.55
453.123	909.07
453.497	940.26
453.871	932.35
454.244	958.79
454.618	964.89
454.992	977.09
455.365	976.87
455.739	971.22
456.112	1009.18
456.486	1012.8
456.859	995.17
457.232	1035.85
457.606	1036.53
457.979	1063.42
458.352	1092.12
458.725	1076.98
459.099	1095.51
459.472	1104.55
459.845	1105.68
460.218	1114.04
460.591	1115.39
460.964	1140.03
461.337	1160.82
461.71	1163.53
462.083	1178.9
462.456	1188.39
462.829	1199.01
463.201	1229.06
463.574	1232.68
463.947	1277.42
464.32	1269.29
464.692	1282.17
465.065	1343.41
465.438	1316.75
465.81	1319.23
466.183	1363.3
466.555	1414.14
466.928	1414.14
467.3	1413.92
467.672	1426.35
468.045	1462.05
468.417	1490.3
468.789	1516.51
469.161	1509.28
469.534	1562.39
469.906	1602.16
470.278	1606
470.65	1678.32
471.022	1678.54
471.394	1725.32
471.766	1756.96
472.138	1782.95
472.51	1827.01
472.882	1882.83
473.253	1841.93
473.625	1907.01
473.997	1956.28
474.369	1999.21
474.74	2055.48
475.112	2095.48
475.484	2171.41
475.855	2197.17
476.227	2211.64
476.598	2316.94
476.97	2370.5
477.341	2406.21
477.713	2487.11
478.084	2548.13
478.455	2617.95
478.827	2685.97
479.198	2759.42
479.569	2777.5
479.94	2904.05
480.311	2949.7
480.682	3086.64
481.053	3171.39
481.424	3263.59
481.795	3358.73
482.166	3428.1
482.537	3498.38
482.908	3617.93
483.279	3686.4
483.65	3876.68
484.021	3946.51
484.391	4057.46
484.762	4134.75
485.133	4190.57
485.503	4326.16
485.874	4460.39
486.244	4585.36
486.615	4700.84
486.985	4839.82
487.356	4973.37
487.726	5106.93
488.097	5266.25
488.467	5350.99
488.837	5502.4
489.207	5637.31
489.578	5751.2
489.948	5908.71
490.318	6035.27
490.688	6132.66
491.058	6289.5
491.428	6459.43
491.798	6612.43
492.168	6742.59
492.538	6887.22
492.908	6963.15
493.278	7144.39
493.648	7242.24
494.017	7423.93
494.387	7561.78
494.757	7633.42
495.126	7844.71
495.496	7931.49
495.866	8004.7
496.235	8202.21
496.605	8337.35
496.974	8427.07
497.344	8534.63
497.713	8680.39
498.082	8770.56
498.452	9018.92
498.821	9002.87
499.19	9145.92
499.559	9285.58
499.928	9409.41
500.298	9438.34
500.667	9603.31
501.036	9651.89
501.405	9792.91
501.774	9789.97
502.143	10014.6
502.512	10070.19
502.88	10233.8
503.249	10296.85
503.618	10342.04
503.987	10448.03
504.356	10554.02
504.724	10592.89
505.093	10613.45
505.462	10748.14
505.83	10860
506.199	10910.62
506.567	11063.16
506.936	11056.38
507.304	11256.14
507.672	11365.29
508.041	11313.09
508.409	11447.55
508.777	11578.62
509.145	11685.06
509.514	11613.2
509.882	11727.32
510.25	11807.09
510.618	11835.11
510.986	11880.99
511.354	11963.47
511.722	12059.74
512.09	12136.8
512.458	12125.05
512.826	12237.14
513.193	12327.08
513.561	12376.57
513.929	12408.88
514.297	12456.57
514.664	12553.51
515.032	12560.07
515.4	12643.23
515.767	12664.92
516.135	12737.01
516.502	12625.15
516.869	12846.84
517.237	12840.06
517.604	12875.99
517.972	12870.34
518.339	12943.11
518.706	12984.23
519.073	13014.06
519.44	13051.58
519.808	13085.02
520.175	13033.95
520.542	13156.66
520.909	13202.31
521.276	13210.22
521.643	13335.19
522.009	13327.28
522.376	13415.64
522.743	13434.62
523.11	13404.79
523.477	13636.42
523.843	13528.18
524.21	13646.14
524.577	13731.33
524.943	13732.01
525.31	13703.31
525.676	13778.34
526.043	13835.74
526.409	13835.29
526.776	13918.22
527.142	13971.33
527.508	13944.66
527.874	13908.5
528.241	13946.02
528.607	13975.17
528.973	14009.52
529.339	13950.09
529.705	14096.07
530.071	14085.45
530.437	14052.46
530.803	14030.08
531.169	14039.8
531.535	14061.04
531.901	14077.54
532.267	14013.36
532.632	13979.46
532.998	14047.26
533.364	14087.71
533.73	14003.87
534.095	14056.98
534.461	14015.62
534.826	14084.09
535.192	14072.57
535.557	14062.62
535.923	13948.5
536.288	14023.3
536.653	13999.12
537.019	13868.96
537.384	13860.14
537.749	13879.8
538.114	13880.93
538.479	13899.24
538.845	13843.87
539.21	13853.36
539.575	13815.4
539.94	13758.45
540.305	13778.11
540.67	13733.37
541.034	13666.7
541.399	13723.42
541.764	13616.99
542.129	13631.22
542.494	13642.97
542.858	13589.64
543.223	13497.89
543.587	13544.22
543.952	13417.22
544.316	13499.48
544.681	13412.47
545.045	13396.43
545.41	13387.39
545.774	13382.87
546.138	13387.61
546.503	13424.68
546.867	13288.63
547.231	13271.23
547.595	13193.72
547.959	13188.07
548.324	13185.13
548.688	13152.59
549.052	13147.85
549.416	13028.98
549.779	13026.04
550.143	12995.31
550.507	13069.2
550.871	13024.69
551.235	12941.3
551.599	12971.81
551.962	12928.42
552.326	12860.17
552.689	12912.6
553.053	12788.99
553.417	12842.32
553.78	12917.12
554.143	12744.92
554.507	12855.2
554.87	12848.87
555.234	12812.26
555.597	12786.27
555.96	12701.53
556.323	12701.08
556.686	12669.21
557.05	12770.46
557.413	12666.28
557.776	12756.9
558.139	12639.61
558.502	12681.87
558.865	12587.41
559.228	12649.55
559.59	12683.45
559.953	12739.27
560.316	12754.41
560.679	12795.77
561.041	12749.89
561.404	12723.68
561.767	12716.22
562.129	12673.06
562.492	12800.06
562.854	12735.65
563.217	12709.44
563.579	12662.21
563.941	12709.44
564.304	12778.59
564.666	12770.91
565.028	12725.94
565.39	12770.91
565.753	12831.02
566.115	12754.41
566.477	12843.9
566.839	12888.87
567.201	12914.18
567.563	12936.55
567.925	12906.5
568.287	12986.04
568.648	12842.54
569.01	12953.73
569.372	12950.34
569.734	12957.57
570.095	12992.82
570.457	12978.81
570.819	13058.81
571.18	12978.13
571.542	13020.84
571.903	12988.3
572.265	13037.11
572.626	13091.58
572.987	13174.74
573.349	12989.66
573.71	13090.9
574.071	13107.62
574.432	13071.24
574.794	13084.57
575.155	13237.56
575.516	13040.28
575.877	13178.58
576.238	13144.23
576.599	13205.7
576.96	13249.31
577.32	13227.39
577.681	13204.57
578.042	13229.88
578.403	13207.51
578.763	13197.11
579.124	13188.75
579.485	13261.74
579.845	13287.96
580.206	13183.33
580.566	13161.63
580.927	13191.46
581.287	13189.43
581.648	13209.99
582.008	13247.5
582.368	13198.69
582.728	13181.74
583.089	13197.79
583.449	13195.08
583.809	13227.84
584.169	13202.76
584.529	13154.63
584.889	13211.8
585.249	13038.92
585.609	13081.63
585.969	13180.84
586.329	13075.53
586.688	13061.29
587.048	13109.43
587.408	13052.48
587.768	13043.89
588.127	13093.16
588.487	13034.18
588.846	13081.63
589.206	13089.32
589.565	13029.43
589.925	13096.32
590.284	12954.18
590.643	13114.17
591.003	13079.6
591.362	13133.84
591.721	13068.3
592.08	13019.04
592.44	13075.76
592.799	13080.73
593.158	13037.79
593.517	12945.14
593.876	12984.01
594.235	12901.98
594.593	12986.95
594.952	12953.5
595.311	12881.64
595.67	12940.17
596.029	13005.03
596.387	12942.88
596.746	13034.63
597.104	12929.77
597.463	12822.21
597.822	12926.61
598.18	12966.16
598.538	12855.2
598.897	12884.35
599.255	12767.52
599.613	13033.27
599.972	12937.23
600.33	12960.51
600.688	12817.69
601.046	12918.02
601.404	12987.85
601.762	12901.98
602.12	12949.21
602.478	13017.91
602.836	12863.79
603.194	12886.61
603.552	12923.9
603.91	12895.65
604.268	12927.51
604.625	12837.35
604.983	12936.1
605.341	12896.55
605.698	12888.87
606.056	12949.66
606.413	12950.34
606.771	12913.95
607.128	12947.4
607.485	12863.56
607.843	12977.46
608.2	13047.06
608.557	13049.77
608.914	12957.79
609.272	13036.89
609.629	13054.52
609.986	13139.26
610.343	12890
610.7	13076.66
611.057	13101.52
611.414	13076.89
611.771	13033.73
612.127	13079.83
612.484	13100.16
612.841	13163.44
613.198	13071.24
613.554	13063.78
613.911	13194.4
614.267	13113.5
614.624	13055.87
614.98	13212.93
615.337	13155.98
615.693	13201.4
616.05	13182.42
616.406	13291.12
616.762	13247.05
617.118	13261.06
617.475	13206.83
617.831	13175.19
618.187	13137.45
618.543	13316.43
618.899	13294.96
619.255	13333.38
619.611	13263.55
619.967	13312.81
620.323	13301.74
620.678	13345.36
621.034	13243.21
621.39	13341.06
621.746	13287.28
622.101	13346.49
622.457	13314.85
622.812	13329.54
623.168	13369.76
623.523	13297.45
623.879	13374.06
624.234	13260.84
624.589	13380.61
624.945	13334.96
625.3	13404.79
625.655	13367.5
626.01	13288.63
626.365	13334.28
626.72	13340.38
627.075	13338.8
627.43	13259.48
627.785	13349.2
628.14	13313.27
628.495	13304.23
628.85	13269.43
629.205	13197.11
629.559	13286.83
629.914	13295.87
630.269	13312.81
630.623	13257
630.978	13176.09
631.332	13217.68
631.687	13346.49
632.041	13185.36
632.396	13255.87
632.75	13209.09
633.104	13242.08
633.459	13119.82
633.813	13090.67
634.167	13101.75
634.521	13059.26
634.875	13141.52
635.229	13081.63
635.583	13016.1
635.937	13055.87
636.291	13099.03
636.645	13018.81
636.999	12982.88
637.352	13001.18
637.706	12926.16
638.06	13020.84
638.413	12893.39
638.767	12910.56
639.121	12892.26
639.474	12842.32
639.828	12829.44
640.181	12921.19
640.534	12940.39
640.888	12917.57
641.241	12788.53
641.594	12805.26
641.947	12843.9
642.301	12806.16
642.654	12798.25
643.007	12786.5
643.36	12763.9
643.713	12788.76
644.066	12836.22
644.419	12839.15
644.771	12672.15
645.124	12572.72
645.477	12510.12
645.83	12408.88
646.182	12359.84
646.535	12342.22
646.888	12366.62
647.24	12276
647.593	12377.02
647.945	12439.16
648.298	12340.18
648.65	12354.65
649.002	12231.03
649.355	12283.69
649.707	12300.41
650.059	12328.88
650.411	12476.45
650.763	12523.23
651.115	12666.73
651.467	12600.52
651.819	12626.28
652.171	12620.63
652.523	12635.77
652.875	12600.06
653.227	12513.29
653.578	12560.52
653.93	12584.25
654.282	12568.2
654.633	12619.72
654.985	12589.44
655.337	12642.1
655.688	12461.99
656.039	12704.47
656.391	12529.78
656.742	12581.31
657.094	12651.59
657.445	12636.22
657.796	12694.75
658.147	12590.8
658.498	12670.57
658.849	12636.9
659.2	12612.04
659.551	12669.21
659.902	12610.91
660.253	12649.78
660.604	12686.39
660.955	12618.82
661.306	12691.59
661.656	12610.91
662.007	12729.1
662.358	12623.57
662.708	12712.38
663.059	12743.11
663.409	12605.49
663.76	12701.53
664.11	12675.77
664.461	12737.91
664.811	12765.48
665.161	12727.29
665.511	12744.69
665.862	12725.48
666.212	12689.55
666.562	12686.39
666.912	12677.35
667.262	12658.82
667.612	12667.63
667.962	12675.32
668.312	12621.76
668.662	12734.52
669.011	12701.98
669.361	12682.77
669.711	12615.43
670.06	12648.65
670.41	12614.3
670.76	12653.4
671.109	12632.61
671.459	12736.11
671.808	12635.32
672.157	12647.97
672.507	12558.71
672.856	12574.3
673.205	12527.75
673.554	12621.53
673.904	12577.69
674.253	12697.24
674.602	12612.95
674.951	12449.56
675.3	12370.24
675.649	12513.06
675.998	12491.59
676.346	12535.43
676.695	12496.11
677.044	12306.29
677.393	12407.75
677.741	12532.27
678.09	12409.11
678.438	12474.87
678.787	12399.62
679.135	12451.14
679.484	12328.43
679.832	12335.66
680.181	12293.86
680.529	12332.95
680.877	12262.45
681.225	12285.5
681.573	12385.15
681.922	12244.37
682.27	12171.6
682.618	12238.27
682.966	12194.88
683.314	12235.78
683.661	12116.91
684.009	12014.99
684.357	12098.61
684.705	12016.58
685.053	12051.15
685.4	12055.45
685.748	11938.61
686.095	11957.6
686.443	11922.79
686.79	11923.92
687.138	11915.79
687.485	11892.96
687.832	11771.61
688.18	11779.29
688.527	11819.52
688.874	11777.71
689.221	11789.01
689.568	11749.01
689.915	11609.81
690.262	11599.41
690.609	11596.02
690.956	11578.17
691.303	11480.32
691.65	11511.28
691.997	11482.58
692.344	11406.88
692.69	11358.51
693.037	11333.88
693.383	11182.02
693.73	11294.34
694.077	11188.35
694.423	11180.67
694.769	11144.96
695.116	11123.49
695.462	11109.03
695.808	11095.02
696.155	11073.55
696.501	10958.3
696.847	11003.04
697.193	10881.69
697.539	10877.85
697.885	10768.93
698.231	10837.62
698.577	10796.27
698.923	10763.5
699.269	10660.91
699.614	10589.5
699.96	10598.53
700.306	10596.95
700.651	10481.25
700.997	10534.36
701.342	10437.86
701.688	10437.86
702.033	10409.39
702.379	10317.41
702.724	10333.23
703.069	10326.9
703.415	10193.57
703.76	10250.52
704.105	10210.75
704.45	10175.5
704.795	10068.83
705.14	10114.71
705.485	10101.6
705.83	9984.77
706.175	10039
706.52	9942.05
706.865	9961.49
707.209	9964.43
707.554	9841.72
707.899	9931.89
708.243	9796.3
708.588	9810.53
708.932	9716.07
709.277	9729.63
709.621	9675.17
709.966	9611.89
710.31	9686.02
710.654	9600.6
710.998	9647.83
711.342	9647.37
711.687	9570.54
712.031	9534.83
712.375	9512.69
712.719	9513.37
713.063	9543.65
713.407	9484.21
713.75	9448.73
714.094	9474.27
714.438	9357.89
714.782	9441.28
715.125	9368.51
715.469	9362.86
715.812	9380.71
716.156	9293.03
716.499	9274.28
716.843	9284.22
717.186	9250.77
717.53	9327.61
717.873	9314.5
718.216	9227.05
718.559	9238.12
718.902	9166.26
719.246	9162.19
719.589	9112.7
719.932	9133.94
720.275	9140.95
720.617	9126.48
720.96	9093.72
721.303	9146.14
721.646	9143.21
721.989	9004
722.331	9068.18
722.674	9053.04
723.016	9060.72
723.359	9030.44
723.701	9027.73
724.044	9015.98
724.386	8938.92
724.729	9054.62
725.071	9031.34
725.413	9039.48
725.755	9007.16
726.097	8912.03
726.439	8969.88
726.782	8892.37
727.124	9001.29
727.465	8875.64
727.807	8889.43
728.149	8883.78
728.491	8912.93
728.833	8912.7
729.175	8934.62
729.516	8885.59
729.858	8903.66
730.199	8867.05
730.541	8837.68
730.882	8867.05
731.224	8879.94
731.565	8794.06
731.906	8811.01
732.248	8884.68
732.589	8870.44
732.93	8744.57
733.271	8848.75
733.612	8827.51
733.953	8884.46
734.294	8827.96
734.635	8779.37
734.976	8894.62
735.317	8858.47
735.658	8808.98
735.999	8839.49
736.339	8877.9
736.68	8920.39
737.021	8896.43
737.361	8823.89
737.702	8903.21
738.042	8905.7
738.383	8814.85
738.723	8900.05
739.063	8904.12
739.404	8931.46
739.744	8932.14
740.084	8888.07
740.424	8917.45
740.764	8928.07
741.104	9008.75
741.444	8985.92
741.784	8955.41
742.124	9016.66
742.464	9009.88
742.804	9027.95
743.143	8966.49
743.483	9053.94
743.823	9076.99
744.162	9125.13
744.502	9180.04
744.841	9154.96
745.181	9250.1
745.52	9238.57
745.86	9331
746.199	9355.86
746.538	9369.64
746.877	9391.56
747.216	9431.33
747.556	9397.21
747.895	9514.95
748.234	9546.59
748.573	9663.19
748.911	9667.03
749.25	9768.27
749.589	9743.87
749.928	9895.5
750.267	9963.98
750.605	10048.72
750.944	10146.12
751.283	10141.15
751.621	10269.28
751.96	10276.06
752.298	10424.98
752.636	10499.55
752.975	10576.39
753.313	10735.03
753.651	10824.29
753.989	10844.63
754.327	10941.35
754.666	11107.22
755.004	11216.6
755.342	11371.17
755.679	11462.92
756.017	11581.56
756.355	11725.74
756.693	11881.66
757.031	11996.92
757.368	12177.7
757.706	12243.92
758.044	12496.79
758.381	12608.88
758.719	12763.22
759.056	12906.5
759.394	13035.98
759.731	13118.47
760.068	13311.68
760.405	13434.17
760.743	13634.16
761.08	13856.75
761.417	13868.05
761.754	14094.49
762.091	14207.25
762.428	14466.68
762.765	14527.25
763.102	14781.25
763.438	14951.41
763.775	14998.42
764.112	15174.69
764.449	15484.51
764.785	15581.68
765.122	15636.59
765.458	15811.73
765.795	15923.82
766.131	16130.82
766.467	16247.2
766.804	16318.84
767.14	16484.26
767.476	16581.65
767.812	16696.68
768.148	16751.82
768.485	16954.3
768.821	17042.89
769.157	17164.69
769.492	17213.5
769.828	17421.86
770.164	17363.55
770.5	17510.22
770.836	17667.73
771.171	17656.43
771.507	17761.74
771.842	17776.2
772.178	17922.64
772.513	18023.65
772.849	18113.59
773.184	18143.87
773.519	18219.58
773.855	18274.72
774.19	18248.73
774.525	18423.19
774.86	18466.58
775.195	18476.52
775.53	18508.16
775.865	18417.99
776.2	18492.34
776.535	18487.59
776.87	18508.84
777.205	18615.05
777.539	18624.76
777.874	18743.86
778.209	18577.76
778.543	18578.21
778.878	18574.37
779.212	18689.85
779.547	18688.49
779.881	18787.7
780.215	18773.24
780.55	18681.49
780.884	18729.85
781.218	18788.15
781.552	18824.99
781.886	18647.59
782.22	18736.63
782.554	18668.61
782.888	18578.66
783.222	18594.26
783.556	18635.61
783.889	18520.13
784.223	18457.99
784.557	18524.2
784.89	18544.09
785.224	18450.76
785.557	18390.87
785.891	18451.21
786.224	18417.31
786.558	18379.8
786.891	18311.1
787.224	18301.16
787.557	18417.99
787.891	18400.82
788.224	18330.08
788.557	18335.96
788.89	18214.15
789.223	18357.65
789.556	18130.77
789.888	18159.24
790.221	18182.06
790.554	17901.17
790.887	18041.73
791.219	18033.37
791.552	17971.45
791.884	17933.48
792.217	17963.09
792.549	17899.81
792.882	17770.55
793.214	17764.45
793.546	17902.98
793.879	17672.7
794.211	17559.48
794.543	17622.31
794.875	17617.56
795.207	17662.3
795.539	17523.78
795.871	17552.02
796.203	17446.04
796.535	17367.85
796.867	17300.51
797.198	17302.54
797.53	17315.19
797.862	17186.16
798.193	17215.08
798.525	17013.96
798.856	17158.81
799.188	16997.46
799.519	16940.97
799.85	16792.72
800.182	16918.82
800.513	16903
800.844	16716.57
801.175	16923.34
801.506	16901.19
801.837	16739.16
802.168	16673.18
802.499	16667.08
802.83	16658.71
803.161	16437.25
803.491	16494.43
803.822	16555.67
804.153	16435.22
804.483	16298.27
804.814	16305.96
805.145	16275.45
805.475	16302.34
805.805	16289.23
806.136	16222.79
806.466	16263.92
806.796	16173.08
807.126	16096.47
807.457	16025.96
807.787	16001.1
808.117	16036.58
808.447	15937.83
808.777	15930.6
809.107	15768.34
809.436	15820.09
809.766	15787.33
810.096	15844.72
810.426	15702.81
810.755	15766.08
811.085	15758.4
811.414	15720.66
811.744	15494
812.073	15600.44
812.403	15517.28
812.732	15493.55
813.061	15543.72
813.39	15345.98
813.719	15322.7
814.049	15436.15
814.378	15402.93
814.707	15268.69
815.036	15317.05
815.365	15214.46
815.693	15147.79
816.022	15170.39
816.351	15130.85
816.68	14999.78
817.008	15074.12
817.337	14948.03
817.665	14884.52
817.994	14910.06
818.322	14966.56
818.651	14856.05
818.979	14848.14
819.307	14891.3
819.636	14820.57
819.964	14794.81
820.292	14822.15
820.62	14815.6
820.948	14722.04
821.276	14777.63
821.604	14724.3
821.932	14739.44
822.259	14786.9
822.587	14718.88
822.915	14626
823.243	14725.43
823.57	14718.43
823.898	14788.26
824.225	14719.33
824.553	14684.3
824.88	14705.77
825.207	14720.23
825.535	14675.94
825.862	14742.38
826.189	14762.72
826.516	14800.91
826.843	14777.86
827.17	14799.78
827.497	14680.01
827.824	14793
828.151	14854.92
828.478	14726.34
828.805	14866.67
829.131	14748.48
829.458	14735.38
829.785	14655.6
830.111	14732.89
830.438	14743.74
830.764	14654.7
831.09	14782.61
831.417	14598.43
831.743	14796.84
832.069	14741.7
832.395	14707.13
832.722	14646.34
833.048	14642.95
833.374	14637.52
833.7	14555.04
834.026	14623.74
834.351	14602.27
834.677	14676.62
835.003	14610.18
835.329	14578.32
835.654	14552.78
835.98	14576.06
836.306	14561.37
836.631	14484.31
836.956	14526.79
837.282	14542.39
837.607	14386.46
837.932	14418.32
838.258	14417.42
838.583	14404.99
838.908	14284.77
839.233	14328.15
839.558	14297.42
839.883	14268.27
840.208	14261.26
840.533	14186.46
840.858	14237.08
841.182	14244.09
841.507	14206.8
841.832	14049.52
842.156	14134.94
842.481	14120.48
842.805	14039.12
843.13	14053.36
843.454	14056.52
843.778	14009.97
844.103	13945.57
844.427	13902.18
844.751	13851.78
845.075	13850.2
845.399	13839.58
845.723	13732.69
846.047	13746.02
846.371	13635.74
846.695	13612.01
847.019	13516.42
847.343	13420.83
847.666	13453.6
847.99	13415.41
848.313	13287.96
848.637	13249.09
848.96	13214.29
849.284	13220.84
849.607	13099.49
849.931	13082.76
850.254	12935.65
850.577	12934.29
850.9	12871.02
851.223	12880.06
851.546	12814.07
851.869	12715.77
852.192	12743.79
852.515	12684.81
852.838	12564.13
853.161	12603.91
853.483	12547.64
853.806	12440.07
854.129	12399.84
854.451	12305.61
854.774	12419.5
855.096	12365.27
855.419	12245.72
855.741	12257.25
856.063	12214.09
856.385	12169.57
856.708	12111.94
857.03	12119.17
857.352	12041.43
857.674	12023.13
857.996	12064.71
858.318	11924.38
858.64	11968.22
858.961	11961.21
859.283	11843.7
859.605	11798.28
859.926	11758.73
860.248	11770.48
860.57	11638.96
860.891	11716.25
861.212	11688.68
861.534	11600.09
861.855	11524.61
862.176	11584.72
862.498	11584.27
862.819	11551.96
863.14	11505.18
863.461	11427.89
863.782	11473.99
864.103	11460.21
864.424	11384.95
864.745	11394.9
865.065	11391.28
865.386	11302.47
865.707	11403.03
866.027	11318.74
866.348	11298.63
866.668	11244.17
866.989	11246.43
867.309	11090.5
867.63	11234.45
867.95	11183.6
868.27	11104.51
868.59	11151.06
868.91	11124.85
869.23	11072.42
869.55	11046.21
869.87	11075.81
870.19	11018.64
870.51	10999.2
870.83	11049.6
871.15	10988.13
871.469	11003.72
871.789	11046.21
872.109	10961.46
872.428	10872.43
872.748	10959.43
873.067	10882.37
873.386	10891.41
873.706	10857.06
874.025	10781.81
874.344	10832.2
874.663	10835.36
874.982	10837.85
875.301	10851.41
875.62	10814.12
875.939	10803.95
876.258	10794.91
876.577	10754.24
876.896	10669.95
877.214	10613.68
877.533	10667.91
877.852	10600.12
878.17	10633.34
878.489	10645.31
878.807	10634.69
879.125	10621.81
879.444	10559.21
879.762	10564.86
880.08	10502.94
880.398	10461.36
880.716	10474.24
881.034	10500.46
881.352	10506.56
881.67	10364.19
881.988	10397.64
882.306	10404.64
882.624	10328.94
882.941	10283.74
883.259	10262.95
883.577	10248.71
883.894	10256.85
884.212	10256.17
884.529	10216.85
884.846	10113.58
885.164	10152.9
885.481	10107.02
885.798	10104.99
886.115	10083.75
886.432	10001.04
886.75	10010.98
887.067	10046.01
887.383	10007.36
887.7	10022.73
888.017	9939.12
888.334	9981.38
888.651	9893.47
888.967	9845.11
889.284	9896.18
889.6	9821.38
889.917	9757.2
890.233	9750.65
890.55	9693.7
890.866	9693.7
891.182	9631.1
891.498	9681.04
891.815	9652.8
892.131	9596.53
892.447	9514.95
892.763	9547.94
893.079	9515.4
893.395	9465.91
893.71	9415.97
894.026	9462.75
894.342	9424.55
894.657	9306.59
894.973	9326.7
895.289	9272.92
895.604	9279.47
895.92	9215.29
896.235	9142.3
896.55	9188.85
896.865	9157.67
897.181	9109.99
897.496	9149.99
897.811	9036.99
898.126	9011.23
898.441	8973.94
898.756	8900.95
899.071	8879.26
899.386	8928.07
899.7	8818.47
900.015	8777.57
900.33	8752.26
900.644	8761.07
900.959	8756.32
901.273	8661.41
901.588	8611.92
901.902	8537.35
902.216	8604.01
902.531	8544.13
902.845	8527.63
903.159	8470.46
903.473	8493.73
903.787	8446.28
904.101	8437.24
904.415	8357.92
904.729	8320.85
905.042	8342.77
905.356	8303
905.67	8249.9
905.984	8282.89
906.297	8199.5
906.611	8146.62
906.924	8078.6
907.237	8113.85
907.551	8053.29
907.864	8002.67
908.177	8056
908.491	7945.72
908.804	7890.36
909.117	7894.65
909.43	7851.26
909.743	7860.53
910.056	7821.21
910.368	7718.61
910.681	7721.1
910.994	7711.83
911.307	7665.73
911.619	7626.86
911.932	7658.73
912.244	7592.51
912.557	7524.94
912.869	7463.7
913.181	7433.65
913.494	7464.61
913.806	7404.27
914.118	7343.48
914.43	7361.11
914.742	7383.03
915.054	7317.94
915.366	7277.72
915.678	7245.85
915.99	7267.78
916.302	7188.23
916.613	7135.8
916.925	7137.83
917.236	7077.27
917.548	7114.78
917.859	7067.1
918.171	6980.32
918.482	6929.03
918.794	6979.65
919.105	6894.9
919.416	6890.16
919.727	6872.98
920.038	6875.24
920.349	6789.37
920.66	6742.82
920.971	6755.02
921.282	6783.27
921.593	6645.42
921.903	6660.11
922.214	6635.7
922.525	6623.95
922.835	6629.6
923.146	6497.63
923.456	6492.43
923.767	6452.2
924.077	6502.82
924.387	6414.24
924.697	6414.69
925.008	6384.86
925.318	6344.86
925.628	6345.99
925.938	6344.86
926.248	6257.63
926.558	6293.79
926.867	6264.19
927.177	6202.94
927.487	6197.97
927.796	6133.34
928.106	6134.92
928.416	6106.9
928.725	6092.66
929.034	6091.53
929.344	6069.84
929.653	6002.5
929.962	5961.37
930.271	5961.59
930.581	5959.11
930.89	5922.5
931.199	5854.48
931.508	5880.69
931.817	5892.44
932.125	5865.55
932.434	5836.4
932.743	5795.95
933.051	5746.91
933.36	5711.88
933.669	5687.93
933.977	5680.02
934.286	5684.09
934.594	5631.89
934.902	5611.55
935.21	5588.95
935.519	5557.99
935.827	5577.88
936.135	5493.81
936.443	5493.58
936.751	5427.37
937.059	5428.95
937.367	5445
937.674	5379.92
937.982	5329.75
938.29	5395.06
938.597	5382.4
938.905	5305.57
939.213	5300.82
939.52	5268.51
939.827	5252.23
940.135	5231.44
940.442	5133.14
940.749	5159.36
941.056	5161.84
941.363	5121.39
941.67	5140.6
941.977	5063.31
942.284	5091.79
942.591	5008.17
942.898	5030.32
943.205	5009.53
943.511	4981.28
943.818	4928.63
944.125	4921.85
944.431	4884.11
944.738	4884.33
945.044	4857.67
945.35	4864.45
945.657	4793.94
945.963	4799.37
946.269	4759.37
946.575	4795.52
946.881	4766.82
947.187	4743.77
947.493	4693.15
947.799	4682.08
948.105	4671.23
948.41	4642.53
948.716	4636.88
949.022	4605.02
949.327	4613.83
949.633	4525.25
949.938	4482.31
950.244	4511.46
950.549	4475.08
950.854	4442.99
951.16	4462.43
951.465	4461.52
951.77	4399.6
952.075	4423.78
952.38	4396.44
952.685	4370.68
952.99	4336.55
953.294	4366.38
953.599	4344.91
953.904	4310.79
954.209	4242.54
954.513	4271.02
954.818	4282.77
955.122	4204.8
955.426	4235.54
955.731	4179.72
956.035	4171.13
956.339	4182.66
956.643	4177.46
956.948	4117.35
957.252	4143.79
957.556	4090.91
957.86	4064.47
958.163	4040.29
958.467	4041.19
958.771	3991.7
959.075	4038.03
959.378	3980.18
959.682	3981.08
959.985	3954.64
960.289	3958.48
960.592	3921.42
960.896	3902.44
961.199	3904.47
961.502	3849.11
961.805	3848.88
962.108	3782.44
962.411	3820.18
962.714	3793.29
963.017	3779.51
963.32	3770.47
963.623	3756
963.926	3727.53
964.228	3734.53
964.531	3695.89
964.833	3682.78
965.136	3662.45
965.438	3685.04
965.741	3640.75
966.043	3615.44
966.345	3618.83
966.648	3579.96
966.95	3582
967.252	3553.97
967.554	3545.61
967.856	3549.23
968.158	3532.28
968.46	3474.2
968.761	3483.92
969.063	3466.75
969.365	3455.9
969.666	3438.95
969.968	3398.95
970.269	3350.82
970.571	3357.37
970.872	3421.32
971.174	3322.57
971.475	3377.71
971.776	3305.62
972.077	3313.98
972.378	3349.23
972.679	3252.51
972.98	3249.58
973.281	3228.33
973.582	3271.5
973.883	3252.74
974.183	3214.1
974.484	3222.91
974.785	3205.06
975.085	3159.41
975.386	3155.11
975.686	3153.53
975.986	3159.18
976.287	3101.78
976.587	3088.45
976.887	3082.35
977.187	3043.93
977.487	3078.73
977.787	3018.17
978.087	3031.95
978.387	3032.86
978.687	3054.55
978.987	3001.67
979.286	2963.48
979.586	2995.12
979.885	2966.65
980.185	2961.45
980.484	2966.87
980.784	2889.81
981.083	2915.12
981.382	2905.63
981.682	2887.78
981.981	2856.14
982.28	2852.52
982.579	2840.55
982.878	2799.64
983.177	2825.41
983.475	2841.68
983.774	2790.15
984.073	2782.24
984.372	2768.46
984.67	2775.46
984.969	2761.9
985.267	2699.08
985.566	2717.39
985.864	2710.38
986.162	2683.71
986.461	2673.77
986.759	2671.96
987.057	2619.08
987.355	2639.65
987.653	2652.53
987.951	2603.72
988.249	2594.68
988.547	2595.58
988.844	2562.14
989.142	2542.7
989.44	2544.74
989.737	2545.64
990.035	2540.44
990.332	2537.05
990.63	2520.56
990.927	2490.95
991.224	2510.61
991.521	2483.27
991.819	2449.14
992.116	2443.72
992.413	2434.46
992.71	2470.61
993.006	2457.28
993.303	2403.72
993.6	2401.91
993.897	2398.98
994.193	2385.19
994.49	2353.1
994.787	2347.9
995.083	2328.7
995.379	2344.06
995.676	2311.07
995.972	2282.82
996.268	2330.73
996.565	2265.42
996.861	2236.95
997.157	2299.09
997.453	2260.68
997.749	2241.69
998.044	2192.43
998.34	2188.36
998.636	2218.87
998.932	2183.61
999.227	2186.55
999.523	2150.62
999.818	2167.34
1000.114	2151.53
1000.409	2162.37
1000.704	2091.41
1001	2098.19
1001.295	2097.29
1001.59	2069.27
1001.885	2118.08
1002.18	2090.74
1002.475	2068.59
1002.77	2055.48
1003.065	2040.34
1003.359	2033.79
1003.654	1989.72
1003.949	1971.87
1004.243	1989.5
1004.538	1950.85
1004.832	1967.58
1005.127	1980.46
1005.421	1948.37
1005.715	1941.36
1006.009	1928.25
1006.304	1916.05
1006.598	1890.97
1006.892	1921.47
1007.186	1862.72
1007.48	1886.67
1007.773	1827.01
1008.067	1839.67
1008.361	1842.83
1008.655	1839.44
1008.948	1825.88
1009.242	1792.89
1009.535	1805.55
1009.829	1777.75
1010.122	1779.33
1010.415	1777.07
1010.708	1747.92
1011.001	1758.77
1011.295	1715.15
1011.588	1743.85
1011.881	1707.47
1012.173	1720.8
1012.466	1680.8
1012.759	1697.07
1013.052	1682.16
1013.344	1662.5
1013.637	1681.48
1013.93	1646
1014.222	1646.68
1014.514	1643.06
1014.807	1613.23
1015.099	1615.27
1015.391	1621.6
1015.683	1609.84
1015.976	1583.4
1016.268	1582.27
1016.56	1568.04
1016.851	1539.56
1017.143	1541.82
1017.435	1530.75
1017.727	1533.24
1018.018	1530.52
1018.31	1495.95
1018.602	1518.1
1018.893	1473.8
1019.185	1481.71
1019.476	1457.98
1019.767	1472.45
1020.058	1450.75
1020.35	1466.35
1020.641	1426.57
1020.932	1431.09
1021.223	1403.75
1021.514	1389.29
1021.804	1378.89
1022.095	1380.7
1022.386	1357.2
1022.677	1380.02
1022.967	1356.74
1023.258	1327.14
1023.548	1335.5
1023.839	1331.43
1024.129	1342.51
1024.419	1294.6
1024.709	1326.24
1025	1326.01
1025.29	1302.96
1025.58	1282.62
1025.87	1250.31
1026.16	1248.05
1026.449	1258.22
1026.739	1260.93
1027.029	1242.4
1027.319	1215.28
1027.608	1211.66
1027.898	1217.09
1028.187	1211.21
1028.477	1202.4
1028.766	1197.88
1029.055	1183.64
1029.344	1183.87
1029.634	1186.8
1029.923	1166.01
1030.212	1162.17
1030.501	1158.11
1030.79	1140.7
1031.078	1133.92
1031.367	1124.89
1031.656	1105.9
1031.945	1104.1
1032.233	1081.95
1032.522	1105.45
1032.81	1093.02
1033.099	1096.41
1033.387	1088.28
1033.675	1068.62
1033.963	1052.8
1034.251	1065.9
1034.54	1046.92
1034.828	1046.7
1035.116	1046.7
1035.403	1046.92
1035.691	1013.02
1035.979	1024.55
1036.267	984.1
1036.554	985
1036.842	989.3
1037.129	998.11
1037.417	991.1
1037.704	984.78
1037.992	990.88
1038.279	970.99
1038.566	952.91
1038.853	952.91
1039.14	952.91
