Data from hue_00_FLMS001491_8.txt Node
Date: Mon Feb 06 15:29:12 GMT 2017
User: dcchb
Spectrometer: FLMS00149
Trigger mode: 0
Integration Time (sec): 2.000000E-2
Scans to average: 10
Electric dark correction enabled: true
Nonlinearity correction enabled: false
Boxcar width: 0
XAxis mode: Wavelengths
Number of Pixels in Spectrum: 2048
>>>>>Begin Spectral Data<<<<<
341.393	-1.62
341.776	-1.62
342.16	-1.62
342.543	-36.88
342.927	-71
343.31	-76.2
343.693	-64
344.077	-71.68
344.46	-53.37
344.843	-36.65
345.226	-40.95
345.61	-31.68
345.993	-16.54
346.376	-5.47
346.759	-13.6
347.142	14.65
347.525	35.44
347.908	69.56
348.291	62.55
348.674	112.5
349.057	115.43
349.44	137.36
349.823	152.27
350.206	155.21
350.588	186.62
350.971	206.73
351.354	236.34
351.737	239.27
352.119	249.22
352.502	269.33
352.884	277.01
353.267	268.43
353.65	298.03
354.032	296.22
354.414	310.46
354.797	296.45
355.179	306.62
355.562	344.13
355.944	305.49
356.326	329.21
356.709	330.57
357.091	340.74
357.473	325.37
357.855	357.46
358.238	336.9
358.62	351.36
359.002	349.1
359.384	324.47
359.766	338.93
360.148	317.69
360.53	345.03
360.912	325.6
361.294	331.7
361.676	319.5
362.057	322.21
362.439	337.12
362.821	316.56
363.203	310.46
363.584	324.24
363.966	291.02
364.348	326.05
364.729	311.59
365.111	317.01
365.493	308.88
365.874	312.27
366.256	302.77
366.637	320.4
367.019	315.43
367.4	318.59
367.781	320.4
368.163	305.03
368.544	298.25
368.925	303.23
369.306	325.37
369.688	312.49
370.069	295.54
370.45	305.49
370.831	317.01
371.212	321.31
371.593	313.4
371.974	310.91
372.355	313.62
372.736	309.55
373.117	308.88
373.498	310.91
373.879	311.59
374.26	312.72
374.641	306.39
375.021	325.37
375.402	306.16
375.783	334.19
376.163	323.34
376.544	321.98
376.925	321.08
377.305	324.69
377.686	325.15
378.066	328.99
378.447	338.71
378.827	325.15
379.208	325.15
379.588	340.97
379.968	335.32
380.349	317.69
380.729	318.82
381.109	342.1
381.489	336.67
381.87	329.67
382.25	329.89
382.63	334.86
383.01	343.68
383.39	340.74
383.77	353.39
384.15	363.34
384.53	351.13
384.91	333.28
385.29	347.75
385.67	358.59
386.049	365.82
386.429	340.29
386.809	348.2
387.189	341.42
387.568	364.24
387.948	353.17
388.328	363.34
388.707	368.31
389.087	358.59
389.466	343.23
389.846	350.91
390.225	349.55
390.605	378.48
390.984	363.56
391.363	377.12
391.743	369.44
392.122	377.12
392.501	348.42
392.881	377.12
393.26	378.25
393.639	359.27
394.018	365.15
394.397	370.8
394.776	383.22
395.155	374.41
395.534	389.33
395.913	370.8
396.292	363.56
396.671	390.91
397.05	378.93
397.429	369.44
397.808	390.91
398.186	375.54
398.565	398.37
398.944	389.78
399.323	387.97
399.701	355.88
400.08	383.9
400.458	401.98
400.837	399.5
401.215	395.65
401.594	394.07
401.972	390.23
402.351	414.41
402.729	394.98
403.107	421.42
403.486	397.24
403.864	429.1
404.242	394.07
404.62	410.12
404.999	405.82
405.377	418.25
405.755	401.98
406.133	426.39
406.511	421.64
406.889	425.48
407.267	445.14
407.645	420.74
408.023	420.51
408.401	417.35
408.779	415.99
409.156	426.16
409.534	445.82
409.912	429.78
410.29	454.18
410.667	446.5
411.045	459.38
411.422	454.41
411.8	451.25
412.178	468.65
412.555	484.01
412.933	465.93
413.31	465.03
413.687	461.41
414.065	483.79
414.442	464.13
414.819	477.69
415.197	462.09
415.574	481.75
415.951	478.82
416.328	487.85
416.705	498.02
417.082	495.76
417.46	493.05
417.837	528.53
418.214	503
418.591	497.35
418.967	502.54
419.344	502.54
419.721	501.64
420.098	518.81
420.475	516.1
420.852	515.65
421.228	507.06
421.605	521.75
421.982	529.44
422.358	531.47
422.735	501.87
423.111	543.45
423.488	531.7
423.864	547.97
424.241	559.04
424.617	554.75
424.994	544.8
425.37	558.14
425.746	540.96
426.123	566.72
426.499	554.29
426.875	579.38
427.251	569.43
427.627	570.56
428.003	587.06
428.379	604.01
428.756	579.6
429.132	598.13
429.507	599.94
429.883	617.79
430.259	600.17
430.635	639.71
431.011	634.74
431.387	617.12
431.763	622.77
432.138	613.95
432.514	636.33
432.89	630.22
433.265	654.18
433.641	658.25
434.016	675.19
434.392	658.02
434.767	689.21
435.143	684.46
435.518	685.82
435.894	675.42
436.269	676.32
436.644	692.37
437.02	692.59
437.395	714.97
437.77	721.07
438.145	717.68
438.52	736.66
438.895	717.45
439.271	745.25
439.646	729.43
440.021	749.77
440.395	753.61
440.77	762.42
441.145	759.71
441.52	775.3
441.895	769.65
442.27	766.94
442.645	796.32
443.019	772.82
443.394	753.84
443.769	778.24
444.143	795.87
444.518	778.92
444.892	811.24
445.267	808.75
445.641	808.07
446.016	798.58
446.39	787.73
446.764	810.56
447.139	809.65
447.513	830.9
447.887	811.01
448.262	817.56
448.636	836.09
449.01	834.51
449.384	846.26
449.758	845.81
450.132	861.18
450.506	855.3
450.88	872.7
451.254	877
451.628	887.39
452.002	884.23
452.376	894.62
452.75	897.56
453.123	895.98
453.497	940.5
453.871	912.93
454.244	932.59
454.618	921.52
454.992	940.95
455.365	933.72
455.739	954.06
456.112	968.29
456.486	972.59
456.859	969.42
457.232	988.18
457.606	970.78
457.979	1006.03
458.352	1013.04
458.725	1054.62
459.099	1026.37
459.472	1059.59
459.845	1049.2
460.218	1055.3
460.591	1059.59
460.964	1069.76
461.337	1079.48
461.71	1086.48
462.083	1107.5
462.456	1112.92
462.829	1129.65
463.201	1130.55
463.574	1124.45
463.947	1154.05
464.32	1198.12
464.692	1203.77
465.065	1192.92
465.438	1208.29
465.81	1232.69
466.183	1232.69
466.555	1262.52
466.928	1243.77
467.3	1258.91
467.672	1274.73
468.045	1323.54
468.417	1335.74
468.789	1296.87
469.161	1331.45
469.534	1337.32
469.906	1369.87
470.278	1366.7
470.65	1408.06
471.022	1422.29
471.394	1458.68
471.766	1456.64
472.138	1489.41
472.51	1508.17
472.882	1524.44
473.253	1533.7
473.625	1553.36
473.997	1585.23
474.369	1598.33
474.74	1613.7
475.112	1655.51
475.484	1698.22
475.855	1681.95
476.227	1704.32
476.598	1745.22
476.97	1798.55
477.341	1815.5
477.713	1840.36
478.084	1841.72
478.455	1921.49
478.827	1908.16
479.198	1987.02
479.569	1987.7
479.94	2039.23
480.311	2021.15
480.682	2073.58
481.053	2126.68
481.424	2171.43
481.795	2162.39
482.166	2250.29
482.537	2252.33
482.908	2281.03
483.279	2322.16
483.65	2361.25
484.021	2412.78
484.391	2412.78
484.762	2447.58
485.133	2488.71
485.503	2545.2
485.874	2589.72
486.244	2592.43
486.615	2622.26
486.985	2702.03
487.356	2710.39
487.726	2755.59
488.097	2838.53
488.467	2836.95
488.837	2903.16
489.207	2949.94
489.578	2989.71
489.948	3029.03
490.318	3063.83
490.688	3083.04
491.058	3116.26
491.428	3193.32
491.798	3177.05
492.168	3243.26
492.538	3280.78
492.908	3308.57
493.278	3366.87
493.648	3358.29
494.017	3418.62
494.387	3456.59
494.757	3440.77
495.126	3513.09
495.496	3520.99
495.866	3530.49
496.235	3599.64
496.605	3592.86
496.974	3626.98
497.344	3652.29
497.713	3721.67
498.082	3704.72
498.452	3817.48
498.821	3795.56
499.19	3789.91
499.559	3837.14
499.928	3880.76
500.298	3894.32
500.667	3933.41
501.036	3923.24
501.405	3955.56
501.774	3998.5
502.143	4012.06
502.512	3977.25
502.88	4063.13
503.249	4042.56
503.618	4090.7
503.987	4125.05
504.356	4142.67
504.724	4127.08
505.093	4156.68
505.462	4187.87
505.83	4230.58
506.199	4244.59
506.567	4298.15
506.936	4294.53
507.304	4346.96
507.672	4380.41
508.041	4362.78
508.409	4442.55
508.777	4426.73
509.145	4457.92
509.514	4446.85
509.882	4471.48
510.25	4460.41
510.618	4539.27
510.986	4551.93
511.354	4605.03
511.722	4579.95
512.09	4604.36
512.458	4658.82
512.826	4688.65
513.193	4689.78
513.561	4699.72
513.929	4741.75
514.297	4719.38
514.664	4763.9
515.032	4795.31
515.4	4762.77
515.767	4807.29
516.135	4875.08
516.502	4793.96
516.869	4882.99
517.237	4908.3
517.604	4894.29
517.972	4950.56
518.339	5002.76
518.706	4965.7
519.073	5014.74
519.44	5013.84
519.808	5048.19
520.175	5056.32
520.542	5096.09
520.909	5069.2
521.276	5115.98
521.643	5188.07
522.009	5166.38
522.376	5275.3
522.743	5233.49
523.11	5284.34
523.477	5303.1
523.843	5332.02
524.21	5351.68
524.577	5431.45
524.943	5434.39
525.31	5479.14
525.676	5454.05
526.043	5491.79
526.409	5534.05
526.776	5579.7
527.142	5591
527.508	5632.8
527.874	5653.14
528.241	5665.12
528.607	5741.05
528.973	5742.18
529.339	5793.93
529.705	5817.21
530.071	5864.89
530.437	5829.86
530.803	5937.88
531.169	5933.59
531.535	5967.71
531.901	5995.05
532.267	5972
532.632	6060.59
532.998	6058.1
533.364	6088.61
533.73	6167.25
534.095	6177.2
534.461	6156.63
534.826	6209.29
535.192	6270.53
535.557	6276.85
535.923	6248.83
536.288	6331.32
536.653	6290.87
537.019	6293.8
537.384	6339.45
537.749	6387.59
538.114	6430.52
538.479	6504.65
538.845	6469.17
539.21	6392.78
539.575	6526.11
539.94	6482.95
540.305	6564.53
540.67	6566.11
541.034	6566.11
541.399	6607.47
541.764	6616.96
542.129	6688.14
542.494	6730.18
542.858	6712.32
543.223	6773.11
543.587	6817.63
543.952	6801.13
544.316	6837.74
544.681	6833
545.045	6840.46
545.41	6933.79
545.774	6930.62
546.138	6937.63
546.503	6972.88
546.867	7004.07
547.231	7113.89
547.595	7034.8
547.959	7070.96
548.324	7066.21
548.688	7098.53
549.052	7175.59
549.416	7174.68
549.779	7217.85
550.143	7209.49
550.507	7215.14
550.871	7307.11
551.235	7296.71
551.599	7337.62
551.962	7344.85
552.326	7394.34
552.689	7434.11
553.053	7420.55
553.417	7431.63
553.78	7463.94
554.143	7506.43
554.507	7520.66
554.87	7602.92
555.234	7581
555.597	7556.6
555.96	7662.81
556.323	7649.93
556.686	7658.74
557.05	7691.05
557.413	7697.61
557.776	7730.15
558.139	7784.39
558.502	7826.19
558.865	7853.31
559.228	7844.05
559.59	7897.38
559.953	7924.27
560.316	8014.89
560.679	7951.84
561.041	8040.42
561.404	8098.28
561.767	8137.82
562.129	8022.57
562.492	8188.44
562.854	8163.36
563.217	8164.94
563.579	8204.94
563.941	8239.29
564.304	8260.08
564.666	8303.69
565.028	8306.63
565.39	8363.58
565.753	8401.32
566.115	8427.31
566.477	8464.37
566.839	8487.42
567.201	8528.32
567.563	8576
567.925	8574.87
568.287	8658.49
568.648	8637.47
569.01	8689.22
569.372	8781.2
569.734	8751.37
570.095	8789.33
570.457	8760.41
570.819	8878.37
571.18	8913.4
571.542	8938.93
571.903	8989.78
572.265	9052.83
572.626	9122.43
572.987	9072.04
573.349	9113.62
573.71	9171.02
574.071	9258.7
574.432	9264.57
574.794	9368.3
575.155	9397.22
575.516	9410.11
575.877	9513.83
576.238	9566.49
576.599	9623.43
576.96	9601.74
577.32	9702.75
577.681	9740.94
578.042	9870.43
578.403	9920.37
578.763	9989.53
579.124	10142.97
579.485	10250.76
579.845	10254.6
580.206	10311.55
580.566	10445.11
580.927	10538.21
581.287	10595.39
581.648	10718.32
582.008	10830.63
582.368	11026.79
582.728	11107.46
583.089	11241.7
583.449	11337.74
583.809	11483.27
584.169	11685.53
584.529	11730.04
584.889	12063.37
585.249	12091.84
585.609	12168
585.969	12416.81
586.329	12521.21
586.688	12772.28
587.048	12826.51
587.408	13025.83
587.768	13339.27
588.127	13469.21
588.487	13588.53
588.846	13944.9
589.206	14081.17
589.565	14277.55
589.925	14572
590.284	14693.81
590.643	14927.25
591.003	15198.2
591.362	15508.93
591.721	15645.2
592.08	15905.3
592.44	16172.87
592.799	16393.2
593.158	16672.74
593.517	16838.16
593.876	17098.49
594.235	17300.07
594.593	17600.17
594.952	17812.37
595.311	18079.48
595.67	18366.48
596.029	18740.93
596.387	18925.79
596.746	19203.29
597.104	19371.88
597.463	19665.88
597.822	19956.04
598.18	20175.25
598.538	20318.52
598.897	20823.36
599.255	20958.5
599.613	21473.29
599.972	21544.7
600.33	21787.18
600.688	22033.95
601.046	22332.25
601.404	22688.4
601.762	22894.27
602.12	23142.17
602.478	23407.03
602.836	23623.29
603.194	23704.65
603.552	24120.91
603.91	24105.54
604.268	24548.92
604.625	24750.04
604.983	24993.88
605.341	25109.35
605.698	25463.69
606.056	25772.84
606.413	25955.21
606.771	26262.54
607.128	26460.96
607.485	26526.94
607.843	26676.09
608.2	27118.34
608.557	27235.4
608.914	27442.4
609.272	27794.26
609.629	27957.19
609.986	28195.6
610.343	28272.89
610.7	28642.59
611.057	28751.29
611.414	28945.64
611.771	29059.76
612.127	29297.49
612.484	29570.93
612.841	29659.29
613.198	29768.44
613.554	30048.21
613.911	30200.29
614.267	30424.02
614.624	30497.69
614.98	30680.28
615.337	31006.37
615.693	31066.94
616.05	31080.27
616.406	31471.67
616.762	31433.26
617.118	31439.13
617.475	31678.45
617.831	31867.59
618.187	32050.87
618.543	32112.11
618.899	32480.01
619.255	32483.62
619.611	32548.03
619.967	32715.03
620.323	32970.39
620.678	32966.77
621.034	32967.45
621.39	32983.72
621.746	33191.63
622.101	33501.45
622.457	33312.08
622.812	33474.56
623.168	33652.41
623.523	33629.36
623.879	33842.46
624.234	33830.93
624.589	33893.76
624.945	33976.69
625.3	34070.47
625.655	34160.64
626.01	34239.96
626.365	34285.61
626.72	34322.9
627.075	34405.38
627.43	34402.22
627.785	34350.92
628.14	34590.46
628.495	34694.19
628.85	34789.55
629.205	34724.47
629.559	34812.6
629.914	34778.25
630.269	34883.11
630.623	34797.46
630.978	34806.5
631.332	35016.66
631.687	35309.99
632.041	34839.04
632.396	35007.17
632.75	34868.42
633.104	35008.98
633.459	34786.84
633.813	35000.17
634.167	35035.19
634.521	34975.99
634.875	35028.87
635.229	35036.55
635.583	35075.42
635.937	34921.53
636.291	34921.3
636.645	35035.87
636.999	34913.39
637.352	35101.18
637.706	34982.31
638.06	35056.44
638.413	35046.72
638.767	35090.56
639.121	35084.68
639.474	34986.38
639.828	34839.04
640.181	35074.97
640.534	35104.8
640.888	34962.43
641.241	34754.75
641.594	35030.45
641.947	34978.7
642.301	34850.11
642.654	34961.3
643.007	35047.4
643.36	34867.52
643.713	34972.15
644.066	35043.33
644.419	34739.84
644.771	34531.25
645.124	34464.36
645.477	34283.8
645.83	34118.83
646.182	33875.68
646.535	33943.92
646.888	33962
647.24	33870.71
647.593	34045.62
647.945	33968.78
648.298	33685.17
648.65	33711.39
649.002	33695.34
649.355	33822.35
649.707	33754.32
650.059	33992.51
650.411	34302.56
650.763	34352.73
651.115	34612.83
651.467	34596.79
651.819	34632.49
652.171	34579.39
652.523	34424.36
652.875	34490.12
653.227	34277.7
653.578	34630.91
653.93	34330.35
654.282	34358.6
654.633	34313.41
654.985	34340.07
655.337	34379.39
655.688	34432.27
656.039	34439.28
656.391	34059.63
656.742	34194.99
657.094	34351.6
657.445	34365.83
657.796	34219.62
658.147	34210.58
658.498	34205.84
658.849	34403.57
659.2	34258.72
659.551	34256.01
659.902	34241.54
660.253	34301.43
660.604	34291.71
660.955	34156.35
661.306	34110.93
661.656	34123.35
662.007	34139.4
662.358	34188.44
662.708	34256.68
663.059	34087.42
663.409	33887.2
663.76	34239.51
664.11	34175.33
664.461	34157.48
664.811	34107.31
665.161	34088.1
665.511	34074.54
665.862	34123.58
666.212	34224.37
666.562	34167.87
666.912	34117.93
667.262	34139.4
667.612	34056.01
667.962	34177.14
668.312	34102.79
668.662	34141.88
669.011	34223.69
669.361	34097.59
669.711	33828.67
670.06	33971.04
670.41	33973.53
670.76	33881.33
671.109	34038.84
671.459	33968.1
671.808	33930.82
672.157	33994.32
672.507	33709.35
672.856	33720.43
673.205	33843.59
673.554	33846.07
673.904	33960.65
674.253	33899.63
674.602	33961.55
674.951	33328.12
675.3	33241.12
675.649	33861.44
675.998	33767.88
676.346	33716.81
676.695	33847.43
677.044	33626.64
677.393	33718.17
677.741	33767.43
678.09	33736.47
678.438	33560.66
678.787	33623.25
679.135	33741.67
679.484	33433.2
679.832	33513.2
680.181	33377.16
680.529	33503.71
680.877	33390.27
681.225	33469.36
681.573	33542.58
681.922	33355.69
682.27	33211.74
682.618	33272.3
682.966	33108.47
683.314	33249.25
683.661	33162.25
684.009	32828.92
684.357	32699.44
684.705	32833.44
685.053	32853.11
685.4	32753.67
685.748	32645.2
686.095	32578.54
686.443	32456.73
686.79	32542.83
687.138	32642.94
687.485	32598.42
687.832	32439.33
688.18	32463.06
688.527	32297.19
688.874	32285.44
689.221	32210.41
689.568	32244.99
689.915	32138.1
690.262	31997.53
690.609	31870.53
690.956	31833.92
691.303	31785.34
691.65	31712.12
691.997	31671.44
692.344	31477.55
692.69	31485.68
693.037	31609.75
693.383	31212.7
693.73	31448.17
694.077	31270.32
694.423	31207.27
694.769	31048.63
695.116	31012.02
695.462	31098.57
695.808	30842.31
696.155	30846.15
696.501	30805.02
696.847	30597.8
697.193	30402.77
697.539	30552.15
697.885	30352.38
698.231	30263.57
698.577	30271.93
698.923	30226.96
699.269	30078.26
699.614	30128.43
699.96	29993.07
700.306	29960.98
700.651	29801.21
700.997	29773.41
701.342	29716.92
701.688	29632.85
702.033	29599.41
702.379	29396.47
702.724	29408.9
703.069	29382.24
703.415	29163.48
703.76	29254.1
704.105	29115.12
704.45	29215.69
704.795	29003.71
705.14	28867.45
705.485	28836.94
705.83	28723.95
706.175	28796.26
706.52	28683.95
706.865	28543.16
707.209	28643.72
707.554	28490.06
707.899	28557.85
708.243	28401.7
708.588	28297.74
708.932	28140.46
709.277	28088.26
709.621	28185.66
709.966	27952.44
710.31	28104.98
710.654	27859.11
710.998	27906.12
711.342	27775.05
711.687	27830.41
712.031	27655.73
712.375	27655.5
712.719	27629.74
713.063	27471.1
713.407	27583.19
713.75	27390.42
714.094	27281.95
714.438	27169.64
714.782	27253.03
715.125	27039.92
715.469	27241.28
715.812	27136.42
716.156	26932.13
716.499	26912.7
716.843	26967.38
717.186	26747.05
717.53	26932.36
717.873	26945.92
718.216	26815.07
718.559	26709.31
718.902	26500.73
719.246	26538.47
719.589	26552.25
719.932	26376.67
720.275	26333.05
720.617	26350.9
720.96	26316.78
721.303	26296.22
721.646	26240.17
721.989	26156.33
722.331	26183.9
722.674	26056.67
723.016	26064.81
723.359	26066.39
723.701	26093.73
724.044	25945.26
724.386	25886.96
724.729	25953.17
725.071	25873.18
725.413	25855.55
725.755	25841.99
726.097	25705.95
726.439	25549.79
726.782	25662.79
727.124	25663.46
727.465	25619.17
727.807	25489
728.149	25522
728.491	25425.73
728.833	25556.35
729.175	25367.65
729.516	25276.81
729.858	25310.48
730.199	25355.45
730.541	25324.94
730.882	25213.53
731.224	25285.85
731.565	25106.64
731.906	25048.56
732.248	25108.22
732.589	24989.58
732.93	24813.77
733.271	24999.3
733.612	24950.04
733.953	24969.7
734.294	24800.21
734.635	24778.74
734.976	24788.91
735.317	24713.88
735.658	24556.83
735.999	24753.88
736.339	24656.26
736.68	24686.31
737.021	24644.73
737.361	24363.84
737.702	24673.43
738.042	24483.83
738.383	24439.54
738.723	24483.16
739.063	24242.71
739.404	24448.35
739.744	24249.49
740.084	24305.08
740.424	24223.5
740.764	24100.79
741.104	24268.7
741.444	24121.13
741.784	24087.01
742.124	24016.28
742.464	24054.24
742.804	24088.59
743.143	23877.97
743.483	23873.23
743.823	23820.35
744.162	23891.76
744.502	23858.77
744.841	23759.56
745.181	23845.66
745.52	23749.16
745.86	23754.81
746.199	23755.94
746.538	23696.96
746.877	23767.02
747.216	23650.18
747.556	23532.67
747.895	23551.43
748.234	23393.47
748.573	23491.77
748.911	23409.51
749.25	23385.11
749.589	23266.24
749.928	23352.34
750.267	23385.56
750.605	23255.17
750.944	23190.76
751.283	23047.94
751.621	23117.54
751.96	23019.69
752.298	23023.08
752.636	23037.32
752.975	22966.13
753.313	22874.38
753.651	22913.25
753.989	22791.67
754.327	22704.67
754.666	22687.04
755.004	22716.2
755.342	22818.57
755.679	22611.57
756.017	22567.5
756.355	22580.38
756.693	22421.51
757.031	22549.2
757.368	22346.04
757.706	22247.73
758.044	22235.76
758.381	22331.57
758.719	22148.75
759.056	22208.19
759.394	22078.47
759.731	21983.79
760.068	21966.84
760.405	21890.91
760.743	21837.35
761.08	21895.43
761.417	21701.76
761.754	21725.49
762.091	21576.79
762.428	21568.43
762.765	21491.6
763.102	21484.36
763.438	21280.53
763.775	21241.66
764.112	21269.45
764.449	21324.14
764.785	21150.14
765.122	21127.54
765.458	21013.19
765.795	20982.23
766.131	20835.79
766.467	20838.05
766.804	20739.53
767.14	20701.11
767.476	20658.17
767.812	20608.46
768.148	20508.12
768.485	20495.01
768.821	20405.75
769.157	20317.62
769.492	20275.36
769.828	20229.71
770.164	19967.79
770.5	20013.44
770.836	19938.19
771.171	19912.88
771.507	19906.33
771.842	19683.06
772.178	19723.73
772.513	19634.47
772.849	19594.7
773.184	19507.24
773.519	19482.38
773.855	19442.16
774.19	19190.64
774.525	19248.49
774.86	19233.58
775.195	19173.01
775.53	19112.45
775.865	18979.12
776.2	18804.89
776.535	18697.77
776.87	18815.51
777.205	18710.88
777.539	18599.47
777.874	18589.3
778.209	18413.71
778.543	18441.05
778.878	18332.36
779.212	18376.88
779.547	18216.43
779.881	18184.79
780.215	18110.22
780.55	18100.95
780.884	17995.42
781.218	17970.56
781.552	18003.55
781.886	17862.99
782.22	17779.83
782.554	17652.6
782.888	17586.61
783.222	17484.92
783.556	17395.21
783.889	17438.14
784.223	17281.09
784.557	17196.12
784.89	17295.77
785.224	17189.11
785.557	17124.48
785.891	16987.53
786.224	16905.73
786.558	16959.06
786.891	16746.41
787.224	16799.97
787.557	16738.27
787.891	16642.68
788.224	16728.33
788.557	16605.85
788.89	16577.15
789.223	16538.51
789.556	16397.94
789.888	16330.38
790.221	16299.19
790.554	16138.74
790.887	16099.87
791.219	16133.32
791.552	16091.06
791.884	15886.55
792.217	15996.15
792.549	15910.95
792.882	15830.5
793.214	15739.88
793.546	15796.83
793.879	15662.14
794.211	15562.94
794.543	15644.97
794.875	15503.28
795.207	15608.13
795.539	15410.63
795.871	15536.95
796.203	15326.33
796.535	15296.5
796.867	15205.66
797.198	15220.12
797.53	15161.59
797.862	15073.91
798.193	15016.74
798.525	14952.11
798.856	15030.97
799.188	14924.08
799.519	14815.84
799.85	14764.77
800.182	14741.94
800.513	14658.33
800.844	14584.88
801.175	14719.57
801.506	14653.58
801.837	14527.26
802.168	14505.34
802.499	14457.66
802.83	14392.8
803.161	14272.12
803.491	14348.05
803.822	14295.63
804.153	14161.62
804.483	14054.05
804.814	14066.03
805.145	14111.23
805.475	14049.53
805.805	14005.92
806.136	14011.11
806.466	13957.78
806.796	13887.5
807.126	13858.35
807.457	13739.48
807.787	13831.01
808.117	13649.99
808.447	13659.71
808.777	13796.21
809.107	13648.41
809.436	13564.57
809.766	13579.26
810.096	13453.62
810.426	13468.3
810.755	13478.02
811.085	13426.27
811.414	13349.66
811.744	13295.88
812.073	13280.29
812.403	13257.46
812.732	13178.59
813.061	13168.2
813.39	13106.96
813.719	13180.4
814.049	13128.88
814.378	13019.05
814.707	12988.32
815.036	12982.89
815.365	12938.15
815.693	12840.75
816.022	12839.17
816.351	12788.32
816.68	12682.56
817.008	12801.2
817.337	12693.64
817.665	12640.76
817.994	12667.87
818.322	12692.96
818.651	12577.25
818.979	12589.23
819.307	12615.45
819.636	12563.47
819.964	12504.49
820.292	12505.62
820.62	12490.25
820.948	12438.73
821.276	12484.83
821.604	12407.32
821.932	12438.27
822.259	12479.86
822.587	12400.31
822.915	12386.52
823.243	12403.02
823.57	12408.22
823.898	12431.95
824.225	12349.69
824.553	12379.75
824.88	12374.32
825.207	12425.17
825.535	12351.72
825.862	12352.18
826.189	12359.18
826.516	12460.65
826.843	12366.19
827.17	12399.18
827.497	12347.88
827.824	12342.46
828.151	12442.57
828.478	12345.62
828.805	12400.54
829.131	12245.29
829.458	12345.62
829.785	12302.46
830.111	12304.72
830.438	12342.01
830.764	12236.92
831.09	12351.27
831.417	12293.65
831.743	12321.22
832.069	12375.68
832.395	12283.7
832.722	12272.4
833.048	12246.19
833.374	12215.91
833.7	12189.69
834.026	12215.91
834.351	12264.95
834.677	12190.37
835.003	12149.69
835.329	12150.37
835.654	12191.5
835.98	12093.2
836.306	12152.41
836.631	12038.29
836.956	12120.54
837.282	12122.12
837.607	11991.73
837.932	12028.79
838.258	12055.01
838.583	12002.58
838.908	11943.15
839.233	12022.01
839.558	11968.68
839.883	11751.74
840.208	11797.61
840.533	11867.44
840.858	11872.41
841.182	11876.48
841.507	11836.48
841.832	11729.82
842.156	11765.07
842.481	11723.94
842.805	11636.26
843.13	11710.16
843.454	11722.14
843.778	11654.57
844.103	11591.52
844.427	11605.75
844.751	11521.24
845.075	11503.16
845.399	11484.85
845.723	11359.43
846.047	11403.95
846.371	11303.84
846.695	11337.29
847.019	11318.98
847.343	11163.51
847.666	11142.49
847.99	11126.22
848.313	11122.83
848.637	10969.61
848.96	11083.96
849.284	10989.95
849.607	10944.53
849.931	10866.79
850.254	10818.2
850.577	10762.39
850.9	10652.78
851.223	10627.47
851.546	10574.59
851.869	10486.24
852.192	10576.85
852.515	10452.56
852.838	10422.06
853.161	10466.12
853.483	10455.73
853.806	10342.96
854.129	10353.81
854.451	10316.97
854.774	10258.44
855.096	10199.01
855.419	10118.34
855.741	10184.55
856.063	10142.06
856.385	10148.62
856.708	10036.76
857.03	10020.03
857.352	10093.48
857.674	9942.97
857.996	9906.59
858.318	9897.78
858.64	9841.05
858.961	9870.43
859.283	9812.35
859.605	9775.29
859.926	9838.57
860.248	9815.07
860.57	9731
860.891	9738.23
861.212	9633.6
861.534	9648.74
861.855	9634.28
862.176	9620.5
862.498	9555.86
862.819	9720.83
863.14	9597.67
863.461	9577.78
863.782	9520.84
864.103	9513.15
864.424	9409.2
864.745	9474.51
865.065	9397.9
865.386	9530.33
865.707	9425.7
866.027	9403.33
866.348	9397
866.668	9346.6
866.989	9350.22
867.309	9393.38
867.63	9397.9
867.95	9331.92
868.27	9239.94
868.59	9286.72
868.91	9302.99
869.23	9183.22
869.55	9233.61
869.87	9239.49
870.19	9239.94
870.51	9176.67
870.83	9209.21
871.15	9125.37
871.469	9131.24
871.789	9136.89
872.109	9143.9
872.428	9037.69
872.748	9112.26
873.067	9112.71
873.386	9081.98
873.706	9074.75
874.025	9023.45
874.344	8948.2
874.663	9003.56
874.982	8987.74
875.301	8944.81
875.62	8973.06
875.939	8923.34
876.258	8908.2
876.577	8914.53
876.896	8908.65
877.214	8820.52
877.533	8863.68
877.852	8839.73
878.17	8837.24
878.489	8863
878.807	8816.67
879.125	8848.76
879.444	8748.43
879.762	8704.81
880.08	8777.81
880.398	8694.19
880.716	8748.43
881.034	8687.64
881.352	8698.26
881.67	8727.86
881.988	8672.05
882.306	8672.72
882.624	8543.91
882.941	8585.04
883.259	8542.78
883.577	8610.8
883.894	8518.6
884.212	8487.64
884.529	8476.57
884.846	8389.34
885.164	8442.45
885.481	8404.71
885.798	8402.22
886.115	8369.46
886.432	8323.81
886.75	8336.46
887.067	8319.06
887.383	8260.76
887.7	8353.64
888.017	8234.77
888.334	8258.05
888.651	8232.51
888.967	8128.56
889.284	8220.31
889.6	8136.92
889.917	8095.11
890.233	8083.81
890.55	8064.6
890.866	8056.02
891.182	8025.74
891.498	8009.46
891.815	7997.71
892.131	7932.18
892.447	7977.83
892.763	7909.35
893.079	7838.85
893.395	7889.24
893.71	7907.55
894.026	7804.05
894.342	7822.58
894.657	7746.87
894.973	7778.74
895.289	7739.19
895.604	7757.27
895.92	7668.68
896.235	7623.71
896.55	7580.32
896.865	7646.08
897.181	7543.04
897.496	7612.19
897.811	7405.41
898.126	7483.15
898.441	7445.41
898.756	7406.54
899.071	7429.59
899.386	7414.68
899.7	7378.75
900.015	7339.43
900.33	7315.25
900.644	7370.84
900.959	7305.3
901.273	7272.99
901.588	7159.54
901.902	7157.06
902.216	7201.12
902.531	7143.05
902.845	7093.56
903.159	7075.93
903.473	7123.84
903.787	7036.83
904.101	6998.19
904.415	6975.14
904.729	6939.44
905.042	6916.39
905.356	6950.96
905.67	6899.66
905.984	6924.07
906.297	6916.16
906.611	6796.62
906.924	6834.58
907.237	6786.45
907.551	6775.37
907.864	6736.05
908.177	6710.29
908.491	6691.76
908.804	6627.81
909.117	6612.44
909.43	6618.99
909.743	6590.52
910.056	6530.18
910.368	6482.95
910.681	6430.97
910.994	6488.6
911.307	6437.98
911.619	6367.25
911.932	6375.61
912.244	6304.88
912.557	6338.55
912.869	6273.92
913.181	6272.11
913.494	6262.62
913.806	6232.34
914.118	6146.01
914.43	6225.56
914.742	6199.79
915.054	6148.95
915.366	6155.95
915.678	6134.03
915.99	6070.76
916.302	5993.25
916.613	5993.92
916.925	5987.37
917.236	5984.21
917.548	5923.64
917.859	5957.99
918.171	5917.99
918.482	5855.85
918.794	5857.66
919.105	5784.21
919.416	5764.33
919.727	5757.32
920.038	5806.36
920.349	5710.77
920.66	5680.49
920.971	5703.08
921.282	5663.76
921.593	5588.74
921.903	5538.34
922.214	5563.88
922.525	5558.68
922.835	5518.68
923.146	5488.4
923.456	5478.01
923.767	5420.38
924.077	5421.96
924.387	5381.96
924.697	5369.53
925.008	5391
925.318	5389.42
925.628	5293.6
925.938	5292.25
926.248	5249.54
926.558	5275.07
926.867	5237.11
927.177	5209.76
927.487	5172.93
927.796	5145.13
928.106	5151.23
928.416	5067.17
928.725	5121.18
929.034	5069.88
929.344	5099.03
929.653	5046.6
929.962	4996.21
930.271	4956.21
930.581	4969.32
930.89	4973.61
931.199	4929.55
931.508	4899.72
931.817	4905.59
932.125	4913.73
932.434	4860.17
932.743	4817.46
933.051	4822.88
933.36	4822.2
933.669	4758.02
933.977	4761.64
934.286	4742.21
934.594	4694.52
934.902	4703.56
935.21	4635.99
935.519	4619.27
935.827	4612.04
936.135	4606.84
936.443	4599.84
936.751	4583.11
937.059	4560.52
937.367	4526.17
937.674	4490.01
937.982	4535.66
938.29	4505.38
938.597	4519.16
938.905	4417.69
939.213	4422.44
939.52	4365.27
939.827	4389.22
940.135	4387.41
940.442	4356
940.749	4364.14
941.056	4342.67
941.363	4329.79
941.67	4267.87
941.977	4210.69
942.284	4231.71
942.591	4232.16
942.898	4216.8
943.205	4167.31
943.511	4179.96
943.818	4175.67
944.125	4094.54
944.431	4107.65
944.738	4120.75
945.044	4099.51
945.35	4039.63
945.657	4038.04
945.963	4086.18
946.269	4048.21
946.575	3985.62
946.881	3916.24
947.187	3985.84
947.493	3969.12
947.799	3956.24
948.105	3896.58
948.41	3897.93
948.716	3946.29
949.022	3863.13
949.327	3850.03
949.633	3800.99
949.938	3808.67
950.244	3802.34
950.549	3785.85
950.854	3760.08
951.16	3763.25
951.465	3749.46
951.77	3703.59
952.075	3681.22
952.38	3690.93
952.685	3673.53
952.99	3649.81
953.294	3651.16
953.599	3626.75
953.904	3559.86
954.209	3568.68
954.513	3575
954.818	3567.77
955.122	3523.93
955.426	3520.54
955.731	3519.19
956.035	3466.76
956.339	3452.97
956.643	3500.43
956.948	3447.55
957.252	3458.85
957.556	3390.15
957.86	3403.71
958.163	3395.57
958.467	3422.92
958.771	3387.89
959.075	3385.18
959.378	3366.65
959.682	3300.21
959.985	3337.95
960.289	3289.81
960.592	3313.54
960.896	3289.81
961.199	3277.16
961.502	3242.36
961.805	3237.61
962.108	3214.79
962.411	3197.61
962.714	3171.85
963.017	3152.87
963.32	3154.22
963.623	3165.98
963.926	3155.81
964.228	3092.98
964.531	3088.01
964.833	3118.75
965.136	3076.94
965.438	3064.06
965.741	3056.83
966.043	3064.74
966.345	3012.99
966.648	3012.76
966.95	2985.87
967.252	2998.75
967.554	2986.55
967.856	2970.05
968.158	2974.79
968.46	2942.25
968.761	2904.51
969.063	2928.47
969.365	2892.08
969.666	2886.89
969.968	2873.33
970.269	2847.11
970.571	2888.92
970.872	2841.46
971.174	2821.58
971.475	2816.38
971.776	2808.47
972.077	2804.18
972.378	2779.77
972.679	2743.16
972.98	2748.13
973.281	2730.73
973.582	2722.6
973.883	2719.89
974.183	2736.38
974.484	2741.81
974.785	2705.65
975.085	2712.43
975.386	2696.61
975.686	2642.6
975.986	2654.58
976.287	2649.61
976.587	2602.15
976.887	2603.28
977.187	2613.22
977.487	2607.35
977.787	2551.3
978.087	2590.62
978.387	2555.6
978.687	2520.57
978.987	2537.97
979.286	2498.87
979.586	2528.03
979.885	2495.26
980.185	2492.55
980.484	2474.92
980.784	2477.63
981.083	2457.75
981.382	2475.37
981.682	2455.71
981.981	2391.99
982.28	2411.19
982.579	2396.05
982.878	2402.83
983.177	2361.48
983.475	2404.87
983.774	2403.96
984.073	2360.57
984.372	2364.42
984.67	2347.69
984.969	2326.22
985.267	2316.05
985.566	2288.26
985.864	2275.15
986.162	2293.23
986.461	2265.21
986.759	2274.47
987.057	2263.4
987.355	2208.49
987.653	2223.4
987.951	2203.06
988.249	2215.04
988.547	2207.81
988.844	2185.89
989.142	2203.06
989.44	2174.14
989.737	2142.5
990.035	2132.33
990.332	2167.58
990.63	2134.82
990.927	2145.44
991.224	2121.03
991.521	2127.13
991.819	2088.26
992.116	2113.35
992.413	2067.02
992.71	2081.26
993.006	2066.57
993.303	2072.22
993.6	2046.68
993.897	2055.95
994.193	2015.05
994.49	2001.71
994.787	2017.53
995.083	1987.25
995.379	1977.53
995.676	1994.93
995.972	2011.2
996.268	2010.07
996.565	1952
996.861	1945.67
997.157	1942.28
997.453	1900.7
997.749	1881.26
998.044	1929.17
998.34	1876.07
998.636	1859.57
998.932	1867.25
999.227	1855.28
999.523	1866.58
999.818	1852.11
1000.114	1835.39
1000.409	1783.87
1000.704	1839.91
1001	1808.27
1001.295	1793.13
1001.59	1799.23
1001.885	1798.33
1002.18	1789.06
1002.475	1765.11
1002.77	1781.38
1003.065	1747.03
1003.359	1742.51
1003.654	1729.4
1003.949	1709.74
1004.243	1704.77
1004.538	1693.25
1004.832	1734.6
1005.127	1677.43
1005.421	1672.91
1005.715	1658.45
1006.009	1669.07
1006.304	1634.26
1006.598	1648.5
1006.892	1660.25
1007.186	1613.7
1007.48	1617.32
1007.773	1573.25
1008.067	1630.88
1008.361	1601.5
1008.655	1592.91
1008.948	1579.58
1009.242	1551.56
1009.535	1568.05
1009.829	1521.5
1010.122	1543.19
1010.415	1520.82
1010.708	1506.81
1011.001	1506.13
1011.295	1534.61
1011.588	1481.95
1011.881	1503.87
1012.173	1463.42
1012.466	1504.1
1012.759	1458.9
1013.052	1448.73
1013.344	1420.94
1013.637	1438.56
1013.93	1447.83
1014.222	1428.17
1014.514	1429.75
1014.807	1413.48
1015.099	1419.58
1015.391	1401.5
1015.683	1377.55
1015.976	1377.32
1016.268	1373.48
1016.56	1364.44
1016.851	1369.87
1017.143	1354.5
1017.435	1313.14
1017.727	1333.71
1018.018	1312.69
1018.31	1329.41
1018.602	1301.17
1018.893	1297.32
1019.185	1297.1
1019.476	1288.06
1019.767	1301.39
1020.058	1269.75
1020.35	1253.94
1020.641	1236.31
1020.932	1241.51
1021.223	1246.7
1021.514	1224.11
1021.804	1208.97
1022.095	1198.12
1022.386	1206.25
1022.677	1203.32
1022.967	1161.73
1023.258	1162.86
1023.548	1178.01
1023.839	1169.64
1024.129	1173.03
1024.419	1143.88
1024.709	1138.68
1025	1154.05
1025.29	1123.77
1025.58	1113.15
1025.87	1100.72
1026.16	1140.94
1026.449	1095.07
1026.739	1106.37
1027.029	1105.24
1027.319	1099.14
1027.608	1062.75
1027.898	1078.12
1028.187	1041.96
1028.477	1069.76
1028.766	1072.47
1029.055	1050.78
1029.344	1062.98
1029.634	1016.65
1029.923	1024.79
1030.212	1032.25
1030.501	998.35
1030.79	1011.46
1031.078	1010.55
1031.367	1004.9
1031.656	992.93
1031.945	983.89
1032.233	985.02
1032.522	972.36
1032.81	971.01
1033.099	959.48
1033.387	957.9
1033.675	955.64
1033.963	946.83
1034.251	957.9
1034.54	941.4
1034.828	923.78
1035.116	893.95
1035.403	927.84
1035.691	919.93
1035.979	920.61
1036.267	884.45
1036.554	873.38
1036.842	909.31
1037.129	889.88
1037.417	884.23
1037.704	885.36
1037.992	874.74
1038.279	863.89
1038.566	836.77
1038.853	836.77
1039.14	836.77
