Data from hue_270_FLMS001491_00100.txt Node
Date: Tue Feb 07 15:57:58 GMT 2017
User: dcchb
Spectrometer: FLMS00149
Trigger mode: 0
Integration Time (sec): 2.000000E-2
Scans to average: 10
Electric dark correction enabled: true
Nonlinearity correction enabled: false
Boxcar width: 0
XAxis mode: Wavelengths
Number of Pixels in Spectrum: 2048
>>>>>Begin Spectral Data<<<<<
341.393	-14
341.776	-14
342.16	-14
342.543	-46.09
342.927	-72.07
343.31	-63.71
343.693	-44.28
344.077	-70.27
344.46	-65.07
344.843	-48.57
345.226	-38.63
345.61	-36.82
345.993	-5.64
346.376	-0.21
346.759	1.37
347.142	21.71
347.525	37.75
347.908	56.06
348.291	57.41
348.674	85.21
349.057	113.68
349.44	124.3
349.823	116.85
350.206	144.87
350.588	181.25
350.971	209.73
351.354	205.88
351.737	250.85
352.119	256.28
352.502	251.31
352.884	270.29
353.267	286.79
353.65	287.01
354.032	295.37
354.414	301.48
354.797	305.09
355.179	306.22
355.562	335.15
355.944	307.8
356.326	329.95
356.709	317.75
357.091	324.98
357.473	335.6
357.855	342.15
358.238	333.11
358.62	328.59
359.002	350.29
359.384	326.56
359.766	334.47
360.148	344.41
360.53	323.62
360.912	357.29
361.294	302.83
361.676	331.53
362.057	323.62
362.439	339.21
362.821	336.95
363.203	313.68
363.584	318.2
363.966	309.38
364.348	304.19
364.729	313.9
365.111	317.07
365.493	318.65
365.874	319.33
366.256	316.84
366.637	311.42
367.019	302.61
367.4	305.99
367.781	302.61
368.163	305.99
368.544	311.42
368.925	328.82
369.306	340.12
369.688	314.13
370.069	308.03
370.45	309.38
370.831	313.9
371.212	319.1
371.593	296.96
371.974	315.71
372.355	319.55
372.736	302.38
373.117	327.01
373.498	304.19
373.879	314.13
374.26	301.93
374.641	303.06
375.021	338.08
375.402	324.98
375.783	299.67
376.163	319.33
376.544	312.55
376.925	331.3
377.305	321.36
377.686	339.67
378.066	339.89
378.447	330.85
378.827	350.29
379.208	311.19
379.588	336.05
379.968	329.72
380.349	335.82
380.729	321.36
381.109	324.53
381.489	362.49
381.87	342.6
382.25	344.41
382.63	326.56
383.01	322.04
383.39	336.28
383.77	344.41
384.15	349.16
384.53	345.09
384.91	331.53
385.29	343.51
385.67	333.79
386.049	341.25
386.429	367.01
386.809	348.93
387.189	370.85
387.568	365.88
387.948	326.56
388.328	355.03
388.707	355.03
389.087	358.2
389.466	358.65
389.846	379.67
390.225	366.11
390.605	370.63
390.984	361.81
391.363	371.76
391.743	381.92
392.122	349.61
392.501	377.86
392.881	369.95
393.26	366.78
393.639	389.38
394.018	379.67
394.397	393.9
394.776	374.69
395.155	388.03
395.534	397.07
395.913	391.64
396.292	360.91
396.671	400.91
397.05	394.13
397.429	408.59
397.808	388.7
398.186	404.3
398.565	396.61
398.944	413.34
399.323	403.85
399.701	412.43
400.08	408.59
400.458	393.22
400.837	417.4
401.215	415.6
401.594	425.77
401.972	431.42
402.351	425.09
402.729	436.16
403.107	420.57
403.486	460.79
403.864	432.09
404.242	447.23
404.62	446.1
404.999	456.73
405.377	432.77
405.755	462.6
406.133	462.83
406.511	473.45
406.889	449.95
407.267	464.41
407.645	479.55
408.023	484.52
408.401	479.32
408.779	461.24
409.156	503.5
409.534	505.99
409.912	496.27
410.29	491.3
410.667	506.67
411.045	541.47
411.422	518.42
411.8	515.25
412.178	550.51
412.555	536.05
412.933	550.73
413.31	550.73
413.687	580.79
414.065	570.62
414.442	581.92
414.819	596.16
415.197	602.94
415.574	600
415.951	607.23
416.328	626.66
416.705	634.57
417.082	588.7
417.46	638.19
417.837	638.64
418.214	660.11
418.591	674.35
418.967	657.4
419.344	676.61
419.721	672.99
420.098	699.2
420.475	697.4
420.852	716.38
421.228	704.85
421.605	722.48
421.982	711.86
422.358	744.4
422.735	736.27
423.111	753.44
423.488	777.17
423.864	755.25
424.241	786.21
424.617	782.14
424.994	794.8
425.37	814.91
425.746	821.91
426.123	800.9
426.499	848.35
426.875	856.49
427.251	872.99
427.627	856.26
428.003	877.28
428.379	905.53
428.756	912.53
429.132	921.12
429.507	920.44
429.883	946.2
430.259	939.2
430.635	918.63
431.011	979.65
431.387	971.74
431.763	1002.7
432.138	1014.68
432.514	1023.49
432.89	1030.5
433.265	1096.71
433.641	1064.17
434.016	1077.5
434.392	1106.2
434.767	1119.98
435.143	1098.52
435.518	1143.71
435.894	1152.3
436.269	1191.85
436.644	1204.5
437.02	1206.99
437.395	1200.89
437.77	1249.7
438.145	1242.69
438.52	1294.9
438.895	1262.35
439.271	1277.72
439.646	1339.19
440.021	1320.21
440.395	1345.74
440.77	1348.45
441.145	1383.71
441.52	1383.25
441.895	1403.37
442.27	1393.42
442.645	1417.83
443.019	1409.02
443.394	1431.16
443.769	1438.62
444.143	1420.77
444.518	1474.1
444.892	1487.66
445.267	1516.36
445.641	1500.54
446.016	1499.64
446.39	1533.99
446.764	1538.05
447.139	1542.57
447.513	1517.49
447.887	1537.15
448.262	1558.84
448.636	1553.65
449.01	1593.87
449.384	1605.17
449.758	1612.63
450.132	1616.02
450.506	1628.22
450.88	1673.87
451.254	1658.05
451.628	1650.37
452.002	1681.33
452.376	1692.62
452.75	1689.01
453.123	1701.89
453.497	1757.48
453.871	1741.21
454.244	1738.95
454.618	1755.9
454.992	1774.43
455.365	1818.72
455.739	1852.85
456.112	1870.7
456.486	1813.3
456.859	1898.72
457.232	1891.26
457.606	1884.03
457.979	1919.74
458.352	1940.3
458.725	1972.84
459.099	2011.94
459.472	2007.64
459.845	2032.5
460.218	2067.08
460.591	2060.75
460.964	2080.19
461.337	2111.37
461.71	2178.26
462.083	2153.4
462.456	2178.94
462.829	2143.91
463.201	2194.98
463.574	2228.88
463.947	2264.14
464.32	2274.3
464.692	2301.42
465.065	2302.1
465.438	2340.97
465.81	2378.03
466.183	2370.35
466.555	2459.84
466.928	2469.78
467.3	2447.86
467.672	2467.75
468.045	2530.12
468.417	2545.94
468.789	2525.82
469.161	2532.15
469.534	2588.87
469.906	2640.85
470.278	2620.96
470.65	2679.94
471.022	2731.24
471.394	2774.63
471.766	2782.99
472.138	2797.23
472.51	2838.58
472.882	2878.81
473.253	2896.66
473.625	2934.85
473.997	3009.88
474.369	3012.82
474.74	3032.25
475.112	3107.73
475.484	3121.51
475.855	3125.58
476.227	3205.13
476.598	3291.23
476.97	3278.35
477.341	3364.67
477.713	3369.87
478.084	3436.53
478.455	3480.37
478.827	3499.81
479.198	3562.86
479.569	3580.48
479.94	3634.27
480.311	3671.33
480.682	3711.78
481.053	3789.74
481.424	3871.1
481.795	3833.13
482.166	3913.13
482.537	3928.5
482.908	4039.91
483.279	4026.35
483.65	4114.93
484.021	4120.36
484.391	4252.78
484.762	4192.22
485.133	4261.6
485.503	4295.04
485.874	4369.62
486.244	4387.7
486.615	4500.69
486.985	4522.61
487.356	4569.61
487.726	4609.84
488.097	4711.08
488.467	4716.73
488.837	4760.34
489.207	4834.69
489.578	4883.95
489.948	4919.43
490.318	4965.31
490.688	4968.92
491.058	5003.95
491.428	5081.69
491.798	5161.69
492.168	5194.45
492.538	5232.87
492.908	5267.22
493.278	5289.59
493.648	5363.71
494.017	5402.13
494.387	5403.26
494.757	5467.89
495.126	5524.16
495.496	5563.03
495.866	5446.42
496.235	5581.79
496.605	5655.68
496.974	5631.5
497.344	5667.44
497.713	5712.86
498.082	5729.58
498.452	5733.2
498.821	5749.02
499.19	5772.07
499.559	5849.58
499.928	5850.93
500.298	5892.51
500.667	5835.11
501.036	5898.84
501.405	5967.99
501.774	5977.94
502.143	6033.08
502.512	6026.3
502.88	6020.42
503.249	6071.27
503.618	6103.13
503.987	6114.43
504.356	6142.9
504.724	6149
505.093	6166.41
505.462	6160.98
505.83	6233.75
506.199	6214.99
506.567	6303.35
506.936	6309.9
507.304	6326.63
507.672	6390.58
508.041	6382.9
508.409	6410.47
508.777	6423.35
509.145	6486.62
509.514	6399.85
509.882	6487.08
510.25	6479.84
510.618	6475.78
510.986	6513.29
511.354	6525.27
511.722	6567.07
512.09	6650.23
512.458	6583.12
512.826	6616.56
513.193	6691.82
513.561	6671.93
513.929	6647.3
514.297	6755.77
514.664	6721.65
515.032	6740.4
515.4	6740.63
515.767	6759.61
516.135	6742.21
516.502	6765.71
516.869	6823.56
517.237	6836.22
517.604	6809.55
517.972	6866.73
518.339	6891.13
518.706	6873.51
519.073	6861.3
519.44	6888.19
519.808	6958.93
520.175	6937.23
520.542	6997.34
520.909	7007.06
521.276	7025.82
521.643	7000.73
522.009	7091.81
522.376	7088.87
522.743	7068.75
523.11	7128.41
523.477	7191.01
523.843	7187.62
524.21	7238.69
524.577	7260.61
524.943	7249.32
525.31	7286.15
525.676	7317.34
526.043	7318.47
526.409	7394.85
526.776	7393.49
527.142	7419.03
527.508	7445.02
527.874	7452.93
528.241	7484.11
528.607	7486.14
528.973	7534.96
529.339	7574.96
529.705	7548.06
530.071	7567.95
530.437	7560.27
530.803	7600.04
531.169	7601.62
531.535	7622.41
531.901	7699.7
532.267	7694.73
532.632	7714.16
532.998	7686.37
533.364	7687.04
533.73	7679.13
534.095	7766.59
534.461	7759.58
534.826	7772.69
535.192	7785.8
535.557	7812.69
535.923	7804.33
536.288	7800.04
536.653	7833.48
537.019	7787.61
537.384	7831.22
537.749	7840.26
538.114	7883.2
538.479	7821.05
538.845	7896.76
539.21	7880.26
539.575	7869.41
539.94	7890.65
540.305	7900.82
540.67	7902.63
541.034	7897.89
541.399	7974.49
541.764	7939.01
542.129	7967.04
542.494	7896.08
542.858	7994.38
543.223	7918.22
543.587	7992.35
543.952	7939.69
544.316	7952.12
544.681	7960.93
545.045	8045.45
545.41	8004.78
545.774	7985.34
546.138	8035.74
546.503	7982.4
546.867	7964.55
547.231	7992.35
547.595	8090.2
547.959	8077.32
548.324	8109.86
548.688	8053.81
549.052	8151.21
549.416	8104.21
549.779	8102.17
550.143	8123.19
550.507	8119.8
550.871	8122.96
551.235	8098.33
551.599	8163.87
551.962	8096.52
552.326	8158.9
552.689	8195.73
553.053	8201.83
553.417	8167.26
553.78	8185.11
554.143	8131.1
554.507	8215.62
554.87	8194.6
555.234	8301.26
555.597	8205.22
555.96	8265.79
556.323	8247.48
556.686	8276.18
557.05	8347.59
557.413	8287.93
557.776	8324.77
558.139	8347.82
558.502	8398.66
558.865	8383.97
559.228	8442.73
559.59	8468.72
559.953	8473.24
560.316	8514.14
560.679	8517.53
561.041	8545.33
561.404	8599.79
561.767	8642.72
562.129	8588.04
562.492	8668.26
562.854	8639.33
563.217	8672.1
563.579	8735.6
563.941	8702.38
564.304	8785.77
564.666	8760.91
565.028	8811.53
565.39	8774.25
565.753	8857.86
566.115	8904.86
566.477	8981.47
566.839	8940.34
567.201	8990.06
567.563	8998.65
567.925	9013.34
568.287	9037.97
568.648	9060.57
569.01	9124.07
569.372	9197.74
569.734	9174.01
570.095	9182.82
570.457	9283.61
570.819	9261.47
571.18	9262.14
571.542	9402.25
571.903	9320.22
572.265	9380.33
572.626	9381.91
572.987	9428.24
573.349	9368.58
573.71	9500.1
574.071	9529.48
574.432	9521.35
574.794	9533.55
575.155	9616.26
575.516	9564.51
575.877	9630.27
576.238	9675.69
576.599	9758.4
576.96	9766.99
577.32	9711.17
577.681	9758.4
578.042	9827.1
578.403	9840.66
578.763	9807.89
579.124	9926.31
579.485	9927.21
579.845	10040.43
580.206	9994.1
580.566	9977.15
580.927	9985.74
581.287	10107.32
581.648	10083.59
582.008	10147.54
582.368	10134.44
582.728	10159.75
583.089	10168.33
583.449	10197.49
583.809	10164.72
584.169	10324.49
584.529	10215.34
584.889	10344.37
585.249	10298.27
585.609	10327.88
585.969	10427.76
586.329	10366.97
586.688	10452.39
587.048	10430.7
587.408	10426.18
587.768	10429.34
588.127	10502.79
588.487	10500.75
588.846	10604.03
589.206	10636.34
589.565	10625.5
589.925	10708.89
590.284	10695.78
590.643	10739.39
591.003	10780.3
591.362	10792.72
591.721	10768.09
592.08	10865.04
592.44	10861.42
592.799	10800.41
593.158	10834.98
593.517	10838.6
593.876	10921.99
594.235	10873.85
594.593	10912.04
594.952	10932.83
595.311	10971.93
595.67	10970.12
596.029	11113.62
596.387	11020.74
596.746	11038.14
597.104	11050.8
597.463	11052.38
597.822	11147.29
598.18	11063.9
598.538	11045.6
598.897	11194.3
599.255	11040.4
599.613	11271.81
599.972	11171.02
600.33	11143.68
600.688	11140.29
601.046	11217.12
601.404	11227.52
601.762	11246.27
602.12	11342.09
602.478	11259.61
602.836	11347.51
603.194	11184.35
603.552	11312.49
603.91	11271.13
604.268	11426.15
604.625	11322.88
604.983	11377.79
605.341	11277.46
605.698	11400.62
606.056	11375.08
606.413	11396.32
606.771	11407.62
607.128	11514.29
607.485	11388.42
607.843	11372.14
608.2	11482.88
608.557	11464.12
608.914	11487.17
609.272	11535.76
609.629	11566.04
609.986	11538.92
610.343	11535.08
610.7	11585.7
611.057	11500.28
611.414	11500.73
611.771	11559.48
612.127	11604.68
612.484	11554.06
612.841	11692.36
613.198	11661.18
613.554	11635.87
613.911	11681.51
614.267	11707.73
614.624	11728.75
614.98	11765.58
615.337	11735.07
615.693	11784.79
616.05	11685.36
616.406	11795.64
616.762	11684.9
617.118	11780.04
617.475	11716.99
617.831	11823.66
618.187	11837.22
618.543	11779.37
618.899	11846.26
619.255	11868.18
619.611	11789.99
619.967	11929.64
620.323	11894.84
620.678	11832.92
621.034	11874.5
621.39	11866.37
621.746	11832.02
622.101	11997.89
622.457	11919.02
622.812	11878.57
623.168	11918.57
623.523	11865.92
623.879	11989.98
624.234	11845.58
624.589	11947.27
624.945	11919.47
625.3	11963.54
625.655	11993.37
626.01	11882.41
626.365	11937.33
626.72	11845.13
627.075	11870.21
627.43	11890.55
627.785	11807.84
628.14	11920.6
628.495	11887.16
628.85	11865.46
629.205	11826.6
629.559	11867.27
629.914	11815.3
630.269	11838.57
630.623	11702.31
630.978	11758.12
631.332	11755.41
631.687	11848.52
632.041	11872.47
632.396	11871.34
632.75	11778.69
633.104	11739.37
633.459	11718.12
633.813	11694.62
634.167	11754.73
634.521	11700.5
634.875	11797.67
635.229	11711.57
635.583	11642.42
635.937	11647.84
636.291	11686.71
636.645	11613.49
636.999	11557.68
637.352	11669.31
637.706	11547.28
638.06	11592.7
638.413	11612.82
638.767	11547.51
639.121	11568.07
639.474	11512.71
639.828	11474.51
640.181	11520.39
640.534	11543.44
640.888	11503.67
641.241	11487.17
641.594	11502.08
641.947	11475.42
642.301	11441.07
642.654	11480.84
643.007	11488.75
643.36	11442.2
643.713	11416.44
644.066	11443.33
644.419	11390
644.771	11323.78
645.124	11237.91
645.477	11198.59
645.83	11106.84
646.182	11085.82
646.535	11008.76
646.888	11018.26
647.24	10904.81
647.593	11055.32
647.945	11026.39
648.298	10926.28
648.65	10940.97
649.002	10938.26
649.355	11030.91
649.707	10960.4
650.059	10971.03
650.411	11107.97
650.763	11147.07
651.115	11313.39
651.467	11211.7
651.819	11227.52
652.171	11208.53
652.523	11206.05
652.875	11176.9
653.227	11173.73
653.578	11270.23
653.93	11199.95
654.282	11166.27
654.633	11133.28
654.985	11214.41
655.337	11214.18
655.688	11208.76
656.039	11199.49
656.391	11094.41
656.742	11145.94
657.094	11134.41
657.445	11306.38
657.796	11204.92
658.147	11118.14
658.498	11166.27
658.849	11116.33
659.2	11166.5
659.551	11148.65
659.902	11267.97
660.253	11156.56
660.604	11280.62
660.955	11175.77
661.306	11197.46
661.656	11203.34
662.007	11222.09
662.358	11208.76
662.708	11217.8
663.059	11207.4
663.409	11224.58
663.76	11196.56
664.11	11172.15
664.461	11246.27
664.811	11259.38
665.161	11208.76
665.511	11207.18
665.862	11183
666.212	11262.99
666.562	11247.63
666.912	11206.05
667.262	11178.03
667.612	11206.27
667.962	11203.34
668.312	11160.85
668.662	11239.94
669.011	11210.34
669.361	11186.16
669.711	11152.94
670.06	11083.11
670.41	11121.08
670.76	11149.78
671.109	11218.25
671.459	11189.32
671.808	11115.2
672.157	11157.69
672.507	11026.16
672.856	11077.24
673.205	11152.04
673.554	11112.94
673.904	11127.86
674.253	11154.3
674.602	11075.88
674.951	10924.47
675.3	10881.31
675.649	11032.49
675.998	10963.79
676.346	11016
676.695	11005.15
677.044	11043.79
677.393	11091.02
677.741	11010.57
678.09	10982.32
678.438	10931.25
678.787	10907.75
679.135	10955.66
679.484	10960.86
679.832	10941.65
680.181	10798.83
680.529	10893.74
680.877	10890.35
681.225	10861.2
681.573	10857.58
681.922	10808.77
682.27	10759.96
682.618	10808.32
682.966	10787.98
683.314	10789.79
683.661	10739.17
684.009	10724.25
684.357	10662.56
684.705	10683.12
685.053	10599.96
685.4	10645.61
685.748	10559.28
686.095	10587.08
686.443	10501.21
686.79	10514.99
687.138	10509.79
687.485	10507.76
687.832	10459.4
688.18	10472.28
688.527	10410.81
688.874	10352.28
689.221	10353.64
689.568	10387.31
689.915	10369.46
690.262	10260.99
690.609	10278.16
690.956	10164.72
691.303	10213.98
691.65	10140.76
691.997	10097.6
692.344	10150.26
692.69	10091.5
693.037	10059.64
693.383	9946.87
693.73	10073.2
694.077	10004.5
694.423	9877.27
694.769	9859.19
695.116	9831.39
695.462	9829.36
695.808	9752.07
696.155	9776.25
696.501	9702.36
696.847	9783.94
697.193	9594.34
697.539	9685.18
697.885	9592.98
698.231	9606.77
698.577	9582.14
698.923	9550.5
699.269	9396.38
699.614	9445.42
699.96	9420.33
700.306	9446.55
700.651	9310.5
700.997	9321.35
701.342	9358.19
701.688	9325.42
702.033	9290.17
702.379	9273.67
702.724	9251.3
703.069	9269.37
703.415	9089.94
703.76	9164.07
704.105	9098.98
704.45	9061.24
704.795	8980.79
705.14	8920.46
705.485	9011.08
705.83	8980.34
706.175	8981.47
706.52	8909.61
706.865	8874.58
707.209	8919.78
707.554	8797.07
707.899	8891.08
708.243	8734.47
708.588	8694.93
708.932	8667.13
709.277	8731.08
709.621	8727.92
709.966	8644.76
710.31	8682.72
710.654	8539.9
710.998	8570.86
711.342	8619.9
711.687	8533.58
712.031	8521.6
712.375	8530.64
712.719	8516.85
713.063	8440.47
713.407	8506.91
713.75	8425.1
714.094	8467.36
714.438	8403.86
714.782	8495.84
715.125	8330.64
715.469	8382.84
715.812	8349.17
716.156	8305.33
716.499	8320.47
716.843	8339.91
717.186	8281.83
717.53	8327.25
717.873	8257.88
718.216	8350.08
718.559	8274.37
718.902	8183.75
719.246	8203.64
719.589	8169.74
719.932	8172.68
720.275	8168.84
720.617	8159.57
720.96	8168.16
721.303	8152.12
721.646	8165
721.989	8104.21
722.331	8136.98
722.674	8038.9
723.016	8126.13
723.359	8085.9
723.701	8098.78
724.044	8009.75
724.386	7986.47
724.729	8091.1
725.071	8002.97
725.413	8042.51
725.755	8021.5
726.097	7952.8
726.439	7959.13
726.782	7986.24
727.124	8025.79
727.465	7972.91
727.807	8028.28
728.149	7952.57
728.491	7962.29
728.833	8008.39
729.175	7932.46
729.516	7895.17
729.858	7919.58
730.199	7918
730.541	7963.42
730.882	7900.82
731.224	7854.5
731.565	7876.19
731.906	7899.02
732.248	7913.93
732.589	7888.17
732.93	7818.57
733.271	7855.63
733.612	7941.5
733.953	7877.55
734.294	7893.59
734.635	7831.9
734.976	7880.26
735.317	7865.57
735.658	7822.18
735.999	7822.41
736.339	7842.52
736.68	7847.27
737.021	7849.53
737.361	7903.31
737.702	7884.1
738.042	7867.38
738.383	7847.72
738.723	7882.97
739.063	7802.29
739.404	7913.03
739.744	7890.65
740.084	7869.41
740.424	7917.55
740.764	7950.54
741.104	7968.17
741.444	7959.35
741.784	7897.66
742.124	8008.62
742.464	7967.71
742.804	7911.22
743.143	7961.16
743.483	7991.67
743.823	7979.01
744.162	8061.05
744.502	8061.72
744.841	8074.6
745.181	8105.34
745.52	8117.54
745.86	8143.53
746.199	8181.27
746.538	8241.15
746.877	8259.91
747.216	8278.21
747.556	8293.81
747.895	8345.11
748.234	8402.28
748.573	8433.01
748.911	8433.01
749.25	8517.3
749.589	8493.58
749.928	8606.57
750.267	8689.05
750.605	8743.29
750.944	8800.23
751.283	8796.62
751.621	8911.42
751.96	8987.35
752.298	9029.61
752.636	9064.63
752.975	9220.34
753.313	9282.71
753.651	9421.24
753.989	9392.08
754.327	9504.62
754.666	9588.24
755.004	9703.49
755.342	9827.78
755.679	9962.01
756.017	10034.55
756.355	10194.32
756.693	10159.97
757.031	10404.26
757.368	10477.48
757.706	10694.87
758.044	10847.86
758.381	10962.21
758.719	10989.56
759.056	11147.29
759.394	11311.36
759.731	11427.74
760.068	11507.51
760.405	11666.37
760.743	11811.23
761.08	12082.86
761.417	12170.54
761.754	12307.04
762.091	12443.3
762.428	12588.16
762.765	12648.72
763.102	12905.44
763.438	13066.11
763.775	13119.22
764.112	13320.34
764.449	13528.7
764.785	13627.45
765.122	13729.6
765.458	13837.62
765.795	14041
766.131	14198.51
766.467	14318.96
766.804	14393.08
767.14	14496.58
767.476	14705.16
767.812	14734.77
768.148	15036.68
768.485	15015.21
768.821	15147.41
769.157	15269.67
769.492	15433.05
769.828	15537.23
770.164	15524.13
770.5	15721.41
770.836	15843.44
771.171	15864.46
771.507	16016.77
771.842	15908.97
772.178	16106.03
772.513	16252.47
772.849	16383.54
773.184	16324.1
773.519	16552.12
773.855	16523.87
774.19	16624.66
774.525	16602.74
774.86	16693.13
775.195	16767.48
775.53	16883.19
775.865	16918.44
776.2	16915.28
776.535	16833.7
776.87	17021.26
777.205	16956.18
777.539	17018.78
777.874	17079.34
778.209	17142.84
778.543	17172.9
778.878	17103.52
779.212	17228.49
779.547	17189.39
779.881	17333.57
780.215	17283.63
780.55	17360.69
780.884	17239.33
781.218	17237.3
781.552	17306.68
781.886	17334.25
782.22	17247.24
782.554	17319.33
782.888	17198.43
783.222	17229.62
783.556	17213.57
783.889	17223.74
784.223	17159.56
784.557	17205.66
784.89	17309.16
785.224	17232.78
785.557	17134.03
785.891	17159.34
786.224	17121.15
786.558	17111.65
786.891	17016.29
787.224	16975.84
787.557	17015.16
787.891	16965.44
788.224	17083.18
788.557	17046.57
788.89	17103.52
789.223	17139
789.556	17017.87
789.888	16960.47
790.221	16946.69
790.554	16842.51
790.887	16798.22
791.219	16781.49
791.552	16724.09
791.884	16742.4
792.217	16787.82
792.549	16721.83
792.882	16760.93
793.214	16575.17
793.546	16774.26
793.879	16613.14
794.211	16480.26
794.543	16647.94
794.875	16520.48
795.207	16586.02
795.539	16472.12
795.871	16430.09
796.203	16397.1
796.535	16400.26
796.867	16273.26
797.198	16297.66
797.53	16226.71
797.862	16219.7
798.193	16298.34
798.525	16101.96
798.856	16115.3
799.188	15993.94
799.519	15949.43
799.85	15899.71
800.182	15867.62
800.513	15955.07
800.844	15704.91
801.175	15947.62
801.506	15902.87
801.837	15781.97
802.168	15839.15
802.499	15697.68
802.83	15637.57
803.161	15626.72
803.491	15662.88
803.822	15626.72
804.153	15545.37
804.483	15487.52
804.814	15463.56
805.145	15469.21
805.475	15366.16
805.805	15342.89
806.136	15338.82
806.466	15392.83
806.796	15322.78
807.126	15280.97
807.457	15189.9
807.787	15159.16
808.117	15061.31
808.447	15047.75
808.777	15157.36
809.107	15086.4
809.436	14965.04
809.766	14999.39
810.096	14923.24
810.426	14968.21
810.755	14916.68
811.085	14911.26
811.414	14796.91
811.744	14787.87
812.073	14803.24
812.403	14756.91
812.732	14685.05
813.061	14729.57
813.39	14624.49
813.719	14587.2
814.049	14760.98
814.378	14563.25
814.707	14556.47
815.036	14495
815.365	14504.04
815.693	14393.08
816.022	14410.48
816.351	14353.31
816.68	14229.24
817.008	14248.91
817.337	14297.49
817.665	14180.43
817.994	14229.24
818.322	14304.5
818.651	14079.19
818.979	14193.54
819.307	14205.74
819.636	14070.38
819.964	14085.29
820.292	14027.67
820.62	14068.8
820.948	14067.21
821.276	14061.34
821.604	14029.25
821.932	14044.84
822.259	14037.84
822.587	14066.99
822.915	14018.85
823.243	14112.19
823.57	13972.75
823.898	14046.88
824.225	14068.12
824.553	14013.88
824.88	14017.27
825.207	13997.61
825.535	13977.27
825.862	14044.39
826.189	13995.58
826.516	14120.09
826.843	14064.05
827.17	14099.76
827.497	14115.35
827.824	14110.6
828.151	14132.07
828.478	14059.53
828.805	14026.09
829.131	14056.37
829.458	14069.25
829.785	13991.28
830.111	13970.04
830.438	14137.27
830.764	14113.77
831.09	14069.25
831.417	14001.23
831.743	14078.74
832.069	14088.91
832.395	13953.55
832.722	13962.13
833.048	13933.21
833.374	13954.68
833.7	13853.21
834.026	13868.35
834.351	13953.32
834.677	13956.03
835.003	13994.22
835.329	13917.16
835.654	13973.21
835.98	13842.81
836.306	13900.44
836.631	13763.49
836.956	13940.89
837.282	13846.43
837.607	13851.18
837.932	13790.39
838.258	13802.82
838.583	13713.1
838.908	13717.85
839.233	13707.45
839.558	13685.3
839.883	13615.48
840.208	13550.62
840.533	13530.73
840.858	13612.76
841.182	13620.67
841.507	13547.68
841.832	13575.48
842.156	13482.37
842.481	13453.22
842.805	13459.1
843.13	13348.36
843.454	13372.32
843.778	13370.06
844.103	13349.27
844.427	13249.61
844.751	13259.78
845.075	13207.35
845.399	13261.36
845.723	13050.29
846.047	13071.53
846.371	12956.06
846.695	13021.82
847.019	12911.09
847.343	12840.81
847.666	12782.95
847.99	12733.24
848.313	12723.75
848.637	12736.18
848.96	12594.26
849.284	12599.91
849.607	12523.07
849.931	12473.58
850.254	12415.73
850.577	12318.79
850.9	12288.05
851.223	12340.03
851.546	12237.21
851.869	12175.97
852.192	12217.09
852.515	12120.37
852.838	12027.49
853.161	12027.95
853.483	11995.86
853.806	12010.55
854.129	11930.1
854.451	11857.33
854.774	11924.9
855.096	11746.37
855.419	11732.59
855.741	11750.44
856.063	11700.27
856.385	11710.44
856.708	11610.78
857.03	11555.87
857.352	11540.73
857.674	11467.28
857.996	11428.19
858.318	11459.83
858.64	11375.76
858.961	11320.39
859.283	11375.53
859.605	11239.72
859.926	11273.62
860.248	11287.17
860.57	11184.58
860.891	11227.06
861.212	11097.35
861.534	11127.63
861.855	11077.91
862.176	11047.18
862.498	11073.17
862.819	11059.61
863.14	11089.89
863.461	11025.26
863.782	10994.98
864.103	11016.45
864.424	10986.62
864.745	10952.27
865.065	10898.48
865.386	10870.69
865.707	10881.76
866.027	10881.76
866.348	10840.63
866.668	10842.67
866.989	10813.06
867.309	10748.88
867.63	10779.39
867.95	10691.26
868.27	10584.59
868.59	10661.43
868.91	10639.73
869.23	10576.46
869.55	10689.22
869.87	10677.02
870.19	10637.25
870.51	10628.44
870.83	10580.53
871.15	10522.45
871.469	10578.95
871.789	10585.72
872.109	10477.03
872.428	10431.15
872.748	10477.48
873.067	10466.18
873.386	10541.43
873.706	10461.89
874.025	10405.16
874.344	10404.71
874.663	10335.56
874.982	10320.42
875.301	10301.44
875.62	10290.82
875.939	10313.87
876.258	10316.13
876.577	10257.15
876.896	10234.1
877.214	10190.25
877.533	10209.24
877.852	10216.02
878.17	10200.42
878.489	10212.85
878.807	10167.66
879.125	10217.82
879.444	10141.22
879.762	10086.3
880.08	10056.25
880.398	10030.03
880.716	10079.98
881.034	9962.69
881.352	10001.79
881.67	10028.9
881.988	9983.71
882.306	9933.54
882.624	9841.56
882.941	9829.59
883.259	9834.56
883.577	9825.07
883.894	9829.59
884.212	9805.63
884.529	9811.73
884.846	9772.41
885.164	9723.83
885.481	9758.85
885.798	9687.89
886.115	9619.42
886.432	9634.79
886.75	9644.05
887.067	9650.61
887.383	9592.53
887.7	9598.86
888.017	9519.76
888.334	9530.84
888.651	9517.5
888.967	9476.15
889.284	9435.7
889.6	9425.98
889.917	9353.89
890.233	9349.82
890.55	9319.32
890.866	9277.51
891.182	9258.08
891.498	9269.6
891.815	9217.17
892.131	9276.15
892.447	9177.17
892.763	9092.66
893.079	9141.02
893.395	9088.36
893.71	9040.23
894.026	9052.43
894.342	9049.95
894.657	8968.82
894.973	8978.99
895.289	8944.64
895.604	8856.73
895.92	8818.99
896.235	8722.72
896.55	8759.78
896.865	8721.82
897.181	8698.09
897.496	8720.69
897.811	8705.77
898.126	8630.75
898.441	8551.65
898.756	8551.88
899.071	8505.55
899.386	8501.71
899.7	8455.16
900.015	8408.83
900.33	8356.63
900.644	8351.88
900.959	8380.36
901.273	8325.67
901.588	8263.75
901.902	8287.48
902.216	8204.09
902.531	8242.06
902.845	8157.54
903.159	8118.22
903.473	8142.85
903.787	7987.15
904.101	8032.57
904.415	8040.71
904.729	7929.98
905.042	7900.82
905.356	7888.17
905.67	7912.35
905.984	7875.06
906.297	7899.69
906.611	7800.94
906.924	7789.64
907.237	7754.39
907.551	7726.14
907.864	7729.53
908.177	7707.16
908.491	7580.83
908.804	7590.1
909.117	7567.27
909.43	7514.84
909.743	7435.52
910.056	7435.3
910.368	7473.49
910.681	7388.75
910.994	7410.21
911.307	7306.94
911.619	7265.13
911.932	7285.92
912.244	7224.91
912.557	7226.94
912.869	7170.45
913.181	7181.07
913.494	7196.44
913.806	7075.99
914.118	7042.31
914.43	7054.07
914.742	7052.94
915.054	6986.27
915.366	6926.16
915.678	6927.06
915.99	6913.05
916.302	6876.67
916.613	6831.02
916.925	6794.86
917.236	6804.58
917.548	6776.56
917.859	6798.25
918.171	6730.91
918.482	6702.44
918.794	6672.38
919.105	6633.74
919.416	6610.69
919.727	6547.41
920.038	6591.03
920.349	6472.84
920.66	6506.96
920.971	6487.08
921.282	6456.79
921.593	6420.64
921.903	6389.45
922.214	6346.97
922.525	6335.44
922.835	6306.29
923.146	6301.54
923.456	6260.87
923.767	6278.04
924.077	6229.68
924.387	6168.21
924.697	6147.88
925.008	6125.5
925.318	6167.08
925.628	6118.95
925.938	6028.78
926.248	6028.33
926.558	5958.95
926.867	6006.86
927.177	5964.6
927.487	5941.33
927.796	5884.61
928.106	5871.72
928.416	5898.16
928.725	5845.74
929.034	5829.92
929.344	5850.48
929.653	5791.5
929.962	5760.09
930.271	5756.25
930.581	5704.95
930.89	5695.68
931.199	5636.93
931.508	5630.15
931.817	5599.64
932.125	5590.15
932.434	5586.76
932.743	5549.25
933.051	5476.03
933.36	5492.3
933.669	5471.28
933.977	5413.66
934.286	5442.13
934.594	5390.83
934.902	5401.23
935.21	5327.11
935.519	5327.33
935.827	5356.48
936.135	5290.04
936.443	5250.95
936.751	5280.55
937.059	5233.55
937.367	5227.67
937.674	5238.52
937.982	5130.73
938.29	5140.9
938.597	5119.2
938.905	5079.43
939.213	5046.66
939.52	5039.2
939.827	5034.68
940.135	5027.23
940.442	4992.65
940.749	4961.69
941.056	4984.29
941.363	4859.55
941.67	4934.8
941.977	4816.38
942.284	4907.23
942.591	4813.45
942.898	4717.18
943.205	4811.19
943.511	4768.25
943.818	4791.3
944.125	4689.83
944.431	4675.15
944.738	4662.26
945.044	4716.73
945.35	4629.04
945.657	4644.64
945.963	4645.54
946.269	4601.02
946.575	4587.01
946.881	4561.25
947.187	4570.74
947.493	4504.53
947.799	4469.05
948.105	4518.54
948.41	4415.49
948.716	4441.71
949.022	4442.61
949.327	4419.56
949.633	4351.76
949.938	4325.1
950.244	4334.36
950.549	4337.53
950.854	4292.56
951.16	4326.68
951.465	4280.35
951.77	4243.74
952.075	4249.39
952.38	4198.32
952.685	4208.49
952.99	4175.27
953.294	4153.8
953.599	4135.72
953.904	4154.93
954.209	4087.36
954.513	4087.14
954.818	4101.38
955.122	4057.76
955.426	4007.82
955.731	4054.6
956.035	3974.6
956.339	4043.75
956.643	4013.47
956.948	3927.82
957.252	3923.75
957.556	3956.52
957.86	3921.27
958.163	3855.96
958.467	3898.22
958.771	3876.97
959.075	3884.43
959.378	3808.28
959.682	3830.87
959.985	3837.43
960.289	3804.21
960.592	3782.06
960.896	3715.62
961.199	3708.17
961.502	3691.89
961.805	3675.17
962.108	3661.16
962.411	3676.08
962.714	3662.29
963.017	3688.28
963.32	3644.66
963.623	3597.43
963.926	3627.26
964.228	3602.63
964.531	3550.43
964.833	3554.72
965.136	3542.07
965.438	3500.94
965.741	3510.43
966.043	3485.12
966.345	3424.56
966.648	3429.53
966.95	3456.65
967.252	3447.16
967.554	3408.06
967.856	3399.02
968.158	3350.66
968.46	3371.45
968.761	3355.41
969.063	3358.57
969.365	3320.83
969.666	3322.41
969.968	3272.47
970.269	3312.7
970.571	3267.27
970.872	3270.89
971.174	3230.21
971.475	3201.51
971.776	3243.32
972.077	3191.12
972.378	3177.33
972.679	3147.05
972.98	3132.59
973.281	3138.01
973.582	3139.37
973.883	3142.08
974.183	3103.44
974.484	3126.94
974.785	3054.62
975.085	3078.35
975.386	3071.8
975.686	3053.72
975.986	3049.88
976.287	2986.6
976.587	3005.36
976.887	3024.12
977.187	2982.99
977.487	3011.23
977.787	2952.03
978.087	2924.91
978.387	2925.13
978.687	2864.8
978.987	2901.41
979.286	2859.15
979.586	2885.59
979.885	2852.37
980.185	2802.2
980.484	2843.33
980.784	2799.71
981.083	2797
981.382	2792.94
981.682	2784.8
981.981	2765.14
982.28	2747.96
982.579	2700.06
982.878	2725.14
983.177	2733.5
983.475	2683.33
983.774	2687.85
984.073	2655.76
984.372	2677.23
984.67	2646.95
984.969	2642.43
985.267	2639.94
985.566	2609.66
985.864	2597.46
986.162	2605.6
986.461	2590.45
986.759	2565.37
987.057	2543.9
987.355	2525.82
987.653	2547.52
987.951	2526.73
988.249	2499.84
988.547	2521.3
988.844	2511.81
989.142	2476.56
989.44	2473.85
989.737	2466.84
990.035	2463.68
990.332	2416
990.63	2410.35
990.927	2429.1
991.224	2407.86
991.521	2403.79
991.819	2356.79
992.116	2383.45
992.413	2373.96
992.71	2325.83
993.006	2314.3
993.303	2326.28
993.6	2303.91
993.897	2297.35
994.193	2295.77
994.49	2285.6
994.787	2279.05
995.083	2255.32
995.379	2275.21
995.676	2213.52
995.972	2237.7
996.268	2200.86
996.565	2191.82
996.861	2183.46
997.157	2172.61
997.453	2166.51
997.749	2160.41
998.044	2147.53
998.34	2125.16
998.636	2128.32
998.932	2122.44
999.227	2093.74
999.523	2071.37
999.818	2070.69
1000.114	2059.85
1000.409	2043.58
1000.704	2034.99
1001	2029.11
1001.295	2011.03
1001.59	2012.84
1001.885	2006.29
1002.18	1982.79
1002.475	1987.76
1002.77	1971.71
1003.065	1989.11
1003.359	1928.55
1003.654	1942.34
1003.949	1932.17
1004.243	1919.06
1004.538	1892.17
1004.832	1879.96
1005.127	1895.56
1005.421	1875.9
1005.715	1878.16
1006.009	1862.11
1006.304	1822.57
1006.598	1826.86
1006.892	1795.45
1007.186	1817.37
1007.48	1784.37
1007.773	1801.1
1008.067	1783.02
1008.361	1768.33
1008.655	1755.67
1008.948	1746.18
1009.242	1749.35
1009.535	1711.16
1009.829	1714.32
1010.122	1709.35
1010.415	1698.5
1010.708	1721.1
1011.001	1712.06
1011.295	1648.11
1011.588	1692.17
1011.881	1634.32
1012.173	1650.59
1012.466	1621.21
1012.759	1641.55
1013.052	1642.23
1013.344	1596.58
1013.637	1611.05
1013.93	1585.96
1014.222	1588.45
1014.514	1566.53
1014.807	1555
1015.099	1571.27
1015.391	1545.96
1015.683	1513.19
1015.976	1500.31
1016.268	1517.94
1016.56	1499.41
1016.851	1473.42
1017.143	1497.38
1017.435	1493.31
1017.727	1462.8
1018.018	1443.14
1018.31	1477.49
1018.602	1442.91
1018.893	1449.92
1019.185	1424.16
1019.476	1412.18
1019.767	1415.34
1020.058	1407.66
1020.35	1371.05
1020.641	1360.88
1020.932	1362.01
1021.223	1359.75
1021.514	1354.1
1021.804	1343.48
1022.095	1326.76
1022.386	1324.73
1022.677	1310.71
1022.967	1306.42
1023.258	1314.1
1023.548	1296.93
1023.839	1275.69
1024.129	1265.29
1024.419	1274.56
1024.709	1269.13
1025	1240.21
1025.29	1242.02
1025.58	1242.47
1025.87	1224.39
1026.16	1232.3
1026.449	1219.19
1026.739	1205.86
1027.029	1200.21
1027.319	1182.81
1027.608	1188.23
1027.898	1164.28
1028.187	1143.94
1028.477	1170.15
1028.766	1155.24
1029.055	1137.84
1029.344	1117.72
1029.634	1106.2
1029.923	1127.44
1030.212	1125.86
1030.501	1112.75
1030.79	1073.66
1031.078	1110.27
1031.367	1099.87
1031.656	1088.8
1031.945	1084.73
1032.233	1078.4
1032.522	1033.89
1032.81	1049.7
1033.099	1068.91
1033.387	1032.3
1033.675	1024.39
1033.963	1040.44
1034.251	1031.63
1034.54	976.26
1034.828	1009.71
1035.116	1001.57
1035.403	1000.44
1035.691	997.5
1035.979	981.46
1036.267	970.38
1036.554	975.81
1036.842	957.05
1037.129	956.37
1037.417	950.27
1037.704	957.5
1037.992	929.03
1038.279	945.75
1038.566	938.52
1038.853	938.52
1039.14	938.52
