Data from hue_32_FLMS001491_00077.txt Node
Date: Tue Feb 07 17:23:53 GMT 2017
User: dcchb
Spectrometer: FLMS00149
Trigger mode: 0
Integration Time (sec): 2.000000E-2
Scans to average: 10
Electric dark correction enabled: true
Nonlinearity correction enabled: false
Boxcar width: 0
XAxis mode: Wavelengths
Number of Pixels in Spectrum: 2048
>>>>>Begin Spectral Data<<<<<
341.393	-32.84
341.776	-32.84
342.16	-32.84
342.543	-51.37
342.927	-78.26
343.31	-67.41
343.693	-70.35
344.077	-75.1
344.46	-74.19
344.843	-50.46
345.226	-34.87
345.61	-29.22
345.993	-12.27
346.376	-29.22
346.759	13.49
347.142	34.28
347.525	52.81
347.908	51.68
348.291	64.33
348.674	99.36
349.057	127.16
349.44	126.71
349.823	150.43
350.206	156.31
350.588	196.99
350.971	214.61
351.354	233.6
351.737	226.59
352.119	249.87
352.502	238.57
352.884	257.1
353.267	270.2
353.65	314.05
354.032	290.77
354.414	294.84
354.797	275.4
355.179	341.39
355.562	331.67
355.944	328.28
356.326	330.99
356.709	349.52
357.091	324.89
357.473	329.41
357.855	338.45
358.238	347.94
358.62	341.84
359.002	352.24
359.384	341.62
359.766	348.39
360.148	330.99
360.53	334.38
360.912	335.74
361.294	342.75
361.676	333.03
362.057	327.15
362.439	325.57
362.821	334.16
363.203	310.2
363.584	320.37
363.966	314.72
364.348	316.76
364.729	323.08
365.111	312.01
365.493	316.98
365.874	322.86
366.256	315.63
366.637	327.15
367.019	309.3
367.4	289.41
367.781	298.23
368.163	300.71
368.544	321.73
368.925	312.24
369.306	306.81
369.688	288.74
370.069	321.28
370.45	330.32
370.831	306.81
371.212	330.99
371.593	305.68
371.974	330.09
372.355	303.2
372.736	324.67
373.117	315.4
373.498	338
373.879	298
374.26	302.07
374.641	299.13
375.021	305.23
375.402	306.36
375.783	321.28
376.163	333.93
376.544	317.21
376.925	333.71
377.305	325.8
377.686	306.59
378.066	325.8
378.447	326.7
378.827	319.02
379.208	324.44
379.588	329.64
379.968	322.86
380.349	346.81
380.729	334.16
381.109	333.03
381.489	337.77
381.87	333.48
382.25	329.86
382.63	323.31
383.01	329.41
383.39	343.42
383.77	354.95
384.15	336.64
384.53	350.43
384.91	356.08
385.29	352.69
385.67	336.64
386.049	341.84
386.429	352.69
386.809	356.08
387.189	332.8
387.568	351.56
387.948	348.62
388.328	344.1
388.707	360.82
389.087	358.34
389.466	353.14
389.846	357.43
390.225	382.52
390.605	358.34
390.984	360.6
391.363	370.54
391.743	384.1
392.122	379.13
392.501	377.32
392.881	363.99
393.26	376.19
393.639	363.54
394.018	366.25
394.397	388.39
394.776	392.24
395.155	389.52
395.534	391.33
395.913	379.35
396.292	378.45
396.671	375.06
397.05	385.23
397.429	381.61
397.808	364.21
398.186	373.03
398.565	394.72
398.944	380.26
399.323	399.47
399.701	368.96
400.08	392.24
400.458	397.66
400.837	395.85
401.215	384.78
401.594	393.82
401.972	413.25
402.351	399.92
402.729	392.69
403.107	396.08
403.486	424.1
403.864	424.1
404.242	428.62
404.62	407.38
404.999	431.56
405.377	429.3
405.755	425.23
406.133	441.05
406.511	426.13
406.889	423.87
407.267	420.94
407.645	428.62
408.023	422.97
408.401	413.7
408.779	440.14
409.156	417.32
409.534	442.63
409.912	437.21
410.29	471.1
410.667	459.35
411.045	462.52
411.422	457.77
411.8	443.08
412.178	477.43
412.555	461.84
412.933	479.01
413.31	486.47
413.687	483.76
414.065	473.82
414.442	463.65
414.819	482.18
415.197	497.54
415.574	481.95
415.951	464.78
416.328	484.89
416.705	498.45
417.082	474.72
417.46	482.85
417.837	503.42
418.214	507.71
418.591	503.87
418.967	504.77
419.344	511.1
419.721	524.89
420.098	495.28
420.475	514.72
420.852	520.14
421.228	515.4
421.605	523.76
421.982	515.85
422.358	542.51
422.735	567.82
423.111	551.1
423.488	533.47
423.864	528.05
424.241	584.55
424.617	554.04
424.994	552.91
425.37	545
425.746	559.24
426.123	550.88
426.499	546.81
426.875	592.23
427.251	575.28
427.627	607.15
428.003	595.39
428.379	606.92
428.756	596.52
429.132	585.9
429.507	597.2
429.883	612.79
430.259	609.4
430.635	611.89
431.011	630.2
431.387	630.87
431.763	643.53
432.138	625.9
432.514	644.43
432.89	645.11
433.265	643.08
433.641	663.19
434.016	665.45
434.392	660.03
434.767	653.47
435.143	669.74
435.518	681.04
435.894	703.41
436.269	714.94
436.644	686.01
437.02	679.01
437.395	706.8
437.77	722.4
438.145	728.5
438.52	727.14
438.895	748.16
439.271	740.93
439.646	734.6
440.021	743.86
440.395	734.6
440.77	726.69
441.145	751.32
441.52	754.71
441.895	781.6
442.27	757.42
442.645	775.28
443.019	789.29
443.394	791.55
443.769	775.73
444.143	773.92
444.518	790.42
444.892	784.99
445.267	788.16
445.641	802.17
446.016	800.13
446.39	782.51
446.764	818.89
447.139	803.98
447.513	826.35
447.887	852.56
448.262	826.35
448.636	840.59
449.01	835.39
449.384	847.59
449.758	826.8
450.132	873.35
450.506	871.09
450.88	859.34
451.254	872.67
451.628	867.93
452.002	911.09
452.376	879
452.75	895.05
453.123	914.93
453.497	905.44
453.871	944.09
454.244	937.53
454.618	931.2
454.992	953.12
455.365	950.19
455.739	976.17
456.112	969.17
456.486	972.33
456.859	1001.71
457.232	999.23
457.606	1004.65
457.979	1031.54
458.352	1039.9
458.725	1041.26
459.099	1057.08
459.472	1086.23
459.845	1061.6
460.218	1092.1
460.591	1096.4
460.964	1076.51
461.337	1112.44
461.71	1156.28
462.083	1145.89
462.456	1180.01
462.829	1152.89
463.201	1169.16
463.574	1176.4
463.947	1202.84
464.32	1228.6
464.692	1213
465.065	1229.95
465.438	1268.82
465.81	1280.57
466.183	1292.1
466.555	1290.29
466.928	1302.95
467.3	1342.94
467.672	1342.04
468.045	1387.92
468.417	1390.4
468.789	1391.31
469.161	1419.1
469.534	1445.32
469.906	1482.15
470.278	1496.16
470.65	1484.41
471.022	1546.33
471.394	1536.39
471.766	1567.8
472.138	1605.54
472.51	1630.85
472.882	1670.39
473.253	1703.39
473.625	1701.58
473.997	1739.32
474.369	1784.97
474.74	1802.14
475.112	1861.8
475.484	1888.02
475.855	1937.28
476.227	1961.46
476.598	1998.07
476.97	2026.54
477.341	2088.46
477.713	2124.39
478.084	2139.53
478.455	2202.58
478.827	2233.77
479.198	2327.1
479.569	2368.68
479.94	2409.13
480.311	2462.24
480.682	2526.87
481.053	2583.82
481.424	2636.02
481.795	2677.15
482.166	2746.75
482.537	2784.26
482.908	2908.1
483.279	2960.3
483.65	3004.6
484.021	3101.32
484.391	3164.37
484.762	3219.51
485.133	3270.58
485.503	3368.43
485.874	3455.43
486.244	3481.87
486.615	3566.16
486.985	3687.97
487.356	3748.53
487.726	3796.67
488.097	3934.74
488.467	3948.75
488.837	4049.09
489.207	4184.9
489.578	4245.92
489.948	4274.85
490.318	4387.84
490.688	4417.44
491.058	4505.12
491.428	4614.72
491.798	4647.72
492.168	4800.48
492.538	4876.41
492.908	4924.32
493.278	5045.9
493.648	5086.58
494.017	5172.67
494.387	5229.4
494.757	5308.04
495.126	5401.14
495.496	5435.72
495.866	5536.96
496.235	5617.86
496.605	5668.03
496.974	5733.79
497.344	5807.01
497.713	5821.92
498.082	5954.8
498.452	6075.25
498.821	6092.65
499.19	6124.74
499.559	6187.79
499.928	6295.13
500.298	6325.41
500.667	6382.59
501.036	6467.1
501.405	6543.03
501.774	6541.23
502.143	6621.45
502.512	6674.1
502.88	6731.05
503.249	6784.61
503.618	6863.7
503.987	6875.45
504.356	6932.4
504.724	6962.91
505.093	7081.55
505.462	7110.48
505.83	7182.34
506.199	7298.72
506.567	7281.32
506.936	7273.41
507.304	7427.98
507.672	7495.78
508.041	7551.37
508.409	7606.96
508.777	7616.45
509.145	7701.2
509.514	7701.65
509.882	7823.9
510.25	7846.73
510.618	7916.11
510.986	7910.23
511.354	7980.28
511.722	8058.7
512.09	8060.06
512.458	8095.54
512.826	8175.76
513.193	8186.38
513.561	8284.01
513.929	8329.88
514.297	8411.23
514.664	8449.42
515.032	8470.44
515.4	8495.98
515.767	8613.71
516.135	8654.17
516.502	8623.43
516.869	8740.49
517.237	8723.09
517.604	8747.5
517.972	8828.17
518.339	8834.95
518.706	8873.14
519.073	8885.12
519.44	8987.94
519.808	9051.22
520.175	9076.98
520.542	9164.43
520.909	9215.96
521.276	9191.78
521.643	9280.59
522.009	9353.36
522.376	9368.95
522.743	9397.65
523.11	9516.52
523.477	9602.61
523.843	9669.51
524.21	9730.97
524.577	9748.83
524.943	9808.26
525.31	9837.18
525.676	9937.07
526.043	10011.42
526.409	10023.39
526.776	10077.4
527.142	10156.95
527.508	10198.76
527.874	10228.36
528.241	10286.44
528.607	10375.48
528.973	10459.54
529.339	10466.09
529.705	10553.32
530.071	10582.7
530.437	10617.96
530.803	10755.35
531.169	10811.85
531.535	10799.19
531.901	10773.21
532.267	10873.99
532.632	10942.69
532.998	10987.21
533.364	11029.24
533.73	11049.36
534.095	11170.03
534.461	11235.34
534.826	11247.77
535.192	11331.61
535.557	11370.03
535.923	11369.57
536.288	11447.09
536.653	11400.31
537.019	11469.23
537.384	11548.78
537.749	11579.96
538.114	11631.04
538.479	11586.07
538.845	11790.35
539.21	11752.39
539.575	11706.29
539.94	11858.83
540.305	11958.71
540.67	11919.39
541.034	12001.2
541.399	12031.48
541.764	12107.63
542.129	12108.76
542.494	12112.15
542.858	12230.57
543.223	12253.39
543.587	12296.1
543.952	12387.17
544.316	12393.05
544.681	12333.16
545.045	12529.09
545.41	12606.6
545.774	12538.13
546.138	12604.34
546.503	12602.31
546.867	12695.41
547.231	12765.02
547.595	12896.77
547.959	12878.01
548.324	12858.12
548.688	12943.54
549.052	13091.11
549.416	13092.92
549.779	13078.68
550.143	13111.9
550.507	13267.6
550.871	13200.94
551.235	13178.34
551.599	13303.08
551.962	13386.92
552.326	13398.9
552.689	13439.12
553.053	13390.31
553.417	13475.06
553.78	13616.07
554.143	13570.87
554.507	13677.54
554.87	13629.4
555.234	13797.76
555.597	13752.56
555.96	13761.83
556.323	13793.92
556.686	13901.71
557.05	14025.55
557.413	13951.88
557.776	13986
558.139	14097.19
558.502	14083.85
558.865	14252.44
559.228	14263.96
559.59	14383.05
559.953	14336.95
560.316	14514.35
560.679	14461.92
561.041	14583.73
561.404	14628.02
561.767	14661.92
562.129	14718.41
562.492	14803.61
562.854	14853.55
563.217	14771.97
563.579	14865.53
563.941	14919.76
564.304	14953.89
564.666	15004.28
565.028	15019.42
565.39	15170.83
565.753	15171.73
566.115	15204.73
566.477	15320.2
566.839	15321.33
567.201	15430.94
567.563	15430.48
567.925	15519.52
568.287	15631.61
568.648	15629.57
569.01	15692.62
569.372	15785.95
569.734	15694.21
570.095	15933.07
570.457	15959.06
570.819	15975.55
571.18	15987.98
571.542	16193.4
571.903	16094.65
572.265	16295.32
572.626	16353.85
572.987	16345.94
573.349	16393.17
573.71	16507.29
574.071	16606.5
574.432	16797.45
574.794	16876.77
575.155	16896.89
575.516	16940.5
575.877	17108.41
576.238	17157.44
576.599	17408.96
576.96	17420.04
577.32	17403.54
577.681	17731.44
578.042	17806.01
578.403	17818.67
578.763	17897.54
579.124	18133.01
579.485	18284.42
579.845	18537.97
580.206	18613.23
580.566	18819.77
580.927	18916.04
581.287	19114.68
581.648	19219.54
582.008	19429.25
582.368	19583.37
582.728	19772.29
583.089	19954.43
583.449	20066.97
583.809	20356.23
584.169	20514.42
584.529	20719.16
584.889	21116.44
585.249	21082.99
585.609	21250.22
585.969	21649.98
586.329	21769.53
586.688	22066.02
587.048	22341.71
587.408	22545.55
587.768	22693.12
588.127	22983.51
588.487	23107.34
588.846	23613.09
589.206	23657.39
589.565	23993.65
589.925	24282.91
590.284	24406.97
590.643	24792.05
591.003	25053.28
591.362	25318.59
591.721	25541.4
592.08	25771
592.44	26071.56
592.799	26467.48
593.158	26667.25
593.517	26861.14
593.876	27118.54
594.235	27419.77
594.593	27596.94
594.952	28102.47
595.311	28133.88
595.67	28551.27
596.029	28941.99
596.387	29128.2
596.746	29429.89
597.104	29648.87
597.463	29865.36
597.822	30299.7
598.18	30371.33
598.538	30490.65
598.897	30995.95
599.255	30979.45
599.613	31661.02
599.972	31592.32
600.33	31909.15
600.688	32191.63
601.046	32351.62
601.404	32690.6
601.762	32844.04
602.12	33226.17
602.478	33540.29
602.836	33749.1
603.194	33634.3
603.552	34184.57
603.91	33986.61
604.268	34460.49
604.625	34639.47
604.983	34891.22
605.341	34883.98
605.698	35254.82
606.056	35602.84
606.413	35563.97
606.771	35861.81
607.128	35955.82
607.485	36134.8
607.843	36361.23
608.2	36699.08
608.557	36817.94
608.914	36831.5
609.272	37259.06
609.629	37311.72
609.986	37565.5
610.343	37541.09
610.7	38012.26
611.057	38088.42
611.414	38207.51
611.771	38347.62
612.127	38539.03
612.484	38728.63
612.841	39065.79
613.198	38821.51
613.554	39144.89
613.911	39342.85
614.267	39536.74
614.624	39523.41
614.98	39763.86
615.337	40075.26
615.693	40011.98
616.05	40135.15
616.406	40437.96
616.762	40449.71
617.118	40407.91
617.475	40541.91
617.831	40788.91
618.187	40908.23
618.543	40912.75
618.899	41313.19
619.255	41242.01
619.611	41298.73
619.967	41517.48
620.323	41625.95
620.678	41614.2
621.034	41505.28
621.39	41701.88
621.746	41691.04
622.101	42159.95
622.457	41944.36
622.812	42087.64
623.168	42220.97
623.523	42260.06
623.879	42394.97
624.234	42130.57
624.589	42379.61
624.945	42482.2
625.3	42671.35
625.655	42609.2
626.01	42658.24
626.365	42785.02
626.72	42736.88
627.075	42761.52
627.43	42872.02
627.785	42813.72
628.14	42982.98
628.495	43045.58
628.85	43035.18
629.205	42783.44
629.559	43257.55
629.914	42984.34
630.269	43182.3
630.623	43062.53
630.978	42910.44
631.332	43018.23
631.687	43263.88
632.041	42990.89
632.396	43186.36
632.75	43021.17
633.104	43220.71
633.459	42873.83
633.813	43052.13
634.167	43197.66
634.521	43052.58
634.875	43170.09
635.229	43025.01
635.583	42868.86
635.937	42936.65
636.291	42922.64
636.645	42992.25
636.999	42955.41
637.352	43091.68
637.706	42870.89
638.06	43109.53
638.413	43043.09
638.767	42802.19
639.121	43034.28
639.474	42802.65
639.828	42909.99
640.181	42937.11
640.534	42886.94
640.888	42828.41
641.241	42594.74
641.594	42764.68
641.947	42867.05
642.301	42769.65
642.654	42739.14
643.007	42740.05
643.36	42805.81
643.713	42689.2
644.066	42897.56
644.419	42534.4
644.771	42364.69
645.124	41910.24
645.477	41970.58
645.83	41747.98
646.182	41460.76
646.535	41573.07
646.888	41591.38
647.24	41269.8
647.593	41485.62
647.945	41430.7
648.298	41226.64
648.65	41241.1
649.002	41223.48
649.355	41439.52
649.707	41162.46
650.059	41396.81
650.411	41934.42
650.763	42046.73
651.115	42311.59
651.467	42389.55
651.819	42147.75
652.171	42187.97
652.523	42003.34
652.875	42147.3
653.227	41941.2
653.578	42170.35
653.93	42032.04
654.282	41815.1
654.633	41898.26
654.985	41997.7
655.337	41916.79
655.688	41969.67
656.039	42055.55
656.391	41749.79
656.742	41848.55
657.094	41961.31
657.445	41944.14
657.796	41932.16
658.147	41719.96
658.498	41814.2
658.849	41854.65
659.2	41746.18
659.551	41733.3
659.902	41762.22
660.253	41797.47
660.604	41861.88
660.955	41608.78
661.306	41799.73
661.656	41671.15
662.007	41718.15
662.358	41851.94
662.708	41716.35
663.059	41620.53
663.409	41394.55
663.76	41709.57
664.11	41735.56
664.461	41763.8
664.811	41745.05
665.161	41685.61
665.511	41605.16
665.862	41717.7
666.212	41746.85
666.562	41614.88
666.912	41546.86
667.262	41549.57
667.612	41604.94
667.962	41639.74
668.312	41560.64
668.662	41667.31
669.011	41682.9
669.361	41563.13
669.711	41518.39
670.06	41346.86
670.41	41281.1
670.76	41350.71
671.109	41408.56
671.459	41524.71
671.808	41293.53
672.157	41340.76
672.507	41157.49
672.856	41198.62
673.205	41210.6
673.554	41342.35
673.904	41222.57
674.253	41477.48
674.602	41231.39
674.951	40693.77
675.3	40672.31
675.649	41223.48
675.998	41169.69
676.346	41108.9
676.695	41296.24
677.044	40955.91
677.393	41069.36
677.741	41156.59
678.09	41109.36
678.438	40767.67
678.787	41025.07
679.135	40914.56
679.484	40805.86
679.832	41124.72
680.181	40630.95
680.529	40844.05
680.877	40756.82
681.225	40688.58
681.573	40916.82
681.922	40554.57
682.27	40454.23
682.618	40339.21
682.966	40329.94
683.314	40386.44
683.661	40324.74
684.009	40137.18
684.357	40200.45
684.705	40124.52
685.053	40144.64
685.4	40062.6
685.748	39908.26
686.095	39840.01
686.443	39774.25
686.79	39725.89
687.138	39737.42
687.485	39651.54
687.832	39649.73
688.18	39634.82
688.527	39310.53
688.874	39254.72
689.221	39356.63
689.568	39187.37
689.915	39126.36
690.262	39193.93
690.609	39045.68
690.956	38924.1
691.303	38747.84
691.65	38700.15
691.997	38490.89
692.344	38491.57
692.69	38362.54
693.037	38432.37
693.383	38129.77
693.73	38267.85
694.077	38090.68
694.423	38132.94
694.769	38036.9
695.116	37885.71
695.462	37778.6
695.808	37753.06
696.155	37724.81
696.501	37517.59
696.847	37534.99
697.193	37262
697.539	37363.47
697.885	37010.93
698.231	37055.9
698.577	37032.85
698.923	36888
699.269	36799.64
699.614	36546.09
699.96	36531.85
700.306	36600.55
700.651	36435.36
700.997	36284.4
701.342	36251.41
701.688	36148.58
702.033	36017.06
702.379	36022.49
702.724	35914.69
703.069	35890.51
703.415	35621.59
703.76	35653.68
704.105	35587.47
704.45	35480.35
704.795	35354.93
705.14	35352.22
705.485	35191.55
705.83	35150.64
706.175	35050.99
706.52	35034.94
706.865	34829.3
707.209	34881.72
707.554	34789.07
707.899	34809.64
708.243	34510.21
708.588	34575.52
708.932	34384.79
709.277	34350.44
709.621	34402.87
709.966	34208.07
710.31	34290.78
710.654	34069.54
710.998	34008.53
711.342	33910.68
711.687	33830.23
712.031	33803.56
712.375	33621.64
712.719	33796.78
713.063	33545.26
713.407	33776.22
713.75	33464.13
714.094	33522.44
714.438	33239.73
714.782	33422.55
715.125	33297.58
715.469	33238.15
715.812	32953.64
716.156	32910.02
716.499	32920.65
716.843	33026.18
717.186	32793.19
717.53	32988.44
717.873	32985.28
718.216	32757.71
718.559	32571.5
718.902	32432.97
719.246	32607.21
719.589	32472.07
719.932	32230.27
720.275	32350.72
720.617	32329.7
720.96	32230.49
721.303	32150.5
721.646	32143.04
721.989	31959.77
722.331	32057.84
722.674	31997.96
723.016	32003.83
723.359	31900.33
723.701	31844.29
724.044	31731.75
724.386	31567.23
724.729	31708.25
725.071	31660.11
725.413	31552.77
725.755	31552.32
726.097	31359.78
726.439	31284.98
726.782	31258.77
727.124	31369.05
727.465	31262.16
727.807	31230.97
728.149	31189.62
728.491	31125.66
728.833	31182.39
729.175	31017.87
729.516	31029.62
729.858	30904.43
730.199	30895.84
730.541	30889.29
730.882	30795.73
731.224	30799.12
731.565	30667.6
731.906	30624.21
732.248	30672.12
732.589	30571.1
732.93	30489.52
733.271	30458.79
733.612	30451.78
733.953	30586.47
734.294	30313.48
734.635	30228.06
734.976	30470.31
735.317	30217.67
735.658	30129.76
735.999	30219.25
736.339	30087.5
736.68	30249.53
737.021	30092.02
737.361	29883.89
737.702	30041.63
738.042	29889.54
738.383	29879.6
738.723	29879.82
739.063	29745.81
739.404	29832.59
739.744	29721.63
740.084	29698.81
740.424	29671.47
740.764	29601.86
741.104	29658.81
741.444	29596.21
741.784	29462.88
742.124	29506.05
742.464	29454.97
742.804	29394.86
743.143	29195.32
743.483	29360.74
743.823	29211.82
744.162	29239.84
744.502	29165.04
744.841	29064.7
745.181	29146.28
745.52	28908.55
745.86	29076.45
746.199	28930.69
746.538	29016.57
746.877	29021.09
747.216	29021.09
747.556	28872.84
747.895	28869.45
748.234	28730.93
748.573	28723.02
748.911	28711.26
749.25	28595.11
749.589	28564.15
749.928	28607.31
750.267	28493.87
750.605	28432.85
750.944	28384.49
751.283	28329.58
751.621	28284.16
751.96	28282.12
752.298	28128.68
752.636	28255.01
752.975	28090.26
753.313	28000.55
753.651	28103.15
753.989	27908.8
754.327	27907.67
754.666	27790.39
755.004	27839.2
755.342	27857.05
755.679	27770.95
756.017	27594.46
756.355	27627.68
756.693	27561.46
757.031	27609.37
757.368	27413.9
757.706	27307.69
758.044	27260.46
758.381	27303.62
758.719	27198.54
759.056	27209.61
759.394	27072.44
759.731	26987.47
760.068	26929.16
760.405	26861.37
760.743	26744.31
761.08	26913.57
761.417	26754.71
761.754	26673.35
762.091	26499.57
762.428	26383.87
762.765	26355.85
763.102	26449.4
763.438	26255.28
763.775	26200.6
764.112	26181.16
764.449	26240.14
764.785	26019.58
765.122	25916.31
765.458	25835.18
765.795	25686.03
766.131	25609.43
766.467	25787.05
766.804	25602.19
767.14	25512.93
767.476	25358.58
767.812	25348.42
768.148	25313.61
768.485	25046.28
768.821	24980.06
769.157	25087.18
769.492	24869.33
769.828	24888.54
770.164	24686.51
770.5	24543.01
770.836	24572.16
771.171	24416.69
771.507	24375.11
771.842	24168.11
772.178	24180.76
772.513	24214.43
772.849	24033.65
773.184	23991.61
773.519	23992.52
773.855	23854.44
774.19	23778.51
774.525	23637.5
774.86	23699.19
775.195	23516.83
775.53	23423.95
775.865	23293.33
776.2	23152.77
776.535	23067.8
776.87	22998.42
777.205	22939.21
777.539	22968.14
777.874	22849.5
778.209	22637.98
778.543	22646.11
778.878	22526.12
779.212	22542.61
779.547	22342.39
779.881	22465.55
780.215	22335.39
780.55	22272.11
780.884	22086.13
781.218	22055.17
781.552	22090.87
781.886	21922.29
782.22	21803.88
782.554	21751.67
782.888	21536.76
783.222	21428.07
783.556	21377.22
783.889	21320.5
784.223	21215.42
784.557	21239.37
784.89	21220.84
785.224	21052.26
785.557	20981.3
785.891	20917.57
786.224	20759.84
786.558	20816.56
786.891	20622.66
787.224	20549.9
787.557	20522.1
787.891	20588.54
788.224	20500.41
788.557	20459.05
788.89	20290.47
789.223	20370.69
789.556	20053.64
789.888	20028.56
790.221	20009.8
790.554	19875.79
790.887	19863.14
791.219	19735.68
791.552	19796.25
791.884	19637.83
792.217	19555.8
792.549	19588.11
792.882	19399.19
793.214	19295.69
793.546	19414.56
793.879	19208.24
794.211	19180.22
794.543	19112.42
794.875	19168.01
795.207	19152.65
795.539	19049.6
795.871	19013.89
796.203	18805.08
796.535	18756.05
796.867	18705.88
797.198	18665.43
797.53	18669.95
797.862	18494.13
798.193	18555.37
798.525	18444.42
798.856	18481.25
799.188	18201.26
799.519	18162.62
799.85	18092.34
800.182	18171.65
800.513	18075.61
800.844	17943.41
801.175	18020.47
801.506	18048.04
801.837	17919.23
802.168	17787.94
802.499	17834.04
802.83	17629.3
803.161	17618.9
803.491	17585.46
803.822	17535.97
804.153	17529.64
804.483	17339.13
804.814	17385.91
805.145	17376.42
805.475	17298.68
805.805	17192.25
806.136	17151.79
806.466	17138.69
806.796	17143.66
807.126	17062.31
807.457	16903.21
807.787	17024.34
808.117	16773.5
808.447	16756.32
808.777	16935.98
809.107	16748.19
809.436	16697.57
809.766	16637.46
810.096	16537.57
810.426	16515.65
810.755	16498.48
811.085	16390.68
811.414	16454.86
811.744	16291.48
812.073	16251.25
812.403	16371.48
812.732	16201.31
813.061	16177.36
813.39	16121.09
813.719	15982.33
814.049	16147.53
814.378	16025.27
814.707	16025.72
815.036	16011.26
815.365	15859.85
815.693	15702.12
816.022	15725.39
816.351	15756.35
816.68	15615.34
817.008	15578.05
817.337	15456.7
817.665	15583.93
817.994	15560.88
818.322	15479.75
818.651	15429.81
818.979	15428.68
819.307	15459.64
819.636	15386.42
819.964	15215.12
820.292	15336.7
820.62	15309.81
820.948	15226.42
821.276	15394.33
821.604	15336.48
821.932	15313.88
822.259	15232.3
822.587	15217.61
822.915	15251.51
823.243	15320.88
823.57	15197.27
823.898	15257.83
824.225	15185.52
824.553	15132.19
824.88	15150.04
825.207	15165.18
825.535	15181
825.862	15181.9
826.189	15082.7
826.516	15248.12
826.843	15157.5
827.17	15194.78
827.497	15224.39
827.824	15168.12
828.151	15110.49
828.478	15106.65
828.805	15183.26
829.131	15134.67
829.458	15164.5
829.785	15019.65
830.111	15101.91
830.438	15144.84
830.764	15158.4
831.09	15186.87
831.417	14993.21
831.743	15156.59
832.069	15018.97
832.395	15065.75
832.722	15067.1
833.048	14984.17
833.374	15036.14
833.7	15003.15
834.026	15021.91
834.351	14987.56
834.677	14965.19
835.003	14970.16
835.329	15004.05
835.654	14982.36
835.98	14854.91
836.306	14861.69
836.631	14861.01
836.956	14851.97
837.282	14833.66
837.607	14768.58
837.932	14770.61
838.258	14800.44
838.583	14703.95
838.908	14656.72
839.233	14634.8
839.558	14536.72
839.883	14578.08
840.208	14520.68
840.533	14567.91
840.858	14494.24
841.182	14507.8
841.507	14501.92
841.832	14447.91
842.156	14341.47
842.481	14446.33
842.805	14373.34
843.13	14294.69
843.454	14295.6
843.778	14206.79
844.103	14112.78
844.427	14164.53
844.751	14196.84
845.075	14148.71
845.399	14093.34
845.723	13938.09
846.047	14044.76
846.371	13907.59
846.695	13834.14
847.019	13699.91
847.343	13721.83
847.666	13628.05
847.99	13569.97
848.313	13637.76
848.637	13488.84
848.96	13582.17
849.284	13413.36
849.607	13396.19
849.931	13296.75
850.254	13200.26
850.577	13138.34
850.9	13121.62
851.223	13142.86
851.546	13016.99
851.869	12951
852.192	12994.16
852.515	12975.18
852.838	12836.43
853.161	12851.12
853.483	12727.73
853.806	12646.83
854.129	12653.61
854.451	12631.46
854.774	12549.2
855.096	12527.28
855.419	12513.95
855.741	12473.27
856.063	12391.92
856.385	12366.84
856.708	12264.01
857.03	12255.65
857.352	12263.79
857.674	12144.47
857.996	12191.47
858.318	12063.34
858.64	12134.53
858.961	12055.88
859.283	12038.03
859.605	12031.93
859.926	12000.74
860.248	11899.96
860.57	11888.66
860.891	11931.59
861.212	11931.37
861.534	11751.94
861.855	11810.69
862.176	11719.62
862.498	11749.22
862.819	11774.08
863.14	11630.13
863.461	11649.57
863.782	11690.47
864.103	11687.98
864.424	11580.64
864.745	11637.82
865.065	11558.04
865.386	11517.14
865.707	11465.84
866.027	11513.3
866.348	11494.77
866.668	11433.3
866.989	11417.93
867.309	11363.92
867.63	11430.14
867.95	11375
868.27	11347.65
868.59	11358.05
868.91	11260.88
869.23	11314.66
869.55	11252.97
869.87	11322.12
870.19	11252.06
870.51	11242.8
870.83	11290.03
871.15	11158.05
871.469	11108.56
871.789	11198.05
872.109	11168.22
872.428	11063.82
872.748	11146.08
873.067	11000.32
873.386	11054.33
873.706	11050.03
874.025	10971.39
874.344	10947.66
874.663	10998.96
874.982	10972.75
875.301	10929.81
875.62	10906.08
875.939	10942.24
876.258	10891.39
876.577	10893.43
876.896	10883.03
877.214	10803.94
877.533	10902.47
877.852	10842.13
878.17	10816.82
878.489	10797.39
878.807	10830.61
879.125	10736.14
879.444	10697.5
879.762	10664.06
880.08	10695.47
880.398	10660.44
880.716	10598.29
881.034	10582.7
881.352	10581.35
881.67	10572.76
881.988	10531.18
882.306	10563.04
882.624	10468.58
882.941	10496.6
883.259	10485.53
883.577	10457.51
883.894	10373.44
884.212	10354.23
884.529	10372.09
884.846	10380
885.164	10292.77
885.481	10257.96
885.798	10237.63
886.115	10249.38
886.432	10186.78
886.75	10151.75
887.067	10185.42
887.383	10074.69
887.7	10102.04
888.017	10059.1
888.334	10111.3
888.651	9990.85
888.967	10021.81
889.284	9977.29
889.6	9943.85
889.917	9882.83
890.233	9886.45
890.55	9798.32
890.866	9837.64
891.182	9782.5
891.498	9777.3
891.815	9718.77
892.131	9725.78
892.447	9666.79
892.763	9711.31
893.079	9675.16
893.395	9657.3
893.71	9613.69
894.026	9582.73
894.342	9532.79
894.657	9535.05
894.973	9464.77
895.289	9455.5
895.604	9421.15
895.92	9401.49
896.235	9298.44
896.55	9343.41
896.865	9260.93
897.181	9257.99
897.496	9339.34
897.811	9171.67
898.126	9127.37
898.441	9149.29
898.756	9084.44
899.071	9037.21
899.386	9060.71
899.7	9007.83
900.015	8968.73
900.33	8882.41
900.644	8945.23
900.959	8928.73
901.273	8872.69
901.588	8778
901.902	8811.9
902.216	8721.06
902.531	8711.11
902.845	8696.65
903.159	8606.93
903.473	8646.03
903.787	8545.24
904.101	8558.12
904.415	8501.85
904.729	8488.07
905.042	8492.36
905.356	8422.08
905.67	8404.23
905.984	8372.36
906.297	8379.37
906.611	8300.95
906.924	8351.12
907.237	8300.05
907.551	8208.75
907.864	8244.01
908.177	8145.48
908.491	8075.2
908.804	8071.81
909.117	8081.75
909.43	8029.55
909.743	8022.32
910.056	7926.73
910.368	7892.15
910.681	7892.15
910.994	7862.32
911.307	7837.01
911.619	7768.99
911.932	7810.12
912.244	7753.17
912.557	7709.33
912.869	7629.33
913.181	7655.55
913.494	7678.15
913.806	7540.97
914.118	7560.63
914.43	7448.32
914.742	7550.47
915.054	7408.55
915.366	7382.11
915.678	7412.16
915.99	7357.02
916.302	7330.81
916.613	7257.82
916.925	7222.79
917.236	7188.89
917.548	7190.25
917.859	7212.62
918.171	7134.66
918.482	7076.13
918.794	7037.26
919.105	6998.84
919.416	7029.35
919.727	6998.16
920.038	6966.53
920.349	6910.48
920.66	6884.04
920.971	6862.57
921.282	6890.37
921.593	6769.92
921.903	6810.82
922.214	6716.36
922.525	6691.73
922.835	6701.67
923.146	6686.08
923.456	6602.02
923.767	6558.4
924.077	6641.11
924.387	6548.68
924.697	6524.73
925.008	6488.35
925.318	6410.83
925.628	6460.78
925.938	6415.35
926.248	6324.96
926.558	6337.62
926.867	6329.03
927.177	6251.06
927.487	6263.95
927.796	6232.08
928.106	6281.12
928.416	6213.78
928.725	6188.47
929.034	6109.15
929.344	6165.64
929.653	6073.22
929.962	6044.06
930.271	6039.77
930.581	6014.69
930.89	5982.82
931.199	5930.17
931.508	5915.03
931.817	5925.2
932.125	5959.55
932.434	5875.26
932.743	5846.78
933.051	5824.86
933.36	5846.33
933.669	5725.43
933.977	5756.84
934.286	5747.12
934.594	5686.33
934.902	5679.55
935.21	5626
935.519	5648.37
935.827	5615.37
936.135	5602.72
936.443	5527.92
936.751	5524.3
937.059	5531.31
937.367	5482.5
937.674	5461.25
937.982	5447.7
938.29	5424.65
938.597	5422.84
938.905	5358.88
939.213	5317.76
939.52	5304.87
939.827	5268.04
940.135	5276.17
940.442	5246.12
940.749	5258.32
941.056	5231.2
941.363	5177.42
941.67	5157.31
941.977	5116.63
942.284	5114.37
942.591	5088.61
942.898	5090.64
943.205	5046.8
943.511	5037.31
943.818	4986.46
944.125	4946.92
944.431	4922.51
944.738	4971.1
945.044	4883.87
945.35	4843.64
945.657	4869.63
945.963	4894.94
946.269	4791.22
946.575	4783.53
946.881	4814.27
947.187	4768.62
947.493	4744.89
947.799	4753.93
948.105	4677.77
948.41	4725.45
948.716	4662.18
949.022	4673.03
949.327	4687.72
949.633	4570.88
949.938	4602.97
950.244	4603.88
950.549	4573.14
950.854	4544.89
951.16	4524.56
951.465	4512.81
951.77	4459.25
952.075	4465.57
952.38	4428.51
952.685	4429.87
952.99	4361.85
953.294	4375.18
953.599	4369.31
953.904	4305.8
954.209	4306.48
954.513	4284.79
954.818	4279.59
955.122	4227.61
955.426	4224
955.731	4215.64
956.035	4209.76
956.339	4206.82
956.643	4169.76
956.948	4176.32
957.252	4108.3
957.556	4089.09
957.86	4047.05
958.163	4069.65
958.467	4057.9
958.771	4068.3
959.075	4044.79
959.378	4004.34
959.682	3949.43
959.985	3967.73
960.289	3969.54
960.592	3965.02
960.896	3922.99
961.199	3904.46
961.502	3934.29
961.805	3900.62
962.108	3892.48
962.411	3841.86
962.714	3824.24
963.017	3767.06
963.32	3796.21
963.623	3742.66
963.926	3778.36
964.228	3722.09
964.531	3715.09
964.833	3774.97
965.136	3666.27
965.438	3665.37
965.741	3668.53
966.043	3650.23
966.345	3618.37
966.648	3625.82
966.95	3591.25
967.252	3589.67
967.554	3580.4
967.856	3582.21
968.158	3499.95
968.46	3526.39
968.761	3498.37
969.063	3547.63
969.365	3480.97
969.666	3439.16
969.968	3443.91
970.269	3431.93
970.571	3391.03
970.872	3365.72
971.174	3346.28
971.475	3352.84
971.776	3352.84
972.077	3380.18
972.378	3325.72
972.679	3343.8
972.98	3311.93
973.281	3270.58
973.582	3266.96
973.883	3259.73
974.183	3262.44
974.484	3248.66
974.785	3182.44
975.085	3217.25
975.386	3196
975.686	3169.79
975.986	3160.75
976.287	3134.31
976.587	3119.62
976.887	3095.22
977.187	3126.85
977.487	3071.04
977.787	3064.03
978.087	3043.24
978.387	3056.8
978.687	3010.92
978.987	3010.47
979.286	3011.38
979.586	2961.66
979.885	2951.72
980.185	2962.11
980.484	2951.49
980.784	2942.22
981.083	2930.25
981.382	2939.97
981.682	2885.28
981.981	2877.82
982.28	2902.45
982.579	2878.95
982.878	2837.14
983.177	2812.06
983.475	2817.48
983.774	2822.68
984.073	2827.2
984.372	2751.95
984.67	2757.82
984.969	2779.29
985.267	2740.87
985.566	2716.92
985.864	2742.68
986.162	2708.11
986.461	2698.16
986.759	2692.74
987.057	2683.93
987.355	2651.61
987.653	2642.35
987.951	2630.59
988.249	2611.84
988.547	2641.22
988.844	2602.35
989.142	2604.61
989.44	2570.71
989.737	2574.32
990.035	2533.65
990.332	2565.29
990.63	2560.09
990.927	2517.38
991.224	2489.58
991.521	2506.98
991.819	2482.8
992.116	2516.7
992.413	2458.62
992.71	2405.97
993.006	2470.6
993.303	2423.59
993.6	2398.28
993.897	2412.52
994.193	2390.15
994.49	2401.22
994.787	2389.92
995.083	2340.88
995.379	2330.04
995.676	2336.59
995.972	2340.66
996.268	2320.32
996.565	2301.34
996.861	2305.41
997.157	2299.3
997.453	2267.89
997.749	2308.34
998.044	2225.63
998.34	2221.57
998.636	2224.96
998.932	2207.78
999.227	2197.84
999.523	2168.01
999.818	2175.92
1000.114	2183.83
1000.409	2123.04
1000.704	2159.42
1001	2125.3
1001.295	2149.03
1001.59	2151.29
1001.885	2120.78
1002.18	2086.2
1002.475	2093.21
1002.77	2072.87
1003.065	2078.52
1003.359	2052.76
1003.654	2001.46
1003.949	2046.43
1004.243	2015.92
1004.538	2013.89
1004.832	2001.01
1005.127	1984.74
1005.421	1963.04
1005.715	1943.61
1006.009	1983.15
1006.304	1973.89
1006.598	1955.13
1006.892	1904.29
1007.186	1892.08
1007.48	1919.2
1007.773	1897.51
1008.067	1880.56
1008.361	1884.63
1008.655	1864.74
1008.948	1859.54
1009.242	1807.34
1009.535	1815.02
1009.829	1794.91
1010.122	1791.52
1010.415	1779.32
1010.708	1783.61
1011.001	1772.31
1011.295	1766.89
1011.588	1740
1011.881	1758.75
1012.173	1753.1
1012.466	1725.31
1012.759	1711.52
1013.052	1700
1013.344	1675.14
1013.637	1689.83
1013.93	1681.47
1014.222	1669.04
1014.514	1646.67
1014.807	1636.72
1015.099	1618.64
1015.391	1626.33
1015.683	1600.34
1015.976	1624.75
1016.268	1567.35
1016.56	1584.97
1016.851	1540.68
1017.143	1581.36
1017.435	1549.95
1017.727	1535.93
1018.018	1521.47
1018.31	1507.69
1018.602	1504.75
1018.893	1500.68
1019.185	1507.91
1019.476	1486.67
1019.767	1480.12
1020.058	1470.63
1020.35	1462.94
1020.641	1429.27
1020.932	1427.01
1021.223	1429.5
1021.514	1417.97
1021.804	1392.89
1022.095	1406.22
1022.386	1431.98
1022.677	1386.33
1022.967	1368.93
1023.258	1382.49
1023.548	1330.97
1023.839	1363.74
1024.129	1357.41
1024.419	1328.03
1024.709	1303.62
1025	1319.22
1025.29	1272.21
1025.58	1277.86
1025.87	1284.87
1026.16	1273.34
1026.449	1294.58
1026.739	1258.43
1027.029	1243.96
1027.319	1257.07
1027.608	1236.96
1027.898	1218.43
1028.187	1213.23
1028.477	1212.33
1028.766	1202.16
1029.055	1204.19
1029.344	1188.82
1029.634	1191.99
1029.923	1159.45
1030.212	1163.06
1030.501	1156.28
1030.79	1155.38
1031.078	1144.76
1031.367	1145.44
1031.656	1129.62
1031.945	1130.75
1032.233	1121.26
1032.522	1127.81
1032.81	1096.4
1033.099	1090.3
1033.387	1083.74
1033.675	1092.33
1033.963	1060.92
1034.251	1065.89
1034.54	1053.46
1034.828	1069.05
1035.116	1053.46
1035.403	1024.08
1035.691	1030.41
1035.979	1015.27
1036.267	1016.85
1036.554	1035.38
1036.842	1001.94
1037.129	987.93
1037.417	989.96
1037.704	994.71
1037.992	981.15
1038.279	961.71
1038.566	951.09
1038.853	951.09
1039.14	951.09
