Data from hue_90_FLMS001491_11.txt Node
Date: Mon Feb 06 15:24:44 GMT 2017
User: dcchb
Spectrometer: FLMS00149
Trigger mode: 0
Integration Time (sec): 2.000000E-2
Scans to average: 10
Electric dark correction enabled: true
Nonlinearity correction enabled: false
Boxcar width: 0
XAxis mode: Wavelengths
Number of Pixels in Spectrum: 2048
>>>>>Begin Spectral Data<<<<<
341.393	-15.23
341.776	-15.23
342.16	-15.23
342.543	-59.74
342.927	-55.22
343.31	-79.4
343.693	-65.85
344.077	-73.98
344.46	-51.83
344.843	-57.94
345.226	-48.67
345.61	-34.89
345.993	-4.15
346.376	-2.12
346.759	-10.48
347.142	31.33
347.525	45.56
347.908	60.03
348.291	73.81
348.674	94.83
349.057	123.75
349.44	122.17
349.823	160.59
350.206	173.92
350.588	189.51
350.971	195.84
351.354	238.55
351.737	224.54
352.119	237.88
352.502	255.95
352.884	281.04
353.267	279.91
353.65	272.45
354.032	280.36
354.414	307.7
354.797	323.52
355.179	327.14
355.562	315.16
355.944	319.68
356.326	308.61
356.709	340.25
357.091	326.23
357.473	333.01
357.855	309.96
358.238	351.32
358.62	339.79
359.002	335.73
359.384	328.49
359.766	347.48
360.148	329.17
360.53	350.19
360.912	336.86
361.294	333.92
361.676	338.44
362.057	333.69
362.439	333.69
362.821	321.49
363.203	312.22
363.584	335.5
363.966	319.23
364.348	329.17
364.729	311.32
365.111	302.96
365.493	314.26
365.874	322.17
366.256	309.51
366.637	295.73
367.019	321.71
367.4	309.96
367.781	299.79
368.163	305.9
368.544	307.93
368.925	310.42
369.306	321.49
369.688	318.78
370.069	324.43
370.45	321.26
370.831	307.48
371.212	313.81
371.593	322.39
371.974	334.82
372.355	311.32
372.736	315.61
373.117	301.6
373.498	310.42
373.879	316.29
374.26	305.9
374.641	310.64
375.021	318.1
375.402	334.82
375.783	328.04
376.163	309.06
376.544	340.7
376.925	311.55
377.305	331.43
377.686	323.3
378.066	330.75
378.447	319.45
378.827	330.98
379.208	337.99
379.588	310.64
379.968	342.73
380.349	358.1
380.729	346.35
381.109	319.91
381.489	341.83
381.87	354.26
382.25	344.09
382.63	339.57
383.01	330.98
383.39	346.57
383.77	314.48
384.15	321.94
384.53	347.02
384.91	364.65
385.29	328.27
385.67	337.76
386.049	338.66
386.429	340.92
386.809	353.13
387.189	355.61
387.568	359.23
387.948	334.6
388.328	359.23
388.707	356.74
389.087	332.11
389.466	336.4
389.846	364.2
390.225	349.51
390.605	352.67
390.984	361.49
391.363	349.06
391.743	369.85
392.122	370.75
392.501	377.31
392.881	363.75
393.26	393.13
393.639	360.58
394.018	388.83
394.397	362.17
394.776	370.98
395.155	370.53
395.534	387.02
395.913	401.49
396.292	381.83
396.671	396.29
397.05	387.48
397.429	373.46
397.808	376.63
398.186	397.42
398.565	401.49
398.944	373.24
399.323	389.51
399.701	383.63
400.08	383.18
400.458	377.98
400.837	407.81
401.215	403.75
401.594	391.09
401.972	407.59
402.351	399.68
402.729	386.57
403.107	389.51
403.486	396.51
403.864	391.77
404.242	393.35
404.62	416.18
404.999	423.63
405.377	396.29
405.755	434.48
406.133	415.5
406.511	404.88
406.889	414.82
407.267	438.55
407.645	435.38
408.023	422.73
408.401	418.44
408.779	414.59
409.156	429.51
409.534	442.62
409.912	444.2
410.29	436.29
410.667	440.13
411.045	455.04
411.422	445.1
411.8	445.1
412.178	460.69
412.555	449.39
412.933	470.64
413.31	460.69
413.687	469.28
414.065	500.92
414.442	467.25
414.819	486.23
415.197	468.38
415.574	467.25
415.951	489.62
416.328	502.73
416.705	502.27
417.082	485.33
417.46	489.39
417.837	462.95
418.214	508.6
418.591	504.76
418.967	489.62
419.344	501.6
419.721	514.93
420.098	516.96
420.475	500.02
420.852	510.41
421.228	522.16
421.605	529.62
421.982	543.18
422.358	535.04
422.735	533.01
423.111	523.52
423.488	534.59
423.864	518.32
424.241	520.35
424.617	528.26
424.994	548.83
425.37	567.36
425.746	550.18
426.123	565.32
426.499	553.8
426.875	557.64
427.251	571.2
427.627	566.91
428.003	580.01
428.379	591.76
428.756	590.86
429.132	589.28
429.507	593.57
429.883	594.02
430.259	617.07
430.635	618.43
431.011	600.8
431.387	639.22
431.763	626.79
432.138	638.77
432.514	637.64
432.89	637.64
433.265	656.4
433.641	665.66
434.016	661.82
434.392	672.21
434.767	692.78
435.143	678.99
435.518	649.39
435.894	668.37
436.269	689.84
436.644	702.5
437.02	700.01
437.395	721.03
437.77	718.09
438.145	704.53
438.52	694.81
438.895	725.77
439.271	709.05
439.646	734.36
440.021	745.88
440.395	718.54
440.77	741.36
441.145	769.16
441.52	766
441.895	756.05
442.27	788.37
442.645	787.69
443.019	808.48
443.394	790.85
443.769	758.99
444.143	783.62
444.518	779.56
444.892	791.98
445.267	804.41
445.641	807.58
446.016	812.78
446.39	825.66
446.764	833.34
447.139	816.62
447.513	791.76
447.887	835.37
448.262	832.21
448.636	860.91
449.01	815.94
449.384	832.21
449.758	833.34
450.132	876.95
450.506	851.64
450.88	879.89
451.254	878.54
451.628	922.6
452.002	912.66
452.376	921.47
452.75	906.11
453.123	929.61
453.497	907.91
453.871	951.75
454.244	942.72
454.618	954.01
454.992	966.67
455.365	1005.76
455.739	992.88
456.112	1010.28
456.486	1020.68
456.859	1032.2
457.232	1020.45
457.606	1034.01
457.979	1027.68
458.352	1075.14
458.725	1077.4
459.099	1071.98
459.472	1077.18
459.845	1102.71
460.218	1125.54
460.591	1135.7
460.964	1156.72
461.337	1140.9
461.71	1163.73
462.083	1197.17
462.456	1184.97
462.829	1204.86
463.201	1228.36
463.574	1250.28
463.947	1247.34
464.32	1267
464.692	1269.03
465.065	1297.06
465.438	1299.09
465.81	1334.34
466.183	1347.22
466.555	1358.07
466.928	1371.63
467.3	1394.68
467.672	1409.37
468.045	1467
468.417	1452.76
468.789	1485.3
469.161	1489.82
469.534	1571.4
469.906	1560.1
470.278	1580.21
470.65	1588.35
471.022	1661.34
471.394	1690.72
471.766	1711.28
472.138	1718.29
472.51	1790.83
472.882	1803.94
473.253	1809.59
473.625	1857.04
473.997	1942.69
474.369	1928
474.74	1924.16
475.112	2007.77
475.484	2077.6
475.855	2078.73
476.227	2137.71
476.598	2221.1
476.97	2251.61
477.341	2322.79
477.713	2376.12
478.084	2411.83
478.455	2491.6
478.827	2549.23
479.198	2618.6
479.569	2660.86
479.94	2765.94
480.311	2820.63
480.682	2862.89
481.053	2986.5
481.424	3072.83
481.795	3090.23
482.166	3252.71
482.537	3310.11
482.908	3412.03
483.279	3475.53
483.65	3561.4
484.021	3678.91
484.391	3762.3
484.762	3807.05
485.133	3933.6
485.503	4023.54
485.874	4182.4
486.244	4228.73
486.615	4344.43
486.985	4412
487.356	4621.94
487.726	4688.38
488.097	4825.33
488.467	4859.45
488.837	5008.6
489.207	5210.17
489.578	5283.84
489.948	5332.66
490.318	5531.97
490.688	5578.07
491.058	5776.94
491.428	5861.46
491.798	5963.6
492.168	6088.12
492.538	6276.13
492.908	6314.55
493.278	6483.13
493.648	6509.12
494.017	6703.69
494.387	6812.84
494.757	6908.66
495.126	7038.37
495.496	7049.22
495.866	7259.84
496.235	7368.54
496.605	7490.11
496.974	7519.49
497.344	7688.98
497.713	7780.95
498.082	7913.38
498.452	7997.45
498.821	8111.79
499.19	8152.47
499.559	8309.3
499.928	8397.43
500.298	8447.38
500.667	8516.98
501.036	8667.48
501.405	8769.85
501.774	8769.63
502.143	8931.66
502.512	8985.67
502.88	9070.41
503.249	9160.58
503.618	9196.96
503.987	9286.9
504.356	9358.09
504.724	9453
505.093	9538.42
505.462	9547.23
505.83	9635.14
506.199	9787
506.567	9871.07
506.936	9832.88
507.304	9992.42
507.672	10043.94
508.041	10091.4
508.409	10200.55
508.777	10258.85
509.145	10296.82
509.514	10353.77
509.882	10390.6
510.25	10374.11
510.618	10475.8
510.986	10557.15
511.354	10650.71
511.722	10710.82
512.09	10808.67
512.458	10777.94
512.826	10875.34
513.193	10833.3
513.561	10875.79
513.929	11023.81
514.297	11010.25
514.664	11122.56
515.032	11104.93
515.4	11147.87
515.767	11187.64
516.135	11279.62
516.502	11209.79
516.869	11318.26
517.237	11392.84
517.604	11368.2
517.972	11496.79
518.339	11526.39
518.706	11490.23
519.073	11496.79
519.44	11523.68
519.808	11699.04
520.175	11646.84
520.542	11693.85
520.909	11728.87
521.276	11689.78
521.643	11828.98
522.009	11851.58
522.376	11880.05
522.743	11954.4
523.11	11982.2
523.477	11968.19
523.843	11986.49
524.21	12171.12
524.577	12137.45
524.943	12171.35
525.31	12164.79
525.676	12291.34
526.043	12321.4
526.409	12361.4
526.776	12422.19
527.142	12271.23
527.508	12320.95
527.874	12389.65
528.241	12451.11
528.607	12396.65
528.973	12460.6
529.339	12424
529.705	12530.66
530.071	12466.71
530.437	12576.76
530.803	12517.78
531.169	12583.54
531.535	12446.59
531.901	12508.51
532.267	12524.78
532.632	12560.26
532.998	12484.56
533.364	12510.32
533.73	12548.06
534.095	12549.19
534.461	12569.53
534.826	12552.58
535.192	12581.73
535.557	12536.76
535.923	12496.31
536.288	12518.46
536.653	12473.03
537.019	12450.66
537.384	12518.46
537.749	12507.83
538.114	12418.8
538.479	12375.64
538.845	12399.36
539.21	12321.17
539.575	12342.64
539.94	12365.47
540.305	12356.65
540.67	12305.81
541.034	12296.09
541.399	12290.67
541.764	12238.69
542.129	12229.2
542.494	12169.09
542.858	12274.85
543.223	12132.93
543.587	12167.05
543.952	12144
544.316	12099.48
544.681	11977.91
545.045	12122.99
545.41	12046.6
545.774	12052.48
546.138	12004.35
546.503	11989.66
546.867	11908.75
547.231	12016.77
547.595	11938.13
547.959	11961.18
548.324	11885.03
548.688	11867.4
549.052	11861.52
549.416	11748.76
549.779	11809.55
550.143	11717.12
550.507	11741.98
550.871	11696.33
551.235	11713.51
551.599	11747.18
551.962	11707.86
552.326	11653.85
552.689	11732.71
553.053	11547.86
553.417	11565.26
553.78	11735.2
554.143	11605.26
554.507	11593.73
554.87	11515.09
555.234	11628.31
555.597	11545.37
555.96	11482.55
556.323	11532.04
556.686	11472.38
557.05	11479.61
557.413	11536.11
557.776	11457.69
558.139	11530.69
558.502	11455.43
558.865	11475.09
559.228	11549.44
559.59	11536.56
559.953	11482.78
560.316	11620.85
560.679	11577.01
561.041	11502.44
561.404	11501.99
561.767	11593.06
562.129	11521.87
562.492	11570.23
562.854	11503.79
563.217	11529.1
563.579	11559.39
563.941	11574.75
564.304	11603.68
564.666	11630.57
565.028	11601.19
565.39	11652.49
565.753	11657.24
566.115	11647.97
566.477	11651.81
566.839	11735.88
567.201	11817.68
567.563	11697.46
567.925	11786.72
568.287	11721.64
568.648	11735.43
569.01	11777.01
569.372	11873.05
569.734	11708.31
570.095	11853.61
570.457	11800.73
570.819	11836.21
571.18	11791.7
571.542	11850
571.903	11778.14
572.265	11867.17
572.626	11840.73
572.987	11925.25
573.349	11884.35
573.71	11954.86
574.071	11990.79
574.432	11961.86
574.794	12064.23
575.155	11971.8
575.516	12002.76
575.877	11954.63
576.238	11942.43
576.599	11934.52
576.96	12055.42
577.32	12011.8
577.681	12130.22
578.042	12019.71
578.403	12038.92
578.763	12050.22
579.124	12024.46
579.485	12043.44
579.845	12006.61
580.206	12132.48
580.566	12031.46
580.927	12008.87
581.287	12008.64
581.648	12056.77
582.008	12075.98
582.368	11978.13
582.728	12109.43
583.089	12064.23
583.449	12040.95
583.809	11968.64
584.169	12036.21
584.529	12004.12
584.889	12041.63
585.249	12022.42
585.609	12010.9
585.969	11989.2
586.329	11995.98
586.688	12005.93
587.048	11904.46
587.408	11941.3
587.768	11993.5
588.127	11974.74
588.487	11893.16
588.846	11988.75
589.206	11888.42
589.565	11867.17
589.925	11924.8
590.284	11866.04
590.643	11916.66
591.003	11872.15
591.362	11904.24
591.721	11915.31
592.08	11942.2
592.44	11946.95
592.799	11879.6
593.158	11890.45
593.517	11913.73
593.876	11945.82
594.235	11847.97
594.593	11844.12
594.952	11840.73
595.311	11807.06
595.67	11887.29
596.029	11899.94
596.387	11883.22
596.746	11917.12
597.104	11815.65
597.463	11879.6
597.822	11890
598.18	11775.65
598.538	11789.66
598.897	11882.31
599.255	11711.47
599.613	11933.16
599.972	11817.01
600.33	11823.11
600.688	11812.94
601.046	11869.21
601.404	11860.17
601.762	11816.78
602.12	11882.54
602.478	11929.09
602.836	11868.3
603.194	11807.74
603.552	11812.71
603.91	11892.48
604.268	11828.53
604.625	11791.7
604.983	11893.16
605.341	11744.69
605.698	11861.75
606.056	11912.14
606.413	11871.69
606.771	11825.14
607.128	11864.01
607.485	11878.7
607.843	11831.69
608.2	11894.29
608.557	11892.03
608.914	11842.54
609.272	11963.44
609.629	11960.5
609.986	11907.62
610.343	11932.48
610.7	12004.57
611.057	11905.36
611.414	11988.53
611.771	11949.66
612.127	12025.81
612.484	11973.61
612.841	12107.85
613.198	12029.66
613.554	12015.42
613.911	12080.05
614.267	12000.05
614.624	11990.11
614.98	12087.51
615.337	12093.83
615.693	11983.55
616.05	12072.82
616.406	12136.77
616.762	12088.18
617.118	12086.38
617.475	12069.88
617.831	12018.13
618.187	12122.76
618.543	12167.05
618.899	12143.78
619.255	12169.99
619.611	12153.04
619.967	12134.06
620.323	12167.28
620.678	12127.96
621.034	12198.24
621.39	12184.23
621.746	12194.17
622.101	12253.83
622.457	12151.46
622.812	12169.31
623.168	12327.5
623.523	12220.38
623.879	12267.39
624.234	12186.71
624.589	12224.45
624.945	12209.76
625.3	12181.29
625.655	12264.9
626.01	12165.7
626.365	12165.92
626.72	12220.16
627.075	12139.94
627.43	12215.64
627.785	12127.28
628.14	12160.5
628.495	12168.86
628.85	12193.49
629.205	12076.21
629.559	12129.54
629.914	12098.58
630.269	12060.39
630.623	12061.52
630.978	12041.63
631.332	12080.73
631.687	12127.05
632.041	12047.73
632.396	12024.91
632.75	12029.66
633.104	12063.33
633.459	12027.4
633.813	11975.87
634.167	11954.86
634.521	11965.25
634.875	11958.47
635.229	11944.46
635.583	11894.97
635.937	11866.95
636.291	11862.43
636.645	11847.06
636.999	11874.18
637.352	11823.79
637.706	11841.41
638.06	11830.11
638.413	11836.67
638.767	11870.79
639.121	11873.95
639.474	11712.6
639.828	11710.12
640.181	11747.18
640.534	11810.45
640.888	11778.81
641.241	11692.49
641.594	11732.49
641.947	11773.62
642.301	11735.43
642.654	11728.65
643.007	11723
643.36	11644.13
643.713	11647.29
644.066	11643.22
644.419	11575.66
644.771	11484.36
645.124	11484.13
645.477	11478.71
645.83	11341.31
646.182	11338.6
646.535	11285.04
646.888	11321.2
647.24	11268.09
647.593	11255.44
647.945	11181.77
648.298	11219.28
648.65	11162.11
649.002	11154.88
649.355	11212.5
649.707	11271.71
650.059	11261.09
650.411	11428.54
650.763	11445.94
651.115	11536.79
651.467	11515.54
651.819	11523
652.171	11528.88
652.523	11474.64
652.875	11472.61
653.227	11463.79
653.578	11533.4
653.93	11516.9
654.282	11493.62
654.633	11445.72
654.985	11515.54
655.337	11432.61
655.688	11508.99
656.039	11481.65
656.391	11371.14
656.742	11418.15
657.094	11477.13
657.445	11529.33
657.796	11413.85
658.147	11455.43
658.498	11368.88
658.849	11558.93
659.2	11445.26
659.551	11421.76
659.902	11488.65
660.253	11494.53
660.604	11485.94
660.955	11460.4
661.306	11584.24
661.656	11541.31
662.007	11457.69
662.358	11483.91
662.708	11523.68
663.059	11538.59
663.409	11403.46
663.76	11501.08
664.11	11549.44
664.461	11502.89
664.811	11509.67
665.161	11544.02
665.511	11474.19
665.862	11487.97
666.212	11489.33
666.562	11526.39
666.912	11512.61
667.262	11528.2
667.612	11494.08
667.962	11526.84
668.312	11526.39
668.662	11533.85
669.011	11460.63
669.361	11471.48
669.711	11457.24
670.06	11406.17
670.41	11408.88
670.76	11452.72
671.109	11524.13
671.459	11436.9
671.808	11445.49
672.157	11471.7
672.507	11380.86
672.856	11387.19
673.205	11391.48
673.554	11470.35
673.904	11445.04
674.253	11465.6
674.602	11404.14
674.951	11249.79
675.3	11206.17
675.649	11399.62
675.998	11342.44
676.346	11211.82
676.695	11381.54
677.044	11233.74
677.393	11287.98
677.741	11344.48
678.09	11203.46
678.438	11245.27
678.787	11294.08
679.135	11318.49
679.484	11172.95
679.832	11195.1
680.181	11218.6
680.529	11227.64
680.877	11221.99
681.225	11072.17
681.573	11235.78
681.922	11066.74
682.27	11059.74
682.618	11110.13
682.966	11066.74
683.314	11062.22
683.661	11015.67
684.009	10972.06
684.357	10893.19
684.705	10920.53
685.053	10911.49
685.4	10806.41
685.748	10852.96
686.095	10847.31
686.443	10781.78
686.79	10758.73
687.138	10818.61
687.485	10777.48
687.832	10746.3
688.18	10772.06
688.527	10638.05
688.874	10681.67
689.221	10634.21
689.568	10595.57
689.915	10544.04
690.262	10588.11
690.609	10523.03
690.956	10485.29
691.303	10416.82
691.65	10433.31
691.997	10389.7
692.344	10343.37
692.69	10306.08
693.037	10368.46
693.383	10180.21
693.73	10298.85
694.077	10199.2
694.423	10208.23
694.769	10081.68
695.116	10096.6
695.462	10069.03
695.808	10038.07
696.155	10061.8
696.501	10029.93
696.847	9953.1
697.193	9866.32
697.539	9909.03
697.885	9838.75
698.231	9815.48
698.577	9751.98
698.923	9728.02
699.269	9692.09
699.614	9691.64
699.96	9620.68
700.306	9624.29
700.651	9575.71
700.997	9573.45
701.342	9536.84
701.688	9450.29
702.033	9454.58
702.379	9455.26
702.724	9408.48
703.069	9451.87
703.415	9288.94
703.76	9305.43
704.105	9360.8
704.45	9299.11
704.795	9222.05
705.14	9216.17
705.485	9140.47
705.83	9137.08
706.175	9137.08
706.52	9064.99
706.865	9052.78
707.209	9001.94
707.554	8946.8
707.899	8977.31
708.243	8911.09
708.588	8929.62
708.932	8827.48
709.277	8802.17
709.621	8874.26
709.966	8770.53
710.31	8796.75
710.654	8738.22
710.998	8778.89
711.342	8762.17
711.687	8746.13
712.031	8672.91
712.375	8689.18
712.719	8646.47
713.063	8652.34
713.407	8636.98
713.75	8653.25
714.094	8594.49
714.438	8611.44
714.782	8608.05
715.125	8549.97
715.469	8578.22
715.812	8523.98
716.156	8441.73
716.499	8509.75
716.843	8440.37
717.186	8425.68
717.53	8463.42
717.873	8437.21
718.216	8421.84
718.559	8456.87
718.902	8324.89
719.246	8348.85
719.589	8358.79
719.932	8287.38
720.275	8343.42
720.617	8282.86
720.96	8320.37
721.303	8340.49
721.646	8318.34
721.989	8202.86
722.331	8304.78
722.674	8262.52
723.016	8289.19
723.359	8309.75
723.701	8249.42
724.044	8187.95
724.386	8199.93
724.729	8199.25
725.071	8157.67
725.413	8202.19
725.755	8121.51
726.097	8154.96
726.439	8106.59
726.782	8071.34
727.124	8109.53
727.465	8144.79
727.807	8077.89
728.149	8071.12
728.491	8097.33
728.833	8071.79
729.175	8039.25
729.516	8063.43
729.858	8080.15
730.199	8028.86
730.541	8041.29
730.882	8069.31
731.224	8063.88
731.565	8002.87
731.906	8093.71
732.248	8098.23
732.589	8035.41
732.93	8011
733.271	8029.99
733.612	8039.03
733.953	8035.18
734.294	8033.6
734.635	7976.88
734.976	8006.26
735.317	8062.3
735.658	8048.97
735.999	8125.35
736.339	8004.9
736.68	8064.11
737.021	8086.48
737.361	7983.66
737.702	8048.97
738.042	8053.49
738.383	8035.41
738.723	8022.08
739.063	8050.78
739.404	8151.57
739.744	8104.56
740.084	8078.35
740.424	8101.4
740.764	8101.4
741.104	8143.88
741.444	8084
741.784	8045.81
742.124	8152.7
742.464	8179.59
742.804	8138.68
743.143	8102.08
743.483	8289.64
743.823	8189.08
744.162	8227.27
744.502	8216.2
744.841	8235.63
745.181	8277.89
745.52	8351.79
745.86	8400.37
746.199	8377.32
746.538	8406.02
746.877	8462.07
747.216	8464.1
747.556	8508.62
747.895	8605.34
748.234	8536.19
748.573	8571.44
748.911	8700.93
749.25	8683.53
749.589	8751.55
749.928	8840.59
750.267	8872.22
750.605	8924.88
750.944	8906.12
751.283	9029.51
751.621	9135.95
751.96	9167.36
752.298	9162.16
752.636	9318.54
752.975	9341.59
753.313	9421.81
753.651	9666.55
753.989	9670.62
754.327	9722.82
754.666	9723.5
755.004	9933.21
755.342	10050.72
755.679	10136.82
756.017	10192.64
756.355	10337.95
756.693	10477.38
757.031	10535.91
757.368	10653.65
757.706	10809.35
758.044	10883.92
758.381	11027.42
758.719	11261.54
759.056	11344.7
759.394	11400.29
759.731	11518.93
760.068	11668.76
760.405	11819.49
760.743	11886.83
761.08	12104
761.417	12170.44
761.754	12343.09
762.091	12489.53
762.428	12555.97
762.765	12652.46
763.102	12836.87
763.438	12876.86
763.775	12943.08
764.112	13183.52
764.449	13403.18
764.785	13409.96
765.122	13526.57
765.458	13613.12
765.795	13785.32
766.131	13924.29
766.467	14023.73
766.804	14105.31
767.14	14215.36
767.476	14307.34
767.812	14389.37
768.148	14534.22
768.485	14608.8
768.821	14660.55
769.157	14835.46
769.492	14901.67
769.828	14929.24
770.164	14988.22
770.5	15104.83
770.836	15324.71
771.171	15204.49
771.507	15303.02
771.842	15394.54
772.178	15452.16
772.513	15463.46
772.849	15513.41
773.184	15589.79
773.519	15727.86
773.855	15771.93
774.19	15750.01
774.525	15852.15
774.86	15935.09
775.195	15940.97
775.53	16019.16
775.865	15985.48
776.2	15945.26
776.535	16008.31
776.87	16014.41
777.205	16053.5
777.539	15951.59
777.874	16081.53
778.209	16024.8
778.543	16072.94
778.878	16016.44
779.212	16057.57
779.547	16054.63
779.881	16159.04
780.215	16112.49
780.55	16109.1
780.884	16018.48
781.218	16063.67
781.552	16186.83
781.886	16064.58
782.22	16085.37
782.554	16010.12
782.888	15977.57
783.222	16019.61
783.556	15970.34
783.889	15959.72
784.223	15865.71
784.557	15876.79
784.89	15881.76
785.224	15868.65
785.557	15841.53
785.891	15836.56
786.224	15866.16
786.558	15856.9
786.891	15792.72
787.224	15693.74
787.557	15749.33
787.891	15743.91
788.224	15766.28
788.557	15773.51
788.89	15726.06
789.223	15735.09
789.556	15670.92
789.888	15633.85
790.221	15514.76
790.554	15450.58
790.887	15557.92
791.219	15487.19
791.552	15446.51
791.884	15416.91
792.217	15423.92
792.549	15419.4
792.882	15318.83
793.214	15269.57
793.546	15233.19
793.879	15157.03
794.211	15160.65
794.543	15206.52
794.875	15111.38
795.207	15137.6
795.539	15015.34
795.871	15132.85
796.203	14915.91
796.535	14932.4
796.867	14920.2
797.198	14866.42
797.53	14919.52
797.862	14750.49
798.193	14849.24
798.525	14734.44
798.856	14793.65
799.188	14695.12
799.519	14647.67
799.85	14518.86
800.182	14577.16
800.513	14654.22
800.844	14467.78
801.175	14559.53
801.506	14503.49
801.837	14396.82
802.168	14368.35
802.499	14331.74
802.83	14255.81
803.161	14270.05
803.491	14208.58
803.822	14302.14
804.153	14245.64
804.483	14104.63
804.814	14077.06
805.145	14084.29
805.475	14018.98
805.805	13999.77
806.136	14046.78
806.466	13897.85
806.796	13925.88
807.126	13841.36
807.457	13803.85
807.787	13791.87
808.117	13828.25
808.447	13776.28
808.777	13776.95
809.107	13789.38
809.436	13603.17
809.766	13604.98
810.096	13647.92
810.426	13595.26
810.755	13583.96
811.085	13485.44
811.414	13524.08
811.744	13403.4
812.073	13409.28
812.403	13348.72
812.732	13333.58
813.061	13281.83
813.39	13202.73
813.719	13237.53
814.049	13304.2
814.378	13297.87
814.707	13160.7
815.036	13226.01
815.365	13085.22
815.693	13065.79
816.022	13029.63
816.351	12998.44
816.68	12974.04
817.008	13028.95
817.337	12814.95
817.665	12835.51
817.994	12955.73
818.322	12900.59
818.651	12746.02
818.979	12728.85
819.307	12801.16
819.636	12809.97
819.964	12736.53
820.292	12674.84
820.62	12762.52
820.948	12690.88
821.276	12762.74
821.604	12728.39
821.932	12765.68
822.259	12647.27
822.587	12693.59
822.915	12730.43
823.243	12690.88
823.57	12728.62
823.898	12624.22
824.225	12622.63
824.553	12652.69
824.88	12630.32
825.207	12695.17
825.535	12584.67
825.862	12659.47
826.189	12630.54
826.516	12695.63
826.843	12727.04
827.17	12728.62
827.497	12752.35
827.824	12753.03
828.151	12725.46
828.478	12687.72
828.805	12721.16
829.131	12625.35
829.458	12644.78
829.785	12675.29
830.111	12659.47
830.438	12683.2
830.764	12675.97
831.09	12754.38
831.417	12680.71
831.743	12656.31
832.069	12676.87
832.395	12593.71
832.722	12687.27
833.048	12668.28
833.374	12707.83
833.7	12594.61
834.026	12632.58
834.351	12618.79
834.677	12616.31
835.003	12611.34
835.329	12572.24
835.654	12600.71
835.98	12468.97
836.306	12488.4
836.631	12424
836.956	12506.03
837.282	12554.39
837.607	12476.42
837.932	12449.53
838.258	12417.67
838.583	12345.13
838.908	12274.62
839.233	12395.75
839.558	12266.03
839.883	12332.02
840.208	12223.32
840.533	12246.6
840.858	12245.02
841.182	12220.16
841.507	12214.28
841.832	12199.37
842.156	12121.63
842.481	12123.44
842.805	12085.25
843.13	12047.96
843.454	12047.73
843.778	11947.62
844.103	11975.65
844.427	11990.11
844.751	11931.35
845.075	11872.15
845.399	11857
845.723	11831.69
846.047	11886.16
846.371	11710.57
846.695	11783.11
847.019	11678.25
847.343	11653.17
847.666	11581.53
847.99	11440.29
848.313	11518.71
848.637	11414.53
848.96	11378.15
849.284	11393.06
849.607	11304.48
849.931	11281.2
850.254	11252.95
850.577	11192.16
850.9	11066.52
851.223	11037.37
851.546	11108.55
851.869	10966.86
852.192	10974.54
852.515	10863.58
852.838	10881.21
853.161	10847.99
853.483	10754.43
853.806	10767.77
854.129	10696.13
854.451	10701.1
854.774	10552.41
855.096	10597.38
855.419	10520.09
855.741	10533.2
856.063	10537.27
856.385	10487.78
856.708	10469.92
857.03	10322.13
857.352	10401.45
857.674	10332.98
857.996	10332.75
858.318	10291.17
858.64	10251.4
858.961	10227.22
859.283	10196.26
859.605	10062.48
859.926	10175.24
860.248	10156.48
860.57	10055.92
860.891	10069.26
861.212	10029.03
861.534	10024.51
861.855	10007.11
862.176	9980.9
862.498	10008.01
862.819	10018.86
863.14	9901.58
863.461	9884.18
863.782	9854.12
864.103	9833.78
864.424	9879.43
864.745	9864.06
865.065	9827.68
865.386	9783.16
865.707	9788.81
866.027	9782.93
866.348	9737.51
866.668	9775.93
866.989	9695.48
867.309	9573.9
867.63	9689.83
867.95	9694.8
868.27	9612.77
868.59	9636.95
868.91	9609.83
869.23	9631.98
869.55	9594.92
869.87	9593.34
870.19	9547.46
870.51	9575.71
870.83	9522.6
871.15	9496.16
871.469	9465.2
871.789	9505.2
872.109	9534.81
872.428	9446.45
872.748	9398.31
873.067	9432.44
873.386	9365.54
873.706	9448.03
874.025	9362.15
874.344	9357.41
874.663	9368.93
874.982	9315.15
875.301	9335.26
875.62	9336.17
875.939	9235.38
876.258	9297.98
876.577	9265.66
876.896	9231.54
877.214	9192.44
877.533	9211.2
877.852	9194.02
878.17	9227.47
878.489	9216.17
878.807	9183.63
879.125	9106.34
879.444	9090.07
879.762	9091.43
880.08	9090.07
880.398	9008.49
880.716	9063.63
881.034	9071.09
881.352	9057.76
881.67	8950.64
881.988	8953.35
882.306	8918.1
882.624	8980.24
882.941	8902.51
883.259	8869.96
883.577	8901.83
883.894	8793.13
884.212	8841.04
884.529	8834.26
884.846	8798.33
885.164	8756.52
885.481	8759.46
885.798	8786.12
886.115	8683.53
886.432	8674.49
886.75	8650.99
887.067	8743.19
887.383	8583.42
887.7	8640.37
888.017	8537.09
888.334	8600.82
888.651	8526.24
888.967	8538.22
889.284	8489.18
889.6	8492.12
889.917	8367.38
890.233	8385.91
890.55	8370.54
890.866	8432.24
891.182	8341.84
891.498	8295.52
891.815	8307.27
892.131	8302.07
892.447	8215.07
892.763	8209.87
893.079	8187.5
893.395	8141.62
893.71	8138.01
894.026	8106.37
894.342	8172.58
894.657	8135.52
894.973	7979.82
895.289	8071.34
895.604	8062.3
895.92	7964.23
896.235	7948.63
896.55	7947.95
896.865	7966.71
897.181	7881.06
897.496	7843.78
897.811	7838.58
898.126	7816.88
898.441	7767.85
898.756	7746.38
899.071	7768.3
899.386	7702.76
899.7	7610.34
900.015	7647.4
900.33	7592.71
900.644	7595.2
900.959	7523.11
901.273	7552.03
901.588	7508.64
901.902	7443.79
902.216	7432.49
902.531	7386.39
902.845	7355.88
903.159	7321.98
903.473	7213.74
903.787	7284.02
904.101	7258.26
904.415	7303.9
904.729	7172.83
905.042	7205.15
905.356	7153.17
905.67	7129.67
905.984	7083.34
906.297	7103.01
906.611	7010.35
906.924	7001.09
907.237	6910.24
907.551	6967.19
907.864	6933.52
908.177	6925.38
908.491	6958.6
908.804	6850.58
909.117	6813.07
909.43	6818.49
909.743	6752.51
910.056	6835.22
910.368	6670.02
910.681	6663.24
910.994	6645.16
911.307	6659.85
911.619	6618.05
911.932	6644.03
912.244	6517.48
912.557	6551.38
912.869	6514.32
913.181	6509.12
913.494	6440.42
913.806	6417.83
914.118	6375.11
914.43	6327.21
914.742	6374.66
915.054	6282.46
915.366	6303.48
915.678	6270.71
915.99	6248.56
916.302	6202.69
916.613	6172.86
916.925	6188.68
917.236	6132.86
917.548	6102.58
917.859	6127.44
918.171	6052.86
918.482	6033.65
918.794	6079.53
919.105	6041.34
919.416	5941.23
919.727	5975.8
920.038	5973.77
920.349	5895.13
920.66	5873.43
920.971	5876.14
921.282	5845.86
921.593	5779.88
921.903	5779.65
922.214	5764.51
922.525	5739.88
922.835	5716.83
923.146	5695.13
923.456	5677.73
923.767	5643.38
924.077	5627.11
924.387	5624.85
924.697	5626.21
925.008	5552.76
925.318	5563.38
925.628	5537.85
925.938	5510.05
926.248	5447.68
926.558	5509.15
926.867	5414.69
927.177	5370.62
927.487	5368.59
927.796	5327.68
928.106	5299.21
928.416	5309.61
928.725	5282.26
929.034	5282.94
929.344	5232.09
929.653	5236.84
929.962	5254.69
930.271	5133.11
930.581	5167.01
930.89	5149.38
931.199	5076.39
931.508	5108.03
931.817	5096.05
932.125	5059.22
932.434	5029.16
932.743	5003.85
933.051	4984.64
933.36	4999.78
933.669	4977.41
933.977	4911.65
934.286	4915.04
934.594	4851.99
934.902	4819.68
935.21	4809.96
935.519	4850.18
935.827	4825.55
936.135	4786
936.443	4702.39
936.751	4702.39
937.059	4696.74
937.367	4687.02
937.674	4697.19
937.982	4698.77
938.29	4661.71
938.597	4660.58
938.905	4589.63
939.213	4601.6
939.52	4534.03
939.827	4621.26
940.135	4550.76
940.442	4522.06
940.749	4526.12
941.056	4508.05
941.363	4470.98
941.67	4475.5
941.977	4431.21
942.284	4407.93
942.591	4349.63
942.898	4373.59
943.205	4332.91
943.511	4309.18
943.818	4310.54
944.125	4283.19
944.431	4256.75
944.738	4239.58
945.044	4248.84
945.35	4266.92
945.657	4215.62
945.963	4185.57
946.269	4155.29
946.575	4161.16
946.881	4118
947.187	4118.45
947.493	4093.14
947.799	4063.76
948.105	4064.44
948.41	4052.69
948.716	4055.85
949.022	3999.13
949.327	3988.28
949.633	3948.51
949.938	3980.83
950.244	3920.94
950.549	3921.85
950.854	3893.6
951.16	3900.38
951.465	3871
951.77	3856.99
952.075	3826.03
952.38	3849.76
952.685	3819.93
952.99	3822.19
953.294	3777.67
953.599	3751
953.904	3757.78
954.209	3705.81
954.513	3687.05
954.818	3687.28
955.122	3654.73
955.426	3653.38
955.731	3639.37
956.035	3650.21
956.339	3616.32
956.643	3615.41
956.948	3612.93
957.252	3610.67
957.556	3614.74
957.86	3539.94
958.163	3519.6
958.467	3540.16
958.771	3529.99
959.075	3494.51
959.378	3466.94
959.682	3461.29
959.985	3489.32
960.289	3428.3
960.592	3448.19
960.896	3387.85
961.199	3383.1
961.502	3380.62
961.805	3347.62
962.108	3344.69
962.411	3322.31
962.714	3326.83
963.017	3308.3
963.32	3338.13
963.623	3283.22
963.926	3299.94
964.228	3237.12
964.531	3234.86
964.833	3201.86
965.136	3217.91
965.438	3189.44
965.741	3199.61
966.043	3149.21
966.345	3154.63
966.648	3142.21
966.95	3149.89
967.252	3069.21
967.554	3070.79
967.856	3092.72
968.158	3076.67
968.46	3070.57
968.761	3047.97
969.063	3079.61
969.365	3019.95
969.666	3014.75
969.968	2970.68
970.269	2982.66
970.571	2980.85
970.872	2960.52
971.174	2929.56
971.475	2956.22
971.776	2916.22
972.077	2904.02
972.378	2917.8
972.679	2911.93
972.98	2892.49
973.281	2867.18
973.582	2877.35
973.883	2842.78
974.183	2817.47
974.484	2807.3
974.785	2800.52
975.085	2799.62
975.386	2781.31
975.686	2757.13
975.986	2734.76
976.287	2747.64
976.587	2724.36
976.887	2739.96
977.187	2709.45
977.487	2701.99
977.787	2673.97
978.087	2684.82
978.387	2630.35
978.687	2676.68
978.987	2636.23
979.286	2612.95
979.586	2631.94
979.885	2590.58
980.185	2568.21
980.484	2578.38
980.784	2552.62
981.083	2558.94
981.382	2586.74
981.682	2557.81
981.981	2515.78
982.28	2520.98
982.579	2526.63
982.878	2496.35
983.177	2465.61
983.475	2468.32
983.774	2438.04
984.073	2427.2
984.372	2409.34
984.67	2413.64
984.969	2432.62
985.267	2402.11
985.566	2423.13
985.864	2367.99
986.162	2402.11
986.461	2316.69
986.759	2308.56
987.057	2328.67
987.355	2350.14
987.653	2332.28
987.951	2315.11
988.249	2339.97
988.547	2308.78
988.844	2283.47
989.142	2262.45
989.44	2284.15
989.737	2263.13
990.035	2266.07
990.332	2249.8
990.63	2208.67
990.927	2186.75
991.224	2176.58
991.521	2186.98
991.819	2189.69
992.116	2173.87
992.413	2157.15
992.71	2183.81
993.006	2123.93
993.303	2157.82
993.6	2134.32
993.897	2119.63
994.193	2086.87
994.49	2094.32
994.787	2094.1
995.083	2076.24
995.379	2064.49
995.676	2043.03
995.972	2004.61
996.268	2056.81
996.565	2041.44
996.861	1997.15
997.157	1965.29
997.453	1990.6
997.749	1979.98
998.044	1979.07
998.34	1966.64
998.636	1955.57
998.932	1956.47
999.227	1948.79
999.523	1947.21
999.818	1966.64
1000.114	1913.76
1000.409	1902.46
1000.704	1895.01
1001	1889.36
1001.295	1854.1
1001.59	1855.91
1001.885	1880.09
1002.18	1827.21
1002.475	1819.3
1002.77	1828.12
1003.065	1803.94
1003.359	1791.28
1003.654	1804.84
1003.949	1784.05
1004.243	1780.66
1004.538	1776.82
1004.832	1758.51
1005.127	1737.27
1005.421	1733.2
1005.715	1725.75
1006.009	1723.94
1006.304	1710.38
1006.598	1698.63
1006.892	1679.87
1007.186	1694.56
1007.48	1669.02
1007.773	1672.64
1008.067	1663.83
1008.361	1671.51
1008.655	1651.62
1008.948	1614.79
1009.242	1603.49
1009.535	1606.88
1009.829	1600.33
1010.122	1584.73
1010.415	1570.95
1010.708	1530.04
1011.001	1551.51
1011.295	1575.69
1011.588	1528.01
1011.881	1543.6
1012.173	1499.31
1012.466	1528.69
1012.759	1485.75
1013.052	1492.76
1013.344	1488.46
1013.637	1512.19
1013.93	1519.2
1014.222	1455.7
1014.514	1478.29
1014.807	1443.27
1015.099	1441.01
1015.391	1416.15
1015.683	1419.76
1015.976	1431.29
1016.268	1372.99
1016.56	1406.66
1016.851	1384.06
1017.143	1374.57
1017.435	1387.22
1017.727	1354.68
1018.018	1307.68
1018.31	1357.85
1018.602	1311.97
1018.893	1340.22
1019.185	1326.43
1019.476	1315.36
1019.767	1325.98
1020.058	1289.6
1020.35	1286.44
1020.641	1268.36
1020.932	1281.24
1021.223	1261.35
1021.514	1257.51
1021.804	1238.07
1022.095	1250.5
1022.386	1236.27
1022.677	1229.04
1022.967	1222.93
1023.258	1187.45
1023.548	1179.77
1023.839	1206.21
1024.129	1182.71
1024.419	1181.35
1024.709	1181.81
1025	1203.27
1025.29	1166.89
1025.58	1158.98
1025.87	1141.81
1026.16	1170.28
1026.449	1124.18
1026.739	1155.14
1027.029	1116.95
1027.319	1115.59
1027.608	1116.95
1027.898	1095.93
1028.187	1078.53
1028.477	1101.81
1028.766	1104.07
1029.055	1064.29
1029.344	1059.77
1029.634	1048.02
1029.923	1035.82
1030.212	1051.64
1030.501	1045.09
1030.79	1026.55
1031.078	984.3
1031.367	1014.8
1031.656	1006.89
1031.945	999.89
1032.233	1029.49
1032.522	974.58
1032.81	981.58
1033.099	989.49
1033.387	978.87
1033.675	976.16
1033.963	949.27
1034.251	969.61
1034.54	948.59
1034.828	917.18
1035.116	929.61
1035.403	931.64
1035.691	913.34
1035.979	925.99
1036.267	911.98
1036.554	913.34
1036.842	937.07
1037.129	909.5
1037.417	885.77
1037.704	883.06
1037.992	873.79
1038.279	883.73
1038.566	878.31
1038.853	878.31
1039.14	878.31
