Data from hue_330_FLMS001491_64.txt Node
Date: Mon Feb 06 15:45:43 GMT 2017
User: dcchb
Spectrometer: FLMS00149
Trigger mode: 0
Integration Time (sec): 2.000000E-2
Scans to average: 10
Electric dark correction enabled: true
Nonlinearity correction enabled: false
Boxcar width: 0
XAxis mode: Wavelengths
Number of Pixels in Spectrum: 2048
>>>>>Begin Spectral Data<<<<<
341.393	-25.65
341.776	-25.65
342.16	-25.65
342.543	-68.36
342.927	-63.39
343.31	-67
343.693	-74.91
344.077	-72.43
344.46	-74.69
344.843	-55.93
345.226	-45.76
345.61	-24.52
345.993	-24.29
346.376	-6.44
346.759	3.28
347.142	24.97
347.525	66.78
347.908	71.3
348.291	97.06
348.674	90.05
349.057	92.54
349.44	123.73
349.823	141.58
350.206	139.54
350.588	190.39
350.971	225.64
351.354	229.71
351.737	213.67
352.119	238.75
352.502	251.63
352.884	267
353.267	269.71
353.65	282.37
354.032	303.16
354.414	303.16
354.797	306.77
355.179	339.99
355.562	316.71
355.944	322.14
356.326	329.14
356.709	321.46
357.091	316.94
357.473	332.53
357.855	335.25
358.238	337.96
358.62	323.49
359.002	318.75
359.384	372.76
359.766	329.6
360.148	323.72
360.53	332.08
360.912	333.21
361.294	342.02
361.676	331.86
362.057	332.08
362.439	331.18
362.821	318.97
363.203	309.03
363.584	321.46
363.966	320.78
364.348	309.48
364.729	327.11
365.111	306.09
365.493	320.56
365.874	306.55
366.256	312.42
366.637	323.72
367.019	309.94
367.4	292.08
367.781	296.38
368.163	323.27
368.544	296.38
368.925	332.08
369.306	309.48
369.688	310.61
370.069	278.98
370.45	283.5
370.831	327.11
371.212	293.44
371.593	311.74
371.974	292.08
372.355	310.39
372.736	302.25
373.117	305.19
373.498	292.08
373.879	312.42
374.26	304.29
374.641	312.2
375.021	305.87
375.402	312.42
375.783	305.87
376.163	314.23
376.544	314.23
376.925	318.3
377.305	318.52
377.686	321.01
378.066	332.31
378.447	322.36
378.827	330.95
379.208	289.37
379.588	318.97
379.968	329.14
380.349	330.95
380.729	336.83
381.109	323.95
381.489	334.79
381.87	321.01
382.25	334.57
382.63	341.12
383.01	337.73
383.39	344.06
383.77	318.07
384.15	324.4
384.53	349.48
384.91	331.18
385.29	332.76
385.67	319.65
386.049	360.56
386.429	343.38
386.809	358.52
387.189	333.89
387.568	329.82
387.948	338.18
388.328	338.86
388.707	329.82
389.087	337.73
389.466	353.1
389.846	337.28
390.225	358.3
390.605	373.44
390.984	362.36
391.363	343.83
391.743	365.08
392.122	350.16
392.501	357.17
392.881	373.66
393.26	356.49
393.639	357.17
394.018	347.45
394.397	364.17
394.776	365.3
395.155	371.85
395.534	383.15
395.913	351.52
396.292	375.02
396.671	379.99
397.05	361.91
397.429	350.61
397.808	384.74
398.186	379.76
398.565	382.02
398.944	368.69
399.323	379.76
399.701	407.11
400.08	359.88
400.458	374.57
400.837	398.29
401.215	371.4
401.594	382.7
401.972	408.92
402.351	406.2
402.729	415.7
403.107	399.88
403.486	415.24
403.864	386.77
404.242	394.68
404.62	403.94
404.999	429.25
405.377	403.94
405.755	416.15
406.133	410.05
406.511	418.63
406.889	428.12
407.267	419.09
407.645	439.65
408.023	443.94
408.401	440.33
408.779	456.15
409.156	444.4
409.534	467.45
409.912	451.85
410.29	466.54
410.667	454.11
411.045	455.47
411.422	472.64
411.8	499.31
412.178	481.68
412.555	508.12
412.933	489.37
413.31	481.68
413.687	524.39
414.065	513.77
414.442	519.42
414.819	513.09
415.197	508.12
415.574	506.54
415.951	532.98
416.328	512.42
416.705	545.86
417.082	525.75
417.46	526.88
417.837	552.19
418.214	550.16
418.591	565.75
418.967	561.91
419.344	562.13
419.721	584.05
420.098	584.28
420.475	577.05
420.852	575.92
421.228	611.85
421.605	633.09
421.982	619.53
422.358	614.11
422.735	597.16
423.111	629.02
423.488	623.37
423.864	631.51
424.241	637.16
424.617	662.24
424.994	663.82
425.37	651.17
425.746	684.16
426.123	670.15
426.499	679.19
426.875	666.99
427.251	689.36
427.627	706.08
428.003	701.56
428.379	705.18
428.756	719.42
429.132	718.06
429.507	736.14
429.883	732.98
430.259	740.88
430.635	748.34
431.011	753.99
431.387	768.23
431.763	779.3
432.138	787.21
432.514	778.17
432.89	786.76
433.265	802.8
433.641	812.07
434.016	823.59
434.392	845.06
434.767	841.45
435.143	845.97
435.518	841.22
435.894	855.68
436.269	892.29
436.644	854.1
437.02	883.25
437.395	870.6
437.77	887.32
438.145	907.89
438.52	905.4
438.895	946.3
439.271	894.1
439.646	932.52
440.021	928
440.395	972.74
440.77	940.88
441.145	952.4
441.52	964.61
441.895	986.08
442.27	976.81
442.645	947.88
443.019	972.52
443.394	996.24
443.769	993.08
444.143	988.56
444.518	1012.06
444.892	993.08
445.267	986.08
445.641	1019.07
446.016	1004.38
446.39	1011.61
446.764	1030.82
447.139	1015.23
447.513	1033.76
447.887	1025.85
448.262	1015.68
448.636	1052.51
449.01	1060.42
449.384	1073.76
449.758	1053.42
450.132	1069.24
450.506	1058.84
450.88	1082.34
451.254	1066.98
451.628	1093.64
452.002	1097.71
452.376	1088.45
452.75	1092.29
453.123	1053.42
453.497	1118.28
453.871	1127.31
454.244	1150.14
454.618	1110.59
454.992	1125.28
455.365	1159.18
455.739	1177.71
456.112	1196.24
456.486	1160.08
456.859	1173.87
457.232	1205.05
457.606	1187.88
457.979	1193.08
458.352	1218.16
458.725	1250.02
459.099	1255.45
459.472	1236.92
459.845	1260.42
460.218	1309.23
460.591	1279.63
460.964	1261.77
461.337	1291.6
461.71	1298.38
462.083	1346.07
462.456	1306.97
462.829	1323.24
463.201	1337.48
463.574	1344.48
463.947	1379.51
464.32	1380.64
464.692	1405.5
465.065	1425.16
465.438	1422.45
465.81	1420.64
466.183	1426.06
466.555	1474.65
466.928	1483.92
467.3	1435.78
467.672	1486.63
468.045	1504.03
468.417	1508.55
468.789	1511.49
469.161	1526.17
469.534	1566.4
469.906	1575.66
470.278	1598.72
470.65	1590.81
471.022	1612.95
471.394	1663.57
471.766	1663.12
472.138	1642.56
472.51	1678.71
472.882	1707.41
473.253	1720.07
473.625	1724.36
473.997	1779.05
474.369	1758.48
474.74	1785.38
475.112	1832.61
475.484	1824.7
475.855	1836
476.227	1846.39
476.598	1893.17
476.97	1916.67
477.341	1969.55
477.713	1982.21
478.084	2001.19
478.455	2014.52
478.827	2038.7
479.198	2079.15
479.569	2086.39
479.94	2112.37
480.311	2125.25
480.682	2198.93
481.053	2195.08
481.424	2218.81
481.795	2267.85
482.166	2253.61
482.537	2293.16
482.908	2316.66
483.279	2356.21
483.65	2395.98
484.021	2415.64
484.391	2442.99
484.762	2464.68
485.133	2477.79
485.503	2476.43
485.874	2579.25
486.244	2556.2
486.615	2593.04
486.985	2653.83
487.356	2638.24
487.726	2694.96
488.097	2724.79
488.467	2727.95
488.837	2770.44
489.207	2778.12
489.578	2820.15
489.948	2856.54
490.318	2875.97
490.688	2933.82
491.058	2911.45
491.428	2993.71
491.798	3001.16
492.168	3042.52
492.538	3070.54
492.908	3068.28
493.278	3119.58
493.648	3102.18
494.017	3144.44
494.387	3169.3
494.757	3210.2
495.126	3224.21
495.496	3227.6
495.866	3236.64
496.235	3281.16
496.605	3275.96
496.974	3306.47
497.344	3325
497.713	3344.88
498.082	3360.02
498.452	3387.59
498.821	3377.2
499.19	3391.66
499.559	3405.67
499.928	3462.85
500.298	3464.65
500.667	3489.06
501.036	3500.13
501.405	3528.16
501.774	3484.09
502.143	3557.99
502.512	3541.49
502.88	3531.55
503.249	3556.18
503.618	3590.3
503.987	3590.98
504.356	3624.2
504.724	3623.75
505.093	3637.98
505.462	3631.43
505.83	3640.24
506.199	3693.12
506.567	3701.71
506.936	3717.53
507.304	3720.92
507.672	3737.19
508.041	3726.12
508.409	3799.34
508.777	3777.64
509.145	3829.16
509.514	3811.54
509.882	3864.64
510.25	3829.84
510.618	3900.12
510.986	3853.8
511.354	3909.84
511.722	3894.47
512.09	3940.35
512.458	3873.91
512.826	3929.28
513.193	3921.59
513.561	3962.27
513.929	3936.73
514.297	3986.67
514.664	4037.97
515.032	3988.48
515.4	4042.49
515.767	3987.35
516.135	4025.09
516.502	4002.72
516.869	4041.14
517.237	4064.41
517.604	4088.82
517.972	4127.91
518.339	4129.72
518.706	4087.92
519.073	4115.03
519.44	4166.56
519.808	4164.98
520.175	4117.97
520.542	4151.42
520.909	4144.41
521.276	4202.94
521.643	4245.88
522.009	4212.43
522.376	4244.3
522.743	4266.67
523.11	4305.54
523.477	4316.38
523.843	4273.67
524.21	4273.22
524.577	4365.42
524.943	4349.15
525.31	4385.76
525.676	4418.53
526.043	4434.57
526.409	4440.22
526.776	4475.25
527.142	4498.07
527.508	4533.78
527.874	4540.56
528.241	4546.43
528.607	4568.13
528.973	4607
529.339	4656.49
529.705	4630.73
530.071	4630.95
530.437	4709.59
530.803	4665.53
531.169	4755.02
531.535	4685.19
531.901	4768.8
532.267	4754.79
532.632	4791.4
532.998	4780.78
533.364	4797.95
533.73	4856.03
534.095	4923.15
534.461	4873.66
534.826	4946.88
535.192	4893.09
535.557	4935.35
535.923	4989.36
536.288	5012.64
536.653	5006.31
537.019	5003.6
537.384	5045.86
537.749	5032.75
538.114	5042.92
538.479	5101
538.845	5127.44
539.21	5181.9
539.575	5169.47
539.94	5179.64
540.305	5249.69
540.67	5233.2
541.034	5194.1
541.399	5237.94
541.764	5317.26
542.129	5302.8
542.494	5265.51
542.858	5301.44
543.223	5340.99
543.587	5416.92
543.952	5387.32
544.316	5430.93
544.681	5435.22
545.045	5454.88
545.41	5459.4
545.774	5460.31
546.138	5562.23
546.503	5544.6
546.867	5539.4
547.231	5605.84
547.595	5601.77
547.959	5576.01
548.324	5653.07
548.688	5611.04
549.052	5642.22
549.416	5666.63
549.779	5702.34
550.143	5725.61
550.507	5754.31
550.871	5811.71
551.235	5754.99
551.599	5808.1
551.962	5839.28
552.326	5849.22
552.689	5877.92
553.053	5814.2
553.417	5851.94
553.78	5910.92
554.143	5923.12
554.507	5977.36
554.87	5969.9
555.234	6028.43
555.597	5977.81
555.96	5998.83
556.323	6049.22
556.686	6065.04
557.05	6070.91
557.413	6091.03
557.776	6157.47
558.139	6130.12
558.502	6194.07
558.865	6143.91
559.228	6213.06
559.59	6221.19
559.953	6138.03
560.316	6284.24
560.679	6284.24
561.041	6310.91
561.404	6306.16
561.767	6336.44
562.129	6301.19
562.492	6404.46
562.854	6409.44
563.217	6379.38
563.579	6422.32
563.941	6444.01
564.304	6492.82
564.666	6552.94
565.028	6465.48
565.39	6542.31
565.753	6520.17
566.115	6578.7
566.477	6604.01
566.839	6638.36
567.201	6662.54
567.563	6613.5
567.925	6695.3
568.287	6712.25
568.648	6686.04
569.01	6711.35
569.372	6818.46
569.734	6846.03
570.095	6851.91
570.457	6929.65
570.819	6854.62
571.18	6878.8
571.542	6973.49
571.903	6954.51
572.265	6997.22
572.626	7089.42
572.987	7080.6
573.349	7140.72
573.71	7176.42
574.071	7144.78
574.432	7214.84
574.794	7272.24
575.155	7335.97
575.516	7344.78
575.877	7441.05
576.238	7521.95
576.599	7547.03
576.96	7681.27
577.32	7732.11
577.681	7758.78
578.042	7860.02
578.403	7892.11
578.763	7993.35
579.124	8119.22
579.485	8137.53
579.845	8314.24
580.206	8422.26
580.566	8455.94
580.927	8538.87
581.287	8731.18
581.648	8762.37
582.008	8957.84
582.368	9067.67
582.728	9263.37
583.089	9332.07
583.449	9428.57
583.809	9644.61
584.169	9823.13
584.529	9974.54
584.889	10213.63
585.249	10348.99
585.609	10499.27
585.969	10787.17
586.329	10863.78
586.688	11161.63
587.048	11241.85
587.408	11487.04
587.768	11757.77
588.127	11949.18
588.487	12143.07
588.846	12529.73
589.206	12638.88
589.565	12924.29
589.925	13137.62
590.284	13438.86
590.643	13636.36
591.003	13853.53
591.362	14230.7
591.721	14485.61
592.08	14662.33
592.44	14929.66
592.799	15285.81
593.158	15427.05
593.517	15754.95
593.876	16135.06
594.235	16355.16
594.593	16654.59
594.952	16954.92
595.311	17193.11
595.67	17520.78
596.029	17935.69
596.387	18231.5
596.746	18534.54
597.104	18655.67
597.463	19033.74
597.822	19394.63
598.18	19547.4
598.538	19849.99
598.897	20219.47
599.255	20318.9
599.613	20877.53
599.972	21092.89
600.33	21355.48
600.688	21561.13
601.046	21894
601.404	22212.18
601.762	22446.75
602.12	22907.08
602.478	23070.24
602.836	23334.41
603.194	23527.86
603.552	23756.32
603.91	23992.48
604.268	24289.64
604.625	24532.58
604.983	24783.87
605.341	24962.39
605.698	25303.18
606.056	25660.23
606.413	25874.91
606.771	26102.7
607.128	26381.57
607.485	26415.69
607.843	26727.55
608.2	27037.59
608.557	27283.46
608.914	27489.56
609.272	27720.51
609.629	28019.26
609.986	28407.5
610.343	28241.18
610.7	28665.35
611.057	28850.88
611.414	29028.28
611.771	29241.6
612.127	29456.06
612.484	29630.07
612.841	29797.07
613.198	29957.74
613.554	30117.97
613.911	30502.59
614.267	30681.11
614.624	30621
614.98	30898.06
615.337	31217.82
615.693	31319.52
616.05	31409
616.406	31759.05
616.762	31780.75
617.118	31907.75
617.475	31961.08
617.831	32176.67
618.187	32364.23
618.543	32475.64
618.899	32832.47
619.255	32918.12
619.611	33011.45
619.967	33134.83
620.323	33270.2
620.678	33227.04
621.034	33272.23
621.39	33476.75
621.746	33500.93
622.101	34017.3
622.457	33749.51
622.812	33895.94
623.168	34004.64
623.523	34152.89
623.879	34352.2
624.234	34268.14
624.589	34432.2
624.945	34552.88
625.3	34772.31
625.655	34765.53
626.01	34690.5
626.365	34771.63
626.72	34989.25
627.075	34967.33
627.43	35051.85
627.785	34884.85
628.14	35195.35
628.495	35244.16
628.85	35368
629.205	35128.91
629.559	35308.79
629.914	35360.54
630.269	35431.5
630.623	35475.11
630.978	35450.25
631.332	35590.59
631.687	35699.06
632.041	35487.32
632.396	35692.51
632.75	35519.41
633.104	35618.16
633.459	35590.59
633.813	35677.82
634.167	35605.96
634.521	35756.69
634.875	35803.01
635.229	35703.36
635.583	35437.15
635.937	35648.44
636.291	35518.73
636.645	35747.2
636.999	35555.11
637.352	35680.3
637.706	35601.89
638.06	35779.51
638.413	35667.2
638.767	35624.94
639.121	35719.17
639.474	35444.15
639.828	35622.45
640.181	35792.62
640.534	35732.96
640.888	35525.05
641.241	35396.7
641.594	35555.34
641.947	35629.23
642.301	35464.49
642.654	35768.89
643.007	35726.18
643.36	35617.48
643.713	35502.23
644.066	35670.14
644.419	35344.49
644.771	35206.42
645.124	34984.5
645.477	35028.8
645.83	34683.49
646.182	34525.98
646.535	34549.94
646.888	34617.51
647.24	34401.92
647.593	34694.79
647.945	34570.96
648.298	34464.07
648.65	34426.78
649.002	34303.17
649.355	34445.08
649.707	34470.17
650.059	34552.2
650.411	34892.75
650.763	35011.17
651.115	35338.84
651.467	35322.8
651.819	35196.7
652.171	35145.18
652.523	35074.9
652.875	35182.24
653.227	34996.25
653.578	35190.37
653.93	35271.5
654.282	35019.76
654.633	35009.14
654.985	35094.78
655.337	35054.11
655.688	34955.8
656.039	35186.53
656.391	34811.18
656.742	34905.86
657.094	34966.65
657.445	35143.37
657.796	34933.66
658.147	35005.75
658.498	34889.37
658.849	35064.95
659.2	35072.19
659.551	34885.07
659.902	34915.81
660.253	34936.14
660.604	34953.54
660.955	34760.33
661.306	34749.03
661.656	34803.27
662.007	34817.95
662.358	34851.85
662.708	34898.4
663.059	34776.37
663.409	34632.65
663.76	34703.16
664.11	34875.13
664.461	34855.24
664.811	34829.03
665.161	34851.4
665.511	34661.8
665.862	34835.36
666.212	35045.29
666.562	34857.5
666.912	34971.17
667.262	34672.65
667.612	34953.54
667.962	34858.18
668.312	34800.55
668.662	34873.55
669.011	34803.94
669.361	34827.67
669.711	34699.77
670.06	34716.94
670.41	34741.8
670.76	34701.35
671.109	34765.53
671.459	34587.45
671.808	34629.26
672.157	34864.73
672.507	34431.3
672.856	34535.25
673.205	34580.22
673.554	34721.23
673.904	34383.62
674.253	34764.17
674.602	34639.2
674.951	34220.68
675.3	33928.26
675.649	34537.28
675.998	34322.6
676.346	34425.2
676.695	34577.51
677.044	34318.53
677.393	34546.1
677.741	34416.84
678.09	34380.45
678.438	34172.32
678.787	34269.95
679.135	34450.73
679.484	34100.91
679.832	34228.82
680.181	34054.36
680.529	34227.24
680.877	34106.33
681.225	34032.21
681.573	34179.55
681.922	33886
682.27	33792.22
682.618	33959.45
682.966	33867.25
683.314	33888.94
683.661	33711.32
684.009	33703.63
684.357	33497.31
684.705	33421.38
685.053	33540.47
685.4	33443.75
685.748	33272.23
686.095	33327.82
686.443	33172.8
686.79	33145.91
687.138	33304.77
687.485	33277.2
687.832	33097.32
688.18	33013.93
688.527	32936.42
688.874	32889.87
689.221	32843.54
689.568	32867.05
689.915	32760.61
690.262	32776.88
690.609	32701.63
690.956	32607.84
691.303	32641.74
691.65	32385.93
691.997	32488.3
692.344	32325.59
692.69	32180.74
693.037	32213.96
693.383	31995.88
693.73	32104.13
694.077	31973.51
694.423	31924.25
694.769	31805.6
695.116	31807.86
695.462	31717.7
695.808	31629.56
696.155	31817.36
696.501	31370.36
696.847	31425.95
697.193	31238.61
697.539	31267.31
697.885	31115.23
698.231	30963.59
698.577	30998.85
698.923	31018.28
699.269	30775.8
699.614	30676.37
699.96	30561.57
700.306	30549.14
700.651	30574.45
700.997	30347.34
701.342	30340.11
701.688	30399.09
702.033	30249.71
702.379	30180.56
702.724	30065.31
703.069	30210.17
703.415	29822.61
703.76	29842.27
704.105	29886.33
704.45	29799.1
704.795	29624.64
705.14	29576.96
705.485	29463.75
705.83	29452.9
706.175	29390.3
706.52	29428.04
706.865	29197.54
707.209	29104.88
707.554	29135.17
707.899	29185.33
708.243	28963.42
708.588	28891.33
708.932	28835.96
709.277	28748.96
709.621	28779.24
709.966	28594.84
710.31	28665.57
710.654	28335.19
710.998	28518.01
711.342	28379.48
711.687	28374.96
712.031	28202.08
712.375	28202.31
712.719	28114.63
713.063	28118.02
713.407	28267.62
713.75	27983.78
714.094	28079.6
714.438	27850.91
714.782	27872.83
715.125	27837.35
715.469	27894.75
715.812	27666.05
716.156	27618.37
716.499	27561.65
716.843	27555.09
717.186	27386.74
717.53	27598.94
717.873	27424.48
718.216	27367.53
718.559	27287.76
718.902	27166.18
719.246	27268.32
719.589	27144.94
719.932	27052.74
720.275	27067.65
720.617	26975.9
720.96	27055.22
721.303	26877.6
721.646	26973.64
721.989	26736.81
722.331	26823.81
722.674	26705.63
723.016	26705.63
723.359	26684.61
723.701	26660.2
724.044	26576.82
724.386	26371.4
724.729	26556.25
725.071	26368.23
725.413	26461.11
725.755	26349.25
726.097	26220.89
726.439	26137.28
726.782	26255.69
727.124	26335.92
727.465	26155.13
727.807	26060.22
728.149	26087.79
728.491	26063.61
728.833	25989.94
729.175	25911.97
729.516	25932.54
729.858	25895.7
730.199	25816.61
730.541	25878.53
730.882	25770.06
731.224	25866.1
731.565	25673.79
731.906	25702.26
732.248	25659.78
732.589	25403.74
732.93	25448.94
733.271	25504.75
733.612	25569.84
733.953	25428.6
734.294	25383.63
734.635	25287.58
734.976	25433.57
735.317	25166.91
735.658	25155.84
735.999	25242.84
736.339	25113.58
736.68	25281.03
737.021	25131.43
737.361	24941.38
737.702	25162.62
738.042	24987.03
738.383	25002.17
738.723	25016.4
739.063	24907.71
739.404	24945.22
739.744	24889.85
740.084	24702.29
740.424	24721.27
740.764	24679.01
741.104	24852.34
741.444	24669.52
741.784	24601.73
742.124	24647.15
742.464	24509.07
742.804	24401.73
743.143	24501.62
743.483	24435.85
743.823	24345.01
744.162	24331
744.502	24385.91
744.841	24247.39
745.181	24252.36
745.52	24175.75
745.86	24188.86
746.199	24208.74
746.538	24107.05
746.877	24133.94
747.216	24254.62
747.556	24099.37
747.895	24032.02
748.234	24084.9
748.573	23912.48
748.911	23877.45
749.25	23946.83
749.589	23695.08
749.928	23801.3
750.267	23906.83
750.605	23640.4
750.944	23699.15
751.283	23618.02
751.621	23724.23
751.96	23454.86
752.298	23526.95
752.636	23417.12
752.975	23361.08
753.313	23247.86
753.651	23342.32
753.989	23191.59
754.327	23240.18
754.666	23116.34
755.004	23094.42
755.342	23149.79
755.679	22921.54
756.017	22972.62
756.355	23044.7
756.693	22873.64
757.031	22965.16
757.368	22806.74
757.706	22812.17
758.044	22687.2
758.381	22627.54
758.719	22586.86
759.056	22496.7
759.394	22409.02
759.731	22353.88
760.068	22267.1
760.405	22247.66
760.743	22216.48
761.08	22145.52
761.417	22030.04
761.754	22086.99
762.091	21953.66
762.428	21857.84
762.765	21726.32
763.102	21803.16
763.438	21812.87
763.775	21561.58
764.112	21570.85
764.449	21624.86
764.785	21583.27
765.122	21370.62
765.458	21310.06
765.795	21216.28
766.131	21269.61
766.467	21203.62
766.804	21103.74
767.14	20926.12
767.476	21035.72
767.812	20909.62
768.148	20870.75
768.485	20839.57
768.821	20639.12
769.157	20657.2
769.492	20599.35
769.828	20446.36
770.164	20412.91
770.5	20346.02
770.836	20279.35
771.171	20226.93
771.507	20110.09
771.842	20017.89
772.178	19929.76
772.513	19890.89
772.849	19835.07
773.184	19715.98
773.519	19845.92
773.855	19641.63
774.19	19689.31
774.525	19547.4
774.86	19577.9
775.195	19394.41
775.53	19471.69
775.865	19314.18
776.2	19078.48
776.535	19002.55
776.87	19097.46
777.205	18961.42
777.539	18765.27
777.874	18941.54
778.209	18763.91
778.543	18722.33
778.878	18622.67
779.212	18561.43
779.547	18465.62
779.881	18556.24
780.215	18421.32
780.55	18371.83
780.884	18235.11
781.218	18262.91
781.552	18172.97
781.886	18024.05
782.22	18051.39
782.554	17942.24
782.888	17758.29
783.222	17717.61
783.556	17604.4
783.889	17639.2
784.223	17539.99
784.557	17419.54
784.89	17520.33
785.224	17315.14
785.557	17214.8
785.891	17290.28
786.224	17233.11
786.558	17188.14
786.891	17084.18
787.224	16954.47
787.557	16903.4
787.891	16956.96
788.224	16884.19
788.557	16923.96
788.89	16723.06
789.223	16735.27
789.556	16653.91
789.888	16548.38
790.221	16450.98
790.554	16386.12
790.887	16448.04
791.219	16275.39
791.552	16276.97
791.884	16224.55
792.217	16208.27
792.549	16118.56
792.882	15983.2
793.214	15953.37
793.546	15935.97
793.879	15815.52
794.211	15812.35
794.543	15791.34
794.875	15691.23
795.207	15745.69
795.539	15664.33
795.871	15582.53
796.203	15458.69
796.535	15409.43
796.867	15451.91
797.198	15351.12
797.53	15260.95
797.862	15162.2
798.193	15217.57
798.525	15160.84
798.856	15195.65
799.188	15111.13
799.519	14938.48
799.85	14924.92
800.182	14973.5
800.513	14860.06
800.844	14820.29
801.175	14831.59
801.506	14799.5
801.837	14750.69
802.168	14717.24
802.499	14653.29
802.83	14601.09
803.161	14490.13
803.491	14530.58
803.822	14527.41
804.153	14393.18
804.483	14341.2
804.814	14269.12
805.145	14328.55
805.475	14233.86
805.805	14121.78
806.136	14305.95
806.466	14210.36
806.796	14096.69
807.126	14008.56
807.457	14008.33
807.787	13967.2
808.117	13834.33
808.447	13947.99
808.777	13872.06
809.107	13860.31
809.436	13846.3
809.766	13795.91
810.096	13757.72
810.426	13675.23
810.755	13607.44
811.085	13587.78
811.414	13676.14
811.744	13494.67
812.073	13404.51
812.403	13437.27
812.732	13308.24
813.061	13388.91
813.39	13364.06
813.719	13229.82
814.049	13326.32
814.378	13275.92
814.707	13202.7
815.036	13161.8
815.365	13047.45
815.693	13013.56
816.022	12991.41
816.351	12994.57
816.68	12907.12
817.008	12917.29
817.337	12780.57
817.665	12789.38
817.994	12825.76
818.322	12812.21
818.651	12740.79
818.979	12656.05
819.307	12737.86
819.636	12805.65
819.964	12633.45
820.292	12663.73
820.62	12548.71
820.948	12592.32
821.276	12595.94
821.604	12582.61
821.932	12635.94
822.259	12558.2
822.587	12530.4
822.915	12511.42
823.243	12559.1
823.57	12523.85
823.898	12462.61
824.225	12502.16
824.553	12401.14
824.88	12524.53
825.207	12485.66
825.535	12498.09
825.862	12509.61
826.189	12401.59
826.516	12554.36
826.843	12596.39
827.17	12540.12
827.497	12534.7
827.824	12436.4
828.151	12606.56
828.478	12485.43
828.805	12479.11
829.131	12467.58
829.458	12418.32
829.785	12435.04
830.111	12492.89
830.438	12542.38
830.764	12501.93
831.09	12506.68
831.417	12441.14
831.743	12445.89
832.069	12425.32
832.395	12430.07
832.722	12463.97
833.048	12385.55
833.374	12396.4
833.7	12346.91
834.026	12338.55
834.351	12424.19
834.677	12317.53
835.003	12413.57
835.329	12394.14
835.654	12333.57
835.98	12290.41
836.306	12296.29
836.631	12249.28
836.956	12259.23
837.282	12217.87
837.607	12217.64
837.932	12165.89
838.258	12259.68
838.583	12201.6
838.908	12039.34
839.233	12117.08
839.558	12052.68
839.883	12018.1
840.208	11914.15
840.533	12002.96
840.858	12014.49
841.182	12036.63
841.507	11943.75
841.832	11847.26
842.156	11854.49
842.481	11889.07
842.805	11890.42
843.13	11842.97
843.454	11796.41
843.778	11725.45
844.103	11692.23
844.427	11644.1
844.751	11683.2
845.075	11668.51
845.399	11641.39
845.723	11567.72
846.047	11577.44
846.371	11457.44
846.695	11441.62
847.019	11320.27
847.343	11374.05
847.666	11280.04
847.99	11277.33
848.313	11262.42
848.637	11190.55
848.96	11194.17
849.284	11179.71
849.607	10974.06
849.931	10982.42
850.254	10950.79
850.577	10831.69
850.9	10813.61
851.223	10792.6
851.546	10763.9
851.869	10642.55
852.192	10700.4
852.515	10624.24
852.838	10577.91
853.161	10606.39
853.483	10490.91
853.806	10483.23
854.129	10471.48
854.451	10401.65
854.774	10308.99
855.096	10297.92
855.419	10381.08
855.741	10267.64
856.063	10197.58
856.385	10196.23
856.708	10191.71
857.03	10148.09
857.352	10139.51
857.674	10017.7
857.996	10139.96
858.318	10053.86
858.64	9991.04
858.961	9942.45
859.283	9979.29
859.605	9890.25
859.926	9930.02
860.248	9871.72
860.57	9853.19
860.891	9791.95
861.212	9779.29
861.534	9796.47
861.855	9806.41
862.176	9688.22
862.498	9710.59
862.819	9739.97
863.14	9684.6
863.461	9686.86
863.782	9648.45
864.103	9678.5
864.424	9617.04
864.745	9619.52
865.065	9539.07
865.386	9518.51
865.707	9529.13
866.027	9466.3
866.348	9520.09
866.668	9465.85
866.989	9466.98
867.309	9382.24
867.63	9422.46
867.95	9360.32
868.27	9409.13
868.59	9383.37
868.91	9377.27
869.23	9382.01
869.55	9265.63
869.87	9380.43
870.19	9262.47
870.51	9306.53
870.83	9295.24
871.15	9206.2
871.469	9170.95
871.789	9242.13
872.109	9281.68
872.428	9143.15
872.748	9128.23
873.067	9194.67
873.386	9165.97
873.706	9121
874.025	9174.56
874.344	9048.69
874.663	9099.31
874.982	9109.25
875.301	9050.72
875.62	9051.17
875.939	9007.33
876.258	9040.55
876.577	8974.34
876.896	8943.38
877.214	8947.67
877.533	9020.44
877.852	8943.15
878.17	8980.22
878.489	8909.03
878.807	8901.57
879.125	8907.22
879.444	8917.84
879.762	8839.88
880.08	8858.64
880.398	8819.77
880.716	8822.25
881.034	8815.25
881.352	8709.49
881.67	8754.01
881.988	8734.8
882.306	8731.63
882.624	8700
882.941	8584.75
883.259	8608.25
883.577	8631.07
883.894	8668.36
884.212	8597.85
884.529	8556.5
884.846	8536.39
885.164	8602.6
885.481	8447.35
885.798	8482.83
886.115	8467.23
886.432	8450.96
886.75	8356.96
887.067	8379.55
887.383	8330.06
887.7	8402.38
888.017	8326.9
888.334	8302.95
888.651	8293
888.967	8266.79
889.284	8179.56
889.6	8268.37
889.917	8178.2
890.233	8237.86
890.55	8150.41
890.866	8159.67
891.182	8142.95
891.498	8120.35
891.815	8072.44
892.131	8022.95
892.447	8042.39
892.763	8035.16
893.079	8011.65
893.395	7966.23
893.71	7954.25
894.026	7904.31
894.342	7863.86
894.657	7858.44
894.973	7839.91
895.289	7833.35
895.604	7825.22
895.92	7770.53
896.235	7730.31
896.55	7698.89
896.865	7660.25
897.181	7666.58
897.496	7641.27
897.811	7637.65
898.126	7598.78
898.441	7578.67
898.756	7516.98
899.071	7436.75
899.386	7508.62
899.7	7438.11
900.015	7388.62
900.33	7356.76
900.644	7356.98
900.959	7335.97
901.273	7315.17
901.588	7211
901.902	7246.93
902.216	7207.16
902.531	7246.93
902.845	7175.97
903.159	7149.08
903.473	7138.91
903.787	7096.65
904.101	7027.95
904.415	7083.32
904.729	7008.97
905.042	6998.12
905.356	6979.82
905.67	6981.85
905.984	6960.38
906.297	6962.87
906.611	6869.99
906.924	6834.28
907.237	6806.04
907.551	6828.41
907.864	6767.84
908.177	6760.39
908.491	6720.61
908.804	6734.63
909.117	6674.51
909.43	6632.25
909.743	6594.97
910.056	6579.83
910.368	6546.16
910.681	6532.37
910.994	6511.35
911.307	6465.25
911.619	6446.27
911.932	6477
912.244	6425.03
912.557	6404.69
912.869	6324.47
913.181	6386.39
913.494	6283.34
913.806	6298.03
914.118	6303
914.43	6235.66
914.742	6215.77
915.054	6216.22
915.366	6181.19
915.678	6168.99
915.99	6115.43
916.302	6055.1
916.613	6072.04
916.925	6074.08
917.236	6002.67
917.548	5980.07
917.859	6017.58
918.171	5963.12
918.482	5906.4
918.794	5876.34
919.105	5858.72
919.416	5777.81
919.727	5820.98
920.038	5834.54
920.349	5743.24
920.66	5714.76
920.971	5711.6
921.282	5722.45
921.593	5675.67
921.903	5615.11
922.214	5623.92
922.525	5576.46
922.835	5571.72
923.146	5567.65
923.456	5533.07
923.767	5521.32
924.077	5518.39
924.387	5461.21
924.697	5405.39
925.008	5380.31
925.318	5371.5
925.628	5382.57
925.938	5352.51
926.248	5289.01
926.558	5282.69
926.867	5241.56
927.177	5250.14
927.487	5237.26
927.796	5213.76
928.106	5212.41
928.416	5206.76
928.725	5173.76
929.034	5074.56
929.344	5128.11
929.653	5101.67
929.962	5073.88
930.271	5045.63
930.581	5027.33
930.89	5018.51
931.199	4972.41
931.508	4993.88
931.817	4971.73
932.125	4912.07
932.434	4951.85
932.743	4894
933.051	4853.32
933.36	4783.49
933.669	4809.93
933.977	4802.02
934.286	4771.96
934.594	4803.6
934.902	4781.46
935.21	4692.42
935.519	4678.41
935.827	4711.63
936.135	4655.58
936.443	4610.16
936.751	4589.82
937.059	4579.88
937.367	4563.16
937.674	4575.36
937.982	4549.37
938.29	4520.9
938.597	4544.63
938.905	4468.24
939.213	4420.56
939.52	4463.5
939.827	4433.67
940.135	4407.68
940.442	4370.39
940.749	4390.05
941.056	4352.99
941.363	4322.94
941.67	4344.41
941.977	4279.55
942.284	4288.59
942.591	4257.63
942.898	4249.04
943.205	4230.74
943.511	4217.4
943.818	4177.18
944.125	4163.85
944.431	4167.01
944.738	4160.46
945.044	4099.44
945.35	4125.43
945.657	4094.02
945.963	4044.98
946.269	4079.1
946.575	4047.92
946.881	4025.32
947.187	4020.57
947.493	3985.09
947.799	3983.06
948.105	3921.14
948.41	3932.44
948.716	3873.91
949.022	3902.16
949.327	3874.59
949.633	3844.53
949.938	3840.69
950.244	3856.96
950.549	3830.75
950.854	3765.21
951.16	3785.78
951.465	3735.38
951.77	3738.77
952.075	3731.31
952.38	3767.92
952.685	3696.29
952.99	3670.52
953.294	3690.64
953.599	3639.34
953.904	3622.62
954.209	3616.06
954.513	3605.89
954.818	3557.76
955.122	3566.12
955.426	3530.87
955.731	3545.1
956.035	3522.05
956.339	3515.27
956.643	3501.26
956.948	3475.05
957.252	3467.14
957.556	3463.3
957.86	3428.72
958.163	3447.48
958.467	3440.47
958.771	3393.47
959.075	3332.68
959.378	3386.46
959.682	3374.49
959.985	3350.76
960.289	3338.56
960.592	3342.17
960.896	3311.44
961.199	3278.44
961.502	3270.99
961.805	3246.13
962.108	3209.75
962.411	3207.03
962.714	3191.44
963.017	3165.23
963.32	3189.41
963.623	3142.86
963.926	3177.43
964.228	3174.94
964.531	3107.38
964.833	3145.79
965.136	3098.34
965.438	3115.29
965.741	3056.08
966.043	3111.9
966.345	3059.69
966.648	3000.94
966.95	3032.58
967.252	3035.97
967.554	3005.01
967.856	2967.49
968.158	3012.92
968.46	2962.29
968.761	2954.84
969.063	2941.05
969.365	2925.91
969.666	2869.19
969.968	2881.17
970.269	2875.52
970.571	2871.68
970.872	2882.07
971.174	2835.29
971.475	2808.4
971.776	2850.66
972.077	2815.41
972.378	2820.83
972.679	2771.34
972.98	2770.44
973.281	2749.19
973.582	2756.65
973.883	2770.66
974.183	2745.58
974.484	2737.89
974.785	2718.01
975.085	2693.83
975.386	2674.17
975.686	2694.51
975.986	2700.15
976.287	2641.85
976.587	2626.48
976.887	2620.16
977.187	2655.41
977.487	2572.02
977.787	2614.06
978.087	2583.77
978.387	2553.27
978.687	2553.94
978.987	2542.42
979.286	2562.31
979.586	2513.49
979.885	2537
980.185	2480.05
980.484	2494.96
980.784	2508.75
981.083	2461.07
981.382	2474.17
981.682	2428.98
981.981	2442.76
982.28	2438.24
982.579	2402.99
982.878	2405.47
983.177	2402.31
983.475	2419.71
983.774	2360.95
984.073	2356.21
984.372	2343.55
984.67	2377.45
984.969	2355.76
985.267	2334.74
985.566	2316.44
985.864	2308.07
986.162	2272.14
986.461	2322.09
986.759	2265.14
987.057	2291.35
987.355	2242.77
987.653	2273.27
987.951	2242.99
988.249	2232.37
988.547	2224.69
988.844	2184.01
989.142	2172.26
989.44	2171.81
989.737	2143.33
990.035	2150.34
990.332	2150.11
990.63	2150.79
990.927	2150.56
991.224	2153.73
991.521	2123.67
991.819	2116.67
992.116	2092.04
992.413	2090
992.71	2102.66
993.006	2076.89
993.303	2053.62
993.6	2059.72
993.897	2013.62
994.193	2059.49
994.49	2043.68
994.787	2021.53
995.083	2003.22
995.379	2000.96
995.676	1975.43
995.972	1979.04
996.268	1974.07
996.565	1970.23
996.861	1923.45
997.157	1956.67
997.453	1929.55
997.749	1925.26
998.044	1894.98
998.34	1895.43
998.636	1888.42
998.932	1870.8
999.227	1845.26
999.523	1863.11
999.818	1877.13
1000.114	1868.76
1000.409	1823.12
1000.704	1840.74
1001	1821.08
1001.295	1818.37
1001.59	1786.28
1001.885	1792.16
1002.18	1772.95
1002.475	1772.27
1002.77	1776.34
1003.065	1740.63
1003.359	1727.3
1003.654	1742.89
1003.949	1719.16
1004.243	1715.1
1004.538	1675.1
1004.832	1724.36
1005.127	1718.49
1005.421	1629.45
1005.715	1669.45
1006.009	1645.49
1006.304	1682.1
1006.598	1641.43
1006.892	1628.09
1007.186	1631.71
1007.48	1646.62
1007.773	1601.88
1008.067	1594.2
1008.361	1575.44
1008.655	1587.42
1008.948	1584.03
1009.242	1577.25
1009.535	1539.06
1009.829	1557.13
1010.122	1539.73
1010.415	1514.2
1010.708	1514.42
1011.001	1502.67
1011.295	1521.43
1011.588	1512.84
1011.881	1480.98
1012.173	1480.3
1012.466	1488.89
1012.759	1436.91
1013.052	1463.35
1013.344	1451.83
1013.637	1469
1013.93	1466.29
1014.222	1439.4
1014.514	1426.74
1014.807	1427.42
1015.099	1397.36
1015.391	1380.42
1015.683	1384.26
1015.976	1422.22
1016.268	1369.12
1016.56	1354.88
1016.851	1363.92
1017.143	1362.79
1017.435	1330.93
1017.727	1345.84
1018.018	1298.16
1018.31	1321.89
1018.602	1281.21
1018.893	1273.53
1019.185	1281.44
1019.476	1297.25
1019.767	1261.77
1020.058	1286.18
1020.35	1249.8
1020.641	1258.84
1020.932	1260.19
1021.223	1231.95
1021.514	1233.75
1021.804	1208.67
1022.095	1214.09
1022.386	1217.03
1022.677	1204.83
1022.967	1189.01
1023.258	1192.62
1023.548	1178.61
1023.839	1160.53
1024.129	1156.47
1024.419	1150.59
1024.709	1164.6
1025	1128.9
1025.29	1136.35
1025.58	1131.83
1025.87	1145.85
1026.16	1103.13
1026.449	1120.08
1026.739	1109.01
1027.029	1103.36
1027.319	1076.69
1027.608	1079.86
1027.898	1069.46
1028.187	1076.92
1028.477	1066.3
1028.766	1059.75
1029.055	1056.81
1029.344	1032.4
1029.634	1042.12
1029.923	1026.75
1030.212	1010.48
1030.501	1021.78
1030.79	1021.78
1031.078	989.24
1031.367	1006.41
1031.656	984.49
1031.945	959.64
1032.233	983.14
1032.522	980.88
1032.81	975.68
1033.099	959.64
1033.387	961.9
1033.675	971.16
1033.963	951.05
1034.251	939.52
1034.54	926.64
1034.828	945.4
1035.116	918.05
1035.403	915.34
1035.691	905.63
1035.979	906.08
1036.267	880.09
1036.554	896.81
1036.842	884.38
1037.129	873.08
1037.417	881.67
1037.704	864.05
1037.992	878.73
1038.279	854.33
1038.566	836.7
1038.853	836.7
1039.14	836.7
