Data from hue_160_FLMS001491_00030.txt Node
Date: Tue Feb 07 16:50:59 GMT 2017
User: dcchb
Spectrometer: FLMS00149
Trigger mode: 0
Integration Time (sec): 2.000000E-2
Scans to average: 10
Electric dark correction enabled: true
Nonlinearity correction enabled: false
Boxcar width: 0
XAxis mode: Wavelengths
Number of Pixels in Spectrum: 2048
>>>>>Begin Spectral Data<<<<<
341.393	-26.34
341.776	-26.34
342.16	-26.34
342.543	-38.54
342.927	-50.75
343.31	-71.31
343.693	-57.98
344.077	-54.14
344.46	-69.73
344.843	-58.88
345.226	-44.87
345.61	-23.86
345.993	-19.34
346.376	3.71
346.759	21.12
347.142	24.73
347.525	23.38
347.908	24.73
348.291	81.45
348.674	105.18
349.057	115.8
349.44	120.1
349.823	146.31
350.206	140.43
350.588	209.81
350.971	190.15
351.354	218.62
351.737	236.93
352.119	257.04
352.502	263.59
352.884	282.13
353.267	276.48
353.65	294.33
354.032	308.34
354.414	297.49
354.797	319.64
355.179	306.53
355.562	324.16
355.944	331.84
356.326	336.14
356.709	331.84
357.091	338.85
357.473	342.69
357.855	346.3
358.238	339.3
358.62	354.89
359.002	327.77
359.384	362.8
359.766	341.11
360.148	327.1
360.53	323.93
360.912	316.47
361.294	345.17
361.676	331.62
362.057	343.37
362.439	321.22
362.821	311.05
363.203	310.37
363.584	315.34
363.966	337.04
364.348	317.6
364.729	319.19
365.111	309.02
365.493	312.41
365.874	295.68
366.256	315.8
366.637	279.19
367.019	308.11
367.4	281.9
367.781	308.11
368.163	315.57
368.544	336.81
368.925	308.57
369.306	309.7
369.688	301.79
370.069	323.48
370.45	305.63
370.831	316.25
371.212	304.72
371.593	317.6
371.974	326.64
372.355	324.61
372.736	295.91
373.117	314.21
373.498	324.84
373.879	315.12
374.26	294.55
374.641	303.14
375.021	316.47
375.402	324.16
375.783	338.85
376.163	311.28
376.544	335.46
376.925	296.59
377.305	313.99
377.686	333.88
378.066	316.02
378.447	324.84
378.827	337.94
379.208	319.41
379.588	334.55
379.968	324.61
380.349	356.02
380.729	338.85
381.109	332.97
381.489	335.91
381.87	318.28
382.25	336.81
382.63	333.2
383.01	340.2
383.39	351.05
383.77	339.52
384.15	336.59
384.53	330.94
384.91	357.38
385.29	342.69
385.67	329.81
386.049	349.47
386.429	332.97
386.809	347.43
387.189	357.38
387.568	343.59
387.948	355.34
388.328	359.41
388.707	356.93
389.087	359.86
389.466	367.09
389.846	364.84
390.225	350.37
390.605	388.34
390.984	356.93
391.363	371.16
391.743	364.84
392.122	370.03
392.501	357.83
392.881	347.66
393.26	366.19
393.639	362.12
394.018	376.59
394.397	355.8
394.776	367.55
395.155	342.46
395.534	376.13
395.913	381.11
396.292	388.34
396.671	391.05
397.05	368.9
397.429	369.13
397.808	386.3
398.186	394.21
398.565	389.92
398.944	403.03
399.323	393.76
399.701	393.08
400.08	393.08
400.458	389.02
400.837	408.68
401.215	415.68
401.594	407.77
401.972	405.51
402.351	425.17
402.729	410.71
403.107	398.51
403.486	407.77
403.864	409.81
404.242	421.1
404.62	403.25
404.999	419.75
405.377	413.42
405.755	415.91
406.133	425.85
406.511	408.45
406.889	424.72
407.267	419.3
407.645	431.5
408.023	428.34
408.401	441.9
408.779	432.18
409.156	438.51
409.534	428.34
409.912	454.78
410.29	450.93
410.667	469.92
411.045	461.1
411.422	455.68
411.8	441.67
412.178	479.86
412.555	465.85
412.933	459.52
413.31	460.88
413.687	499.75
414.065	472.18
414.442	480.09
414.819	476.7
415.197	498.62
415.574	492.29
415.951	506.98
416.328	478.96
416.705	490.71
417.082	508.56
417.46	489.13
417.837	530.03
418.214	511.5
418.591	515.79
418.967	527.77
419.344	548.11
419.721	521.22
420.098	524.38
420.475	529.8
420.852	536.13
421.228	549.69
421.605	547.66
421.982	534.1
422.358	554.89
422.735	551.5
423.111	562.57
423.488	548.79
423.864	541.33
424.241	566.64
424.617	580.87
424.994	558.28
425.37	566.41
425.746	571.38
426.123	590.14
426.499	595.34
426.875	602.79
427.251	591.5
427.627	619.97
428.003	605.05
428.379	581.78
428.756	616.13
429.132	622.68
429.507	661.1
429.883	643.7
430.259	663.58
430.635	665.39
431.011	659.97
431.387	651.61
431.763	685.28
432.138	689.8
432.514	675.56
432.89	683.7
433.265	696.13
433.641	697.93
434.016	715.79
434.392	727.76
434.767	746.52
435.143	727.76
435.518	732.51
435.894	762.11
436.269	742.45
436.644	761.66
437.02	759.4
437.395	781.32
437.77	786.97
438.145	798.04
438.52	800.08
438.895	784.26
439.271	786.29
439.646	784.71
440.021	802.56
440.395	801.66
440.77	824.71
441.145	835.33
441.52	840.53
441.895	849.34
442.27	856.35
442.645	864.93
443.019	856.12
443.394	876.91
443.769	884.6
444.143	879.17
444.518	891.37
444.892	903.13
445.267	885.73
445.641	905.61
446.016	878.49
446.39	939.28
446.764	928.44
447.139	909.68
447.513	926.4
447.887	930.47
448.262	918.94
448.636	944.93
449.01	976.8
449.384	979.06
449.758	961.2
450.132	984.93
450.506	972.28
450.88	988.32
451.254	998.72
451.628	984.03
452.002	1009.34
452.376	1059.73
452.75	1010.02
453.123	1012.73
453.497	1036.91
453.871	1051.82
454.244	1065.83
454.618	1079.39
454.992	1120.97
455.365	1132.95
455.739	1100.18
456.112	1135.44
456.486	1135.44
456.859	1137.47
457.232	1196.45
457.606	1172.72
457.979	1184.93
458.352	1201.65
458.725	1219.28
459.099	1250.46
459.472	1258.37
459.845	1262.21
460.218	1319.84
460.591	1280.74
460.964	1294.98
461.337	1341.53
461.71	1351.48
462.083	1379.95
462.456	1388.08
462.829	1392.83
463.201	1399.16
463.574	1450
463.947	1437.12
464.32	1469.21
464.692	1502.43
465.065	1492.04
465.438	1525.26
465.81	1559.38
466.183	1561.87
466.555	1627.17
466.928	1617.46
467.3	1646.84
467.672	1647.51
468.045	1708.3
468.417	1753.73
468.789	1733.84
469.161	1802.09
469.534	1782.88
469.906	1812.03
470.278	1850.67
470.65	1911.24
471.022	1934.06
471.394	1970.22
471.766	1989.43
472.138	2025.58
472.51	2079.82
472.882	2149.42
473.253	2170.44
473.625	2191
473.997	2287.27
474.369	2328.63
474.74	2363.43
475.112	2401.84
475.484	2465.34
475.855	2499.24
476.227	2550.77
476.598	2642.29
476.97	2694.04
477.341	2720.48
477.713	2781.04
478.084	2868.5
478.455	2940.13
478.827	3018.55
479.198	3103.07
479.569	3145.78
479.94	3259.9
480.311	3332.44
480.682	3433.23
481.053	3567.24
481.424	3619.89
481.795	3696.5
482.166	3782.37
482.537	3865.99
482.908	3999.54
483.279	4042.48
483.65	4144.17
484.021	4260.33
484.391	4374.22
484.762	4490.83
485.133	4552.52
485.503	4644.95
485.874	4824.6
486.244	4923.13
486.615	5046.52
486.985	5142.11
487.356	5296.91
487.726	5375.55
488.097	5584.81
488.467	5609.44
488.837	5771.92
489.207	5855.09
489.578	6005.59
489.948	6091.24
490.318	6344.56
490.688	6349.76
491.058	6476.76
491.428	6613.71
491.798	6763.31
492.168	6942.06
492.538	7024.32
492.908	7112.45
493.278	7231.55
493.648	7372.33
494.017	7480.58
494.387	7610.52
494.757	7765.77
495.126	7923.51
495.496	7959.89
495.866	8074.69
496.235	8224.97
496.605	8311.74
496.974	8366.21
497.344	8491.85
497.713	8642.13
498.082	8731.17
498.452	8848.91
498.821	8887.55
499.19	9048.22
499.559	9100.88
499.928	9208.67
500.298	9295.22
500.667	9388.33
501.036	9438.95
501.405	9606.17
501.774	9556.68
502.143	9759.84
502.512	9783.34
502.88	9867.86
503.249	9927.75
503.618	10028.54
503.987	10114.18
504.356	10195.31
504.724	10224.46
505.093	10252.71
505.462	10353.27
505.83	10437.11
506.199	10502.42
506.567	10649.08
506.936	10577.67
507.304	10740.16
507.672	10847.72
508.041	10850.44
508.409	10858.57
508.777	10988.51
509.145	11116.64
509.514	10974.95
509.882	11168.17
510.25	11176.98
510.618	11238.9
510.986	11239.13
511.354	11320.48
511.722	11469.18
512.09	11492.45
512.458	11515.95
512.826	11575.39
513.193	11557.31
513.561	11594.82
513.929	11679.34
514.297	11716.4
514.664	11729.06
515.032	11833.69
515.4	11863.06
515.767	11910.29
516.135	11924.76
516.502	11818.77
516.869	11960.91
517.237	11995.94
517.604	12017.41
517.972	12115.49
518.339	12116.84
518.706	12162.26
519.073	12061.93
519.44	12173.34
519.808	12293.11
520.175	12239.33
520.542	12414.24
520.909	12359.77
521.276	12291.3
521.643	12343.28
522.009	12395.93
522.376	12431.64
522.743	12444.74
523.11	12517.74
523.477	12635.25
523.843	12550.96
524.21	12712.08
524.577	12707.79
524.943	12764.73
525.31	12679.09
525.676	12789.82
526.043	12754.79
526.409	12785.75
526.776	12846.77
527.142	12817.84
527.508	12783.27
527.874	12944.84
528.241	12886.54
528.607	12924.73
528.973	12909.14
529.339	12919.31
529.705	12930.15
530.071	12996.59
530.437	12968.8
530.803	13025.75
531.169	13066.42
531.535	12915.92
531.901	12932.41
532.267	12844.73
532.632	12933.09
532.998	12879.99
533.364	12937.84
533.73	12901.91
534.095	12953.2
534.461	12923.37
534.826	12886.31
535.192	12905.52
535.557	12854.45
535.923	12832.08
536.288	12867.78
536.653	12817.61
537.019	12696.94
537.384	12679.99
537.749	12745.3
538.114	12734.68
538.479	12688.58
538.845	12654.68
539.21	12574.23
539.575	12554.57
539.94	12565.64
540.305	12507.34
540.67	12390.51
541.034	12467.79
541.399	12418.98
541.764	12419.89
542.129	12426.66
542.494	12372.43
542.858	12374.91
543.223	12338.31
543.587	12351.86
543.952	12318.65
544.316	12222.6
544.681	12172.43
545.045	12240
545.41	12170.63
545.774	12148.71
546.138	12053.12
546.503	12009.95
546.867	11964.98
547.231	11988.71
547.595	11954.59
547.959	11981.93
548.324	11846.79
548.688	11854.93
549.052	11792.33
549.416	11830.75
549.779	11739.68
550.143	11791.2
550.507	11715.72
550.871	11695.61
551.235	11608.83
551.599	11662.62
551.962	11626.46
552.326	11588.27
552.689	11614.03
553.053	11508.27
553.417	11563.41
553.78	11589.4
554.143	11468.27
554.507	11509.4
554.87	11465.11
555.234	11468.72
555.597	11365.22
555.96	11360.7
556.323	11388.05
556.686	11421.27
557.05	11437.09
557.413	11366.13
557.776	11297.65
558.139	11306.47
558.502	11368.84
558.865	11366.58
559.228	11362.06
559.59	11328.61
559.953	11359.12
560.316	11343.53
560.679	11330.42
561.041	11363.87
561.404	11411.1
561.767	11364.77
562.129	11309.18
562.492	11408.16
562.854	11337.88
563.217	11265.11
563.579	11384.43
563.941	11365.9
564.304	11417.2
564.666	11440.48
565.028	11458.1
565.39	11400.03
565.753	11439.8
566.115	11406.58
566.477	11510.98
566.839	11466.92
567.201	11464.43
567.563	11493.36
567.925	11510.3
568.287	11501.49
568.648	11480.7
569.01	11526.58
569.372	11509.4
569.734	11500.14
570.095	11482.51
570.457	11491.77
570.819	11575.39
571.18	11480.47
571.542	11534.26
571.903	11566.57
572.265	11597.53
572.626	11614.48
572.987	11656.97
573.349	11599.57
573.71	11601.15
574.071	11567.93
574.432	11599.79
574.794	11693.58
575.155	11654.26
575.516	11631.21
575.877	11676.4
576.238	11764.08
576.599	11628.49
576.96	11648.83
577.32	11677.53
577.681	11689.51
578.042	11675.72
578.403	11660.13
578.763	11681.15
579.124	11641.83
579.485	11749.62
579.845	11723.63
580.206	11633.92
580.566	11643.63
580.927	11676.4
581.287	11696.06
581.648	11756.17
582.008	11689.51
582.368	11684.31
582.728	11703.75
583.089	11667.81
583.449	11681.15
583.809	11648.83
584.169	11684.54
584.529	11581.49
584.889	11678.21
585.249	11621.94
585.609	11633.01
585.969	11650.87
586.329	11579
586.688	11606.12
587.048	11614.93
587.408	11578.33
587.768	11620.81
588.127	11527.93
588.487	11510.3
588.846	11619.23
589.206	11454.26
589.565	11461.72
589.925	11563.86
590.284	11569.29
590.643	11582.85
591.003	11497.42
591.362	11564.31
591.721	11516.63
592.08	11502.85
592.44	11502.62
592.799	11473.02
593.158	11447.03
593.517	11470.76
593.876	11483.64
594.235	11467.59
594.593	11406.35
594.952	11442.06
595.311	11448.84
595.67	11510.3
596.029	11545.56
596.387	11432.11
596.746	11442.96
597.104	11422.4
597.463	11420.82
597.822	11383.75
598.18	11420.82
598.538	11391.21
598.897	11465.33
599.255	11346.02
599.613	11463.75
599.972	11429.63
600.33	11483.64
600.688	11364.77
601.046	11369.29
601.404	11486.8
601.762	11386.47
602.12	11441.15
602.478	11489.06
602.836	11425.56
603.194	11423.53
603.552	11382.17
603.91	11442.28
604.268	11477.54
604.625	11355.51
604.983	11428.05
605.341	11431.89
605.698	11479.8
606.056	11389.18
606.413	11387.82
606.771	11427.14
607.128	11432.11
607.485	11428.05
607.843	11444.09
608.2	11505.33
608.557	11539.46
608.914	11394.6
609.272	11566.57
609.629	11475.28
609.986	11501.04
610.343	11506.01
610.7	11562.73
611.057	11492.45
611.414	11577.65
611.771	11480.7
612.127	11513.02
612.484	11577.87
612.841	11554.15
613.198	11489.74
613.554	11523.64
613.911	11629.4
614.267	11614.71
614.624	11608.38
614.98	11660.58
615.337	11697.19
615.693	11564.09
616.05	11655.16
616.406	11704.2
616.762	11640.47
617.118	11631.43
617.475	11663.3
617.831	11733.58
618.187	11682.28
618.543	11673.92
618.899	11764.54
619.255	11696.51
619.611	11704.2
619.967	11781.48
620.323	11801.37
620.678	11726.8
621.034	11735.38
621.39	11765.44
621.746	11730.41
622.101	11778.77
622.457	11717.76
622.812	11751.88
623.168	11828.94
623.523	11724.76
623.879	11806.12
624.234	11671.2
624.589	11797.53
624.945	11748.04
625.3	11754.82
625.655	11757.76
626.01	11699.68
626.365	11666.23
626.72	11734.93
627.075	11750.75
627.43	11766.8
627.785	11701.03
628.14	11730.64
628.495	11758.66
628.85	11732.9
629.205	11703.29
629.559	11738.77
629.914	11698.55
630.269	11747.59
630.623	11626.46
630.978	11622.62
631.332	11702.39
631.687	11671.88
632.041	11586.01
632.396	11638.44
632.75	11601.6
633.104	11625.78
633.459	11619.91
633.813	11570.64
634.167	11540.81
634.521	11527.03
634.875	11544.43
635.229	11507.59
635.583	11477.99
635.937	11450.65
636.291	11482.96
636.645	11495.39
636.999	11380.59
637.352	11413.36
637.706	11403.87
638.06	11369.52
638.413	11363.42
638.767	11414.26
639.121	11436.86
639.474	11298.33
639.828	11373.59
640.181	11313.7
640.534	11443.87
640.888	11258.33
641.241	11213.14
641.594	11301.04
641.947	11313.47
642.301	11265.79
642.654	11236.19
643.007	11273.02
643.36	11318.22
643.713	11244.55
644.066	11279.8
644.419	11249.52
644.771	11163.87
645.124	11061.28
645.477	11070.99
645.83	10927.27
646.182	10915.52
646.535	10891.79
646.888	10944.67
647.24	10852.92
647.593	10947.38
647.945	10887.5
648.298	10841.17
648.65	10857.44
649.002	10777.22
649.355	10855.18
649.707	10825.35
650.059	10984.67
650.411	11060.15
650.763	11047.94
651.115	11167.04
651.467	11102.63
651.819	11117.32
652.171	11116.42
652.523	11103.08
652.875	11113.48
653.227	11085.68
653.578	11169.07
653.93	11133.37
654.282	11099.47
654.633	11078.23
654.985	11115.74
655.337	11076.64
655.688	11123.42
656.039	11176.53
656.391	11001.62
656.742	11080.71
657.094	11128.17
657.445	11148.51
657.796	11087.94
658.147	11160.94
658.498	11087.72
658.849	11092.69
659.2	11081.16
659.551	11127.04
659.902	11102.86
660.253	11119.13
660.604	11128.39
660.955	11067.6
661.306	11152.57
661.656	11059.47
662.007	11181.27
662.358	11189.18
662.708	11136.3
663.059	11105.34
663.409	11143.53
663.76	11150.09
664.11	11116.87
664.461	11158.22
664.811	11203.19
665.161	11195.06
665.511	11121.84
665.862	11137.89
666.212	11162.74
666.562	11217.43
666.912	11107.15
667.262	11229.86
667.612	11150.54
667.962	11209.07
668.312	11185.57
668.662	11222.63
669.011	11127.72
669.361	11133.37
669.711	11119.35
670.06	11161.16
670.41	11146.7
670.76	11063.54
671.109	11200.03
671.459	11127.94
671.808	11084.1
672.157	11122.07
672.507	11039.36
672.856	11040.03
673.205	11060.6
673.554	11033.93
673.904	11036.19
674.253	11156.42
674.602	11047.72
674.951	10937.21
675.3	10850.21
675.649	11058.34
675.998	11053.14
676.346	11014.05
676.695	11056.76
677.044	10939.47
677.393	11003.2
677.741	11021.5
678.09	10945.8
678.438	10907.38
678.787	10942.86
679.135	10885.24
679.484	10911
679.832	10972.92
680.181	10809.53
680.529	10897.44
680.877	10822.64
681.225	10781.96
681.573	10773.15
681.922	10823.09
682.27	10754.62
682.618	10767.05
682.966	10699.03
683.314	10712.59
683.661	10747.84
684.009	10656.99
684.357	10588.3
684.705	10633.49
685.053	10575.41
685.4	10605.24
685.748	10579.48
686.095	10509.43
686.443	10511.69
686.79	10456.55
687.138	10492.7
687.485	10490.22
687.832	10504.68
688.18	10441.18
688.527	10400.73
688.874	10313.27
689.221	10298.81
689.568	10281.64
689.915	10287.74
690.262	10310.34
690.609	10225.37
690.956	10245.93
691.303	10135.43
691.65	10116.22
691.997	10137.46
692.344	10114.41
692.69	10080.29
693.037	10061.3
693.383	9935.2
693.73	9931.36
694.077	9913.74
694.423	9928.65
694.769	9863.57
695.116	9869.22
695.462	9774.31
695.808	9736.57
696.155	9750.58
696.501	9664.03
696.847	9723.01
697.193	9617.02
697.539	9573.18
697.885	9595.33
698.231	9541.99
698.577	9513.97
698.923	9461.77
699.269	9471.49
699.614	9354.2
699.96	9318.27
700.306	9347.65
700.651	9316.01
700.997	9280.76
701.342	9220.65
701.688	9153.3
702.033	9265.39
702.379	9191.5
702.724	9181.33
703.069	9139.29
703.415	9027.88
703.76	9100.42
704.105	9012.52
704.45	8975.91
704.795	8922.35
705.14	8898.62
705.485	8893.88
705.83	8881.45
706.175	8877.83
706.52	8779.98
706.865	8784.73
707.209	8702.24
707.554	8749.7
707.899	8762.13
708.243	8662.47
708.588	8703.82
708.932	8621.12
709.277	8589.03
709.621	8662.24
709.966	8504.28
710.31	8536.15
710.654	8439.88
710.998	8538.86
711.342	8453.44
711.687	8506.99
712.031	8451.18
712.375	8433.1
712.719	8434.45
713.063	8458.18
713.407	8459.09
713.75	8371.63
714.094	8336.83
714.438	8260.45
714.782	8298.64
715.125	8326.43
715.469	8297.51
715.812	8208.47
716.156	8266.1
716.499	8241.46
716.843	8223.61
717.186	8170.96
717.53	8218.64
717.873	8216.15
718.216	8168.7
718.559	8177.96
718.902	8092.77
719.246	8140
719.589	8139.77
719.932	8110.39
720.275	8159.43
720.617	8089.83
720.96	8020.23
721.303	8046.21
721.646	8081.24
721.989	8050.96
722.331	8025.65
722.674	8068.81
723.016	8089.6
723.359	7998.53
723.701	8060.9
724.044	7967.12
724.386	7984.07
724.729	8044.18
725.071	7982.26
725.413	7983.17
725.755	7929.61
726.097	7936.84
726.439	7903.85
726.782	7889.61
727.124	8009.38
727.465	7918.31
727.807	7912.43
728.149	7862.94
728.491	7905.43
728.833	7914.92
729.175	7817.97
729.516	7906.56
729.858	7933.45
730.199	7882.83
730.541	7860.23
730.882	7838.76
731.224	7885.09
731.565	7772.78
731.906	7814.36
732.248	7858.65
732.589	7883.73
732.93	7897.97
733.271	7814.58
733.612	7851.64
733.953	7905.88
734.294	7836.73
734.635	7791.53
734.976	7876.28
735.317	7870.63
735.658	7755.15
735.999	7872.89
736.339	7833.57
736.68	7840.8
737.021	7867.91
737.361	7816.62
737.702	7987.69
738.042	7853.45
738.383	7895.94
738.723	7985.2
739.063	7917.63
739.404	7903.39
739.744	7875.15
740.084	7941.58
740.424	7933.22
740.764	8031.53
741.104	7968.02
741.444	7976.84
741.784	7933.22
742.124	8002.83
742.464	7999.44
742.804	8055.71
743.143	7996.72
743.483	8028.81
743.823	8044.86
744.162	8077.63
744.502	8133.44
744.841	8168.02
745.181	8195.82
745.52	8222.48
745.86	8242.59
746.199	8262.48
746.538	8228.36
746.877	8390.39
747.216	8347
747.556	8454.79
747.895	8473.77
748.234	8517.62
748.573	8495.69
748.911	8592.42
749.25	8666.99
749.589	8745.41
749.928	8790.15
750.267	8868.79
750.605	8882.13
750.944	9044.61
751.283	8988.11
751.621	9090.71
751.96	9133.87
752.298	9287.99
752.636	9351.72
752.975	9415.67
753.313	9506.97
753.651	9662.67
753.989	9681.88
754.327	9755.1
754.666	9881.65
755.004	10040.74
755.342	10139.49
755.679	10253.84
756.017	10355.53
756.355	10547.17
756.693	10585.13
757.031	10822.41
757.368	10940.38
757.706	11009.07
758.044	11155.06
758.381	11329.29
758.719	11356.86
759.056	11588.04
759.394	11710.53
759.731	11902.61
760.068	12059.44
760.405	12105.09
760.743	12371.3
761.08	12558.64
761.417	12627.34
761.754	12790.95
762.091	12957.95
762.428	13061.22
762.765	13151.84
763.102	13381.44
763.438	13485.85
763.775	13694.43
764.112	13886.06
764.449	14097.58
764.785	14175.32
765.122	14265.26
765.458	14465.03
765.795	14607.62
766.131	14778.47
766.467	14950.89
766.804	14895.98
767.14	15085.35
767.476	15274.95
767.812	15308.85
768.148	15467.94
768.485	15507.94
768.821	15635.85
769.157	15813.02
769.492	15927.82
769.828	16141.37
770.164	16150.18
770.5	16275.15
770.836	16413.23
771.171	16395.15
771.507	16513.56
771.842	16548.82
772.178	16688.25
772.513	16723.95
772.849	16891.18
773.184	17007.56
773.519	17102.02
773.855	17108.58
774.19	17118.97
774.525	17160.1
774.86	17261.79
775.195	17384.05
775.53	17375.01
775.865	17426.99
776.2	17305.41
776.535	17431.5
776.87	17424.95
777.205	17488
777.539	17444.84
777.874	17638.96
778.209	17566.19
778.543	17638.73
778.878	17555.8
779.212	17545.63
779.547	17693.64
779.881	17778.61
780.215	17648
780.55	17799.86
780.884	17815.22
781.218	17804.15
781.552	17809.35
781.886	17815.68
782.22	17665.85
782.554	17813.42
782.888	17676.92
783.222	17724.38
783.556	17677.15
783.889	17626.53
784.223	17603.7
784.557	17591.27
784.89	17648.45
785.224	17596.92
785.557	17617.49
785.891	17565.96
786.224	17520.77
786.558	17619.97
786.891	17450.49
787.224	17460.66
787.557	17443.71
787.891	17468.34
788.224	17536.59
788.557	17524.16
788.89	17423.6
789.223	17472.41
789.556	17369.36
789.888	17313.77
790.221	17242.36
790.554	17218.63
790.887	17229.48
791.219	17180.21
791.552	17178.18
791.884	17096.82
792.217	17197.39
792.549	17109.48
792.882	17005.98
793.214	16962.82
793.546	16925.3
793.879	16958.3
794.211	16857.96
794.543	16885.3
794.875	16896.6
795.207	16874.68
795.539	16896.15
795.871	16907.45
796.203	16666.1
796.535	16658.42
796.867	16555.6
797.198	16567.57
797.53	16595.59
797.862	16498.2
798.193	16666.33
798.525	16442.15
798.856	16491.42
799.188	16295.26
799.519	16316.28
799.85	16262.5
800.182	16277.86
800.513	16307.69
800.844	16103.18
801.175	16194.48
801.506	16177.53
801.837	16138.88
802.168	16042.16
802.499	15999.45
802.83	15891.88
803.161	15966.46
803.491	15921.94
803.822	15887.36
804.153	15849.63
804.483	15818.67
804.814	15745
805.145	15682.17
805.475	15682.85
805.805	15644.43
806.136	15639.24
806.466	15641.95
806.796	15557.66
807.126	15483.08
807.457	15521.5
807.787	15530.76
808.117	15370.09
808.447	15383.2
808.777	15431.33
809.107	15319.24
809.436	15298.45
809.766	15246.93
810.096	15236.76
810.426	15113.37
810.755	15157.67
811.085	15173.71
811.414	15141.85
811.744	14999.93
812.073	14995.64
812.403	14986.82
812.732	14909.09
813.061	14924
813.39	14907.96
813.719	14793.38
814.049	14923.32
814.378	14853.95
814.707	14721.52
815.036	14752.25
815.365	14730.78
815.693	14559.04
816.022	14603.33
816.351	14598.13
816.68	14474.29
817.008	14550.45
817.337	14409.66
817.665	14413.28
817.994	14396.56
818.322	14341.87
818.651	14292.38
818.979	14243.57
819.307	14408.53
819.636	14394.97
819.964	14205.15
820.292	14345.94
820.62	14341.42
820.948	14204.25
821.276	14324.69
821.604	14241.53
821.932	14296.45
822.259	14219.84
822.587	14279.95
822.915	14220.29
823.243	14241.08
823.57	14244.7
823.898	14246.05
824.225	14171.7
824.553	14181.65
824.88	14179.84
825.207	14268.65
825.535	14201.08
825.862	14227.07
826.189	14147.07
826.516	14229.33
826.843	14298.25
827.17	14232.72
827.497	14289.44
827.824	14321.98
828.151	14308.2
828.478	14261.64
828.805	14341.19
829.131	14270.23
829.458	14183.45
829.785	14148.2
830.111	14224.36
830.438	14245.83
830.764	14320.4
831.09	14276.56
831.417	14143
831.743	14229.78
832.069	14208.09
832.395	14186.84
832.722	14209.22
833.048	14180.97
833.374	14258.03
833.7	14186.39
834.026	14181.87
834.351	14182.78
834.677	14170.8
835.003	14170.57
835.329	14136.45
835.654	14153.85
835.98	14081.54
836.306	14095.32
836.631	14085.83
836.956	14121.99
837.282	14144.36
837.607	13990.92
837.932	13905.04
838.258	13940.98
838.583	13955.89
838.908	13838.83
839.233	13934.2
839.558	13883.35
839.883	13803.13
840.208	13848.1
840.533	13800.87
840.858	13822.11
841.182	13829.11
841.507	13771.49
841.832	13667.08
842.156	13696.24
842.481	13637.71
842.805	13620.53
843.13	13481.55
843.454	13589.57
843.778	13566.3
844.103	13452.85
844.427	13541.89
844.751	13416.02
845.075	13402.46
845.399	13369.46
845.723	13271.16
846.047	13305.96
846.371	13183.71
846.695	13276.13
847.019	13061.22
847.343	13057.38
847.666	12998.63
847.99	12959.53
848.313	12948.23
848.637	12795.92
848.96	12840.67
849.284	12748.46
849.607	12687
849.931	12673.44
850.254	12612.87
850.577	12576.94
850.9	12447.91
851.223	12520
851.546	12361.36
851.869	12370.85
852.192	12345.54
852.515	12294.92
852.838	12181.02
853.161	12056.28
853.483	12037.07
853.806	12012.66
854.129	12079.33
854.451	11997.07
854.774	11937.64
855.096	11938.99
855.419	11894.02
855.741	11807.25
856.063	11826.45
856.385	11821.48
856.708	11726.57
857.03	11727.47
857.352	11686.35
857.674	11655.84
857.996	11581.94
858.318	11533.35
858.64	11525.45
858.961	11500.81
859.283	11452.68
859.605	11404.32
859.926	11392.12
860.248	11384.88
860.57	11281.61
860.891	11342.17
861.212	11340.59
861.534	11272.57
861.855	11254.27
862.176	11296.53
862.498	11259.69
862.819	11230.99
863.14	11216.75
863.461	11099.92
863.782	11174.04
864.103	11124.55
864.424	11105.57
864.745	11088.62
865.065	11022.41
865.386	10969.75
865.707	10994.16
866.027	11021.73
866.348	10899.7
866.668	10967.27
866.989	10962.52
867.309	10810.44
867.63	10937.66
867.95	10866.71
868.27	10833.94
868.59	10889.98
868.91	10881.62
869.23	10818.8
869.55	10715.3
869.87	10819.25
870.19	10714.39
870.51	10746.93
870.83	10752.13
871.15	10687.5
871.469	10657.9
871.789	10667.16
872.109	10617.45
872.428	10630.78
872.748	10688.41
873.067	10633.49
873.386	10601.63
873.706	10589.65
874.025	10470.56
874.344	10511.91
874.663	10549.88
874.982	10488.18
875.301	10401.86
875.62	10393.05
875.939	10437.56
876.258	10407.96
876.577	10357.79
876.896	10366.15
877.214	10351.69
877.533	10305.14
877.852	10264.69
878.17	10286.83
878.489	10305.14
878.807	10260.39
879.125	10235.54
879.444	10235.54
879.762	10218.36
880.08	10230.79
880.398	10187.4
880.716	10103.34
881.034	10102.88
881.352	10118.7
881.67	10162.32
881.988	10120.28
882.306	10075.31
882.624	10038.03
882.941	9975.66
883.259	10029.67
883.577	9976.11
883.894	9887.97
884.212	9943.34
884.529	9870.57
884.846	9861.08
885.164	9865.6
885.481	9861.31
885.798	9863.79
886.115	9786.06
886.432	9813.85
886.75	9699.5
887.067	9729.56
887.383	9678.49
887.7	9755.32
888.017	9680.07
888.334	9618.6
888.651	9585.84
888.967	9593.97
889.284	9565.27
889.6	9504.71
889.917	9432.85
890.233	9513.3
890.55	9374.09
890.866	9490.24
891.182	9389
891.498	9356.24
891.815	9344.94
892.131	9317.59
892.447	9277.14
892.763	9270.14
893.079	9230.36
893.395	9131.84
893.71	9184.94
894.026	9139.52
894.342	9145.17
894.657	9059.3
894.973	9108.56
895.289	8982.91
895.604	8946.53
895.92	8959.41
896.235	8908.11
896.55	8900.66
896.865	8892.07
897.181	8819.08
897.496	8860.2
897.811	8791.05
898.126	8734.56
898.441	8755.57
898.756	8672.41
899.071	8618.86
899.386	8663.6
899.7	8558.52
900.015	8519.42
900.33	8509.71
900.644	8485.75
900.959	8481.91
901.273	8494.79
901.588	8382.48
901.902	8347
902.216	8308.81
902.531	8318.07
902.845	8285.3
903.159	8258.86
903.473	8276.49
903.787	8199.88
904.101	8116.72
904.415	8151.75
904.729	8048.25
905.042	8088.25
905.356	8075.37
905.67	8029.27
905.984	7984.3
906.297	7980.91
906.611	7878.99
906.924	7897.07
907.237	7874.24
907.551	7818.88
907.864	7786.79
908.177	7756.05
908.491	7786.11
908.804	7700.24
909.117	7661.82
909.43	7634.7
909.743	7601.25
910.056	7556.51
910.368	7594.7
910.681	7505.21
910.994	7426.8
911.307	7480.35
911.619	7375.72
911.932	7367.36
912.244	7331.21
912.557	7342.96
912.869	7295.5
913.181	7272.9
913.494	7212.56
913.806	7189.74
914.118	7174.37
914.43	7133.24
914.742	7156.75
915.054	7053.92
915.366	7048.5
915.678	7062.06
915.99	6960.37
916.302	6977.32
916.613	6967.83
916.925	6901.84
917.236	6896.19
917.548	6849.18
917.859	6838.11
918.171	6800.15
918.482	6760.6
918.794	6734.84
919.105	6788.39
919.416	6699.58
919.727	6669.53
920.038	6668.17
920.349	6624.56
920.66	6584.11
920.971	6626.14
921.282	6508.4
921.593	6516.31
921.903	6478.57
922.214	6471.79
922.525	6418.46
922.835	6406.94
923.146	6330.33
923.456	6424.34
923.767	6309.54
924.077	6294.62
924.387	6241.74
924.697	6254.17
925.008	6242.65
925.318	6201.29
925.628	6164
925.938	6137.56
926.248	6064.8
926.558	6024.8
926.867	6040.84
927.177	6036.78
927.487	6048.98
927.796	5979.83
928.106	5999.72
928.416	5880.4
928.725	5910.45
929.034	5865.03
929.344	5877.46
929.653	5877.46
929.962	5827.97
930.271	5800.4
930.581	5750
930.89	5729.44
931.199	5693.73
931.508	5731.02
931.817	5711.81
932.125	5645.15
932.434	5670.46
932.743	5604.47
933.051	5580.29
933.36	5606.05
933.669	5529.67
933.977	5531.03
934.286	5489.67
934.594	5470.46
934.902	5436.11
935.21	5437.47
935.519	5427.75
935.827	5390.92
936.135	5379.84
936.443	5296
936.751	5301.43
937.059	5307.08
937.367	5276.12
937.674	5269.79
937.982	5202.9
938.29	5202.9
938.597	5219.17
938.905	5178.27
939.213	5160.42
939.52	5162.9
939.827	5135.33
940.135	5073.41
940.442	5052.17
940.749	5024.83
941.056	5034.54
941.363	4991.83
941.67	4920.87
941.977	4932.85
942.284	4891.27
942.591	4905.96
942.898	4914.32
943.205	4913.42
943.511	4834.55
943.818	4797.94
944.125	4818.28
944.431	4826.86
944.738	4814.89
945.044	4736.02
945.35	4727.43
945.657	4735.79
945.963	4668.22
946.269	4665.74
946.575	4658.28
946.881	4613.76
947.187	4603.59
947.493	4612.41
947.799	4576.02
948.105	4558.17
948.41	4500.55
948.716	4503.26
949.022	4503.48
949.327	4464.39
949.633	4418.29
949.938	4464.39
950.244	4450.38
950.549	4353.43
950.854	4408.57
951.16	4308.46
951.465	4353.43
951.77	4305.3
952.075	4297.61
952.38	4283.15
952.685	4275.47
952.99	4252.19
953.294	4230.95
953.599	4206.09
953.904	4143.72
954.209	4204.28
954.513	4150.5
954.818	4158.63
955.122	4150.95
955.426	4102.82
955.731	4072.08
956.035	4059.88
956.339	4076.15
956.643	4056.04
956.948	3986.21
957.252	4008.13
957.556	3999.99
957.86	3969.94
958.163	3915.7
958.467	3935.81
958.771	3903.05
959.075	3941.69
959.378	3870.96
959.682	3911.86
959.985	3862.14
960.289	3841.81
960.592	3814.46
960.896	3777.4
961.199	3733.56
961.502	3773.78
961.805	3760.68
962.108	3788.02
962.411	3708.02
962.714	3688.59
963.017	3681.13
963.32	3672.77
963.623	3647.69
963.926	3640.23
964.228	3600.23
964.531	3611.53
964.833	3610.4
965.136	3573.56
965.438	3569.95
965.741	3570.63
966.043	3575.6
966.345	3523.62
966.648	3546.45
966.95	3533.11
967.252	3510.06
967.554	3481.14
967.856	3461.7
968.158	3458.76
968.46	3426.22
968.761	3414.7
969.063	3368.6
969.365	3402.95
969.666	3354.13
969.968	3346.23
970.269	3294.02
970.571	3326.57
970.872	3303.97
971.174	3263.97
971.475	3297.41
971.776	3275.72
972.077	3226.45
972.378	3221.03
972.679	3270.97
972.98	3217.19
973.281	3194.59
973.582	3199.79
973.883	3146
974.183	3149.85
974.484	3145.1
974.785	3117.31
975.085	3100.58
975.386	3064.2
975.686	3042.73
975.986	3107.36
976.287	3077.31
976.587	3033.24
976.887	3013.13
977.187	3030.75
977.487	2960.92
977.787	2978.1
978.087	2973.58
978.387	2950.53
978.687	2926.35
978.987	2929.97
979.286	2909.4
979.586	2889.51
979.885	2904.88
980.185	2880.48
980.484	2856.97
980.784	2820.59
981.083	2794.38
981.382	2811.78
981.682	2817.43
981.981	2826.92
982.28	2766.35
982.579	2792.57
982.878	2749.18
983.177	2739.24
983.475	2733.13
983.774	2718.45
984.073	2707.6
984.372	2680.25
984.67	2696.98
984.969	2661.05
985.267	2670.31
985.566	2632.35
985.864	2662.85
986.162	2645.45
986.461	2598
986.759	2611.33
987.057	2548.05
987.355	2563.65
987.653	2575.4
987.951	2557.55
988.249	2561.16
988.547	2559.81
988.844	2547.83
989.142	2527.26
989.44	2519.58
989.737	2479.36
990.035	2441.16
990.332	2472.12
990.63	2467.6
990.927	2473.48
991.224	2428.96
991.521	2408.85
991.819	2418.79
992.116	2408.85
992.413	2389.87
992.71	2373.6
993.006	2384.44
993.303	2357.78
993.6	2336.31
993.897	2329.3
994.193	2329.08
994.49	2324.78
994.787	2298.34
995.083	2304.67
995.379	2275.75
995.676	2259.25
995.972	2260.15
996.268	2201.62
996.565	2231.9
996.861	2215.86
997.157	2211.34
997.453	2156.43
997.749	2221.96
998.044	2181.51
998.34	2154.84
998.636	2137.9
998.932	2137.67
999.227	2146.26
999.523	2139.93
999.818	2108.29
1000.114	2102.19
1000.409	2108.29
1000.704	2084.56
1001	2077.78
1001.295	2081.85
1001.59	2029.65
1001.885	2024
1002.18	2014.96
1002.475	1983.32
1002.77	2021.06
1003.065	1955.3
1003.359	1975.87
1003.654	1971.12
1003.949	1973.15
1004.243	1930.9
1004.538	1946.04
1004.832	1941.74
1005.127	1955.53
1005.421	1897.22
1005.715	1889.09
1006.009	1880.73
1006.304	1887.73
1006.598	1909.2
1006.892	1872.37
1007.186	1876.21
1007.48	1849.77
1007.773	1835.53
1008.067	1822.88
1008.361	1781.52
1008.655	1758.02
1008.948	1754.18
1009.242	1763.22
1009.535	1736.32
1009.829	1770.9
1010.122	1757.34
1010.415	1748.75
1010.708	1721.64
1011.001	1709.88
1011.295	1702.2
1011.588	1693.16
1011.881	1694.74
1012.173	1693.61
1012.466	1633.05
1012.759	1637.8
1013.052	1673.28
1013.344	1632.15
1013.637	1647.06
1013.93	1602.32
1014.222	1620.4
1014.514	1607.97
1014.807	1601.64
1015.099	1583.33
1015.391	1568.65
1015.683	1593.73
1015.976	1538.36
1016.268	1536.1
1016.56	1521.19
1016.851	1500.62
1017.143	1533.84
1017.435	1513.96
1017.727	1500.85
1018.018	1475.99
1018.31	1469.44
1018.602	1506.27
1018.893	1458.37
1019.185	1451.59
1019.476	1428.99
1019.767	1440.29
1020.058	1449.55
1020.35	1419.5
1020.641	1408.65
1020.932	1394.86
1021.223	1397.58
1021.514	1391.47
1021.804	1378.37
1022.095	1354.64
1022.386	1338.37
1022.677	1348.54
1022.967	1342.44
1023.258	1325.26
1023.548	1303.34
1023.839	1293.85
1024.129	1304.92
1024.419	1295.66
1024.709	1285.49
1025	1283
1025.29	1274.87
1025.58	1243.91
1025.87	1250.91
1026.16	1233.74
1026.449	1228.09
1026.739	1206.62
1027.029	1221.99
1027.319	1224.25
1027.608	1191.03
1027.898	1190.35
1028.187	1171.59
1028.477	1173.63
1028.766	1185.15
1029.055	1160.07
1029.344	1152.38
1029.634	1132.5
1029.923	1146.96
1030.212	1118.26
1030.501	1138.37
1030.79	1109.45
1031.078	1104.7
1031.367	1104.7
1031.656	1101.31
1031.945	1080.97
1032.233	1061.54
1032.522	1091.37
1032.81	1071.94
1033.099	1087.75
1033.387	1062.44
1033.675	1069.45
1033.963	1054.08
1034.251	1030.81
1034.54	1047.75
1034.828	1026.51
1035.116	1035.55
1035.403	1003.91
1035.691	1005.04
1035.979	1002.11
1036.267	990.13
1036.554	971.82
1036.842	980.19
1037.129	969.34
1037.417	957.14
1037.704	983.58
1037.992	953.07
1038.279	961.88
1038.566	924.82
1038.853	924.82
1039.14	924.82
