Data from hue_50_FLMS001491_7.txt Node
Date: Mon Feb 06 15:09:30 GMT 2017
User: dcchb
Spectrometer: FLMS00149
Trigger mode: 0
Integration Time (sec): 2.000000E-2
Scans to average: 10
Electric dark correction enabled: true
Nonlinearity correction enabled: false
Boxcar width: 0
XAxis mode: Wavelengths
Number of Pixels in Spectrum: 2048
>>>>>Begin Spectral Data<<<<<
341.393	-19.32
341.776	-19.32
342.16	-19.32
342.543	-53.22
342.927	-48.47
343.31	-62.03
343.693	-64.97
344.077	-56.61
344.46	-63.39
344.843	-46.67
345.226	-46.44
345.61	-36.5
345.993	-1.92
346.376	-6.44
346.759	6.21
347.142	31.3
347.525	46.21
347.908	65.65
348.291	61.13
348.674	95.7
349.057	78.75
349.44	121.24
349.823	113.78
350.206	157.62
350.588	172.54
350.971	203.72
351.354	229.94
351.737	245.98
352.119	240.78
352.502	265.19
352.884	256.6
353.267	287.56
353.65	289.37
354.032	315.58
354.414	310.39
354.797	318.75
355.179	318.3
355.562	327.79
355.944	336.83
356.326	332.31
356.709	314.91
357.091	334.57
357.473	333.89
357.855	332.08
358.238	334.34
358.62	335.92
359.002	363.95
359.384	332.08
359.766	337.96
360.148	335.92
360.53	334.79
360.912	336.6
361.294	330.05
361.676	329.6
362.057	344.51
362.439	352.19
362.821	330.5
363.203	333.44
363.584	316.71
363.966	321.91
364.348	324.85
364.729	316.26
365.111	314.23
365.493	314.91
365.874	308.35
366.256	310.84
366.637	308.81
367.019	309.26
367.4	291.18
367.781	302.25
368.163	319.65
368.544	313.55
368.925	316.26
369.306	316.71
369.688	331.18
370.069	326.88
370.45	294.34
370.831	297.73
371.212	303.16
371.593	302.93
371.974	322.82
372.355	331.18
372.736	326.66
373.117	327.11
373.498	304.51
373.879	309.03
374.26	311.52
374.641	325.53
375.021	321.46
375.402	326.21
375.783	346.32
376.163	343.15
376.544	337.05
376.925	316.49
377.305	326.21
377.686	299.31
378.066	320.33
378.447	322.82
378.827	331.86
379.208	346.54
379.588	325.53
379.968	335.7
380.349	341.8
380.729	331.63
381.109	300.22
381.489	340.89
381.87	342.02
382.25	335.7
382.63	331.86
383.01	340.44
383.39	327.79
383.77	345.41
384.15	331.18
384.53	373.21
384.91	332.08
385.29	342.02
385.67	331.86
386.049	346.77
386.429	357.17
386.809	346.77
387.189	356.94
387.568	336.15
387.948	350.61
388.328	344.96
388.707	348.13
389.087	343.15
389.466	346.32
389.846	326.66
390.225	361.46
390.605	363.95
390.984	342.02
391.363	331.4
391.743	342.7
392.122	344.74
392.501	348.58
392.881	358.52
393.26	373.89
393.639	374.57
394.018	359.43
394.397	347.22
394.776	360.78
395.155	373.21
395.534	380.67
395.913	380.22
396.292	378.86
396.671	348.58
397.05	372.98
397.429	376.15
397.808	364.62
398.186	371.18
398.565	358.52
398.944	371.85
399.323	390.39
399.701	373.44
400.08	370.05
400.458	368.24
400.837	397.16
401.215	391.74
401.594	391.06
401.972	371.63
402.351	388.58
402.729	398.07
403.107	398.75
403.486	383.38
403.864	378.18
404.242	398.52
404.62	401.01
404.999	396.26
405.377	381.35
405.755	395.81
406.133	427.22
406.511	396.26
406.889	396.26
407.267	403.04
407.645	424.51
408.023	395.81
408.401	416.15
408.779	412.53
409.156	405.53
409.534	436.94
409.912	421.34
410.29	435.36
410.667	418.41
411.045	408.24
411.422	430.16
411.8	405.07
412.178	455.92
412.555	438.52
412.933	458.63
413.31	446.43
413.687	441.91
414.065	459.76
414.442	464.28
414.819	459.54
415.197	460.44
415.574	469.71
415.951	453.43
416.328	469.03
416.705	456.82
417.082	477.84
417.46	456.15
417.837	464.96
418.214	475.13
418.591	502.02
418.967	479.42
419.344	466.77
419.721	476.03
420.098	473.77
420.475	508.12
420.852	484.17
421.228	480.55
421.605	488.91
421.982	494.11
422.358	511.74
422.735	497.28
423.111	485.75
423.488	518.07
423.864	505.64
424.241	517.61
424.617	521
424.994	506.77
425.37	501.12
425.746	525.75
426.123	515.13
426.499	532.3
426.875	506.77
427.251	544.51
427.627	535.69
428.003	546.54
428.379	537.95
428.756	542.92
429.132	558.06
429.507	551.74
429.883	561
430.259	566.2
430.635	547.67
431.011	562.36
431.387	603.03
431.763	590.61
432.138	573.21
432.514	582.7
432.89	586.31
433.265	598.97
433.641	617.05
434.016	604.84
434.392	608.01
434.767	625.41
435.143	609.59
435.518	592.87
435.894	639.64
436.269	640.77
436.644	637.84
437.02	630.38
437.395	644.16
437.77	666.31
438.145	655.24
438.52	678.29
438.895	673.32
439.271	669.7
439.646	683.48
440.021	683.26
440.395	667.89
440.77	652.98
441.145	676.25
441.52	700.89
441.895	662.92
442.27	694.11
442.645	705.41
443.019	695.24
443.394	697.5
443.769	702.02
444.143	733.2
444.518	715.35
444.892	715.12
445.267	724.16
445.641	718.29
446.016	727.1
446.39	731.17
446.764	746.31
447.139	758.51
447.513	701.79
447.887	753.09
448.262	742.01
448.636	744.27
449.01	742.24
449.384	769.36
449.758	762.8
450.132	787.21
450.506	779.3
450.88	765.97
451.254	744.05
451.628	799.19
452.002	806.42
452.376	793.09
452.75	802.35
453.123	796.7
453.497	829.7
453.871	795.12
454.244	833.54
454.618	833.99
454.992	859.98
455.365	847.1
455.739	849.58
456.112	848.23
456.486	861.11
456.859	861.33
457.232	897.49
457.606	912.18
457.979	910.15
458.352	910.37
458.725	944.04
459.099	940.88
459.472	959.18
459.845	936.36
460.218	960.54
460.591	982.23
460.964	997.37
461.337	1018.84
461.71	992.86
462.083	1042.12
462.456	1014.78
462.829	1025.62
463.201	1039.18
463.574	1044.83
463.947	1067.2
464.32	1100.88
464.692	1123.47
465.065	1105.39
465.438	1134.32
465.81	1138.84
466.183	1156.01
466.555	1168.9
466.928	1210.48
467.3	1180.42
467.672	1202.57
468.045	1259.97
468.417	1244.83
468.789	1242.79
469.161	1284.37
469.534	1298.38
469.906	1297.25
470.278	1341.77
470.65	1367.53
471.022	1369.12
471.394	1411.15
471.766	1458.61
472.138	1480.98
472.51	1514.2
472.882	1528.89
473.253	1591.03
473.625	1558.26
473.997	1644.14
474.369	1652.27
474.74	1677.36
475.112	1743.8
475.484	1770.69
475.855	1805.26
476.227	1826.05
476.598	1893.4
476.97	1938.82
477.341	2007.07
477.713	2032.15
478.084	2073.73
478.455	2145.82
478.827	2220.85
479.198	2229.88
479.569	2295.65
479.94	2387.85
480.311	2425.81
480.682	2522.31
481.053	2584.45
481.424	2681.62
481.795	2710.1
482.166	2767.72
482.537	2899.92
482.908	2974.95
483.279	3045.91
483.65	3122.06
484.021	3239.58
484.391	3296.07
484.762	3363.19
485.133	3464.88
485.503	3525.44
485.874	3686.57
486.244	3748.71
486.615	3867.36
486.985	3951.2
487.356	4056.5
487.726	4179.89
488.097	4312.32
488.467	4358.87
488.837	4515.7
489.207	4656.94
489.578	4749.59
489.948	4867.33
490.318	5000.66
490.688	5085.4
491.058	5233.65
491.428	5345.51
491.798	5411.04
492.168	5639.29
492.538	5748.21
492.908	5818.72
493.278	5987.75
493.648	6045.6
494.017	6234.07
494.387	6326.05
494.757	6475.42
495.126	6620.05
495.496	6677.23
495.866	6805.36
496.235	6980.95
496.605	7063.2
496.974	7167.61
497.344	7379.81
497.713	7400.6
498.082	7581.61
498.452	7749.06
498.821	7817.53
499.19	7876.52
499.559	8094.59
499.928	8130.52
500.298	8318.99
500.667	8429.5
501.036	8479.21
501.405	8618.42
501.774	8681.24
502.143	8790.62
502.512	8916.04
502.88	9053.66
503.249	9127.33
503.618	9261.11
503.987	9381.79
504.356	9452.07
504.724	9603.25
505.093	9646.86
505.462	9795.56
505.83	9881.89
506.199	10018.15
506.567	10154.2
506.936	10200.52
507.304	10359.61
507.672	10497.46
508.041	10492.94
508.409	10634.18
508.777	10814.07
509.145	10872.6
509.514	10988.3
509.882	11044.57
510.25	11215.86
510.618	11206.6
510.986	11293.15
511.354	11406.14
511.722	11648.17
512.09	11740.14
512.458	11796.41
512.826	11914.15
513.193	11948.27
513.561	12037.99
513.929	12170.64
514.297	12330.18
514.664	12361.37
515.032	12489.95
515.4	12667.35
515.767	12680.46
516.135	12784.18
516.502	12765.43
516.869	12961.58
517.237	13016.04
517.604	13087.23
517.972	13229.82
518.339	13319.08
518.706	13373.09
519.073	13534.9
519.44	13591.85
519.808	13699.87
520.175	13776.25
520.542	13975.34
520.909	14085.62
521.276	14053.08
521.643	14263.69
522.009	14339.62
522.376	14509.79
522.743	14546.62
523.11	14811.02
523.477	14785.03
523.843	14868.65
524.21	15021.86
524.577	15122.65
524.943	15245.59
525.31	15382.99
525.676	15515.41
526.043	15473.15
526.409	15668.85
526.776	15920.15
527.142	15899.13
527.508	16044.44
527.874	16178.9
528.241	16166.69
528.607	16359.46
528.973	16494.14
529.339	16339.57
529.705	16648.49
530.071	16771.42
530.437	16829.05
530.803	16969.84
531.169	17030.4
531.535	17034.92
531.901	17101.58
532.267	17249.83
532.632	17288.92
532.998	17398.3
533.364	17484.17
533.73	17513.55
534.095	17704.05
534.461	17782.24
534.826	17913.77
535.192	17990.6
535.557	18088.9
535.923	18124.38
536.288	18199.18
536.653	18278.73
537.019	18193.98
537.384	18349.91
537.749	18439.85
538.114	18529.34
538.479	18582
538.845	18609.57
539.21	18687.76
539.575	18768.43
539.94	18778.38
540.305	18896.34
540.67	18913.74
541.034	18929.33
541.399	19139.04
541.764	19167.74
542.129	19254.75
542.494	19262.88
542.858	19351.02
543.223	19376.1
543.587	19445.03
543.952	19495.87
544.316	19514.18
544.681	19564.12
545.045	19723.21
545.41	19857.67
545.774	19880.72
546.138	19843.89
546.503	19928.18
546.867	19923.66
547.231	20226.93
547.595	20217.89
547.959	20307.38
548.324	20339.92
548.688	20402.74
549.052	20515.96
549.416	20546.24
549.779	20532.23
550.143	20682.73
550.507	20766.8
550.871	20702.39
551.235	20706.01
551.599	20869.85
551.962	20921.14
552.326	21081.14
552.689	21213.57
553.053	21019
553.417	21184.41
553.78	21385.77
554.143	21381.92
554.507	21540.56
554.87	21583.05
555.234	21780.33
555.597	21573.56
555.96	21844.74
556.323	21916.6
556.686	21894.45
557.05	22147.78
557.413	22188
557.776	22291.96
558.139	22233.43
558.502	22303.93
558.865	22480.88
559.228	22502.12
559.59	22663.7
559.953	22606.75
560.316	22989.57
560.679	22896.23
561.041	23015.1
561.404	23224.81
561.767	23297.81
562.129	23153.63
562.492	23520.62
562.854	23466.61
563.217	23482.89
563.579	23710.9
563.941	23730.79
564.304	23796.55
564.666	23983.89
565.028	23939.82
565.39	24157.67
565.753	24149.08
566.115	24279.25
566.477	24430.21
566.839	24542.97
567.201	24684.21
567.563	24692.57
567.925	24727.15
568.287	24844.66
568.648	25053.47
569.01	25130.75
569.372	25250.97
569.734	25171.88
570.095	25398.32
570.457	25440.35
570.819	25482.38
571.18	25550.18
571.542	25775.48
571.903	25703.39
572.265	25853.67
572.626	25970.73
572.987	26010.73
573.349	26091.4
573.71	26171.63
574.071	26338.18
574.432	26379.76
574.794	26638.06
575.155	26533.43
575.516	26515.12
575.877	26817.49
576.238	26828.56
576.599	26923.7
576.96	26964.15
577.32	27026.07
577.681	27170.25
578.042	27412.5
578.403	27259.74
578.763	27452.72
579.124	27480.29
579.485	27729.1
579.845	27738.82
580.206	27757.58
580.566	27872.6
580.927	28025.36
581.287	28253.16
581.648	28219.94
582.008	28250.22
582.368	28235.53
582.728	28503.09
583.089	28512.13
583.449	28577.89
583.809	28787.38
584.169	28762.97
584.529	28776.98
584.889	29201.15
585.249	28988.5
585.609	29062.4
585.969	29303.52
586.329	29332
586.688	29589.62
587.048	29473.01
587.408	29550.52
587.768	29612.22
588.127	29747.13
588.487	29898.08
588.846	30082.26
589.206	30026.89
589.565	30195.93
589.925	30411.06
590.284	30283.38
590.643	30394.34
591.003	30547.56
591.362	31012.63
591.721	30836.59
592.08	30871.84
592.44	31052.4
592.799	31138.73
593.158	31143.47
593.517	31184.38
593.876	31480.87
594.235	31436.35
594.593	31667.08
594.952	31732.39
595.311	31681.99
595.67	31801.54
596.029	32117.69
596.387	32080.85
596.746	32211.02
597.104	32197.01
597.463	32285.59
597.822	32493.27
598.18	32403.33
598.538	32374.18
598.897	32791.34
599.255	32582.31
599.613	33145.91
599.972	32875.63
600.33	33204.89
600.688	32906.37
601.046	33170.54
601.404	33237.43
601.762	33430.87
602.12	33500.02
602.478	33683.52
602.836	33529.63
603.194	33541.38
603.552	33675.16
603.91	33622.73
604.268	33669.74
604.625	33843.97
604.983	34101.82
605.341	34034.25
605.698	34093.68
606.056	34254.58
606.413	34169.84
606.771	34467.46
607.128	34536.83
607.485	34397.85
607.843	34422.26
608.2	34638.75
608.557	34719.43
608.914	34815.47
609.272	35094.11
609.629	35096.59
609.986	35289.81
610.343	35188.57
610.7	35457.26
611.057	35384.95
611.414	35342.91
611.771	35557.37
612.127	35646.86
612.484	35752.39
612.841	35932.5
613.198	35704.94
613.554	35845.5
613.911	35974.08
614.267	35997.13
614.624	36008.43
614.98	36154.64
615.337	36406.84
615.693	36233.06
616.05	36184.92
616.406	36513.5
616.762	36518.7
617.118	36417.69
617.475	36464.69
617.831	36631.92
618.187	36708.53
618.543	36793.04
618.899	36985.81
619.255	36966.82
619.611	37013.38
619.967	37154.39
620.323	37162.3
620.678	37069.19
621.034	37069.87
621.39	37061.96
621.746	37076.88
622.101	37416.98
622.457	37163.88
622.812	37260.15
623.168	37510.09
623.523	37538.79
623.879	37655.39
624.234	37320.04
624.589	37487.71
624.945	37600.25
625.3	37618.33
625.655	37635.73
626.01	37615.85
626.365	37664.66
626.72	37593.47
627.075	37653.81
627.43	37537.21
627.785	37678.44
628.14	37685.45
628.495	37702.17
628.85	37601.16
629.205	37592.12
629.559	37787.82
629.914	37630.08
630.269	37760.02
630.623	37650.65
630.978	37635.51
631.332	37608.62
631.687	37689.52
632.041	37647.94
632.396	37735.39
632.75	37620.14
633.104	37765.22
633.459	37480.71
633.813	37590.54
634.167	37669.18
634.521	37670.53
634.875	37646.81
635.229	37531.56
635.583	37429.86
635.937	37465.12
636.291	37328.17
636.645	37454.27
636.999	37373.59
637.352	37494.72
637.706	37318.68
638.06	37462.63
638.413	37379.02
638.767	37229.19
639.121	37390.54
639.474	37235.97
639.828	37255.63
640.181	37216.31
640.534	37328.85
640.888	37139.93
641.241	36933.38
641.594	37174.28
641.947	37208.63
642.301	37049.31
642.654	37133.15
643.007	37268.74
643.36	37156.65
643.713	37005.92
644.066	37243.2
644.419	36926.37
644.771	36665.36
645.124	36407.29
645.477	36309.44
645.83	36097.47
646.182	35799.62
646.535	35822.22
646.888	35846.85
647.24	35724.37
647.593	35972.5
647.945	35743.35
648.298	35640.31
648.65	35625.16
649.002	35504.94
649.355	35773.41
649.707	35623.36
650.059	35831.04
650.411	36255.66
650.763	36208.65
651.115	36576.33
651.467	36454.3
651.819	36442.09
652.171	36371.59
652.523	36368.87
652.875	36380.63
653.227	36304.47
653.578	36494.52
653.93	36327.75
654.282	36197.81
654.633	36144.25
654.985	36145.15
655.337	36293.85
655.688	36118.71
656.039	36351.47
656.391	36020.41
656.742	36052.05
657.094	36155.09
657.445	36217.69
657.796	36156.45
658.147	35941.09
658.498	36031.48
658.849	36167.07
659.2	36125.72
659.551	36007.3
659.902	36113.29
660.253	36082.55
660.604	36119.62
660.955	36008.21
661.306	36062.22
661.656	36026.96
662.007	36030.58
662.358	35912.62
662.708	35928.89
663.059	36030.35
663.409	35745.61
663.76	36136.11
664.11	35990.81
664.461	35816.57
664.811	35950.35
665.161	35991.93
665.511	35878.72
665.862	35990.13
666.212	35981.31
666.562	35976.57
666.912	35944.03
667.262	35890.24
667.612	35717.37
667.962	35876.23
668.312	35812.5
668.662	35958.49
669.011	35861.09
669.361	35729.12
669.711	35788.1
670.06	35966.4
670.41	35670.81
670.76	35676.01
671.109	35822
671.459	35739.29
671.808	35595.11
672.157	35755.33
672.507	35461.55
672.856	35394.89
673.205	35573.41
673.554	35751.26
673.904	35582.91
674.253	35565.73
674.602	35552.4
674.951	35095.24
675.3	34902.7
675.649	35493.19
675.998	35477.82
676.346	35303.59
676.695	35441.89
677.044	35296.36
677.393	35436.7
677.741	35506.75
678.09	35218.85
678.438	35307.89
678.787	35174.33
679.135	35374.1
679.484	35050.26
679.832	35191.5
680.181	34983.15
680.529	35295.23
680.877	35002.58
681.225	34924.62
681.573	35145.63
681.922	34955.35
682.27	34756.94
682.618	34850.95
682.966	34629.03
683.314	34879.87
683.661	34696.6
684.009	34553.55
684.357	34483.73
684.705	34396.95
685.053	34518.98
685.4	34423.16
685.748	34294.35
686.095	34271.08
686.443	34204.86
686.79	34111.31
687.138	34230.85
687.485	34154.47
687.832	34005.77
688.18	34132.77
688.527	33842.61
688.874	33857.75
689.221	33844.42
689.568	33741.6
689.915	33645.56
690.262	33628.83
690.609	33455.73
690.956	33415.96
691.303	33350.65
691.65	33358.56
691.997	33244.44
692.344	33184.55
692.69	33069.53
693.037	32986.14
693.383	32877.21
693.73	32952.92
694.077	32701.85
694.423	32754.73
694.769	32634.51
695.116	32486.49
695.462	32609.88
695.808	32442.42
696.155	32376.89
696.501	32335.53
696.847	32172.15
697.193	31994.75
697.539	32170.11
697.885	31851.7
698.231	31842.44
698.577	31811.93
698.923	31765.61
699.269	31640.64
699.614	31477.25
699.96	31211.95
700.306	31394.54
700.651	31220.08
700.997	31164.72
701.342	31173.3
701.688	31151.16
702.033	30974.89
702.379	30983.71
702.724	30901.9
703.069	30980.09
703.415	30582.59
703.76	30576.48
704.105	30666.2
704.45	30510.27
704.795	30531.74
705.14	30271.18
705.485	30212.43
705.83	30213.78
706.175	30266.89
706.52	30017.85
706.865	29959.1
707.209	29967.69
707.554	29842.72
707.899	30009.27
708.243	29827.8
708.588	29693.34
708.932	29484.99
709.277	29563.63
709.621	29420.58
709.966	29330.87
710.31	29452.45
710.654	29216.07
710.998	29172.23
711.342	29237.08
711.687	29150.98
712.031	28982.63
712.375	28909.86
712.719	28788.28
713.063	28882.74
713.407	28963.87
713.75	28685.91
714.094	28641.62
714.438	28593.26
714.782	28593.49
715.125	28416.54
715.469	28463.77
715.812	28352.81
716.156	28209.54
716.499	28362.08
716.843	28259.71
717.186	28127.28
717.53	28169.09
717.873	28209.31
718.216	28126.83
718.559	27929.55
718.902	27733.62
719.246	27815.65
719.589	27713.73
719.932	27775.43
720.275	27723.23
720.617	27647.52
720.96	27574.08
721.303	27642.78
721.646	27609.33
721.989	27377.7
722.331	27396.45
722.674	27431.93
723.016	27480.07
723.359	27382.44
723.701	27345.61
724.044	27254.31
724.386	27096.12
724.729	27244.82
725.071	27086.63
725.413	27143.35
725.755	27057.25
726.097	27001.21
726.439	26798.96
726.782	26898.84
727.124	26898.39
727.465	26766.87
727.807	26780.43
728.149	26593.76
728.491	26683.25
728.833	26571.84
729.175	26552.64
729.516	26510.6
729.858	26542.47
730.199	26466.31
730.541	26492.52
730.882	26472.41
731.224	26399.64
731.565	26254.34
731.906	26228.58
732.248	26304.73
732.589	26049.37
732.93	26060.9
733.271	26126.66
733.612	26201.23
733.953	26129.37
734.294	25975.02
734.635	25924.86
734.976	25978.86
735.317	25761.92
735.658	25936.83
735.999	25817.51
736.339	25854.35
736.68	25836.95
737.021	25697.74
737.361	25775.48
737.702	25794.01
738.042	25663.84
738.383	25602.83
738.723	25570.06
739.063	25524.64
739.404	25580.91
739.744	25515.15
740.084	25340.46
740.424	25406.22
740.764	25345.66
741.104	25470.4
741.444	25207.13
741.784	25186.34
742.124	25313.35
742.464	25155.38
742.804	25103.18
743.143	25049.85
743.483	25039.23
743.823	24983.41
744.162	24951.1
744.502	24960.59
744.841	24855.96
745.181	24994.48
745.52	24815.51
745.86	24809.63
746.199	24770.99
746.538	24784.32
746.877	24853.24
747.216	24752.91
747.556	24680.14
747.895	24584.33
748.234	24487.83
748.573	24474.5
748.911	24463.2
749.25	24420.71
749.589	24312.69
749.928	24334.84
750.267	24440.37
750.605	24175.97
750.944	24275.41
751.283	24166.48
751.621	24219.59
751.96	24090.1
752.298	24095.52
752.636	24071.12
752.975	23837.45
753.313	23879.26
753.651	23912.25
753.989	23841.97
754.327	23790.22
754.666	23680.62
755.004	23694.86
755.342	23675.2
755.679	23602.66
756.017	23562.66
756.355	23549.1
756.693	23474.75
757.031	23454.64
757.368	23257.13
757.706	23245.15
758.044	23129.45
758.381	23246.06
758.719	23094.42
759.056	23126.74
759.394	22982.33
759.731	22855.78
760.068	22816.24
760.405	22802
760.743	22691.49
761.08	22729.91
761.417	22553.87
761.754	22493.76
762.091	22434.78
762.428	22473.19
762.765	22370.6
763.102	22299.64
763.438	22193.88
763.775	22121.79
764.112	22142.13
764.449	22152.52
764.785	22049.48
765.122	21879.99
765.458	21769.03
765.795	21717.96
766.131	21732.42
766.467	21660.33
766.804	21586.44
767.14	21418.53
767.476	21506.67
767.812	21409.49
768.148	21445.42
768.485	21349.83
768.821	21117.52
769.157	21108.26
769.492	21035.72
769.828	20974.02
770.164	20855.61
770.5	20934.03
770.836	20769.51
771.171	20621.49
771.507	20670.3
771.842	20586.69
772.178	20552.57
772.513	20496.52
772.849	20341.73
773.184	20258.11
773.519	20297.88
773.855	20186.7
774.19	20105.12
774.525	20008.63
774.86	19969.98
775.195	20025.35
775.53	19977.89
775.865	19803.66
776.2	19660.84
776.535	19528.41
776.87	19505.81
777.205	19389.43
777.539	19381.98
777.874	19355.76
778.209	19220.85
778.543	19111.7
778.878	19035.54
779.212	19028.31
779.547	18979.95
779.881	18895.89
780.215	18863.57
780.55	18913.06
780.884	18789.68
781.218	18647.08
781.552	18645.5
781.886	18520.98
782.22	18422.68
782.554	18452.96
782.888	18249.8
783.222	18198.73
783.556	18156.47
783.889	18010.03
784.223	17988.57
784.557	18025.4
784.89	17967.78
785.224	17789.7
785.557	17729.59
785.891	17674.45
786.224	17565.75
786.558	17550.61
786.891	17477.17
787.224	17365.31
787.557	17300
787.891	17361.69
788.224	17326.44
788.557	17133.45
788.89	17207.57
789.223	17191.53
789.556	17004.41
789.888	16970.74
790.221	16896.17
790.554	16766.23
790.887	16855.94
791.219	16658.66
791.552	16673.8
791.884	16583.86
792.217	16535.72
792.549	16477.19
792.882	16439.91
793.214	16397.2
793.546	16315.62
793.879	16202.4
794.211	16183.19
794.543	16187.26
794.875	16123.53
795.207	16222.51
795.539	16050.09
795.871	16062.97
796.203	15922.63
796.535	15766.93
796.867	15831.56
797.198	15709.76
797.53	15771.9
797.862	15667.27
798.193	15590.89
798.525	15508.41
798.856	15569.42
799.188	15344.12
799.519	15328.3
799.85	15247.4
800.182	15318.58
800.513	15275.19
800.844	15031.13
801.175	15186.61
801.506	15196.1
801.837	15017.35
802.168	15051.92
802.499	14928.76
802.83	14898.25
803.161	14870.91
803.491	14943.45
803.822	14813.28
804.153	14735.77
804.483	14707.75
804.814	14599.73
805.145	14612.16
805.475	14613.29
805.805	14474.08
806.136	14439.51
806.466	14496.23
806.796	14501.88
807.126	14316.12
807.457	14355.44
807.787	14314.31
808.117	14137.14
808.447	14133.75
808.777	14229.12
809.107	14143.92
809.436	14006.3
809.766	14095.56
810.096	13987.54
810.426	14000.2
810.755	13983.93
811.085	13966.53
811.414	13893.76
811.744	13841.1
812.073	13793.65
812.403	13827.09
812.732	13665.06
813.061	13645.63
813.39	13580.09
813.719	13532.19
814.049	13593.43
814.378	13512.3
814.707	13487.67
815.036	13533.09
815.365	13397.95
815.693	13274.79
816.022	13325.41
816.351	13243.38
816.68	13233.44
817.008	13322.25
817.337	13122.25
817.665	13131.52
817.994	13139.43
818.322	13137.85
818.651	13014.46
818.979	12969.04
819.307	13076.38
819.636	13061.01
819.964	12873.45
820.292	12962.03
820.62	12998.19
820.948	12861.92
821.276	12943.95
821.604	12843.39
821.932	12942.15
822.259	12943.95
822.587	12892.2
822.915	12790.06
823.243	12867.57
823.57	12799.55
823.898	12852.2
824.225	12803.62
824.553	12839.32
824.88	12810.17
825.207	12816.05
825.535	12835.93
825.862	12851.53
826.189	12798.19
826.516	12822.15
826.843	12859.21
827.17	12778.99
827.497	12842.04
827.824	12905.31
828.151	12786.67
828.478	12805.88
828.805	12850.85
829.131	12832.77
829.458	12746.67
829.785	12696.95
830.111	12800.23
830.438	12856.5
830.764	12752.09
831.09	12780.79
831.417	12753.22
831.743	12784.18
832.069	12753
832.395	12714.81
832.722	12825.09
833.048	12721.13
833.374	12731.08
833.7	12615.37
834.026	12586.67
834.351	12673.23
834.677	12675.71
835.003	12655.37
835.329	12630.97
835.654	12549.16
835.98	12558.88
836.306	12669.84
836.631	12564.53
836.956	12538.09
837.282	12566.79
837.607	12437.53
837.932	12405.89
838.258	12461.48
838.583	12426.9
838.908	12352.56
839.233	12358.66
839.558	12314.14
839.883	12341.94
840.208	12240.7
840.533	12287.47
840.858	12253.12
841.182	12335.61
841.507	12277.08
841.832	12206.35
842.156	12171.32
842.481	12115.5
842.805	12076.86
843.13	12121.83
843.454	12089.96
843.778	12007.25
844.103	11980.14
844.427	11917.31
844.751	11970.19
845.075	11903.53
845.399	11826.92
845.723	11762.06
846.047	11858.56
846.371	11811.33
846.695	11748.5
847.019	11588.51
847.343	11577.89
847.666	11530.88
847.99	11492.69
848.313	11494.73
848.637	11412.47
848.96	11390.1
849.284	11286.6
849.607	11307.84
849.931	11259.48
850.254	11238.24
850.577	11089.99
850.9	10960.95
851.223	11019.48
851.546	10952.82
851.869	10861.97
852.192	10962.54
852.515	10900.84
852.838	10757.8
853.161	10794.41
853.483	10826.49
853.806	10736.78
854.129	10706.72
854.451	10673.28
854.774	10626.73
855.096	10579.5
855.419	10546.05
855.741	10541.53
856.063	10475.54
856.385	10429.22
856.708	10360.07
857.03	10317.81
857.352	10363.91
857.674	10382.44
857.996	10286.85
858.318	10239.17
858.64	10266.96
858.961	10184.03
859.283	10182.67
859.605	10145.61
859.926	10121.43
860.248	10105.38
860.57	10038.27
860.891	10055.89
861.212	9967.99
861.534	9993.3
861.855	10038.27
862.176	10012.51
862.498	10027.87
862.819	9939.29
863.14	9953.52
863.461	9896.35
863.782	9837.14
864.103	9847.31
864.424	9767.54
864.745	9787.43
865.065	9751.72
865.386	9686.41
865.707	9769.35
866.027	9756.24
866.348	9764.15
866.668	9726.41
866.989	9718.73
867.309	9654.77
867.63	9592.63
867.95	9630.37
868.27	9518.73
868.59	9604.38
868.91	9547.66
869.23	9645.51
869.55	9524.38
869.87	9553.99
870.19	9523.93
870.51	9488.45
870.83	9486.64
871.15	9369.13
871.469	9338.85
871.789	9492.07
872.109	9460.66
872.428	9340.88
872.748	9448.23
873.067	9384.95
873.386	9378.62
873.706	9409.81
874.025	9330.26
874.344	9326.2
874.663	9285.07
874.982	9305.18
875.301	9272.41
875.62	9182.47
875.939	9165.75
876.258	9214.79
876.577	9113.77
876.896	9145.41
877.214	9097.05
877.533	9188.57
877.852	9098.4
878.17	9152.41
878.489	9128.23
878.807	9088.91
879.125	9065.64
879.444	9073.32
879.762	9059.54
880.08	9053.89
880.398	8971.63
880.716	8934.34
881.034	8896.83
881.352	8961.91
881.67	8915.36
881.988	8930.5
882.306	8890.95
882.624	8862.93
882.941	8847.79
883.259	8818.41
883.577	8792.88
883.894	8777.96
884.212	8690.96
884.529	8810.73
884.846	8792.42
885.164	8678.3
885.481	8652.09
885.798	8639.66
886.115	8631.52
886.432	8646.21
886.75	8594.01
887.067	8570.06
887.383	8581.81
887.7	8536.16
888.017	8531.41
888.334	8610.51
888.651	8481.47
888.967	8403.96
889.284	8407.8
889.6	8389.72
889.917	8318.76
890.233	8345.66
890.55	8333.68
890.866	8319.89
891.182	8315.6
891.498	8277.41
891.815	8307.92
892.131	8249.61
892.447	8173.68
892.763	8217.52
893.079	8173.91
893.395	8124.42
893.71	8118.54
894.026	8112.67
894.342	8063.18
894.657	8007.81
894.973	8010.3
895.289	7995.38
895.604	7996.51
895.92	7986.57
896.235	7940.7
896.55	7917.87
896.865	7886.91
897.181	7870.64
897.496	7843.3
897.811	7819.57
898.126	7800.13
898.441	7745.45
898.756	7721.49
899.071	7696.86
899.386	7626.13
899.7	7618.67
900.015	7490.09
900.33	7533.25
900.644	7517.88
900.959	7565.56
901.273	7479.69
901.588	7430.65
901.902	7440.37
902.216	7388.17
902.531	7361.05
902.845	7399.69
903.159	7274.72
903.473	7280.15
903.787	7283.54
904.101	7171.22
904.415	7234.5
904.729	7158.12
905.042	7139.13
905.356	7123.54
905.67	7050.1
905.984	7063.43
906.297	7025.69
906.611	7038.12
906.924	7019.59
907.237	6985.24
907.551	6961.96
907.864	6909.99
908.177	6885.36
908.491	6839.93
908.804	6814.17
909.117	6850.1
909.43	6809.2
909.743	6707.06
910.056	6733.72
910.368	6703.89
910.681	6637.45
910.994	6654.63
911.307	6648.75
911.619	6612.37
911.932	6547.51
912.244	6545.03
912.557	6538.92
912.869	6488.08
913.181	6485.82
913.494	6464.12
913.806	6439.04
914.118	6405.82
914.43	6313.62
914.742	6337.57
915.054	6265.48
915.366	6273.17
915.678	6252.83
915.99	6235.66
916.302	6232.94
916.613	6148.43
916.925	6150.91
917.236	6111.82
917.548	6078.37
917.859	6086.05
918.171	6046.73
918.482	6026.17
918.794	6000.63
919.105	5966.06
919.416	5970.58
919.727	5854.42
920.038	5939.62
920.349	5891.94
920.66	5792.96
920.971	5825.27
921.282	5809
921.593	5808.77
921.903	5739.17
922.214	5748.21
922.525	5736.46
922.835	5693.75
923.146	5643.58
923.456	5626.41
923.767	5620.3
924.077	5589.8
924.387	5569.46
924.697	5571.04
925.008	5509.8
925.318	5448.56
925.628	5466.86
925.938	5508.67
926.248	5405.85
926.558	5418.28
926.867	5337.83
927.177	5413.98
927.487	5311.84
927.796	5282.46
928.106	5293.53
928.416	5245.4
928.725	5295.79
929.034	5212.63
929.344	5222.35
929.653	5178.73
929.962	5175.57
930.271	5127.66
930.581	5098.28
930.89	5075.01
931.199	5063.26
931.508	5075.46
931.817	5051.96
932.125	5069.36
932.434	4978.97
932.743	4983.03
933.051	4962.24
933.36	4861.45
933.669	4922.24
933.977	4887.44
934.286	4878.18
934.594	4864.17
934.902	4811.29
935.21	4808.8
935.519	4735.81
935.827	4792.98
936.135	4693.1
936.443	4691.29
936.751	4667.79
937.059	4696.03
937.367	4653.78
937.674	4639.54
937.982	4605.19
938.29	4646.77
938.597	4576.49
938.905	4549.6
939.213	4558.64
939.52	4497.17
939.827	4525.87
940.135	4526.77
940.442	4459.2
940.749	4423.5
941.056	4463.95
941.363	4428.47
941.67	4391.41
941.977	4358.87
942.284	4350.06
942.591	4354.35
942.898	4281.36
943.205	4307.8
943.511	4278.64
943.818	4270.74
944.125	4251.98
944.431	4244.52
944.738	4239.78
945.044	4233.22
945.35	4163.62
945.657	4144.86
945.963	4124.98
946.269	4103.96
946.575	4133.79
946.881	4080.46
947.187	4058.99
947.493	4061.93
947.799	4069.84
948.105	4026.45
948.41	3970.4
948.716	3983.74
949.022	3934.47
949.327	3907.58
949.633	3909.61
949.938	3864.42
950.244	3862.16
950.549	3862.16
950.854	3820.58
951.16	3876.17
951.465	3812.89
951.77	3829.16
952.075	3850.63
952.38	3803.18
952.685	3801.14
952.99	3743.52
953.294	3748.71
953.599	3711.65
953.904	3671.43
954.209	3695.16
954.513	3689.51
954.818	3653.58
955.122	3641.15
955.426	3625.78
955.731	3637.98
956.035	3584.88
956.339	3576.74
956.643	3540.58
956.948	3543.97
957.252	3551.88
957.556	3550.08
957.86	3525.67
958.163	3526.57
958.467	3499.91
958.771	3437.76
959.075	3492.9
959.378	3412.23
959.682	3426.24
959.985	3412.45
960.289	3410.87
960.592	3374.94
960.896	3350.99
961.199	3331.78
961.502	3329.74
961.805	3306.24
962.108	3286.58
962.411	3294.94
962.714	3257.43
963.017	3245.68
963.32	3238.9
963.623	3199.58
963.926	3224.21
964.228	3174.49
964.531	3175.17
964.833	3212.01
965.136	3182.18
965.438	3107.38
965.741	3124.55
966.043	3119.8
966.345	3113.25
966.648	3109.41
966.95	3114.38
967.252	3099.24
967.554	3066.47
967.856	3074.61
968.158	3007.27
968.46	2976.98
968.761	3000.94
969.063	2998.68
969.365	2973.82
969.666	2941.96
969.968	2947.15
970.269	2934.5
970.571	2974.05
970.872	2934.73
971.174	2879.81
971.475	2888.85
971.776	2892.92
972.077	2882.98
972.378	2832.13
972.679	2871.22
972.98	2831.9
973.281	2774.73
973.582	2792.58
973.883	2807.5
974.183	2774.96
974.484	2770.89
974.785	2754.39
975.085	2784.9
975.386	2751.91
975.686	2708.97
975.986	2712.13
976.287	2678.46
976.587	2665.13
976.887	2656.09
977.187	2671.46
977.487	2645.47
977.787	2646.15
978.087	2618.8
978.387	2609.31
978.687	2610.89
978.987	2584.9
979.286	2578.8
979.586	2599.14
979.885	2550.78
980.185	2539.03
980.484	2540.39
980.784	2499.93
981.083	2523.66
981.382	2532.02
981.682	2488.86
981.981	2489.31
982.28	2452.93
982.579	2460.39
982.878	2452.48
983.177	2458.58
983.475	2426.04
983.774	2418.58
984.073	2407.73
984.372	2359.6
984.67	2336.32
984.969	2400.73
985.267	2354.18
985.566	2392.59
985.864	2335.87
986.162	2359.6
986.461	2309.2
986.759	2327.06
987.057	2306.72
987.355	2277.12
987.653	2271.47
987.951	2280.73
988.249	2247.29
988.547	2260.62
988.844	2242.99
989.142	2228.08
989.44	2237.79
989.737	2196.21
990.035	2217.68
990.332	2213.16
990.63	2193.95
990.927	2206.38
991.224	2167.06
991.521	2147.4
991.819	2138.14
992.116	2132.03
992.413	2135.2
992.71	2108.76
993.006	2112.15
993.303	2093.17
993.6	2103.33
993.897	2068.53
994.193	2080.28
994.49	2084.58
994.787	2061.3
995.083	2035.09
995.379	2048.42
995.676	1991.93
995.972	2025.82
996.268	1991.93
996.565	2014.75
996.861	1990.12
997.157	1988.54
997.453	1951.47
997.749	1952.38
998.044	1945.6
998.34	1936.11
998.636	1909.67
998.932	1916.22
999.227	1884.58
999.523	1899.95
999.818	1875.09
1000.114	1880.06
1000.409	1872.15
1000.704	1858.14
1001	1825.15
1001.295	1864.24
1001.59	1851.59
1001.885	1823.57
1002.18	1804.81
1002.475	1804.81
1002.77	1800.52
1003.065	1784.92
1003.359	1804.13
1003.654	1765.94
1003.949	1756.68
1004.243	1775.89
1004.538	1711.03
1004.832	1738.15
1005.127	1706.73
1005.421	1725.04
1005.715	1706.06
1006.009	1713.06
1006.304	1675.32
1006.598	1695.21
1006.892	1666.06
1007.186	1680.52
1007.48	1661.99
1007.773	1640.3
1008.067	1633.97
1008.361	1610.01
1008.655	1604.59
1008.948	1605.49
1009.242	1588.55
1009.535	1578.6
1009.829	1562.56
1010.122	1554.87
1010.415	1555.78
1010.708	1538.6
1011.001	1555.33
1011.295	1523.01
1011.588	1530.24
1011.881	1527.53
1012.173	1523.46
1012.466	1492.28
1012.759	1490.47
1013.052	1493.18
1013.344	1465.61
1013.637	1482.11
1013.93	1464.48
1014.222	1454.76
1014.514	1461.54
1014.807	1415.89
1015.099	1389.68
1015.391	1407.76
1015.683	1403.92
1015.976	1445.05
1016.268	1375.22
1016.56	1354.2
1016.851	1387.2
1017.143	1373.41
1017.435	1346.74
1017.727	1353.3
1018.018	1367.76
1018.31	1344.26
1018.602	1309.23
1018.893	1331.83
1019.185	1312.39
1019.476	1303.81
1019.767	1288.89
1020.058	1305.39
1020.35	1267.42
1020.641	1272.62
1020.932	1246.63
1021.223	1255.67
1021.514	1232.85
1021.804	1243.7
1022.095	1240.76
1022.386	1238.5
1022.677	1236.46
1022.967	1216.13
1023.258	1181.78
1023.548	1198.05
1023.839	1181.1
1024.129	1179.52
1024.419	1179.74
1024.709	1144.94
1025	1170.7
1025.29	1144.04
1025.58	1137.26
1025.87	1149.69
1026.16	1153.75
1026.449	1121.89
1026.739	1117.37
1027.029	1119.41
1027.319	1099.97
1027.608	1088.67
1027.898	1076.02
1028.187	1073.08
1028.477	1071.05
1028.766	1072.18
1029.055	1046.19
1029.344	1051.38
1029.634	1062.68
1029.923	1023.14
1030.212	1028.33
1030.501	1038.05
1030.79	1016.13
1031.078	1023.59
1031.367	1023.81
1031.656	1019.07
1031.945	989.24
1032.233	998.96
1032.522	991.27
1032.81	1003.25
1033.099	987.66
1033.387	967.55
1033.675	981.33
1033.963	974.1
1034.251	951.27
1034.54	951.5
1034.828	961.67
1035.116	948.34
1035.403	913.08
1035.691	927.09
1035.979	916.02
1036.267	901.11
1036.554	911.95
1036.842	894.1
1037.129	874.67
1037.417	874.21
1037.704	888.23
1037.992	905.4
1038.279	893.42
1038.566	854.55
1038.853	854.55
1039.14	854.55
