Data from hue_30_FLMS001491_95.txt Node
Date: Mon Feb 06 15:06:25 GMT 2017
User: dcchb
Spectrometer: FLMS00149
Trigger mode: 0
Integration Time (sec): 2.000000E-2
Scans to average: 10
Electric dark correction enabled: true
Nonlinearity correction enabled: false
Boxcar width: 0
XAxis mode: Wavelengths
Number of Pixels in Spectrum: 2048
>>>>>Begin Spectral Data<<<<<
341.393	-7.67
341.776	-7.67
342.16	-7.67
342.543	-70.72
342.927	-89.25
343.31	-68.68
343.693	-62.36
344.077	-46.31
344.46	-72.53
344.843	-57.61
345.226	-53.77
345.61	-25.3
345.993	-11.74
346.376	-26.88
346.759	15.38
347.142	36.85
347.525	48.15
347.908	29.62
348.291	87.92
348.674	97.64
349.057	109.62
349.44	138.77
349.823	133.8
350.206	166.11
350.588	186.22
350.971	217.41
351.354	202.72
351.737	262.15
352.119	244.98
352.502	267.8
352.884	259.89
353.267	305.54
353.65	284.75
354.032	304.64
354.414	305.09
354.797	316.39
355.179	322.04
355.562	300.57
355.944	327.92
356.326	327.24
356.709	335.6
357.091	316.84
357.473	343.73
357.855	337.18
358.238	341.47
358.62	340.12
359.002	341.93
359.384	329.27
359.766	331.98
360.148	341.93
360.53	331.53
360.912	342.83
361.294	329.72
361.676	331.08
362.057	338.08
362.439	316.62
362.821	315.71
363.203	345.54
363.584	335.82
363.966	317.97
364.348	302.83
364.729	319.1
365.111	310.51
365.493	320.01
365.874	331.76
366.256	319.55
366.637	320.91
367.019	303.06
367.4	319.1
367.781	325.2
368.163	308.93
368.544	323.4
368.925	300.35
369.306	328.82
369.688	317.07
370.069	322.94
370.45	311.42
370.831	307.58
371.212	301.7
371.593	320.01
371.974	309.16
372.355	302.61
372.736	292.89
373.117	315.71
373.498	313.23
373.879	310.74
374.26	313.45
374.641	328.37
375.021	313.45
375.402	324.07
375.783	320.23
376.163	330.4
376.544	319.78
376.925	333.56
377.305	318.42
377.686	316.62
378.066	320.23
378.447	313.9
378.827	345.77
379.208	317.97
379.588	328.37
379.968	313
380.349	335.82
380.729	322.49
381.109	349.61
381.489	351.64
381.87	310.51
382.25	334.92
382.63	338.31
383.01	355.26
383.39	340.12
383.77	330.85
384.15	331.53
384.53	336.28
384.91	349.84
385.29	337.18
385.67	334.47
386.049	345.99
386.429	370.17
386.809	315.26
387.189	348.48
387.568	350.97
387.948	345.09
388.328	334.47
388.707	345.32
389.087	344.19
389.466	357.74
389.846	350.06
390.225	354.81
390.605	350.74
390.984	354.81
391.363	350.06
391.743	362.94
392.122	378.76
392.501	372.43
392.881	367.01
393.26	371.3
393.639	386.44
394.018	368.59
394.397	368.37
394.776	371.76
395.155	367.46
395.534	372.89
395.913	353
396.292	385.77
396.671	374.92
397.05	350.29
397.429	370.85
397.808	362.04
398.186	363.85
398.565	376.5
398.944	373.79
399.323	376.5
399.701	380.57
400.08	387.57
400.458	373.11
400.837	386.44
401.215	404.75
401.594	388.7
401.972	385.77
402.351	380.57
402.729	397.74
403.107	393.22
403.486	394.13
403.864	406.56
404.242	395.48
404.62	410.85
404.999	390.96
405.377	410.62
405.755	413.79
406.133	418.99
406.511	390.74
406.889	441.58
407.267	412.43
407.645	406.11
408.023	411.53
408.401	415.82
408.779	440.23
409.156	426.9
409.534	400.23
409.912	428.93
410.29	434.35
410.667	441.58
411.045	418.76
411.422	448.36
411.8	428.7
412.178	422.15
412.555	434.58
412.933	435.03
413.31	452.43
413.687	455.6
414.065	436.61
414.442	458.08
414.819	482.49
415.197	458.31
415.574	471.87
415.951	453.11
416.328	464.63
416.705	489.94
417.082	487.23
417.46	481.58
417.837	472.77
418.214	494.69
418.591	490.85
418.967	480.91
419.344	509.38
419.721	454.01
420.098	480.45
420.475	465.09
420.852	463.28
421.228	494.24
421.605	477.97
421.982	503.96
422.358	522.94
422.735	518.42
423.111	508.02
423.488	518.19
423.864	499.44
424.241	534.46
424.617	532.66
424.994	518.19
425.37	503.96
425.746	525.2
426.123	511.87
426.499	543.28
426.875	545.08
427.251	550.28
427.627	562.26
428.003	547.8
428.379	522.71
428.756	547.57
429.132	569.94
429.507	547.8
429.883	560.45
430.259	565.2
430.635	580.79
431.011	585.31
431.387	575.14
431.763	572.65
432.138	597.74
432.514	607.46
432.89	614.91
433.265	597.96
433.641	595.7
434.016	617.85
434.392	604.97
434.767	630.28
435.143	610.39
435.518	623.05
435.894	648.81
436.269	633.9
436.644	640.68
437.02	656.27
437.395	653.78
437.77	648.13
438.145	663.05
438.52	684.74
438.895	671.86
439.271	696.72
439.646	684.97
440.021	689.49
440.395	712.31
440.77	656.27
441.145	689.71
441.52	663.95
441.895	710.73
442.27	707.79
442.645	694.23
443.019	709.6
443.394	736.27
443.769	704.4
444.143	711.63
444.518	733.78
444.892	705.76
445.267	733.1
445.641	760.45
446.016	735.36
446.39	730.62
446.764	733.1
447.139	740.33
447.513	754.8
447.887	751.18
448.262	751.86
448.636	767.9
449.01	751.63
449.384	789.6
449.758	788.92
450.132	795.93
450.506	791.63
450.88	810.16
451.254	774.68
451.628	806.55
452.002	818.07
452.376	825.3
452.75	815.36
453.123	834.12
453.497	840.67
453.871	832.31
454.244	845.19
454.618	875.47
454.992	847.45
455.365	909.59
455.739	870.5
456.112	907.79
456.486	928.8
456.859	910.05
457.232	893.78
457.606	899.43
457.979	903.95
458.352	943.04
458.725	932.87
459.099	941.68
459.472	934.45
459.845	977.39
460.218	965.86
460.591	960.67
460.964	983.94
461.337	990.27
461.71	1009.48
462.083	1011.06
462.456	1016.03
462.829	1023.94
463.201	1051.29
463.574	1040.44
463.947	1040.66
464.32	1097.39
464.692	1120.89
465.065	1096.93
465.438	1103.49
465.81	1128.8
466.183	1121.79
466.555	1162.24
466.928	1141.91
467.3	1148.01
467.672	1187.55
468.045	1202.69
468.417	1198.63
468.789	1236.82
469.161	1246.08
469.534	1278.85
469.906	1255.8
470.278	1291.51
470.65	1301
471.022	1335.8
471.394	1343.03
471.766	1354.33
472.138	1374.67
472.51	1422.12
472.882	1473.2
473.253	1448.11
473.625	1484.27
473.997	1490.14
474.369	1496.25
474.74	1556.81
475.112	1571.72
475.484	1598.39
475.855	1629.58
476.227	1632.97
476.598	1700.08
476.97	1705.51
477.341	1749.35
477.713	1780.31
478.084	1818.95
478.455	1840.42
478.827	1876.8
479.198	1917.93
479.569	1947.31
479.94	2038.6
480.311	2040.86
480.682	2096.46
481.053	2154.76
481.424	2183.46
481.795	2234.53
482.166	2269.33
482.537	2291.93
482.908	2366.51
483.279	2405.37
483.65	2430.91
484.021	2506.39
484.391	2527.86
484.762	2584.13
485.133	2632.94
485.503	2662.09
485.874	2705.48
486.244	2769.43
486.615	2812.14
486.985	2903.89
487.356	2957.9
487.726	2984.79
488.097	3074.06
488.467	3084.45
488.837	3150.89
489.207	3260.72
489.578	3291.68
489.948	3369.42
490.318	3418.68
490.688	3373.26
491.058	3494.84
491.428	3563.99
491.798	3635.17
492.168	3679.92
492.538	3722.18
492.908	3800.37
493.278	3822.96
493.648	3865.9
494.017	3907.26
494.387	3987.48
494.757	4036.29
495.126	4121.26
495.496	4100.02
495.866	4228.83
496.235	4232.67
496.605	4290.3
496.974	4314.93
497.344	4371.65
497.713	4407.13
498.082	4415.72
498.452	4514.7
498.821	4540.91
499.19	4540.01
499.559	4585.66
499.928	4620.01
500.298	4770.96
500.667	4765.31
501.036	4723.05
501.405	4798.53
501.774	4827.68
502.143	4911.52
502.512	4943.84
502.88	4975.48
503.249	5009.6
503.618	5045.53
503.987	5040.56
504.356	5117.62
504.724	5144.96
505.093	5193.1
505.462	5160.56
505.83	5210.72
506.199	5272.87
506.567	5375.24
506.936	5386.31
507.304	5402.13
507.672	5405.3
508.041	5471.28
508.409	5515.58
508.777	5525.29
509.145	5572.52
509.514	5599.19
509.882	5646.65
510.25	5654.33
510.618	5699.75
510.986	5693.65
511.354	5730.71
511.722	5770.48
512.09	5831.5
512.458	5835.11
512.826	5853.19
513.193	5869.24
513.561	5907.88
513.929	5936.13
514.297	5989.46
514.664	6005.96
515.032	6034.21
515.4	6092.28
515.767	6101.1
516.135	6157.37
516.502	6113.07
516.869	6208.21
517.237	6213.86
517.604	6202.56
517.972	6313.07
518.339	6285.72
518.706	6334.31
519.073	6345.38
519.44	6362.11
519.808	6403.91
520.175	6421.31
520.542	6544.7
520.909	6475.55
521.276	6492.95
521.643	6601.65
522.009	6620.41
522.376	6626.05
522.743	6670.35
523.11	6714.64
523.477	6728.42
523.843	6759.16
524.21	6886.16
524.577	6893.17
524.943	6877.8
525.31	6901.75
525.676	6991.24
526.043	7039.15
526.409	7041.41
526.776	7172.71
527.142	7147.4
527.508	7148.53
527.874	7245.7
528.241	7212.71
528.607	7259.71
528.973	7357.56
529.339	7346.71
529.705	7391.23
530.071	7452.02
530.437	7465.58
530.803	7494.28
531.169	7511.23
531.535	7600.27
531.901	7597.1
532.267	7636.88
532.632	7659.93
532.998	7691.11
533.364	7732.24
533.73	7774.05
534.095	7807.94
534.461	7868.96
534.826	7873.25
535.192	7909.86
535.557	7964.78
535.923	7950.09
536.288	8002.52
536.653	8089.97
537.019	8076.19
537.384	8063.53
537.749	8134.26
538.114	8195.28
538.479	8214.71
538.845	8196.18
539.21	8260.81
539.575	8245
539.94	8271.44
540.305	8323.64
540.67	8311.43
541.034	8402.73
541.399	8431.2
541.764	8487.47
542.129	8508.72
542.494	8524.54
542.858	8532.67
543.223	8572.9
543.587	8586.23
543.952	8609.73
544.316	8691.99
544.681	8749.39
545.045	8734.02
545.41	8810.86
545.774	8873.23
546.138	8900.57
546.503	8896.96
546.867	8936.95
547.231	9008.82
547.595	8984.86
547.959	9016.73
548.324	9068.93
548.688	9157.06
549.052	9183.95
549.416	9195.93
549.779	9136.95
550.143	9164.97
550.507	9236.38
550.871	9240.22
551.235	9286.32
551.599	9430.73
551.962	9346.21
552.326	9406.77
552.689	9470.73
553.053	9377.62
553.417	9398.86
553.78	9471.18
554.143	9498.52
554.507	9561.34
554.87	9589.59
555.234	9762.47
555.597	9652.64
555.96	9686.54
556.323	9674.11
556.686	9743.26
557.05	9847.66
557.413	9865.74
557.776	9894.44
558.139	10047.43
558.502	9925.18
558.865	9953.2
559.228	10029.58
559.59	10095.79
559.953	10061.67
560.316	10167.43
560.679	10100.99
561.041	10240.2
561.404	10196.36
561.767	10283.81
562.129	10291.27
562.492	10330.14
562.854	10307.31
563.217	10327.2
563.579	10343.02
563.941	10422.79
564.304	10467.99
564.666	10510.02
565.028	10585.05
565.39	10557.7
565.753	10626.18
566.115	10757.47
566.477	10765.38
566.839	10729.45
567.201	10828.66
567.563	10824.59
567.925	10926.96
568.287	10846.06
568.648	10932.16
569.01	10988.88
569.372	11059.38
569.734	11054.64
570.095	11056.67
570.457	11098.25
570.819	11243.33
571.18	11215.09
571.542	11284.24
571.903	11325.37
572.265	11400.39
572.626	11360.17
572.987	11505.93
573.349	11576.66
573.71	11618.01
574.071	11695.98
574.432	11744.34
574.794	11813.94
575.155	11881.74
575.516	11888.29
575.877	11970.09
576.238	12010.55
576.599	12194.27
576.96	12226.81
577.32	12266.58
577.681	12410.76
578.042	12579.34
578.403	12592.9
578.763	12681.26
579.124	12771.2
579.485	12996.28
579.845	13110.18
580.206	13110.4
580.566	13270.4
580.927	13422.03
581.287	13585.42
581.648	13587
582.008	13815.24
582.368	13941.12
582.728	14166.42
583.089	14265.63
583.449	14407.32
583.809	14617.93
584.169	14755.11
584.529	14939.06
584.889	15215.66
585.249	15295.43
585.609	15454.3
585.969	15758.02
586.329	15904.91
586.688	16100.38
587.048	16254.95
587.408	16504.44
587.768	16724.77
588.127	16965.44
588.487	17059
588.846	17466.9
589.206	17582.15
589.565	17802.94
589.925	18078.86
590.284	18331.96
590.643	18558.4
591.003	18833.42
591.362	19145.73
591.721	19305.5
592.08	19653.51
592.44	19920.85
592.799	20097.56
593.158	20381.85
593.517	20656.87
593.876	20903.65
594.235	21063.87
594.593	21301.15
594.952	21716.05
595.311	21890.51
595.67	22194.23
596.029	22641
596.387	22818.62
596.746	23029.24
597.104	23226.97
597.463	23446.86
597.822	23798.48
598.18	23980.17
598.538	24157.12
598.897	24515.08
599.255	24588.75
599.613	25082.52
599.972	25195.28
600.33	25440.02
600.688	25643.18
601.046	25862.84
601.404	26302.15
601.762	26444.97
602.12	26824.85
602.478	26965.18
602.836	27124.72
603.194	27293.99
603.552	27692.62
603.91	27669.34
604.268	28075.21
604.625	28124.02
604.983	28356.33
605.341	28496.67
605.698	28857.33
606.056	29025.69
606.413	29159.93
606.771	29500.71
607.128	29721.27
607.485	29720.81
607.843	29801.94
608.2	30257.3
608.557	30529.83
608.914	30433.34
609.272	30744.97
609.629	31054.79
609.986	31300.89
610.343	31296.14
610.7	31608.9
611.057	31783.81
611.414	31877.14
611.771	31963.24
612.127	32242.33
612.484	32303.35
612.841	32631.25
613.198	32584.47
613.554	32700.62
613.911	33014.06
614.267	33101.52
614.624	33076.21
614.98	33499.47
615.337	33564.56
615.693	33591.9
616.05	33664.89
616.406	34037.31
616.762	33941.95
617.118	34032.34
617.475	34217.42
617.831	34434.36
618.187	34549.16
618.543	34722.94
618.899	34847.46
619.255	34914.35
619.611	34981.02
619.967	35264.17
620.323	35340.33
620.678	35265.75
621.034	35323.61
621.39	35316.83
621.746	35401.8
622.101	35755.68
622.457	35701.9
622.812	35771.05
623.168	35920.43
623.523	35882.69
623.879	36065.28
624.234	35912.52
624.589	36086.3
624.945	36231.15
625.3	36146.86
625.655	36281.55
626.01	36357.93
626.365	36376.46
626.72	36516.34
627.075	36479.73
627.43	36470.24
627.785	36513.63
628.14	36609.22
628.495	36632.95
628.85	36736.68
629.205	36628.43
629.559	36783
629.914	36708.88
630.269	36751.36
630.623	36704.81
630.978	36857.8
631.332	36926.73
631.687	37046.5
632.041	36911.13
632.396	36897.58
632.75	36871.14
633.104	36843.34
633.459	36672.72
633.813	36807.63
634.167	36793.4
634.521	36860.06
634.875	36955.88
635.229	36846.5
635.583	36635.21
635.937	36787.3
636.291	36883.79
636.645	36860.97
636.999	36781.87
637.352	36824.13
637.706	36766.96
638.06	36973.28
638.413	36913.62
638.767	36767.41
639.121	36942.55
639.474	36625.72
639.828	36836.79
640.181	36809.89
640.534	36753.17
640.888	36708.88
641.241	36516.12
641.594	36612.84
641.947	36786.84
642.301	36582.1
642.654	36688.54
643.007	36589.79
643.36	36662.55
643.713	36562.44
644.066	36667.98
644.419	36383.24
644.771	36252.85
645.124	35768.79
645.477	35785.06
645.83	35679.53
646.182	35506.2
646.535	35498.06
646.888	35534.67
647.24	35352.98
647.593	35649.7
647.945	35438.18
648.298	35360.21
648.65	35446.54
649.002	35216.94
649.355	35351.4
649.707	35324.28
650.059	35486.76
650.411	35932.18
650.763	35864.16
651.115	36229.8
651.467	36190.93
651.819	36141.66
652.171	36065.73
652.523	36004.72
652.875	35968.33
653.227	35872.52
653.578	36195.22
653.93	35927.88
654.282	35847.89
654.633	35839.98
654.985	35875.46
655.337	35881.56
655.688	35798.39
656.039	36042.68
656.391	35736.93
656.742	35754.1
657.094	35780.32
657.445	35987.32
657.796	35793.65
658.147	35812.63
658.498	35817.83
658.849	35916.58
659.2	35825.51
659.551	35633.2
659.902	35727.21
660.253	35726.31
660.604	35788.45
660.955	35556.59
661.306	35693.54
661.656	35690.38
662.007	35606.76
662.358	35712.75
662.708	35584.84
663.059	35632.52
663.409	35469.14
663.76	35795.46
664.11	35570.83
664.461	35639.53
664.811	35769.02
665.161	35759.3
665.511	35450.83
665.862	35690.83
666.212	35828.9
666.562	35802.69
666.912	35787.55
667.262	35658.29
667.612	35698.74
667.962	35724.72
668.312	35623.48
668.662	35706.65
669.011	35696.25
669.361	35623.26
669.711	35558.63
670.06	35556.59
670.41	35484.73
670.76	35455.58
671.109	35556.82
671.459	35532.87
671.808	35330.61
672.157	35396.37
672.507	35251.06
672.856	35286.09
673.205	35415.13
673.554	35399.54
673.904	35289.71
674.253	35508.68
674.602	35359.31
674.951	34754.35
675.3	34669.16
675.649	35228.69
675.998	35360.67
676.346	35284.06
676.695	35276.15
677.044	35077.06
677.393	35242.93
677.741	35260.78
678.09	35089.71
678.438	35123.84
678.787	34993.9
679.135	35105.53
679.484	34967.23
679.832	35072.76
680.181	34826.22
680.529	34967.23
680.877	34858.76
681.225	34736.28
681.573	34800.23
681.922	34683.17
682.27	34608.6
682.618	34590.29
682.966	34521.59
683.314	34507.81
683.661	34448.83
684.009	34400.92
684.357	34343.74
684.705	34188.49
685.053	34246.12
685.4	34290.86
685.748	34132.22
686.095	34052.45
686.443	34021.27
686.79	33817.66
687.138	34051.1
687.485	34002.74
687.832	33794.61
688.18	33861.04
688.527	33573.37
688.874	33631.45
689.221	33556.65
689.568	33468.96
689.915	33404.33
690.262	33412.47
690.609	33299.48
690.956	33144.68
691.303	33160.95
691.65	33013.16
691.997	32980.16
692.344	32840.51
692.69	32900.39
693.037	32821.52
693.383	32470.12
693.73	32707.4
694.077	32490.46
694.423	32489.78
694.769	32333.4
695.116	32291.82
695.462	32251.14
695.808	32293.85
696.155	32209.56
696.501	31993.52
696.847	32004.6
697.193	31799.63
697.539	31914.66
697.885	31673.53
698.231	31608.9
698.577	31594.66
698.923	31427.89
699.269	31252.98
699.614	31258.63
699.96	31126.65
700.306	31161.23
700.651	31093.21
700.997	30903.16
701.342	30864.51
701.688	30997.17
702.033	30714.69
702.379	30652.77
702.724	30549.72
703.069	30639.43
703.415	30324.19
703.76	30450.06
704.105	30327.58
704.45	30254.81
704.795	30202.38
705.14	30045.33
705.485	30039.45
705.83	29969.17
706.175	30026.12
706.52	29815.73
706.865	29699.12
707.209	29686.92
707.554	29535.96
707.899	29695.28
708.243	29475.17
708.588	29436.08
708.932	29201.96
709.277	29235.86
709.621	29294.84
709.966	29065.01
710.31	29109.08
710.654	28799.26
710.998	29016.43
711.342	28983.66
711.687	28921.97
712.031	28752.25
712.375	28684.23
712.719	28622.99
713.063	28540.28
713.407	28600.62
713.75	28578.25
714.094	28565.36
714.438	28359.04
714.782	28387.52
715.125	28195.66
715.469	28307.07
715.812	28112.27
716.156	28040.18
716.499	27977.58
716.843	28072.95
717.186	27788.21
717.53	27967.41
717.873	27959.96
718.216	27808.55
718.559	27804.48
718.902	27573.07
719.246	27737.14
719.589	27569.01
719.932	27557.71
720.275	27528.33
720.617	27430.93
720.96	27417.37
721.303	27317.04
721.646	27378.28
721.989	27232.74
722.331	27399.29
722.674	27187.32
723.016	27144.39
723.359	27197.27
723.701	27198.17
724.044	26962.24
724.386	26900.78
724.729	27031.62
725.071	26824.17
725.413	26910.27
725.755	26755.24
726.097	26680.44
726.439	26610.61
726.782	26662.14
727.124	26679.31
727.465	26555.93
727.807	26603.83
728.149	26482.48
728.491	26443.16
728.833	26534.01
729.175	26253.34
729.516	26267.8
729.858	26240.45
730.199	26371.75
730.541	26313.45
730.882	26260.79
731.224	26310.51
731.565	26099.89
731.906	26066.45
732.248	26085.66
732.589	26004.75
732.93	25953.46
733.271	25936.96
733.612	25872.1
733.953	25908.26
734.294	25732.9
734.635	25715.95
734.976	25781.26
735.317	25737.87
735.658	25646.35
735.999	25689.28
736.339	25593.92
736.68	25627.59
737.021	25572.45
737.361	25445.67
737.702	25473.92
738.042	25444.09
738.383	25455.39
738.723	25488.61
739.063	25296.52
739.404	25454.94
739.744	25306.47
740.084	25294.72
740.424	25318.9
740.764	25311.21
741.104	25202.97
741.444	25105.12
741.784	25045.68
742.124	25159.58
742.464	25064.44
742.804	24986.25
743.143	24967.27
743.483	24866.7
743.823	24843.65
744.162	24704.45
744.502	24842.3
744.841	24679.82
745.181	24834.84
745.52	24701.51
745.86	24670.55
746.199	24675.52
746.538	24538.13
746.877	24635.98
747.216	24719.14
747.556	24499.48
747.895	24500.39
748.234	24472.14
748.573	24322.76
748.911	24415.42
749.25	24523.21
749.589	24307.85
749.928	24320.5
750.267	24280.05
750.605	24238.92
750.944	24312.14
751.283	24131.81
751.621	24137.68
751.96	24019.04
752.298	24103.79
752.636	23995.32
752.975	23917.13
753.313	23936.56
753.651	23911.7
753.989	23800.52
754.327	23818.14
754.666	23713.29
755.004	23663.12
755.342	23614.99
755.679	23636
756.017	23498.38
756.355	23515.55
756.693	23446.86
757.031	23471.26
757.368	23300.87
757.706	23316.24
758.044	23298.84
758.381	23311.94
758.719	23232.62
759.056	23229.01
759.394	23148.78
759.731	23016.13
760.068	23036.92
760.405	22860.43
760.743	22790.6
761.08	22743.6
761.417	22809.58
761.754	22731.85
762.091	22617.05
762.428	22554.68
762.765	22481.23
763.102	22600.32
763.438	22411.63
763.775	22238.3
764.112	22295.93
764.449	22203.5
764.785	22169.6
765.122	22015.48
765.458	21962.37
765.795	21934.35
766.131	21859.55
766.467	21894.58
766.804	21682.83
767.14	21586.57
767.476	21620.91
767.812	21469.51
768.148	21505.21
768.485	21441.48
768.821	21248.27
769.157	21313.58
769.492	21201.49
769.828	21196.97
770.164	21088.73
770.5	21018.44
770.836	20894.83
771.171	20879.01
771.507	20762.41
771.842	20648.96
772.178	20626.14
772.513	20542.75
772.849	20506.14
773.184	20380.5
773.519	20444
773.855	20305.69
774.19	20135.08
774.525	20105.02
774.86	20186.15
775.195	20140.28
775.53	19987.06
775.865	19908.87
776.2	19731.92
776.535	19638.59
776.87	19630.46
777.205	19595.88
777.539	19406.96
777.874	19514.76
778.209	19273.63
778.543	19216.91
778.878	19180.53
779.212	19221.88
779.547	19056.69
779.881	19176.23
780.215	18978.27
780.55	19028.67
780.884	18934.21
781.218	18833.87
781.552	18820.54
781.886	18728.34
782.22	18612.86
782.554	18522.46
782.888	18350.04
783.222	18295.58
783.556	18263.94
783.889	18194.56
784.223	18117.73
784.557	18133.1
784.89	18069.6
785.224	17883.16
785.557	17797.29
785.891	17776.72
786.224	17709.83
786.558	17835.48
786.891	17611.3
787.224	17509.61
787.557	17484.53
787.891	17499.89
788.224	17416.51
788.557	17467.13
788.89	17313.01
789.223	17294.02
789.556	17122.05
789.888	17126.8
790.221	16967.48
790.554	16978.78
790.887	16921.38
791.219	16894.26
791.552	16790.99
791.884	16765.67
792.217	16738.56
792.549	16622.63
792.882	16508.28
793.214	16488.85
793.546	16497.21
793.879	16349.41
794.211	16249.76
794.543	16255.63
794.875	16204.79
795.207	16310.55
795.539	16125.01
795.871	16233.26
796.203	15975.64
796.535	15995.3
796.867	15948.97
797.198	15826.72
797.53	15753.72
797.862	15747.17
798.193	15715.31
798.525	15673.5
798.856	15633.5
799.188	15570.23
799.519	15492.49
799.85	15403.9
800.182	15373.62
800.513	15367.75
800.844	15294.53
801.175	15332.04
801.506	15278.03
801.837	15174.76
802.168	15239.16
802.499	15079.39
802.83	15006.85
803.161	14991.03
803.491	15004.14
803.822	14989.22
804.153	14854.54
804.483	14759.85
804.814	14770.7
805.145	14706.52
805.475	14694.77
805.805	14680.76
806.136	14627.43
806.466	14621.78
806.796	14579.97
807.126	14422.91
807.457	14399.86
807.787	14442.35
808.117	14344.27
808.447	14276.02
808.777	14377.94
809.107	14238.51
809.436	14183.14
809.766	14125.29
810.096	14159.19
810.426	14095.69
810.755	14135.69
811.085	13975.47
811.414	14030.61
811.744	13948.12
812.073	13883.49
812.403	13861.8
812.732	13810.95
813.061	13817.73
813.39	13746.32
813.719	13702.7
814.049	13752.65
814.378	13732.08
814.707	13655.02
815.036	13640.79
815.365	13543.39
815.693	13412.77
816.022	13459.1
816.351	13420.45
816.68	13268.82
817.008	13309.72
817.337	13268.37
817.665	13296.84
817.994	13330.06
818.322	13220.46
818.651	13139.33
818.979	13155.15
819.307	13152.21
819.636	13118.77
819.964	13045.55
820.292	13079.9
820.62	13084.87
820.948	13055.49
821.276	13124.41
821.604	13037.41
821.932	12990.86
822.259	13051.87
822.587	12979.11
822.915	12969.39
823.243	12983.85
823.57	12986.57
823.898	12992.67
824.225	12889.62
824.553	12922.16
824.88	12888.04
825.207	12948.15
825.535	12904.76
825.862	12961.93
826.189	12907.47
826.516	12994.25
826.843	12986.34
827.17	12918.54
827.497	12959
827.824	12965.32
828.151	12958.54
828.478	12926.68
828.805	12955.83
829.131	12959.45
829.458	12924.42
829.785	12830.64
830.111	12867.47
830.438	12945.21
830.764	12894.59
831.09	12885.1
831.417	12867.92
831.743	12892.78
832.069	12901.37
832.395	12833.57
832.722	12844.42
833.048	12831.32
833.374	12816.17
833.7	12705.89
834.026	12766.91
834.351	12809.62
834.677	12768.72
835.003	12745.89
835.329	12767.59
835.654	12670.87
835.98	12640.81
836.306	12661.6
836.631	12650.3
836.956	12654.82
837.282	12682.17
837.607	12591.1
837.932	12515.39
838.258	12563.98
838.583	12515.17
838.908	12545.9
839.233	12550.42
839.558	12433.81
839.883	12479.01
840.208	12442.85
840.533	12371.67
840.858	12375.73
841.182	12407.37
841.507	12282.63
841.832	12334.38
842.156	12278.11
842.481	12281.95
842.805	12215.74
843.13	12180.94
843.454	12196.76
843.778	12159.69
844.103	12121.5
844.427	12066.59
844.751	11980.04
845.075	12045.35
845.399	11945.01
845.723	11907.72
846.047	11951.34
846.371	11792.47
846.695	11819.59
847.019	11778.91
847.343	11652.36
847.666	11568.07
847.99	11583.89
848.313	11563.55
848.637	11551.12
848.96	11437.91
849.284	11362.65
849.607	11393.16
849.931	11363.78
850.254	11276.33
850.577	11162.66
850.9	11139.83
851.223	11100.74
851.546	11040.85
851.869	10984.58
852.192	11046.05
852.515	10942.78
852.838	10894.87
853.161	10901.65
853.483	10875.66
853.806	10757.02
854.129	10750.01
854.451	10734.87
854.774	10710.69
855.096	10639.73
855.419	10608.1
855.741	10598.61
856.063	10572.17
856.385	10503.24
856.708	10525.84
857.03	10446.52
857.352	10435.22
857.674	10398.61
857.996	10432.73
858.318	10350.02
858.64	10314.77
858.961	10328.33
859.283	10225.96
859.605	10259.41
859.926	10229.8
860.248	10208.56
860.57	10105.96
860.891	10112.52
861.212	10119.97
861.534	10088.34
861.855	10069.81
862.176	10005.4
862.498	10096.47
862.819	10067.77
863.14	9962.69
863.461	9924.95
863.782	9922.69
864.103	9934.89
864.424	9919.3
864.745	9874.56
865.065	9891.73
865.386	9802.24
865.707	9839.76
866.027	9816.03
866.348	9799.08
866.668	9788.23
866.989	9771.28
867.309	9646.31
867.63	9774.67
867.95	9737.61
868.27	9620.33
868.59	9684.51
868.91	9668.46
869.23	9639.99
869.55	9565.19
869.87	9689.25
870.19	9601.12
870.51	9611.96
870.83	9556.6
871.15	9486.32
871.469	9512.98
871.789	9551.85
872.109	9484.51
872.428	9463.04
872.748	9489.26
873.067	9467.79
873.386	9492.42
873.706	9415.13
874.025	9383.5
874.344	9360.45
874.663	9394.34
874.982	9399.99
875.301	9316.83
875.62	9276.61
875.939	9251.07
876.258	9324.97
876.577	9245.19
876.896	9323.84
877.214	9265.08
877.533	9272.09
877.852	9257.62
878.17	9233.44
878.489	9190.96
878.807	9200.22
879.125	9194.12
879.444	9127.91
879.762	9175.82
880.08	9140.34
880.398	9037.74
880.716	9080.23
881.034	9105.31
881.352	8983.51
881.67	8978.54
881.988	9027.57
882.306	8991.42
882.624	8999.55
882.941	8938.54
883.259	8921.14
883.577	8894.7
883.894	8853.79
884.212	8830.06
884.529	8812.89
884.846	8848.14
885.164	8866.9
885.481	8730.63
885.798	8809.5
886.115	8761.59
886.432	8755.49
886.75	8697.86
887.067	8677.07
887.383	8613.12
887.7	8683.18
888.017	8597.3
888.334	8617.41
888.651	8575.38
888.967	8539.68
889.284	8482.5
889.6	8456.74
889.917	8466.01
890.233	8499.68
890.55	8406.35
890.866	8449.06
891.182	8406.12
891.498	8370.64
891.815	8321.6
892.131	8304.88
892.447	8267.14
892.763	8275.05
893.079	8245.9
893.395	8160.48
893.71	8162.74
894.026	8205.67
894.342	8166.81
894.657	8102.4
894.973	8049.52
895.289	8051.78
895.604	8079.8
895.92	8081.16
896.235	8003.42
896.55	7965.45
896.865	7951.22
897.181	7936.75
897.496	7883.2
897.811	7854.72
898.126	7855.85
898.441	7845.46
898.756	7832.8
899.071	7785.35
899.386	7782.18
899.7	7646.59
900.015	7689.76
900.33	7570.66
900.644	7624.67
900.959	7601.4
901.273	7549.42
901.588	7530.66
901.902	7494.96
902.216	7516.2
902.531	7442.3
902.845	7486.14
903.159	7336.54
903.473	7353.27
903.787	7333.15
904.101	7329.09
904.415	7280.05
904.729	7290.22
905.042	7195.53
905.356	7193.95
905.67	7193.95
905.984	7108.75
906.297	7043.67
906.611	7077.57
906.924	7052.94
907.237	6997.57
907.551	7018.13
907.864	7043.44
908.177	6957.8
908.491	6974.97
908.804	6909.21
909.117	6870.34
909.43	6849.1
909.743	6826.5
910.056	6827.86
910.368	6727.75
910.681	6722.55
910.994	6729.78
911.307	6693.4
911.619	6668.09
911.932	6628.09
912.244	6607.3
912.557	6544.25
912.869	6569.11
913.181	6511.93
913.494	6556.68
913.806	6473.52
914.118	6469.67
914.43	6432.39
914.742	6409.56
915.054	6391.48
915.366	6383.12
915.678	6325.05
915.99	6291.83
916.302	6268.32
916.613	6244.14
916.925	6184.03
917.236	6195.56
917.548	6189.46
917.859	6211.6
918.171	6095.9
918.482	6059.52
918.794	6023.58
919.105	6078.05
919.416	5982.91
919.727	5989.01
920.038	5991.95
920.349	5927.54
920.66	5970.48
920.971	5946.52
921.282	5869.46
921.593	5809.58
921.903	5875.79
922.214	5845.06
922.525	5768.22
922.835	5724.61
923.146	5704.04
923.456	5687.77
923.767	5691.16
924.077	5680.09
924.387	5604.16
924.697	5615.01
925.008	5582.24
925.318	5598.06
925.628	5526.42
925.938	5508.57
926.248	5449.81
926.558	5503.15
926.867	5411.85
927.177	5444.84
927.487	5392.19
927.796	5338.63
928.106	5388.35
928.416	5336.6
928.725	5344.05
929.034	5249.82
929.344	5233.77
929.653	5215.7
929.962	5236.26
930.271	5201.46
930.581	5176.6
930.89	5176.6
931.199	5088.02
931.508	5106.32
931.817	5078.75
932.125	5042.59
932.434	5049.15
932.743	4990.84
933.051	5023.38
933.36	4962.6
933.669	4961.92
933.977	4918.53
934.286	4937.74
934.594	4891.86
934.902	4857.51
935.21	4876.95
935.519	4848.93
935.827	4814.35
936.135	4794.92
936.443	4754.01
936.751	4739.1
937.059	4749.72
937.367	4704.98
937.674	4692.09
937.982	4683.96
938.29	4678.76
938.597	4648.93
938.905	4621.36
939.213	4582.49
939.52	4603.73
939.827	4571.65
940.135	4550.85
940.442	4498.65
940.749	4573.23
941.056	4472.44
941.363	4418.2
941.67	4460.69
941.977	4381.82
942.284	4399.22
942.591	4371.88
942.898	4337.08
943.205	4349.96
943.511	4348.37
943.818	4300.69
944.125	4287.36
944.431	4251.88
944.738	4218.21
945.044	4259.56
945.35	4217.76
945.657	4232.67
945.963	4211.65
946.269	4109.51
946.575	4127.14
946.881	4100.47
947.187	4165.78
947.493	4089.4
947.799	4098.89
948.105	4047.59
948.41	4094.14
948.716	4053.69
949.022	4020.93
949.327	4007.14
949.633	3959.46
949.938	3954.03
950.244	3971.66
950.549	3922.62
950.854	3862.96
951.16	3874.26
951.465	3888.73
951.77	3854.83
952.075	3837.2
952.38	3813.47
952.685	3819.35
952.99	3771.21
953.294	3788.39
953.599	3741.16
953.904	3759.01
954.209	3692.57
954.513	3705.68
954.818	3627.94
955.122	3670.88
955.426	3637.21
955.731	3681.95
956.035	3641.95
956.339	3577.77
956.643	3642.18
956.948	3572.8
957.252	3550.2
957.556	3561.05
957.86	3533.48
958.163	3529.19
958.467	3542.29
958.771	3542.29
959.075	3494.61
959.378	3469.75
959.682	3470.43
959.985	3406.03
960.289	3390.89
960.592	3368.29
960.896	3371.45
961.199	3338.23
961.502	3398.12
961.805	3376.87
962.108	3334.16
962.411	3314.28
962.714	3307.72
963.017	3291.68
963.32	3287.84
963.623	3243.54
963.926	3274.28
964.228	3258.23
964.531	3243.54
964.833	3234.73
965.136	3182.76
965.438	3156.54
965.741	3175.98
966.043	3157.45
966.345	3147.73
966.648	3126.94
966.95	3113.6
967.252	3078.58
967.554	3121.29
967.856	3081.06
968.158	3032.02
968.46	3069.54
968.761	3043.78
969.063	3030.89
969.365	3027.51
969.666	2999.48
969.968	2952.7
970.269	2978.69
970.571	2971.24
970.872	2923.78
971.174	2933.95
971.475	2913.38
971.776	2935.76
972.077	2874.51
972.378	2897.79
972.679	2846.72
972.98	2855.08
973.281	2878.13
973.582	2812.37
973.883	2822.76
974.183	2832.48
974.484	2785.7
974.785	2794.29
975.085	2768.3
975.386	2745.7
975.686	2780.96
975.986	2757.23
976.287	2741.41
976.587	2674.52
976.887	2742.77
977.187	2670.23
977.487	2724.24
977.787	2644.24
978.087	2645.59
978.387	2634.07
978.687	2668.42
978.987	2647.63
979.286	2588.19
979.586	2581.87
979.885	2583
980.185	2597.23
980.484	2547.29
980.784	2546.61
981.083	2526.73
981.382	2517.24
981.682	2502.77
981.981	2522.43
982.28	2509.78
982.579	2454.64
982.878	2460.97
983.177	2454.64
983.475	2459.84
983.774	2449.67
984.073	2428.65
984.372	2410.57
984.67	2416.22
984.969	2395.43
985.267	2363.79
985.566	2370.57
985.864	2373.29
986.162	2357.01
986.461	2359.95
986.759	2325.6
987.057	2345.26
987.355	2321.31
987.653	2309.78
987.951	2280.63
988.249	2277.69
988.547	2272.95
988.844	2256.68
989.142	2310.91
989.44	2249.67
989.737	2221.65
990.035	2227.75
990.332	2232.95
990.63	2202.44
990.927	2179.62
991.224	2190.92
991.521	2169
991.819	2189.34
992.116	2138.94
992.413	2132.61
992.71	2156.12
993.006	2131.48
993.303	2119.28
993.6	2111.37
993.897	2098.49
994.193	2115.44
994.49	2081.99
994.787	2071.37
995.083	2045.16
995.379	2061.2
995.676	2066.4
995.972	2013.97
996.268	2024.82
996.565	2010.58
996.861	1980.75
997.157	1987.31
997.453	2001.77
997.749	2002.45
998.044	1950.92
998.34	1950.25
998.636	1957.25
998.932	1942.56
999.227	1935.33
999.523	1951.6
999.818	1905.95
1000.114	1876.8
1000.409	1880.42
1000.704	1858.95
1001	1879.06
1001.295	1853.3
1001.59	1859.4
1001.885	1857.37
1002.18	1827.99
1002.475	1836.12
1002.77	1811.94
1003.065	1790.7
1003.359	1778.5
1003.654	1789.12
1003.949	1772.17
1004.243	1777.37
1004.538	1748.67
1004.832	1776.01
1005.127	1750.7
1005.421	1747.31
1005.715	1715
1006.009	1699.86
1006.304	1691.5
1006.598	1694.88
1006.892	1675.9
1007.186	1631.38
1007.48	1659.41
1007.773	1635
1008.067	1646.75
1008.361	1630.48
1008.655	1601.55
1008.948	1614.89
1009.242	1644.72
1009.535	1612.63
1009.829	1584.15
1010.122	1585.06
1010.415	1568.11
1010.708	1557.94
1011.001	1562.01
1011.295	1563.81
1011.588	1566.3
1011.881	1532.4
1012.173	1535.57
1012.466	1519.52
1012.759	1511.39
1013.052	1512.29
1013.344	1498.05
1013.637	1475.91
1013.93	1489.24
1014.222	1467.55
1014.514	1460.09
1014.807	1420.32
1015.099	1408.11
1015.391	1421.9
1015.683	1405.17
1015.976	1421.9
1016.268	1419.86
1016.56	1411.28
1016.851	1389.36
1017.143	1359.75
1017.435	1400.43
1017.727	1389.81
1018.018	1333.76
1018.31	1370.83
1018.602	1336.93
1018.893	1358.17
1019.185	1326.53
1019.476	1319.75
1019.767	1298.96
1020.058	1310.26
1020.35	1264.84
1020.641	1257.83
1020.932	1258.51
1021.223	1284.95
1021.514	1264.61
1021.804	1242.02
1022.095	1233.43
1022.386	1269.59
1022.677	1230.26
1022.967	1215.8
1023.258	1210.6
1023.548	1202.02
1023.839	1222.35
1024.129	1180.32
1024.419	1166.09
1024.709	1163.83
1025	1171.73
1025.29	1163.15
1025.58	1150.94
1025.87	1153.2
1026.16	1134.67
1026.449	1128.8
1026.739	1118.18
1027.029	1110.72
1027.319	1122.24
1027.608	1101.91
1027.898	1118.85
1028.187	1069.82
1028.477	1097.16
1028.766	1116.14
1029.055	1084.05
1029.344	1078.18
1029.634	1064.84
1029.923	1072.53
1030.212	1066.65
1030.501	1041.57
1030.79	1050.83
1031.078	1056.26
1031.367	1026.65
1031.656	1006.09
1031.945	1016.03
1032.233	989.14
1032.522	990.95
1032.81	995.02
1033.099	969.48
1033.387	947.56
1033.675	982.14
1033.963	966.54
1034.251	960.21
1034.54	969.25
1034.828	960.89
1035.116	924.51
1035.403	915.7
1035.691	928.58
1035.979	931.52
1036.267	939.2
1036.554	925.64
1036.842	897.62
1037.129	882.48
1037.417	903.27
1037.704	879.77
1037.992	887.45
1038.279	880.67
1038.566	879.31
1038.853	879.31
1039.14	879.31
