Data from hue_130_FLMS001491_00065.txt Node
Date: Tue Feb 07 16:57:56 GMT 2017
User: dcchb
Spectrometer: FLMS00149
Trigger mode: 0
Integration Time (sec): 2.000000E-2
Scans to average: 10
Electric dark correction enabled: true
Nonlinearity correction enabled: false
Boxcar width: 0
XAxis mode: Wavelengths
Number of Pixels in Spectrum: 2048
>>>>>Begin Spectral Data<<<<<
341.393	-5.01
341.776	-5.01
342.16	-5.01
342.543	-81.62
342.927	-71
343.31	-70.32
343.693	-64.22
344.077	-59.25
344.46	-67.39
344.843	-54.96
345.226	-40.49
345.61	-38.69
345.993	-26.93
346.376	-19.25
346.759	33.18
347.142	32.95
347.525	49.45
347.908	54.87
348.291	69.79
348.674	88.09
349.057	113.17
349.44	107.53
349.823	149.11
350.206	157.92
350.588	183
350.971	208.54
351.354	229.78
351.737	245.6
352.119	246.05
352.502	272.94
352.884	278.14
353.267	266.84
353.65	303
354.032	293.96
354.414	289.67
354.797	299.61
355.179	327.63
355.562	319.27
355.944	331.25
356.326	341.19
356.709	354.52
357.091	344.13
357.473	324.02
357.855	326.5
358.238	352.94
358.62	349.33
359.002	330.34
359.384	341.42
359.766	321.31
360.148	336.45
360.53	338.48
360.912	338.25
361.294	327.63
361.676	331.7
362.057	326.05
362.439	326.28
362.821	313.4
363.203	306.16
363.584	318.82
363.966	335.99
364.348	338.48
364.729	344.81
365.111	330.8
365.493	318.82
365.874	342.1
366.256	317.24
366.637	326.95
367.019	316.33
367.4	317.46
367.781	323.34
368.163	324.47
368.544	306.62
368.925	317.01
369.306	333.28
369.688	305.71
370.069	326.73
370.45	320.85
370.831	317.24
371.212	323.79
371.593	328.54
371.974	320.63
372.355	309.55
372.736	321.08
373.117	325.15
373.498	336.45
373.879	304.81
374.26	296
374.641	316.79
375.021	321.31
375.402	330.8
375.783	338.71
376.163	354.75
376.544	323.11
376.925	327.63
377.305	333.96
377.686	333.28
378.066	325.82
378.447	344.58
378.827	345.49
379.208	339.61
379.588	329.67
379.968	366.05
380.349	373.51
380.729	342.77
381.109	327.41
381.489	349.78
381.87	331.93
382.25	333.96
382.63	338.71
383.01	338.71
383.39	370.8
383.77	339.84
384.15	356.78
384.53	371.02
384.91	351.13
385.29	362.21
385.67	354.3
386.049	373.51
386.429	361.98
386.809	363.56
387.189	370.57
387.568	335.99
387.948	368.31
388.328	361.76
388.707	353.85
389.087	367.86
389.466	391.13
389.846	382.09
390.225	373.28
390.605	386.16
390.984	391.13
391.363	377.35
391.743	365.82
392.122	383
392.501	375.54
392.881	393.39
393.26	407.63
393.639	387.74
394.018	399.95
394.397	386.61
394.776	405.6
395.155	396.11
395.534	398.37
395.913	394.3
396.292	406.5
396.671	398.82
397.05	404.69
397.429	400.4
397.808	408.08
398.186	401.53
398.565	398.59
398.944	395.88
399.323	419.83
399.701	392.26
400.08	427.07
400.458	423.45
400.837	427.97
401.215	429.78
401.594	419.61
401.972	418.93
402.351	427.29
402.729	394.3
403.107	409.21
403.486	431.36
403.864	448.31
404.242	412.6
404.62	439.27
404.999	436.56
405.377	424.81
405.755	446.73
406.133	434.52
406.511	450.12
406.889	444.24
407.267	460.51
407.645	453.96
408.023	471.36
408.401	453.73
408.779	451.02
409.156	478.14
409.534	448.76
409.912	457.57
410.29	445.6
410.667	468.42
411.045	476.33
411.422	497.35
411.8	481.3
412.178	512.26
412.555	482.88
412.933	505.93
413.31	492.6
413.687	517.46
414.065	513.16
414.442	506.38
414.819	491.24
415.197	510.45
415.574	491.92
415.951	520.4
416.328	536.89
416.705	520.17
417.082	553.84
417.46	553.16
417.837	536.44
418.214	540.28
418.591	515.2
418.967	559.72
419.344	526.72
419.721	557.46
420.098	562.43
420.475	549.77
420.852	558.59
421.228	574.18
421.605	565.59
421.982	589.09
422.358	571.69
422.735	586.83
423.111	591.13
423.488	595.65
423.864	589.32
424.241	628.42
424.617	598.59
424.994	609.89
425.37	622.31
425.746	601.52
426.123	618.7
426.499	631.81
426.875	641.75
427.251	617.12
427.627	656.66
428.003	651.47
428.379	644.01
428.756	636.33
429.132	652.82
429.507	668.87
429.883	682.43
430.259	669.09
430.635	689.43
431.011	650.34
431.387	706.15
431.763	702.76
432.138	698.02
432.514	714.29
432.89	698.02
433.265	712.03
433.641	730.11
434.016	722.42
434.392	707.51
434.767	766.94
435.143	733.5
435.518	763.55
435.894	766.49
436.269	772.14
436.644	750.9
437.02	772.37
437.395	800.39
437.77	786.38
438.145	808.98
438.52	810.78
438.895	829.54
439.271	811.69
439.646	841.52
440.021	856.21
440.395	854.4
440.77	848.75
441.145	836.32
441.52	864.12
441.895	842.42
442.27	887.17
442.645	877.67
443.019	860.27
443.394	898.24
443.769	929.65
444.143	897.11
444.518	899.59
444.892	932.36
445.267	934.62
445.641	919.03
446.016	942.98
446.39	922.87
446.764	954.06
447.139	956.99
447.513	925.58
447.887	956.77
448.262	966.71
448.636	957.9
449.01	993.38
449.384	967.62
449.758	961.97
450.132	965.81
450.506	1000.84
450.88	1003.32
451.254	993.15
451.628	1048.29
452.002	1044
452.376	1045.58
452.75	1048.52
453.123	1069.31
453.497	1064.34
453.871	1080.61
454.244	1073.6
454.618	1121.28
454.992	1131
455.365	1124.9
455.739	1161.51
456.112	1166.48
456.486	1157.22
456.859	1182.53
457.232	1215.29
457.606	1203.09
457.979	1208.97
458.352	1232.02
458.725	1241.73
459.099	1267.04
459.472	1288.29
459.845	1279.02
460.218	1287.16
460.591	1291.22
460.964	1305.91
461.337	1335.97
461.71	1374.61
462.083	1388.85
462.456	1397.21
462.829	1382.52
463.201	1419.81
463.574	1459.13
463.947	1460.26
464.32	1505.23
464.692	1504.78
465.065	1526.02
465.438	1533.48
465.81	1558.11
466.183	1603.31
466.555	1644.66
466.928	1622.29
467.3	1658.45
467.672	1664.32
468.045	1707.26
468.417	1742.06
468.789	1738.44
469.161	1777.76
469.534	1820.93
469.906	1865.9
470.278	1878.1
470.65	1908.38
471.022	1928.27
471.394	1979.34
471.766	2025.22
472.138	2058.21
472.51	2093.91
472.882	2143.63
473.253	2165.55
473.625	2211.2
473.997	2276.51
474.369	2293.23
474.74	2314.47
475.112	2361.93
475.484	2455.94
475.855	2472.89
476.227	2573.45
476.598	2657.97
476.97	2689.15
477.341	2796.27
477.713	2829.94
478.084	2869.03
478.455	3022.7
478.827	3007.56
479.198	3112.19
479.569	3162.81
479.94	3254.79
480.311	3356.48
480.682	3466.31
481.053	3581.78
481.424	3623.14
481.795	3761.89
482.166	3816.81
482.537	3946.29
482.908	4039.85
483.279	4100.64
483.65	4270.58
484.021	4411.82
484.391	4477.13
484.762	4563.45
485.133	4664.02
485.503	4796.22
485.874	4974.97
486.244	5111.69
486.615	5193.49
486.985	5296.54
487.356	5485.92
487.726	5599.36
488.097	5799.58
488.467	5800.26
488.837	6024.43
489.207	6117.99
489.578	6256.52
489.948	6425.55
490.318	6587.81
490.688	6651.08
491.058	6779.89
491.428	6947.12
491.798	7113.22
492.168	7280.67
492.538	7385.07
492.908	7541.91
493.278	7706.42
493.648	7847.89
494.017	7985.06
494.387	8113.42
494.757	8298.95
495.126	8353.41
495.496	8492.39
495.866	8602.22
496.235	8765.38
496.605	8865.04
496.974	9028.65
497.344	9121.3
497.713	9279.04
498.082	9365.81
498.452	9476.54
498.821	9598.35
499.19	9701.85
499.559	9894.39
499.928	9910.88
500.298	10046.7
500.667	10233.36
501.036	10254.83
501.405	10434.49
501.774	10455.28
502.143	10661.6
502.512	10636.29
502.88	10799.22
503.249	10874.25
503.618	11008.71
503.987	11066.33
504.356	11143.39
504.724	11226.1
505.093	11307
505.462	11455.7
505.83	11448.24
506.199	11568.47
506.567	11714.45
506.936	11707.45
507.304	11918.51
507.672	11964.16
508.041	12008.46
508.409	12141.56
508.777	12211.16
509.145	12251.39
509.514	12279.41
509.882	12400.54
510.25	12394.66
510.618	12455.9
510.986	12491.83
511.354	12612.73
511.722	12676.23
512.09	12826.29
512.458	12801.2
512.826	12940.63
513.193	12956.23
513.561	13013.4
513.929	13096.34
514.297	13073.74
514.664	13234.64
515.032	13273.05
515.4	13340.85
515.767	13359.83
516.135	13432.37
516.502	13270.34
516.869	13466.95
517.237	13523.44
517.604	13574.29
517.972	13674.17
518.339	13616.77
518.706	13612.03
519.073	13711.24
519.44	13754.4
519.808	13903.09
520.175	13808.86
520.542	14033.49
520.909	13995.07
521.276	13948.29
521.643	14206.36
522.009	14102.86
522.376	14154.16
522.743	14185.57
523.11	14221.5
523.477	14297.43
523.843	14314.61
524.21	14436.87
524.577	14485.9
524.943	14477.32
525.31	14510.99
525.676	14561.61
526.043	14617.2
526.409	14636.18
526.776	14787.14
527.142	14751.21
527.508	14758.67
527.874	14874.59
528.241	14749.85
528.607	14882.05
528.973	14903.29
529.339	14845.89
529.705	14914.14
530.071	14901.03
530.437	14877.98
530.803	14960.92
531.169	14995.5
531.535	14869.17
531.901	14864.43
532.267	14956.17
532.632	14988.04
532.998	14959.11
533.364	14928.38
533.73	14895.61
534.095	14926.34
534.461	14920.24
534.826	14980.81
535.192	14877.98
535.557	15021.48
535.923	14995.95
536.288	14927.93
536.653	14927.47
537.019	14815.61
537.384	14816.97
537.749	14808.16
538.114	14896.29
538.479	14815.84
538.845	14775.39
539.21	14745.78
539.575	14658.33
539.94	14765.45
540.305	14712.34
540.67	14633.7
541.034	14665.11
541.399	14699.01
541.764	14662.4
542.129	14613.58
542.494	14572.68
542.858	14517.32
543.223	14516.64
543.587	14549.18
543.952	14516.41
544.316	14440.03
544.681	14406.36
545.045	14352.12
545.41	14378.56
545.774	14409.07
546.138	14364.1
546.503	14297.66
546.867	14246.14
547.231	14273.48
547.595	14294.05
547.959	14284.78
548.324	14220.6
548.688	14111.45
549.052	14107.16
549.416	14089.76
549.779	14021.06
550.143	13997.78
550.507	14077.55
550.871	14014.5
551.235	13927.95
551.599	14045.69
551.962	13971.57
552.326	13922.98
552.689	14032.58
553.053	13877.33
553.417	13762.76
553.78	13950.78
554.143	13812.25
554.507	13864
554.87	13810.89
555.234	13931.12
555.597	13762.76
555.96	13728.64
556.323	13795.3
556.686	13719.82
557.05	13787.62
557.413	13744
557.776	13772.7
558.139	13870.78
558.502	13686.38
558.865	13742.2
559.228	13764.34
559.59	13750.33
559.953	13736.09
560.316	13819.71
560.679	13779.93
561.041	13831.68
561.404	13782.87
561.767	13833.27
562.129	13735.64
562.492	13922.76
562.854	13817.22
563.217	13785.81
563.579	13837.79
563.941	13919.59
564.304	13966.82
564.666	13920.04
565.028	13919.82
565.39	13863.77
565.753	13994.17
566.115	14002.75
566.477	14012.92
566.839	14037.78
567.201	14122.75
567.563	13964.56
567.925	14156.65
568.287	14049.08
568.648	14063.09
569.01	14128.17
569.372	14083.43
569.734	14096.31
570.095	14207.72
570.457	14214.5
570.819	14226.7
571.18	14188.06
571.542	14275.74
571.903	14294.95
572.265	14281.84
572.626	14340.82
572.987	14313.93
573.349	14322.74
573.71	14348.51
574.071	14421.5
574.432	14436.64
574.794	14466.7
575.155	14423.31
575.516	14438.45
575.877	14463.31
576.238	14463.31
576.599	14511.21
576.96	14453.81
577.32	14490.42
577.681	14546.69
578.042	14477.77
578.403	14481.84
578.763	14533.59
579.124	14462.63
579.485	14515.96
579.845	14497.2
580.206	14485.68
580.566	14565.9
580.927	14536.52
581.287	14552.12
581.648	14478.67
582.008	14582.17
582.368	14545.11
582.728	14520.03
583.089	14466.47
583.449	14391.9
583.809	14484.77
584.169	14605.45
584.529	14418.56
584.889	14565.9
585.249	14478.22
585.609	14401.16
585.969	14491.33
586.329	14399.13
586.688	14474.61
587.048	14473.93
587.408	14283.65
587.768	14317.1
588.127	14350.31
588.487	14269.64
588.846	14441.16
589.206	14317.32
589.565	14280.71
589.925	14435.28
590.284	14342.41
590.643	14395.74
591.003	14386.02
591.362	14364.78
591.721	14269.41
592.08	14304.44
592.44	14310.99
592.799	14306.25
593.158	14261.96
593.517	14301.73
593.876	14325.91
594.235	14313.71
594.593	14303.99
594.952	14286.81
595.311	14261.96
595.67	14221.28
596.029	14298.56
596.387	14221.05
596.746	14299.92
597.104	14243.65
597.463	14313.48
597.822	14184.9
598.18	14185.12
598.538	14208.17
598.897	14254.05
599.255	14131.34
599.613	14407.04
599.972	14249.75
600.33	14280.26
600.688	14308.96
601.046	14256.76
601.404	14260.15
601.762	14279.58
602.12	14319.36
602.478	14307.38
602.836	14299.02
603.194	14201.39
603.552	14292.01
603.91	14142.41
604.268	14297.21
604.625	14325.91
604.983	14268.28
605.341	14238.45
605.698	14255.18
606.056	14369.07
606.413	14438
606.771	14293.37
607.128	14356.64
607.485	14323.2
607.843	14327.49
608.2	14348.28
608.557	14404.1
608.914	14369.98
609.272	14384.89
609.629	14414.49
609.986	14428.28
610.343	14440.93
610.7	14458.33
611.057	14418.56
611.414	14351.22
611.771	14437.32
612.127	14514.83
612.484	14527.49
612.841	14541.27
613.198	14517.09
613.554	14459.46
613.911	14574.04
614.267	14627.14
614.624	14465.79
614.98	14489.75
615.337	14612.91
615.693	14546.69
616.05	14583.3
616.406	14643.19
616.762	14587.14
617.118	14607.03
617.475	14613.81
617.831	14660.36
618.187	14688.84
618.543	14645
618.899	14747.82
619.255	14660.59
619.611	14628.95
619.967	14798.66
620.323	14769.29
620.678	14750.3
621.034	14716.41
621.39	14621.72
621.746	14572.91
622.101	14717.99
622.457	14755.73
622.812	14713.02
623.168	14702.17
623.523	14778.33
623.879	14762.06
624.234	14662.17
624.589	14697.2
624.945	14701.72
625.3	14808.61
625.655	14819.91
626.01	14779.68
626.365	14730.42
626.72	14783.52
627.075	14670.98
627.43	14681.38
627.785	14648.84
628.14	14661.04
628.495	14704.43
628.85	14757.08
629.205	14587.37
629.559	14676.41
629.914	14652
630.269	14714.37
630.623	14579.91
630.978	14546.47
631.332	14572.68
631.687	14595.96
632.041	14612.68
632.396	14585.11
632.75	14536.75
633.104	14598.9
633.459	14509.63
633.813	14546.24
634.167	14537.43
634.521	14449.52
634.875	14484.77
635.229	14415.17
635.583	14384.66
635.937	14405.91
636.291	14369.75
636.645	14419.69
636.999	14341.73
637.352	14333.59
637.706	14308.51
638.06	14398.68
638.413	14361.84
638.767	14322.07
639.121	14318.45
639.474	14221.73
639.828	14292.24
640.181	14200.49
640.534	14234.16
640.888	14194.16
641.241	14131.11
641.594	14192.13
641.947	14149.64
642.301	14104.9
642.654	14195.74
643.007	14223.09
643.36	14209.08
643.713	14073.94
644.066	14158.46
644.419	14082.98
644.771	13944.9
645.124	13864.9
645.477	13824.68
645.83	13790.33
646.182	13671.69
646.535	13671.01
646.888	13661.29
647.24	13603.22
647.593	13670.56
647.945	13621.75
648.298	13567.28
648.65	13578.36
649.002	13544.69
649.355	13584.23
649.707	13655.42
650.059	13680.05
650.411	13740.61
650.763	13825.36
651.115	13939.25
651.467	13905.81
651.819	13909.2
652.171	13896.09
652.523	13789.2
652.875	13924.34
653.227	13792.82
653.578	13846.37
653.93	13850.21
654.282	13827.39
654.633	13863.32
654.985	13883.66
655.337	13917.33
655.688	13930.21
656.039	13969.53
656.391	13711.69
656.742	13841.63
657.094	13895.41
657.445	13894.96
657.796	13898.58
658.147	13858.12
658.498	13829.2
658.849	13889.08
659.2	13899.93
659.551	13876.88
659.902	13890.89
660.253	13991.91
660.604	13947.84
660.955	13906.26
661.306	13924.34
661.656	13915.07
662.007	13914.39
662.358	13962.3
662.708	13941.74
663.059	13932.25
663.409	13793.95
663.76	13938.12
664.11	13954.39
664.461	13955.75
664.811	13868.97
665.161	13871.01
665.511	13898.35
665.862	13911.68
666.212	13975.86
666.562	13915.98
666.912	13941.51
667.262	13862.42
667.612	13843.66
667.962	13969.99
668.312	13897.45
668.662	13947.61
669.011	13874.17
669.361	13925.69
669.711	13925.02
670.06	13853.6
670.41	13865.36
670.76	13802.76
671.109	13836.66
671.459	13810.67
671.808	13821.52
672.157	13878.91
672.507	13774.96
672.856	13799.14
673.205	13812.02
673.554	13810.44
673.904	13803.44
674.253	13875.3
674.602	13855.41
674.951	13643.89
675.3	13553.5
675.649	13730.22
675.998	13729.99
676.346	13653.38
676.695	13761.86
677.044	13615.64
677.393	13665.59
677.741	13708.3
678.09	13706.94
678.438	13704.23
678.787	13678.92
679.135	13664.68
679.484	13470.11
679.832	13557.79
680.181	13553.05
680.529	13517.57
680.877	13543.1
681.225	13418.59
681.573	13437.57
681.922	13398.48
682.27	13335.88
682.618	13363.22
682.966	13409.77
683.314	13318.48
683.661	13320.51
684.009	13264.24
684.357	13197.35
684.705	13143.11
685.053	13293.62
685.4	13212.94
685.748	13059.05
686.095	13123
686.443	13049.11
686.79	13056.11
687.138	13110.57
687.485	13027.86
687.832	13006.17
688.18	12998.49
688.527	12914.65
688.874	12915.55
689.221	12815.89
689.568	12854.76
689.915	12778.83
690.262	12779.96
690.609	12744.93
690.956	12659.29
691.303	12674.2
691.65	12645.05
691.997	12654.99
692.344	12525.96
692.69	12507.65
693.037	12576.12
693.383	12262.69
693.73	12354.66
694.077	12225.85
694.423	12348.33
694.769	12229.01
695.116	12242.35
695.462	12268.79
695.808	12146.53
696.155	12146.3
696.501	12032.41
696.847	12071.5
697.193	11958.29
697.539	12066.76
697.885	11915.8
698.231	11952.64
698.577	11861.11
698.923	11858.63
699.269	11817.95
699.614	11695.7
699.96	11718.97
700.306	11702.25
700.651	11582.7
700.997	11505.42
701.342	11450.28
701.688	11511.52
702.033	11459.77
702.379	11411.18
702.724	11359.88
703.069	11404.86
703.415	11219.78
703.76	11221.58
704.105	11241.7
704.45	11259.32
704.795	11225.43
705.14	11092.55
705.485	11115.82
705.83	11085.99
706.175	11087.58
706.52	10985.66
706.865	10892.33
707.209	10918.54
707.554	10937.52
707.899	10959.67
708.243	10881.93
708.588	10809.39
708.932	10758.77
709.277	10821.14
709.621	10727.81
709.966	10703.18
710.31	10748.38
710.654	10561.71
710.998	10619.11
711.342	10647.81
711.687	10522.17
712.031	10589.28
712.375	10443.3
712.719	10555.16
713.063	10479.46
713.407	10504.31
713.75	10466.12
714.094	10439.46
714.438	10357.43
714.782	10372.57
715.125	10353.81
715.469	10369.85
715.812	10353.58
716.156	10291.44
716.499	10284.66
716.843	10333.47
717.186	10199.69
717.53	10348.16
717.873	10248.73
718.216	10140.03
718.559	10203.53
718.902	10159.46
719.246	10155.4
719.589	10105.91
719.932	10131.89
720.275	10104.55
720.617	10093.7
720.96	10079.24
721.303	10011.9
721.646	10051.9
721.989	9983.88
722.331	10053.93
722.674	10032.46
723.016	10015.74
723.359	9980.26
723.701	10000.6
724.044	9915.86
724.386	9894.16
724.729	9938.68
725.071	9874.27
725.413	9895.52
725.755	9903.43
726.097	9887.16
726.439	9883.31
726.782	9896.19
727.124	9831.56
727.465	9814.84
727.807	9868.4
728.149	9831.11
728.491	9782.53
728.833	9817.1
729.175	9814.16
729.516	9816.65
729.858	9811.23
730.199	9862.75
730.541	9771.68
730.882	9678.8
731.224	9723.77
731.565	9738.01
731.906	9665.92
732.248	9738.46
732.589	9693.26
732.93	9736.65
733.271	9675.64
733.612	9743.2
733.953	9709.53
734.294	9692.81
734.635	9718.57
734.976	9682.64
735.317	9675.86
735.658	9695.52
735.999	9655.97
736.339	9723.77
736.68	9745.01
737.021	9656.43
737.361	9667.95
737.702	9748.18
738.042	9680.83
738.383	9709.98
738.723	9748.63
739.063	9729.19
739.404	9712.47
739.744	9783.88
740.084	9734.39
740.424	9782.53
740.764	9739.36
741.104	9814.61
741.444	9795.86
741.784	9832.47
742.124	9788.85
742.464	9825.01
742.804	9801.06
743.143	9813.94
743.483	9864.56
743.823	9894.39
744.162	9873.82
744.502	9957.21
744.841	9935.74
745.181	10058.9
745.52	9991.56
745.86	10112.69
746.199	10089.18
746.538	10085.12
746.877	10206.47
747.216	10291.21
747.556	10251.21
747.895	10225.68
748.234	10354.26
748.573	10372.34
748.911	10459.12
749.25	10468.83
749.589	10551.09
749.928	10622.28
750.267	10706.79
750.605	10731.2
750.944	10813.91
751.283	10800.8
751.621	10958.54
751.96	11071.3
752.298	11120.34
752.636	11276.27
752.975	11299.1
753.313	11350.85
753.651	11535.47
753.989	11587
754.327	11667.22
754.666	11765.52
755.004	11948.34
755.342	12077.61
755.679	12243.48
756.017	12283.93
756.355	12451.38
756.693	12638.5
757.031	12638.5
757.368	12836.23
757.706	12925.49
758.044	13102.66
758.381	13213.17
758.719	13329.32
759.056	13571.13
759.394	13713.27
759.731	13748.3
760.068	13981.51
760.405	14096.76
760.743	14175.4
761.08	14431.44
761.417	14549.18
761.754	14755.73
762.091	15000.69
762.428	15045.66
762.765	15124.53
763.102	15373.34
763.438	15428.03
763.775	15580.56
764.112	15868.92
764.449	16018.29
764.785	16083.83
765.122	16204.28
765.458	16435.68
765.795	16487.21
766.131	16658.28
766.467	16891.04
766.804	16878.84
767.14	17035.89
767.476	17189.11
767.812	17258.49
768.148	17469.78
768.485	17614.18
768.821	17605.37
769.157	17842.2
769.492	17889.88
769.828	18015.53
770.164	18125.13
770.5	18203.09
770.836	18344.33
771.171	18342.07
771.507	18495.06
771.842	18479.02
772.178	18655.51
772.513	18695.06
772.849	18658.22
773.184	18869.29
773.519	18958.33
773.855	18961.04
774.19	19003.98
774.525	19131.43
774.86	19188.83
775.195	19230.19
775.53	19283.52
775.865	19269.28
776.2	19296.4
776.535	19237.87
776.87	19300.69
777.205	19338.88
777.539	19368.49
777.874	19392.89
778.209	19395.38
778.543	19488.71
778.878	19446.68
779.212	19468.82
779.547	19533.23
779.881	19615.49
780.215	19490.29
780.55	19514.02
780.884	19542.27
781.218	19619.78
781.552	19624.3
781.886	19506.79
782.22	19508.6
782.554	19556.73
782.888	19414.36
783.222	19406.9
783.556	19366.91
783.889	19438.99
784.223	19203.75
784.557	19344.53
784.89	19373.46
785.224	19311.54
785.557	19226.12
785.891	19244.65
786.224	19284.87
786.558	19340.69
786.891	19188.38
787.224	19068.61
787.557	19121.04
787.891	19168.49
788.224	19095.95
788.557	19081.26
788.89	19077.42
789.223	19071.32
789.556	18941.83
789.888	18925.34
790.221	18903.64
790.554	18771.44
790.887	18800.37
791.219	18763.53
791.552	18739.13
791.884	18717.43
792.217	18718.56
792.549	18569.64
792.882	18578
793.214	18511.11
793.546	18592.46
793.879	18483.31
794.211	18441.73
794.543	18518.11
794.875	18446.03
795.207	18513.37
795.539	18296.65
795.871	18319.02
796.203	18217.56
796.535	18192.25
796.867	18163.32
797.198	18139.37
797.53	18028.41
797.862	18013.04
798.193	18114.96
798.525	18032.03
798.856	17854.18
799.188	17768.76
799.519	17841.52
799.85	17702.09
800.182	17674.3
800.513	17678.59
800.844	17648.99
801.175	17686.95
801.506	17665.71
801.837	17585.71
802.168	17586.16
802.499	17412.61
802.83	17364.02
803.161	17306.62
803.491	17383.23
803.822	17312.04
804.153	17239.05
804.483	17188.21
804.814	17126.06
805.145	17061.88
805.475	17117.25
805.805	17059.85
806.136	17091.26
806.466	17035.89
806.796	17033.86
807.126	16792.06
807.457	16884.94
807.787	16908.21
808.117	16825.05
808.447	16695.11
808.777	16716.13
809.107	16621.89
809.436	16575.34
809.766	16530.6
810.096	16442.24
810.426	16477.94
810.755	16585.74
811.085	16427.55
811.414	16450.37
811.744	16320.66
812.073	16281.79
812.403	16315.91
812.732	16185.75
813.061	16184.62
813.39	16166.76
813.719	16155.92
814.049	16212.64
814.378	16070.95
814.707	16061.46
815.036	16030.72
815.365	15986.43
815.693	15816.04
816.022	15939.43
816.351	15844.74
816.68	15751.41
817.008	15824.4
817.337	15673.44
817.665	15651.3
817.994	15632.54
818.322	15648.59
818.651	15669.15
818.979	15522.04
819.307	15719.09
819.636	15554.58
819.964	15398.65
820.292	15603.62
820.62	15469.38
820.948	15527.68
821.276	15555.71
821.604	15547.12
821.932	15535.37
822.259	15487.23
822.587	15479.32
822.915	15477.52
823.243	15427.8
823.57	15428.03
823.898	15453.11
824.225	15382.38
824.553	15437.74
824.88	15442.94
825.207	15530.62
825.535	15515.48
825.862	15550.96
826.189	15362.49
826.516	15477.97
826.843	15531.98
827.17	15419.21
827.497	15459.21
827.824	15524.75
828.151	15583.95
828.478	15466.22
828.805	15557.06
829.131	15392.55
829.458	15461.92
829.785	15418.31
830.111	15405.65
830.438	15534.24
830.764	15413.11
831.09	15486.1
831.417	15401.36
831.743	15386.9
832.069	15498.53
832.395	15427.8
832.722	15422.38
833.048	15371.3
833.374	15386.67
833.7	15369.95
834.026	15440.46
834.351	15325.43
834.677	15334.92
835.003	15383.51
835.329	15360.23
835.654	15380.57
835.98	15229.16
836.306	15324.98
836.631	15178.09
836.956	15292.21
837.282	15272.78
837.607	15175.15
837.932	15099.9
838.258	15153.01
838.583	15093.8
838.908	15059.9
839.233	15119.33
839.558	15007.25
839.883	14948.94
840.208	14905.1
840.533	15015.16
840.858	14978.55
841.182	14964.54
841.507	14956.17
841.832	14904.65
842.156	14804.54
842.481	14772
842.805	14748.5
843.13	14787.59
843.454	14748.95
843.778	14577.2
844.103	14633.92
844.427	14729.74
844.751	14589.63
845.075	14602.29
845.399	14449.75
845.723	14419.47
846.047	14478.9
846.371	14355.06
846.695	14307.15
847.019	14244.33
847.343	14131.56
847.666	14126.82
847.99	14007.5
848.313	14020.15
848.637	13942.87
848.96	13924.34
849.284	13805.24
849.607	13711.46
849.931	13833.49
850.254	13621.97
850.577	13626.27
850.9	13508.3
851.223	13499.72
851.546	13389.21
851.869	13375.65
852.192	13412.03
852.515	13280.29
852.838	13280.29
853.161	13223.56
853.483	13101.76
853.806	13088.2
854.129	13087.52
854.451	13009.56
854.774	12947.87
855.096	13000.29
855.419	12820.19
855.741	12900.41
856.063	12833.07
856.385	12729.34
856.708	12762.11
857.03	12695.67
857.352	12637.59
857.674	12653.86
857.996	12634.88
858.318	12511.04
858.64	12530.93
858.961	12445.51
859.283	12447.99
859.605	12351.72
859.926	12397.37
860.248	12390.14
860.57	12314.21
860.891	12343.59
861.212	12249.58
861.534	12280.31
861.855	12172.97
862.176	12174.55
862.498	12184.04
862.819	12172.74
863.14	12104.95
863.461	12113.09
863.782	12033.09
864.103	12099.07
864.424	12026.31
864.745	12063.14
865.065	11989.47
865.386	11933.66
865.707	11841
866.027	11896.14
866.348	11855.24
866.668	11944.28
866.989	11864.28
867.309	11804.39
867.63	11792.64
867.95	11790.83
868.27	11687.33
868.59	11755.13
868.91	11674.9
869.23	11683.27
869.55	11655.7
869.87	11651.4
870.19	11581.12
870.51	11572.08
870.83	11593.78
871.15	11487.57
871.469	11636.26
871.789	11514.46
872.109	11511.29
872.428	11491.63
872.748	11485.08
873.067	11500.45
873.386	11398.3
873.706	11473.33
874.025	11436.27
874.344	11399.66
874.663	11404.18
874.982	11313.78
875.301	11316.27
875.62	11295.48
875.939	11324.63
876.258	11281.02
876.577	11185.65
876.896	11274.24
877.214	11234.46
877.533	11221.81
877.852	11215.26
878.17	11193.79
878.489	11220.45
878.807	11154.24
879.125	11174.13
879.444	11065.88
879.762	11041.02
880.08	11068.59
880.398	11052.55
880.716	10994.92
881.034	10987.24
881.352	11017.97
881.67	10976.39
881.988	10943.4
882.306	10909.73
882.624	10876.28
882.941	10858.88
883.259	10853.01
883.577	10822.72
883.894	10807.58
884.212	10765.78
884.529	10748.15
884.846	10717.64
885.164	10703.86
885.481	10646.91
885.798	10647.36
886.115	10659.34
886.432	10608.94
886.75	10571.21
887.067	10592.45
887.383	10541.38
887.7	10467.03
888.017	10424.09
888.334	10503.41
888.651	10435.84
888.967	10425.9
889.284	10331.21
889.6	10420.7
889.917	10296.18
890.233	10240.82
890.55	10274.72
890.866	10267.03
891.182	10174.15
891.498	10115.85
891.815	10099.58
892.131	10116.75
892.447	10072.46
892.763	10018
893.079	10007.15
893.395	10005.57
893.71	9942.52
894.026	9916.08
894.342	9932.58
894.657	9785.69
894.973	9752.7
895.289	9770.1
895.604	9816.65
895.92	9715.86
896.235	9695.52
896.55	9623.89
896.865	9614.62
897.181	9578.91
897.496	9593.83
897.811	9477
898.126	9444.91
898.441	9504.57
898.756	9352.25
899.071	9336.66
899.386	9402.65
899.7	9300.73
900.015	9306.15
900.33	9147.29
900.644	9184.35
900.959	9213.95
901.273	9135.76
901.588	9037.46
901.902	9083.79
902.216	9027.74
902.531	9010.12
902.845	9000.62
903.159	8851.7
903.473	8932.38
903.787	8891.02
904.101	8847.18
904.415	8791.82
904.729	8745.26
905.042	8719.95
905.356	8717.24
905.67	8735.55
905.984	8601.09
906.297	8587.98
906.611	8559.73
906.924	8602.9
907.237	8541.2
907.551	8519.28
907.864	8412.84
908.177	8428.89
908.491	8430.47
908.804	8395.22
909.117	8269.12
909.43	8243.58
909.743	8208.56
910.056	8207.88
910.368	8149.35
910.681	8132.4
910.994	8171.04
911.307	8072.97
911.619	8049.24
911.932	8063.7
912.244	7955.45
912.557	7959.75
912.869	7866.42
913.181	7868.23
913.494	7911.61
913.806	7800.43
914.118	7766.31
914.43	7706.65
914.742	7736.03
915.054	7735.57
915.366	7726.99
915.678	7649.47
915.99	7534.9
916.302	7515.01
916.613	7540.55
916.925	7412.42
917.236	7454.45
917.548	7457.16
917.859	7453.55
918.171	7395.92
918.482	7294.68
918.794	7265.08
919.105	7311.4
919.416	7237.28
919.727	7210.39
920.038	7204.74
920.349	7140.33
920.66	7126.55
920.971	7177.85
921.282	7098.75
921.593	7070.73
921.903	6938.98
922.214	6998.19
922.525	7002.03
922.835	6902.38
923.146	6935.82
923.456	6900.12
923.767	6873.9
924.077	6844.52
924.387	6814.47
924.697	6706.22
925.008	6724.07
925.318	6668.03
925.628	6676.84
925.938	6649.27
926.248	6610.41
926.558	6639.33
926.867	6570.63
927.177	6543.29
927.487	6505.32
927.796	6468.71
928.106	6429.17
928.416	6447.47
928.725	6417.19
929.034	6367.47
929.344	6370.41
929.653	6359.56
929.962	6229.4
930.271	6242.28
930.581	6242.96
930.89	6226.23
931.199	6186.69
931.508	6213.13
931.817	6201.15
932.125	6120.02
932.434	6136.75
932.743	6082.74
933.051	6071.44
933.36	5969.52
933.669	5994.83
933.977	5940.37
934.286	5935.39
934.594	5926.81
934.902	5832.8
935.21	5888.16
935.519	5840.71
935.827	5810.65
936.135	5807.49
936.443	5768.17
936.751	5718.9
937.059	5687.27
937.367	5666.7
937.674	5661.73
937.982	5617.44
938.29	5632.8
938.597	5577.44
938.905	5509.64
939.213	5543.31
939.52	5484.56
939.827	5520.94
940.135	5455.63
940.442	5426.93
940.749	5380.16
941.056	5459.48
941.363	5372.7
941.67	5384.22
941.977	5332.92
942.284	5322.53
942.591	5317.78
942.898	5288.63
943.205	5281.85
943.511	5284.34
943.818	5237.79
944.125	5220.39
944.431	5153.95
944.738	5190.1
945.044	5119.82
945.35	5080.73
945.657	5054.97
945.963	5033.5
946.269	5026.49
946.575	5050.67
946.881	4972.48
947.187	5012.48
947.493	4959.6
947.799	4945.59
948.105	4893.84
948.41	4866.27
948.716	4922.77
949.022	4841.86
949.327	4838.7
949.633	4812.03
949.938	4778.14
950.244	4783.56
950.549	4700.17
950.854	4705.82
951.16	4771.13
951.465	4689.33
951.77	4626.5
952.075	4654.3
952.38	4621.76
952.685	4531.36
952.99	4570.23
953.294	4578.59
953.599	4518.71
953.904	4511.03
954.209	4462.89
954.513	4496.34
954.818	4434.87
955.122	4449.78
955.426	4391.03
955.731	4393.97
956.035	4386.73
956.339	4360.07
956.643	4304.48
956.948	4351.93
957.252	4322.78
957.556	4307.64
957.86	4262.67
958.163	4267.42
958.467	4233.29
958.771	4248.66
959.075	4196.68
959.378	4199.85
959.682	4149.45
959.985	4159.62
960.289	4120.08
960.592	4192.84
960.896	4099.74
961.199	4051.15
961.502	4072.84
961.805	4032.85
962.108	4020.19
962.411	3989.23
962.714	4008.21
963.017	4001.43
963.32	3946.07
963.623	3942
963.926	3956.24
964.228	3900.87
964.531	3897.93
964.833	3898.39
965.136	3887.54
965.438	3833.08
965.741	3756.92
966.043	3813.64
966.345	3759.18
966.648	3754.89
966.95	3723.93
967.252	3753.08
967.554	3707.2
967.856	3674.66
968.158	3657.04
968.46	3681.67
968.761	3627.66
969.063	3603.48
969.365	3626.3
969.666	3600.99
969.968	3578.85
970.269	3560.77
970.571	3559.19
970.872	3530.71
971.174	3506.98
971.475	3514.44
971.776	3509.24
972.077	3442.8
972.378	3430.38
972.679	3450.49
972.98	3459.53
973.281	3434.67
973.582	3404.84
973.883	3374.56
974.183	3382.24
974.484	3358.51
974.785	3357.84
975.085	3351.96
975.386	3335.46
975.686	3318.06
975.986	3314.9
976.287	3258.63
976.587	3281.45
976.887	3262.24
977.187	3229.93
977.487	3246.2
977.787	3208.46
978.087	3150.61
978.387	3205.98
978.687	3128.46
978.987	3151.97
979.286	3123.94
979.586	3128.01
979.885	3122.36
980.185	3102.7
980.484	3017.28
980.784	3042.59
981.083	3064.06
981.382	3019.99
981.682	2997.39
981.981	3009.14
982.28	2993.78
982.579	2977.51
982.878	2992.87
983.177	2961.24
983.475	2967.79
983.774	2909.94
984.073	2924.17
984.372	2870.84
984.67	2856.15
984.969	2882.59
985.267	2883.05
985.566	2855.02
985.864	2842.14
986.162	2830.17
986.461	2831.75
986.759	2794.46
987.057	2756.5
987.355	2775.25
987.653	2773.44
987.951	2765.99
988.249	2766.44
988.547	2727.8
988.844	2695.03
989.142	2742.03
989.44	2709.04
989.737	2686.44
990.035	2655.48
990.332	2636.5
990.63	2658.42
990.927	2641.47
991.224	2638.08
991.521	2609.15
991.819	2614.58
992.116	2563.28
992.413	2561.02
992.71	2563.05
993.006	2551.08
993.303	2547.46
993.6	2540
993.897	2475.82
994.193	2513.11
994.49	2511.98
994.787	2478.31
995.083	2429.27
995.379	2445.54
995.676	2413.45
995.972	2401.93
996.268	2402.61
996.565	2391.99
996.861	2368.93
997.157	2375.49
997.453	2356.96
997.749	2328.26
998.044	2350.18
998.34	2340.01
998.636	2322.83
998.932	2303.4
999.227	2298.65
999.523	2269.28
999.818	2229.05
1000.114	2279.22
1000.409	2231.54
1000.704	2248.94
1001	2189.28
1001.295	2208.04
1001.59	2217.98
1001.885	2182.05
1002.18	2168.26
1002.475	2163.74
1002.77	2143.63
1003.065	2128.94
1003.359	2115.16
1003.654	2106.57
1003.949	2109.05
1004.243	2071.32
1004.538	2081.71
1004.832	2080.58
1005.127	2045.1
1005.421	2032.22
1005.715	2046.23
1006.009	2015.95
1006.304	1992.9
1006.598	1966.46
1006.892	1983.41
1007.186	1967.82
1007.48	1949.28
1007.773	1920.81
1008.067	1954.03
1008.361	1943.41
1008.655	1923.97
1008.948	1897.76
1009.242	1885.11
1009.535	1902.73
1009.829	1867.71
1010.122	1896.86
1010.415	1838.55
1010.708	1820.02
1011.001	1821.83
1011.295	1845.33
1011.588	1787.03
1011.881	1810.76
1012.173	1806.46
1012.466	1777.76
1012.759	1767.14
1013.052	1739.35
1013.344	1750.42
1013.637	1714.49
1013.93	1735.96
1014.222	1733.92
1014.514	1705
1014.807	1690.76
1015.099	1691.21
1015.391	1672.91
1015.683	1664.09
1015.976	1669.97
1016.268	1625
1016.56	1612.57
1016.851	1606.24
1017.143	1606.47
1017.435	1599.92
1017.727	1619.8
1018.018	1603.53
1018.31	1569.86
1018.602	1574.61
1018.893	1547.26
1019.185	1520.6
1019.476	1543.19
1019.767	1512.46
1020.058	1524.66
1020.35	1526.02
1020.641	1498.9
1020.932	1467.04
1021.223	1467.49
1021.514	1465.91
1021.804	1455.74
1022.095	1439.92
1022.386	1442.63
1022.677	1424.55
1022.967	1384.78
1023.258	1430.43
1023.548	1392.01
1023.839	1371.22
1024.129	1387.94
1024.419	1369.64
1024.709	1347.04
1025	1344.1
1025.29	1339.36
1025.58	1293.93
1025.87	1316.76
1026.16	1302.07
1026.449	1315.18
1026.739	1289.42
1027.029	1285.8
1027.319	1286.48
1027.608	1274.73
1027.898	1275.86
1028.187	1260.94
1028.477	1254.16
1028.766	1246.7
1029.055	1206.71
1029.344	1246.48
1029.634	1230.21
1029.923	1215.74
1030.212	1185.92
1030.501	1211.23
1030.79	1181.17
1031.078	1177.55
1031.367	1170.1
1031.656	1195.41
1031.945	1156.31
1032.233	1137.78
1032.522	1129.19
1032.81	1109.08
1033.099	1141.85
1033.387	1104.56
1033.675	1078.57
1033.963	1103.88
1034.251	1112.7
1034.54	1116.09
1034.828	1105.24
1035.116	1052.81
1035.403	1086.93
1035.691	1061.17
1035.979	1069.99
1036.267	1041.29
1036.554	1035.86
1036.842	1019.14
1037.129	1042.87
1037.417	1018.91
1037.704	1006.94
1037.992	1006.26
1038.279	1001.51
1038.566	999.03
1038.853	999.03
1039.14	999.03
