Data from hue_120_FLMS001491_00093.txt Node
Date: Tue Feb 07 17:00:16 GMT 2017
User: dcchb
Spectrometer: FLMS00149
Trigger mode: 0
Integration Time (sec): 2.000000E-2
Scans to average: 10
Electric dark correction enabled: true
Nonlinearity correction enabled: false
Boxcar width: 0
XAxis mode: Wavelengths
Number of Pixels in Spectrum: 2048
>>>>>Begin Spectral Data<<<<<
341.393	-9.17
341.776	-9.17
342.16	-9.17
342.543	-71.76
342.927	-77.19
343.31	-64.08
343.693	-68.6
344.077	-60.69
344.46	-59.11
344.843	-66.79
345.226	-52.78
345.61	-20.92
345.993	-16.4
346.376	-16.17
346.759	-1.03
347.142	25.18
347.525	46.65
347.908	56.37
348.291	85.52
348.674	92.07
349.057	120.77
349.44	125.75
349.823	132.75
350.206	160.55
350.588	184.05
350.971	197.38
351.354	206.87
351.737	240.54
352.119	236.93
352.502	250.26
352.884	251.84
353.267	264.95
353.65	286.87
354.032	295.01
354.414	286.87
354.797	309.24
355.179	335.46
355.562	315.12
355.944	308.34
356.326	313.76
356.709	295.91
357.091	329.36
357.473	324.38
357.855	360.32
358.238	350.37
358.62	334.1
359.002	339.07
359.384	325.51
359.766	334.78
360.148	338.62
360.53	327.1
360.912	325.51
361.294	347.66
361.676	330.03
362.057	326.42
362.439	331.16
362.821	341.56
363.203	319.41
363.584	315.8
363.966	338.4
364.348	339.98
364.729	321.9
365.111	309.92
365.493	332.97
365.874	320.32
366.256	316.7
366.637	286.87
367.019	300.43
367.4	326.42
367.781	304.72
368.163	318.06
368.544	289.81
368.925	305.4
369.306	320.77
369.688	306.08
370.069	291.84
370.45	320.09
370.831	312.63
371.212	317.15
371.593	318.06
371.974	307.89
372.355	308.79
372.736	328.9
373.117	302.69
373.498	324.61
373.879	326.64
374.26	308.11
374.641	297.94
375.021	290.71
375.402	280.77
375.783	316.25
376.163	321.22
376.544	309.7
376.925	335.46
377.305	316.25
377.686	324.61
378.066	330.49
378.447	326.87
378.827	334.33
379.208	346.98
379.588	329.58
379.968	310.37
380.349	333.88
380.729	353.31
381.109	337.27
381.489	340.2
381.87	347.21
382.25	339.07
382.63	347.21
383.01	324.61
383.39	322.58
383.77	328
384.15	348.34
384.53	354.67
384.91	331.39
385.29	346.98
385.67	361.67
386.049	368.9
386.429	333.2
386.809	362.35
387.189	381.33
387.568	338.4
387.948	358.06
388.328	353.08
388.707	366.19
389.087	353.76
389.466	350.15
389.846	352.63
390.225	362.35
390.605	367.55
390.984	364.61
391.363	355.8
391.743	377.72
392.122	358.28
392.501	372.74
392.881	377.49
393.26	362.35
393.639	371.61
394.018	398.51
394.397	400.99
394.776	358.28
395.155	387.66
395.534	375
395.913	388.11
396.292	391.28
396.671	401.22
397.05	404.38
397.429	398.96
397.808	375.46
398.186	390.6
398.565	416.81
398.944	377.72
399.323	384.04
399.701	388.56
400.08	389.02
400.458	417.26
400.837	415.68
401.215	396.25
401.594	392.4
401.972	401.22
402.351	396.25
402.729	403.48
403.107	416.59
403.486	431.27
403.864	398.05
404.242	419.52
404.62	432.18
404.999	416.81
405.377	429.92
405.755	428.56
406.133	426.75
406.511	437.38
406.889	437.38
407.267	451.16
407.645	431.5
408.023	442.35
408.401	437.6
408.779	457.26
409.156	457.94
409.534	463.36
409.912	459.3
410.29	451.16
410.667	439.86
411.045	445.96
411.422	472.4
411.8	468.56
412.178	486.87
412.555	464.04
412.933	485.06
413.31	468.11
413.687	493.65
414.065	492.74
414.442	486.87
414.819	492.06
415.197	500.65
415.574	495.91
415.951	508.56
416.328	506.75
416.705	528.45
417.082	518.05
417.46	506.07
417.837	516.7
418.214	532.74
418.591	504.94
418.967	515.34
419.344	518.28
419.721	541.55
420.098	514.21
420.475	533.19
420.852	551.27
421.228	539.07
421.605	533.64
421.982	551.72
422.358	546.07
422.735	538.62
423.111	567.09
423.488	567.99
423.864	591.27
424.241	563.47
424.617	590.59
424.994	580.42
425.37	583.59
425.746	606.86
426.123	589.91
426.499	588.78
426.875	602.79
427.251	607.09
427.627	633.75
428.003	609.35
428.379	609.12
428.756	636.01
429.132	638.5
429.507	655.9
429.883	632.85
430.259	647.31
430.635	635.34
431.011	677.14
431.387	676.24
431.763	660.65
432.138	667.43
432.514	677.6
432.89	675.79
433.265	680.31
433.641	692.28
434.016	692.06
434.392	720.53
434.767	709.46
435.143	727.76
435.518	726.41
435.894	722.11
436.269	749.23
436.644	754.66
437.02	767.08
437.395	742.45
437.77	739.29
438.145	772.96
438.52	765.05
438.895	797.59
439.271	786.07
439.646	813.18
440.021	815.9
440.395	807.08
440.77	827.2
441.145	802.56
441.52	839.17
441.895	822
442.27	808.21
442.645	836.24
443.019	819.96
443.394	851.6
443.769	830.81
444.143	859.29
444.518	881.21
444.892	856.8
445.267	866.29
445.641	872.39
446.016	866.06
446.39	877.36
446.764	890.47
447.139	896.35
447.513	880.08
447.887	898.38
448.262	903.8
448.636	887.99
449.01	908.1
449.384	916.01
449.758	924.82
450.132	926.4
450.506	934.09
450.88	958.49
451.254	953.52
451.628	975.89
452.002	1006.17
452.376	997.59
452.75	1010.47
453.123	986.06
453.497	1015.89
453.871	1026.74
454.244	1035.78
454.618	1045.72
454.992	1054.53
455.365	1073.52
455.739	1081.65
456.112	1098.15
456.486	1082.78
456.859	1122.1
457.232	1118.94
457.606	1138.6
457.979	1151.03
458.352	1161.42
458.725	1158.94
459.099	1217.47
459.472	1203.68
459.845	1212.95
460.218	1219.73
460.591	1247.75
460.964	1264.92
461.337	1283.45
461.71	1290.69
462.083	1305.83
462.456	1307.18
462.829	1341.98
463.201	1366.62
463.574	1372.04
463.947	1389.21
464.32	1369.78
464.692	1430.8
465.065	1464.24
465.438	1434.64
465.81	1477.35
466.183	1509.21
466.555	1539.95
466.928	1538.14
467.3	1553.05
467.672	1576.78
468.045	1622.43
468.417	1642.99
468.789	1645.93
469.161	1680.96
469.534	1732.48
469.906	1746.04
470.278	1762.54
470.65	1804.12
471.022	1856.1
471.394	1854.29
471.766	1880.95
472.138	1917.11
472.51	1987.84
472.882	2026.71
473.253	2091.34
473.625	2077.11
473.997	2157.78
474.369	2185.13
474.74	2221.06
475.112	2249.31
475.484	2320.04
475.855	2368.17
476.227	2432.35
476.598	2530.65
476.97	2563.2
477.341	2639.35
477.713	2684.32
478.084	2737.43
478.455	2831.89
478.827	2840.02
479.198	2965.67
479.569	3000.7
479.94	3119.56
480.311	3169.73
480.682	3264.87
481.053	3382.38
481.424	3469.16
481.795	3535.6
482.166	3653.79
482.537	3720.45
482.908	3830.73
483.279	3894.46
483.65	3984.4
484.021	4204.06
484.391	4236.37
484.762	4324.96
485.133	4408.34
485.503	4543.26
485.874	4651.73
486.244	4843.14
486.615	4941.89
486.985	5033.41
487.356	5206.29
487.726	5229.57
488.097	5449.22
488.467	5568.99
488.837	5681.53
489.207	5860.06
489.578	5949.09
489.948	6074.52
490.318	6253.27
490.688	6267.96
491.058	6499.36
491.428	6622.07
491.798	6821.16
492.168	6936.87
492.538	7084.43
492.908	7211.43
493.278	7312.45
493.648	7388.83
494.017	7580.92
494.387	7670.86
494.757	7837.63
495.126	7998.76
495.496	8076.95
495.866	8209.83
496.235	8308.13
496.605	8460.67
496.974	8580.21
497.344	8725.29
497.713	8847.32
498.082	8903.59
498.452	9099.97
498.821	9164.38
499.19	9229.23
499.559	9402.34
499.928	9561.43
500.298	9566.4
500.667	9732.72
501.036	9692.27
501.405	9956
501.774	9969.33
502.143	10098.59
502.512	10158.93
502.88	10241.64
503.249	10302.88
503.618	10385.59
503.987	10518.47
504.356	10661.74
504.724	10692.25
505.093	10737.22
505.462	10821.51
505.83	10891.79
506.199	11061.28
506.567	11166.81
506.936	11132.69
507.304	11264.21
507.672	11383.75
508.041	11411.1
508.409	11466.46
508.777	11575.39
509.145	11666.01
509.514	11665.33
509.882	11818.77
510.25	11703.29
510.618	11880.01
510.986	11943.97
511.354	12050.4
511.722	12163.17
512.09	12168.14
512.458	12198.2
512.826	12300.11
513.193	12358.19
513.561	12409.04
513.929	12422.6
514.297	12548.92
514.664	12595.02
515.032	12588.69
515.4	12620.33
515.767	12717.05
516.135	12727
516.502	12550.5
516.869	12914.56
517.237	12952.98
517.604	12801.57
517.972	12956.82
518.339	13000.21
518.706	12984.62
519.073	12963.83
519.44	13119.3
519.808	13143.93
520.175	13083.14
520.542	13288.79
520.909	13308.68
521.276	13373.98
521.643	13337.38
522.009	13362.91
522.376	13394.1
522.743	13431.84
523.11	13492.4
523.477	13574.43
523.843	13673.86
524.21	13699.63
524.577	13734.2
524.943	13764.26
525.31	13753.41
525.676	13832.73
526.043	13849
526.409	13943.91
526.776	14016
527.142	13992.27
527.508	13971.93
527.874	14050.58
528.241	14073.85
528.607	14023.68
528.973	14132.83
529.339	14083.57
529.705	14157.69
530.071	14108.65
530.437	14117.02
530.803	14182.78
531.169	14236.79
531.535	14100.07
531.901	14178.94
532.267	14149.11
532.632	14202.44
532.998	14226.62
533.364	14211.25
533.73	14152.5
534.095	14211.48
534.461	14276.56
534.826	14194.75
535.192	14190.91
535.557	14205.38
535.923	14121.99
536.288	14147.3
536.653	14189.33
537.019	14121.76
537.384	14061.42
537.749	14041.54
538.114	14023.01
538.479	14045.38
538.845	14048.32
539.21	13943.91
539.575	13944.82
539.94	13938.49
540.305	13952.27
540.67	13877.47
541.034	13897.81
541.399	13887.87
541.764	13808.32
542.129	13835.44
542.494	13808.78
542.858	13787.98
543.223	13703.47
543.587	13731.94
543.952	13744.82
544.316	13654.66
544.681	13651.49
545.045	13670.47
545.41	13673.41
545.774	13634.09
546.138	13603.13
546.503	13538.5
546.867	13542.79
547.231	13486.75
547.595	13502.34
547.959	13484.49
548.324	13460.31
548.688	13357.49
549.052	13376.92
549.416	13265.51
549.779	13266.64
550.143	13237.72
550.507	13282.46
550.871	13250.37
551.235	13165.4
551.599	13257.15
551.962	13175.57
552.326	13215.57
552.689	13177.15
553.053	13096.48
553.417	13141.67
553.78	13195.01
554.143	13047.89
554.507	13045.41
554.87	13067.78
555.234	13127.66
555.597	13036.14
555.96	12996.37
556.323	13018.29
556.686	12993.88
557.05	13018.51
557.413	13108.45
557.776	13029.36
558.139	13083.6
558.502	13067.55
558.865	12933.09
559.228	13003.6
559.59	13058.74
559.953	12997.95
560.316	13116.59
560.679	13022.58
561.041	13017.16
561.404	13096.03
561.767	13217.15
562.129	13028.23
562.492	13186.64
562.854	13005.63
563.217	13051.73
563.579	13131.73
563.941	13108.91
564.304	13072.75
564.666	13151.17
565.028	13160.43
565.39	13162.46
565.753	13117.27
566.115	13183.48
566.477	13239.75
566.839	13249.92
567.201	13323.14
567.563	13240.2
567.925	13293.08
568.287	13264.38
568.648	13380.99
569.01	13345.96
569.372	13394.77
569.734	13286.3
570.095	13360.88
570.457	13345.96
570.819	13402.68
571.18	13352.52
571.542	13400.65
571.903	13416.92
572.265	13396.58
572.626	13441.1
572.987	13427.09
573.349	13496.47
573.71	13564.49
574.071	13500.31
574.432	13564.49
574.794	13607.2
575.155	13606.52
575.516	13491.27
575.877	13544.83
576.238	13537.37
576.599	13646.52
576.96	13583.92
577.32	13609.01
577.681	13574.21
578.042	13613.3
578.403	13582.11
578.763	13583.7
579.124	13650.14
579.485	13643.58
579.845	13715.67
580.206	13556.58
580.566	13609.46
580.927	13613.53
581.287	13674.32
581.648	13628.22
582.008	13687.87
582.368	13648.33
582.728	13646.52
583.089	13620.08
583.449	13624.6
583.809	13625.96
584.169	13653.53
584.529	13511.83
584.889	13741.88
585.249	13534.43
585.609	13515.68
585.969	13556.35
586.329	13571.04
586.688	13539.18
587.048	13572.4
587.408	13466.41
587.768	13549.57
588.127	13483.13
588.487	13429.58
588.846	13564.49
589.206	13406.07
589.565	13494.21
589.925	13485.62
590.284	13453.98
590.643	13515.45
591.003	13438.84
591.362	13515.9
591.721	13464.83
592.08	13400.88
592.44	13498.28
592.799	13436.81
593.158	13393.42
593.517	13390.26
593.876	13477.48
594.235	13385.51
594.593	13451.95
594.952	13296.7
595.311	13382.12
595.67	13357.49
596.029	13363.59
596.387	13444.04
596.746	13368.33
597.104	13356.81
597.463	13305.51
597.822	13339.64
598.18	13303.7
598.538	13244.04
598.897	13307.09
599.255	13335.34
599.613	13413.53
599.972	13300.09
600.33	13358.84
600.688	13329.47
601.046	13366.75
601.404	13413.53
601.762	13352.06
602.12	13395.68
602.478	13402.91
602.836	13465.51
603.194	13389.8
603.552	13391.84
603.91	13335.34
604.268	13320.43
604.625	13296.02
604.983	13364.27
605.341	13306.19
605.698	13375.79
606.056	13378.05
606.413	13330.37
606.771	13313.2
607.128	13443.81
607.485	13360.65
607.843	13398.84
608.2	13412.18
608.557	13442.01
608.914	13490.14
609.272	13488.56
609.629	13469.12
609.986	13523.81
610.343	13463.02
610.7	13513.42
611.057	13481.78
611.414	13582.34
611.771	13540.53
612.127	13594.09
612.484	13463.7
612.841	13522.91
613.198	13569.23
613.554	13534.88
613.911	13559.29
614.267	13640.64
614.624	13578.72
614.98	13624.37
615.337	13650.36
615.693	13613.53
616.05	13720.42
616.406	13729.46
616.762	13610.59
617.118	13613.75
617.475	13645.84
617.831	13743.69
618.187	13673.64
618.543	13779.17
618.899	13786.4
619.255	13776.46
619.611	13711.38
619.967	13844.48
620.323	13814.2
620.678	13669.8
621.034	13641.77
621.39	13725.16
621.746	13729.68
622.101	13873.18
622.457	13735.33
622.812	13809.45
623.168	13761.77
623.523	13875.89
623.879	13845.38
624.234	13701.43
624.589	13727.87
624.945	13796.8
625.3	13775.56
625.655	13820.53
626.01	13770.36
626.365	13840.64
626.72	13801.09
627.075	13738.72
627.43	13724.03
627.785	13748.66
628.14	13769.91
628.495	13720.87
628.85	13831.83
629.205	13675.67
629.559	13774.88
629.914	13661.66
630.269	13665.05
630.623	13664.15
630.978	13684.48
631.332	13724.94
631.687	13741.88
632.041	13613.07
632.396	13616.24
632.75	13695.33
633.104	13743.47
633.459	13613.75
633.813	13554.32
634.167	13580.76
634.521	13571.27
634.875	13599.29
635.229	13501.21
635.583	13499.86
635.937	13528.33
636.291	13414.89
636.645	13466.41
636.999	13369.92
637.352	13393.42
637.706	13373.53
638.06	13394.77
638.413	13396.81
638.767	13316.13
639.121	13325.17
639.474	13252.63
639.828	13289.24
640.181	13247.89
640.534	13365.17
640.888	13275
641.241	13198.17
641.594	13275.23
641.947	13291.05
642.301	13220.09
642.654	13217.15
643.007	13229.13
643.36	13281.56
643.713	13252.63
644.066	13270.71
644.419	13136.93
644.771	13140.32
645.124	13004.28
645.477	13018.29
645.83	12907.78
646.182	12810.38
646.535	12787.56
646.888	12857.16
647.24	12703.04
647.593	12826.65
647.945	12738.3
648.298	12765.86
648.65	12705.53
649.002	12646.55
649.355	12769.48
649.707	12798.18
650.059	12799.08
650.411	12997.95
650.763	12963.37
651.115	13050.6
651.467	12944.17
651.819	13065.07
652.171	12960.21
652.523	12932.87
652.875	12974.45
653.227	12898.52
653.578	13028.68
653.93	12969.25
654.282	12940.1
654.633	12916.37
654.985	12996.14
655.337	12976.25
655.688	13004.5
656.039	13026.65
656.391	12821.46
656.742	12952.98
657.094	12957.5
657.445	12975.12
657.796	13024.62
658.147	12968.57
658.498	12951.4
658.849	12979.42
659.2	13007.21
659.551	12968.35
659.902	13035.69
660.253	13048.8
660.604	13117.72
660.955	12980.77
661.306	13061
661.656	13022.36
662.007	13045.18
662.358	12991.62
662.708	12968.12
663.059	12954.79
663.409	12932.64
663.76	13077.04
664.11	13097.83
664.461	13023.03
664.811	13100.32
665.161	13025.29
665.511	13052.64
665.862	13019.19
666.212	13075.24
666.562	13054.67
666.912	13011.96
667.262	13025.07
667.612	13044.5
667.962	12990.04
668.312	13048.57
668.662	13056.25
669.011	13014.9
669.361	12926.76
669.711	13058.06
670.06	12938.29
670.41	12898.74
670.76	12913.66
671.109	12999.31
671.459	12933.54
671.808	12869.59
672.157	13007.67
672.507	12931.51
672.856	12841.57
673.205	12943.71
673.554	12978.97
673.904	12845.64
674.253	12992.53
674.602	12905.52
674.951	12739.2
675.3	12601.58
675.649	12852.42
675.998	12802.47
676.346	12900.1
676.695	12873.43
677.044	12842.93
677.393	12858.97
677.741	12847.9
678.09	12782.59
678.438	12745.3
678.787	12817.84
679.135	12785.75
679.484	12671.18
679.832	12732.19
680.181	12621.46
680.529	12696.71
680.877	12640.9
681.225	12610.39
681.573	12662.36
681.922	12540.79
682.27	12523.39
682.618	12499.88
682.966	12606.32
683.314	12527.45
683.661	12360.45
684.009	12402.71
684.357	12338.53
684.705	12307.8
685.053	12425.53
685.4	12346.67
685.748	12216.95
686.095	12241.36
686.443	12228.25
686.79	12252.43
687.138	12234.35
687.485	12243.62
687.832	12156.39
688.18	12148.71
688.527	12117.75
688.874	12037.07
689.221	11998.43
689.568	12040.23
689.915	11894.25
690.262	11966.56
690.609	11922.5
690.956	11821.71
691.303	11868.49
691.65	11797.98
691.997	11821.26
692.344	11650.19
692.69	11694.48
693.037	11623.3
693.383	11588.04
693.73	11657.87
694.077	11539.23
694.423	11525.45
694.769	11462.17
695.116	11394.6
695.462	11477.54
695.808	11497.88
696.155	11422.4
696.501	11220.59
696.847	11320.25
697.193	11178.34
697.539	11141.05
697.885	11097.89
698.231	11015.18
698.577	11002.52
698.923	10976.99
699.269	11015.63
699.614	10896.08
699.96	10892.02
700.306	10905.12
700.651	10805.69
700.997	10746.26
701.342	10805.24
701.688	10782.19
702.033	10668.07
702.379	10695.86
702.724	10640.72
703.069	10684.56
703.415	10509.2
703.76	10469.65
704.105	10548.3
704.45	10466.72
704.795	10345.59
705.14	10335.19
705.485	10341.07
705.83	10314.4
706.175	10316.89
706.52	10229.66
706.865	10249.32
707.209	10160.51
707.554	10215.88
707.899	10205.25
708.243	10101.98
708.588	10121.19
708.932	10004.36
709.277	10010.68
709.621	10008.42
709.966	9977.24
710.31	9945.15
710.654	9823.34
710.998	9873.29
711.342	9940.85
711.687	9865.83
712.031	9802.78
712.375	9776.79
712.719	9812.04
713.063	9752.61
713.407	9775.21
713.75	9715.32
714.094	9705.83
714.438	9683.01
714.782	9691.6
715.125	9596.46
715.469	9651.6
715.812	9652.5
716.156	9553.07
716.499	9528.66
716.843	9556.01
717.186	9520.98
717.53	9544.25
717.873	9541.54
718.216	9561.66
718.559	9470.13
718.902	9436.01
719.246	9479.62
719.589	9462
719.932	9382.45
720.275	9409.57
720.617	9381.55
720.96	9388.1
721.303	9377.93
721.646	9412.05
721.989	9323.24
722.331	9391.26
722.674	9336.8
723.016	9284.6
723.359	9295
723.701	9306.97
724.044	9254.54
724.386	9213.64
724.729	9240.08
725.071	9280.98
725.413	9256.35
725.755	9182.68
726.097	9253.19
726.439	9116.47
726.782	9048.22
727.124	9210.7
727.465	9172.97
727.807	9178.16
728.149	9160.99
728.491	9153.98
728.833	9124.38
729.175	9127.32
729.516	9112.85
729.858	9125.51
730.199	9144.04
730.541	9042.35
730.882	9104.94
731.224	9101.78
731.565	9104.27
731.906	9024.95
732.248	9051.16
732.589	9098.84
732.93	9066.75
733.271	9002.8
733.612	9139.52
733.953	9088.9
734.294	9011.61
734.635	9057.94
734.976	9108.11
735.317	9068.56
735.658	9087.77
735.999	9062.46
736.339	9033.08
736.68	9060.88
737.021	9052.52
737.361	9055.91
737.702	9151.5
738.042	9125.73
738.383	9076.24
738.723	9095.23
739.063	9061.56
739.404	9225.17
739.744	9126.19
740.084	9099.52
740.424	9153.53
740.764	9170.93
741.104	9156.02
741.444	9106.3
741.784	9192.4
742.124	9198.28
742.464	9222.68
742.804	9237.37
743.143	9199.86
743.483	9233.75
743.823	9242.12
744.162	9276.01
744.502	9339.06
744.841	9295.45
745.181	9355.11
745.52	9371.15
745.86	9424.94
746.199	9499.74
746.538	9515.78
746.877	9583.35
747.216	9646.17
747.556	9622.44
747.895	9659.28
748.234	9657.25
748.573	9824.93
748.911	9777.24
749.25	9906.05
749.589	9953.06
749.928	9977.92
750.267	10073.28
750.605	10119.38
750.944	10215.2
751.283	10189.44
751.621	10344.46
751.96	10422.88
752.298	10520.5
752.636	10652.93
752.975	10662.42
753.313	10682.98
753.651	10873.94
753.989	10913.26
754.327	11042.75
754.666	11190.31
755.004	11274.83
755.342	11444.32
755.679	11479.35
756.017	11636.86
756.355	11779.22
756.693	11936.28
757.031	12094.47
757.368	12148.48
757.706	12241.13
758.044	12392.09
758.381	12531.75
758.719	12730.16
759.056	12886.54
759.394	12953.66
759.731	13083.82
760.068	13206.76
760.405	13436.58
760.743	13498.28
761.08	13659.85
761.417	13839.73
761.754	13946.85
762.091	14124.93
762.428	14301.64
762.765	14444.24
763.102	14693.27
763.438	14762.65
763.775	14849.88
764.112	15025.69
764.449	15204.9
764.785	15329.41
765.122	15334.16
765.458	15608.05
765.795	15737.09
766.131	15853.24
766.467	15983.86
766.804	16070.86
767.14	16192.44
767.476	16388.59
767.812	16442.83
768.148	16647.8
768.485	16659.77
768.821	16808.7
769.157	16845.98
769.492	17031.97
769.828	17102.47
770.164	17164.17
770.5	17280.32
770.836	17431.5
771.171	17384.73
771.507	17470.6
771.842	17578.62
772.178	17664.27
772.513	17800.53
772.849	17789.01
773.184	17874.88
773.519	17975.9
773.855	18028.78
774.19	18071.71
774.525	18143.12
774.86	18245.27
775.195	18264.03
775.53	18398.03
775.865	18306.06
776.2	18374.53
776.535	18191.03
776.87	18351.93
777.205	18375.21
777.539	18323.23
777.874	18440.97
778.209	18329.11
778.543	18444.81
778.878	18409.11
779.212	18528.2
779.547	18333.85
779.881	18515.77
780.215	18535.43
780.55	18568.65
780.884	18503.12
781.218	18489.33
781.552	18446.39
781.886	18505.38
782.22	18540.18
782.554	18505.15
782.888	18434.87
783.222	18457.69
783.556	18385.38
783.889	18438.48
784.223	18252.05
784.557	18264.25
784.89	18433.74
785.224	18385.6
785.557	18338.6
785.891	18325.94
786.224	18222.67
786.558	18304.48
786.891	18151.71
787.224	18228.32
787.557	18066.52
787.891	18088.44
788.224	18165.95
788.557	18106.29
788.89	18072.62
789.223	18131.15
789.556	18000.76
789.888	17897.03
790.221	18024.94
790.554	17802.79
790.887	17953.07
791.219	17821.1
791.552	17836.92
791.884	17752.85
792.217	17658.17
792.549	17609.81
792.882	17591.27
793.214	17537.94
793.546	17648.67
793.879	17493.2
794.211	17368.91
794.543	17516.25
794.875	17421.79
795.207	17508.34
795.539	17411.62
795.871	17475.8
796.203	17358.29
796.535	17202.36
796.867	17281.23
797.198	17104.51
797.53	17206.88
797.862	17121
798.193	17093.89
798.525	16894.57
798.856	16977.05
799.188	16880.11
799.519	16827.9
799.85	16693.22
800.182	16730.73
800.513	16812.31
800.844	16557.86
801.175	16743.61
801.506	16635.59
801.837	16603.05
802.168	16556.5
802.499	16548.59
802.83	16534.58
803.161	16379.56
803.491	16449.84
803.822	16440.34
804.153	16308.6
804.483	16212.33
804.814	16113.12
805.145	16157.64
805.475	16070.86
805.805	16004.2
806.136	16107.92
806.466	16152.44
806.796	16075.83
807.126	15954.93
807.457	15965.1
807.787	15944.31
808.117	15860.7
808.447	15783.86
808.777	15826.58
809.107	15793.13
809.436	15629.52
809.766	15718.78
810.096	15589.97
810.426	15525.79
810.755	15604.89
811.085	15670.87
811.414	15569.41
811.744	15442.63
812.073	15466.81
812.403	15383.2
812.732	15375.51
813.061	15357.44
813.39	15225.01
813.719	15247.38
814.049	15222.98
814.378	15197.21
814.707	15147.95
815.036	15126.93
815.365	15095.97
815.693	15004
816.022	15023.21
816.351	14984.34
816.68	14926.94
817.008	14952.7
817.337	14813.95
817.665	14753.84
817.994	14848.07
818.322	14812.82
818.651	14765.59
818.979	14725.14
819.307	14801.74
819.636	14722.42
819.964	14653.5
820.292	14764.46
820.62	14693.05
820.948	14657.11
821.276	14700.05
821.604	14612.82
821.932	14694.85
822.259	14621.86
822.587	14636.1
822.915	14619.15
823.243	14654.85
823.57	14588.19
823.898	14582.54
824.225	14559.26
824.553	14500.51
824.88	14460.28
825.207	14729.43
825.535	14485.82
825.862	14581.86
826.189	14465.71
826.516	14682.88
826.843	14612.82
827.17	14672.48
827.497	14679.26
827.824	14626.61
828.151	14727.85
828.478	14534.18
828.805	14699.15
829.131	14647.17
829.458	14657.79
829.785	14587.51
830.111	14605.14
830.438	14701.18
830.764	14635.19
831.09	14620.28
831.417	14590.22
831.743	14661.86
832.069	14591.13
832.395	14489.89
832.722	14625.93
833.048	14580.51
833.374	14610.56
833.7	14493.28
834.026	14516.1
834.351	14455.09
834.677	14480.62
835.003	14519.72
835.329	14425.71
835.654	14449.44
835.98	14445.59
836.306	14387.29
836.631	14388.2
836.956	14460.28
837.282	14388.87
837.607	14298.93
837.932	14300.51
838.258	14263.45
838.583	14242.21
838.908	14190.91
839.233	14303.23
839.558	14178.26
839.883	14118.82
840.208	14089.45
840.533	14127.64
840.858	14104.81
841.182	14020.3
841.507	14029.56
841.832	13999.73
842.156	13978.04
842.481	13890.36
842.805	13917.02
843.13	13928.77
843.454	13864.59
843.778	13894.2
844.103	13847.64
844.427	13726.97
844.751	13725.61
845.075	13799.28
845.399	13661.43
845.723	13631.15
846.047	13640.64
846.371	13625.5
846.695	13408.79
847.019	13433.19
847.343	13347.54
847.666	13382.8
847.99	13285.17
848.313	13276.59
848.637	13224.61
848.96	13072.98
849.284	13075.24
849.607	12967.89
849.931	12972.41
850.254	12898.29
850.577	12843.15
850.9	12828.46
851.223	12813.1
851.546	12685.64
851.869	12662.82
852.192	12654.23
852.515	12513.67
852.838	12512.31
853.161	12502.82
853.483	12460.11
853.806	12378.98
854.129	12306.67
854.451	12274.58
854.774	12235.48
855.096	12224.64
855.419	12181.93
855.741	12142.6
856.063	12050.18
856.385	12034.36
856.708	11984.87
857.03	11957.52
857.352	11990.07
857.674	11975.83
857.996	11912.33
858.318	11833.23
858.64	11757.3
858.961	11740.13
859.283	11682.28
859.605	11649.28
859.926	11684.76
860.248	11614.71
860.57	11572.9
860.891	11632.79
861.212	11474.6
861.534	11525.9
861.855	11412
862.176	11534.94
862.498	11486.8
862.819	11531.77
863.14	11411.32
863.461	11429.18
863.782	11306.92
864.103	11394.6
864.424	11425.79
864.745	11366.13
865.065	11343.08
865.386	11245.45
865.707	11201.39
866.027	11267.15
866.348	11212.91
866.668	11175.4
866.989	11138.56
867.309	11087.49
867.63	11150.09
867.95	11122.97
868.27	11084.1
868.59	11128.85
868.91	11007.49
869.23	11052.69
869.55	11021.05
869.87	10950.32
870.19	10989.87
870.51	10987.15
870.83	10968.62
871.15	10944.9
871.469	10839.81
871.789	10897.44
872.109	10901.51
872.428	10852.24
872.748	10865.58
873.067	10799.36
873.386	10862.19
873.706	10801.85
874.025	10745.35
874.344	10765.69
874.663	10775.41
874.982	10729.08
875.301	10712.81
875.62	10625.81
875.939	10674.85
876.258	10560.95
876.577	10595.75
876.896	10680.27
877.214	10550.78
877.533	10586.49
877.852	10536.09
878.17	10568.63
878.489	10526.83
878.807	10500.84
879.125	10489.31
879.444	10543.32
879.762	10453.38
880.08	10455.87
880.398	10407.06
880.716	10441.41
881.034	10436.21
881.352	10348.98
881.67	10235.54
881.988	10323.9
882.306	10312.14
882.624	10265.14
882.941	10227.63
883.259	10178.81
883.577	10186.27
883.894	10192.37
884.212	10150.11
884.529	10124.35
884.846	10061.76
885.164	10039.83
885.481	10117.35
885.798	10083
886.115	9936.79
886.432	10021.76
886.75	10017.01
887.067	9960.06
887.383	9865.38
887.7	9961.19
888.017	9883.91
888.334	9866.73
888.651	9802.55
888.967	9751.93
889.284	9759.16
889.6	9695.44
889.917	9685.27
890.233	9719.62
890.55	9678.26
890.866	9599.85
891.182	9638.94
891.498	9541.09
891.815	9573.63
892.131	9488.21
892.447	9523.69
892.763	9499.96
893.079	9470.13
893.395	9441.43
893.71	9365.73
894.026	9308.1
894.342	9354.43
894.657	9292.28
894.973	9217.26
895.289	9291.61
895.604	9187.65
895.92	9111.27
896.235	9149.24
896.55	9141.1
896.865	9077.15
897.181	9066.75
897.496	9013.2
897.811	8950.37
898.126	8952.86
898.441	8917.6
898.756	8949.02
899.071	8822.24
899.386	8837.15
899.7	8785.4
900.015	8745.63
900.33	8643.49
900.644	8633.09
900.959	8692.98
901.273	8652.3
901.588	8606.65
901.902	8547.67
902.216	8580.21
902.531	8523.49
902.845	8443.49
903.159	8381.8
903.473	8394
903.787	8382.48
904.101	8328.24
904.415	8404.85
904.729	8294.8
905.042	8259.77
905.356	8200.79
905.67	8224.97
905.984	8140
906.297	8144.52
906.611	8092.54
906.924	8083.28
907.237	8094.12
907.551	8000.79
907.864	7912.43
908.177	7940
908.491	7933.22
908.804	7849.16
909.117	7851.87
909.43	7810.06
909.743	7693.68
910.056	7719.22
910.368	7719.44
910.681	7623.85
910.994	7625.89
911.307	7571.43
911.619	7560.58
911.932	7564.87
912.244	7475.83
912.557	7475.38
912.869	7474.7
913.181	7449.62
913.494	7458.43
913.806	7284.65
914.118	7308.16
914.43	7295.73
914.742	7266.35
915.054	7248.27
915.366	7163.98
915.678	7169.63
915.99	7156.07
916.302	7089.4
916.613	7074.72
916.925	7057.77
917.236	7029.74
917.548	6945.23
917.859	6985
918.171	6953.81
918.482	6912.01
918.794	6835.17
919.105	6873.82
919.416	6771.67
919.727	6851.67
920.038	6781.39
920.349	6713.82
920.66	6763.99
920.971	6740.26
921.282	6745.23
921.593	6666.82
921.903	6623.88
922.214	6608.06
922.525	6545.92
922.835	6579.81
923.146	6499.36
923.456	6468.63
923.767	6469.76
924.077	6427.95
924.387	6393.38
924.697	6385.02
925.008	6346.15
925.318	6331.91
925.628	6322.42
925.938	6280.61
926.248	6252.36
926.558	6211.69
926.867	6189.09
927.177	6173.5
927.487	6150.45
927.796	6081.29
928.106	6104.57
928.416	6070
928.725	6079.26
929.034	5956.33
929.344	6036.78
929.653	6011.92
929.962	5950.9
930.271	5911.81
930.581	5864.58
930.89	5842.66
931.199	5833.39
931.508	5792.26
931.817	5797.46
932.125	5773.96
932.434	5766.95
932.743	5674.07
933.051	5686.73
933.36	5712.94
933.669	5670.68
933.977	5664.81
934.286	5623.68
934.594	5615.54
934.902	5570.35
935.21	5558.37
935.519	5490.35
935.827	5523.57
936.135	5492.16
936.443	5488.77
936.751	5401.09
937.059	5409
937.367	5401.09
937.674	5393.63
937.982	5373.29
938.29	5326.96
938.597	5294.42
938.905	5259.85
939.213	5258.72
939.52	5246.06
939.827	5225.27
940.135	5183.47
940.442	5123.81
940.749	5126.07
941.056	5112.51
941.363	5100.98
941.67	5059.85
941.977	5069.57
942.284	4992.96
942.591	4986.41
942.898	4973.3
943.205	4977.82
943.511	4914.32
943.818	4921.55
944.125	4889.46
944.431	4880.2
944.738	4830.71
945.044	4805.4
945.35	4786.19
945.657	4799.07
945.963	4758.84
946.269	4750.71
946.575	4751.39
946.881	4751.84
947.187	4705.29
947.493	4688.56
947.799	4652.18
948.105	4626.64
948.41	4634.33
948.716	4614.21
949.022	4597.94
949.327	4563.82
949.633	4507.55
949.938	4543.93
950.244	4493.31
950.549	4466.65
950.854	4402.47
951.16	4419.19
951.465	4412.64
951.77	4409.93
952.075	4403.6
952.38	4372.41
952.685	4349.36
952.99	4353.66
953.294	4309.36
953.599	4284.05
953.904	4294.45
954.209	4272.08
954.513	4240.67
954.818	4206.09
955.122	4199.76
955.426	4170.84
955.731	4132.65
956.035	4112.99
956.339	4088.13
956.643	4118.18
956.948	4081.8
957.252	4046.32
957.556	4073.66
957.86	4060.56
958.163	4028.69
958.467	4039.99
958.771	4002.03
959.075	3991.41
959.378	3958.41
959.682	3935.59
959.985	3921.13
960.289	3891.75
960.592	3858.08
960.896	3876.38
961.199	3864.4
961.502	3825.76
961.805	3798.42
962.108	3819.43
962.411	3799.55
962.714	3762.26
963.017	3777.63
963.32	3741.02
963.623	3711.19
963.926	3705.09
964.228	3720.9
964.531	3676.39
964.833	3645.65
965.136	3655.37
965.438	3663.51
965.741	3616.95
966.043	3625.09
966.345	3585.09
966.648	3560.91
966.95	3573.11
967.252	3506.67
967.554	3513.23
967.856	3502.15
968.158	3485.88
968.46	3453.34
968.761	3462.38
969.063	3435.04
969.365	3451.31
969.666	3396.39
969.968	3401.82
970.269	3368.15
970.571	3334.93
970.872	3376.96
971.174	3296.28
971.475	3307.81
971.776	3313.91
972.077	3277.98
972.378	3265.32
972.679	3300.8
972.98	3227.36
973.281	3246.12
973.582	3259.22
973.883	3217.87
974.183	3197.08
974.484	3192.33
974.785	3137.19
975.085	3177.19
975.386	3164.76
975.686	3140.13
975.986	3145.1
976.287	3104.2
976.587	3121.15
976.887	3037.76
977.187	3058.1
977.487	3037.31
977.787	3036.4
978.087	2983.52
978.387	2991.43
978.687	3013.58
978.987	2998.44
979.286	2952.34
979.586	2965.9
979.885	2960.25
980.185	2943.3
980.484	2920.25
980.784	2884.77
981.083	2883.19
981.382	2898.33
981.682	2843.87
981.981	2834.83
982.28	2807.03
982.579	2798.22
982.878	2833.92
983.177	2804.09
983.475	2793.92
983.774	2804.09
984.073	2757.31
984.372	2714.6
984.67	2742.63
984.969	2719.35
985.267	2718.9
985.566	2704.21
985.864	2689.97
986.162	2685.9
986.461	2674.15
986.759	2646.81
987.057	2606.58
987.355	2609.3
987.653	2621.95
987.951	2600.03
988.249	2607.26
988.547	2610.65
988.844	2563.65
989.142	2577.21
989.44	2573.14
989.737	2548.51
990.035	2539.02
990.332	2522.07
990.63	2520.03
990.927	2471.67
991.224	2446.14
991.521	2468.73
991.819	2446.36
992.116	2461.96
992.413	2455.63
992.71	2406.36
993.006	2389.87
993.303	2407.04
993.6	2380.38
993.897	2371.34
994.193	2379.25
994.49	2319.81
994.787	2369.98
995.083	2319.13
995.379	2342.86
995.676	2307.16
995.972	2339.47
996.268	2272.81
996.565	2283.2
996.861	2222.41
997.157	2227.84
997.453	2237.33
997.749	2221.06
998.044	2219.48
998.34	2194.39
998.636	2207.95
998.932	2222.87
999.227	2161.17
999.523	2174.28
999.818	2146.71
1000.114	2122.3
1000.409	2146.48
1000.704	2120.95
1001	2101.74
1001.295	2125.24
1001.59	2091.8
1001.885	2044.34
1002.18	2077.78
1002.475	2038.92
1002.77	2044.79
1003.065	2004.57
1003.359	2025.36
1003.654	1991.23
1003.949	2008.41
1004.243	1989.65
1004.538	1974.96
1004.832	1939.03
1005.127	1981.06
1005.421	1937.9
1005.715	1915.75
1006.009	1930.22
1006.304	1905.36
1006.598	1892.93
1006.892	1866.94
1007.186	1869.43
1007.48	1860.61
1007.773	1891.12
1008.067	1850.22
1008.361	1816.1
1008.655	1832.37
1008.948	1836.89
1009.242	1787.17
1009.535	1776.78
1009.829	1775.42
1010.122	1792.82
1010.415	1771.13
1010.708	1744.69
1011.001	1756.89
1011.295	1717.34
1011.588	1724.8
1011.881	1719.83
1012.173	1710.56
1012.466	1703.78
1012.759	1666.04
1013.052	1679.83
1013.344	1675.54
1013.637	1651.35
1013.93	1646.84
1014.222	1627.85
1014.514	1634.18
1014.807	1636.44
1015.099	1595.54
1015.391	1585.82
1015.683	1610
1015.976	1608.64
1016.268	1577.91
1016.56	1532.04
1016.851	1530.68
1017.143	1522.77
1017.435	1523.45
1017.727	1508.76
1018.018	1495.65
1018.31	1482.09
1018.602	1501.98
1018.893	1469.66
1019.185	1459.5
1019.476	1478.48
1019.767	1467.4
1020.058	1456.11
1020.35	1423.34
1020.641	1415.88
1020.932	1422.43
1021.223	1396.67
1021.514	1363.45
1021.804	1406.62
1022.095	1372.49
1022.386	1363.68
1022.677	1355.32
1022.967	1358.93
1023.258	1355.77
1023.548	1351.93
1023.839	1314.87
1024.129	1326.84
1024.419	1312.61
1024.709	1294.75
1025	1313.51
1025.29	1311.93
1025.58	1291.36
1025.87	1272.83
1026.16	1258.82
1026.449	1259.5
1026.739	1238.03
1027.029	1224.47
1027.319	1223.34
1027.608	1221.31
1027.898	1227.19
1028.187	1191.93
1028.477	1184.02
1028.766	1222.44
1029.055	1188.09
1029.344	1177.02
1029.634	1156
1029.923	1166.4
1030.212	1162.33
1030.501	1139.96
1030.79	1133.63
1031.078	1111.71
1031.367	1132.05
1031.656	1125.72
1031.945	1096.79
1032.233	1087.08
1032.522	1089.56
1032.81	1103.57
1033.099	1094.31
1033.387	1063.57
1033.675	1071.26
1033.963	1054.08
1034.251	1067.64
1034.54	1031.26
1034.828	1044.37
1035.116	1029.45
1035.403	1023.57
1035.691	1016.34
1035.979	1018.83
1036.267	992.62
1036.554	1010.47
1036.842	1014.99
1037.129	968.89
1037.417	955.55
1037.704	969.79
1037.992	993.75
1038.279	963.69
1038.566	949.9
1038.853	949.9
1039.14	949.9
