Data from hue_260_FLMS001491_00021.txt Node
Date: Tue Feb 07 15:58:46 GMT 2017
User: dcchb
Spectrometer: FLMS00149
Trigger mode: 0
Integration Time (sec): 2.000000E-2
Scans to average: 10
Electric dark correction enabled: true
Nonlinearity correction enabled: false
Boxcar width: 0
XAxis mode: Wavelengths
Number of Pixels in Spectrum: 2048
>>>>>Begin Spectral Data<<<<<
341.393	-29.19
341.776	-29.19
342.16	-29.19
342.543	-73.49
342.927	-72.81
343.31	-59.02
343.693	-75.29
344.077	-78.23
344.46	-64.45
344.843	-50.66
345.226	-40.72
345.61	-26.48
345.993	-14.28
346.376	-16.31
346.759	6.06
347.142	29.11
347.525	36.34
347.908	62.1
348.291	76.57
348.674	104.14
349.057	111.14
349.44	113.85
349.823	129.22
350.206	160.63
350.588	180.52
350.971	211.93
351.354	229.1
351.737	225.04
352.119	256.67
352.502	271.14
352.884	282.89
353.267	267.3
353.65	281.53
354.032	274.75
354.414	288.54
354.797	283.79
355.179	315.43
355.562	300.06
355.944	321.08
356.326	325.37
356.709	308.65
357.091	314.53
357.473	337.35
357.855	334.64
358.238	331.93
358.62	339.16
359.002	340.06
359.384	350.68
359.766	330.57
360.148	317.92
360.53	342.1
360.912	319.5
361.294	328.08
361.676	332.38
362.057	320.85
362.439	313.62
362.821	326.28
363.203	314.07
363.584	326.28
363.966	320.18
364.348	303
364.729	294.19
365.111	319.05
365.493	303.9
365.874	293.06
366.256	312.94
366.637	329.67
367.019	305.03
367.4	310.46
367.781	305.26
368.163	308.2
368.544	285.6
368.925	298.71
369.306	289.89
369.688	304.81
370.069	316.11
370.45	306.84
370.831	291.02
371.212	310.23
371.593	295.54
371.974	298.25
372.355	306.16
372.736	305.71
373.117	304.13
373.498	305.71
373.879	297.8
374.26	305.71
374.641	298.48
375.021	296
375.402	306.62
375.783	317.92
376.163	320.85
376.544	344.81
376.925	322.21
377.305	310.23
377.686	341.42
378.066	307.52
378.447	325.6
378.827	326.5
379.208	320.18
379.588	324.47
379.968	316.33
380.349	325.82
380.729	326.28
381.109	321.08
381.489	320.4
381.87	318.14
382.25	333.28
382.63	326.95
383.01	339.84
383.39	337.58
383.77	351.59
384.15	343
384.53	340.74
384.91	340.06
385.29	319.72
385.67	341.42
386.049	306.16
386.429	358.59
386.809	344.81
387.189	338.48
387.568	358.82
387.948	354.98
388.328	362.21
388.707	350.46
389.087	363.34
389.466	344.13
389.846	355.65
390.225	328.54
390.605	366.05
390.984	356.33
391.363	378.25
391.743	363.11
392.122	377.57
392.501	364.69
392.881	384.58
393.26	368.08
393.639	382.55
394.018	381.64
394.397	394.52
394.776	358.82
395.155	366.73
395.534	386.16
395.913	391.13
396.292	374.41
396.671	386.61
397.05	398.82
397.429	406.5
397.808	390.91
398.186	392.04
398.565	413.05
398.944	393.85
399.323	397.46
399.701	398.14
400.08	407.86
400.458	430.68
400.837	398.14
401.215	417.35
401.594	420.74
401.972	405.14
402.351	412.83
402.729	418.7
403.107	423.68
403.486	416.22
403.864	436.33
404.242	429.1
404.62	446.05
404.999	455.54
405.377	448.31
405.755	438.36
406.133	460.28
406.511	450.12
406.889	477.46
407.267	472.49
407.645	460.51
408.023	460.51
408.401	478.59
408.779	480.62
409.156	502.09
409.534	499.83
409.912	515.65
410.29	513.16
410.667	533.28
411.045	509.55
411.422	531.47
411.8	520.4
412.178	539.6
412.555	550
412.933	557.23
413.31	569.21
413.687	571.92
414.065	567.17
414.442	593.61
414.819	587.96
415.197	596.78
415.574	607.85
415.951	596.1
416.328	608.98
416.705	617.57
417.082	613.95
417.46	637.68
417.837	644.46
418.214	636.55
418.591	657.34
418.967	667.96
419.344	687.17
419.721	693.05
420.098	690.79
420.475	675.87
420.852	691.92
421.228	723.33
421.605	740.96
421.982	749.09
422.358	766.94
422.735	771.91
423.111	753.61
423.488	768.52
423.864	771.69
424.241	811.24
424.617	807.62
424.994	842.65
425.37	821.4
425.746	815.98
426.123	829.09
426.499	844.68
426.875	859.37
427.251	882.19
427.627	884
428.003	904.79
428.379	913.15
428.756	923.32
429.132	923.1
429.507	932.81
429.883	946.37
430.259	972.81
430.635	971.01
431.011	969.65
431.387	1000.16
431.763	1033.38
432.138	1039.7
432.514	1048.29
432.89	1053.26
433.265	1095.97
433.641	1096.2
434.016	1121.96
434.392	1130.78
434.767	1165.8
435.143	1163.77
435.518	1171.68
435.894	1207.61
436.269	1242.64
436.644	1225.46
437.02	1231.11
437.395	1273.37
437.77	1266.59
438.145	1299.81
438.52	1314.73
438.895	1341.62
439.271	1318.12
439.646	1357.44
440.021	1400.15
440.395	1380.71
440.77	1361.96
441.145	1421.84
441.52	1431.56
441.895	1451.67
442.27	1479.69
442.645	1498.68
443.019	1496.42
443.394	1473.59
443.769	1526.02
444.143	1516.98
444.518	1544.55
444.892	1532.12
445.267	1535.74
445.641	1576.41
446.016	1582.74
446.39	1606.7
446.764	1598.33
447.139	1598.11
447.513	1616.86
447.887	1621.84
448.262	1635.85
448.636	1665.68
449.01	1675.85
449.384	1656.41
449.758	1683.76
450.132	1709.07
450.506	1753.13
450.88	1717.2
451.254	1732.34
451.628	1761.49
452.002	1760.14
452.376	1776.86
452.75	1813.7
453.123	1824.77
453.497	1815.28
453.871	1855.95
454.244	1849.85
454.618	1882.39
454.992	1911.55
455.365	1910.87
455.739	1939.57
456.112	1975.5
456.486	1996.52
456.859	2006.68
457.232	2051.2
457.606	2032.22
457.979	2040.58
458.352	2082.84
458.725	2109.73
459.099	2131.88
459.472	2211.65
459.845	2207.58
460.218	2229.96
460.591	2183.63
460.964	2234.25
461.337	2257.53
461.71	2314.93
462.083	2330.07
462.456	2333.23
462.829	2336.39
463.201	2383.62
463.574	2394.92
463.947	2409.61
464.32	2487.8
464.692	2489.61
465.065	2505.88
465.438	2531.19
465.81	2556.27
466.183	2616.84
466.555	2637.18
466.928	2650.96
467.3	2649.38
467.672	2708.59
468.045	2750.39
468.417	2741.58
468.789	2798.53
469.161	2804.86
469.534	2826.55
469.906	2935.25
470.278	2870.39
470.65	2928.02
471.022	2995.81
471.394	3074.45
471.766	3064.96
472.138	3095.92
472.51	3121.46
472.882	3156.71
473.253	3262.7
473.625	3266.76
473.997	3334.79
474.369	3367.78
474.74	3340.66
475.112	3389.47
475.484	3457.95
475.855	3518.06
476.227	3510.37
476.598	3636.92
476.97	3612.52
477.341	3730.71
477.713	3774.32
478.084	3779.52
478.455	3892.74
478.827	3900.65
479.198	3975.9
479.569	3995.56
479.94	4104.71
480.311	4150.13
480.682	4153.07
481.053	4286.85
481.424	4336.11
481.795	4364.36
482.166	4443.68
482.537	4462.44
482.908	4603.9
483.279	4544.92
483.65	4676.67
484.021	4745.37
484.391	4742.66
484.762	4846.38
485.133	4893.39
485.503	4918.02
485.874	5018.58
486.244	5053.16
486.615	5097.9
486.985	5166.15
487.356	5195.53
487.726	5264.23
488.097	5355.07
488.467	5350.1
488.837	5507.38
489.207	5530.66
489.578	5594.61
489.948	5606.82
490.318	5675.29
490.688	5712.58
491.058	5752.57
491.428	5802.29
491.798	5861.05
492.168	5974.94
492.538	5980.14
492.908	6033.02
493.278	6161.38
493.648	6106.92
494.017	6186.91
494.387	6201.15
494.757	6311.2
495.126	6364.31
495.496	6367.7
495.866	6334.25
496.235	6443.63
496.605	6466.68
496.974	6484.31
497.344	6558.66
497.713	6596.39
498.082	6607.69
498.452	6678.65
498.821	6685.88
499.19	6698.31
499.559	6734.24
499.928	6759.78
500.298	6816.5
500.667	6870.51
501.036	6774.69
501.405	6844.75
501.774	6893.56
502.143	6919.78
502.512	6944.41
502.88	7017.63
503.249	7024.63
503.618	7046.78
503.987	7027.57
504.356	7122.26
504.724	7110.73
505.093	7080
505.462	7077.06
505.83	7194.8
506.199	7206.1
506.567	7315.25
506.936	7247.68
507.304	7355.47
507.672	7326.77
508.041	7407.45
508.409	7415.13
508.777	7423.27
509.145	7496.71
509.514	7478.41
509.882	7493.55
510.25	7511.62
510.618	7567.89
510.986	7550.27
511.354	7590.72
511.722	7624.39
512.09	7677.5
512.458	7672.52
512.826	7703.94
513.193	7658.51
513.561	7729.02
513.929	7786.87
514.297	7784.16
514.664	7816.25
515.032	7795.01
515.4	7881.56
515.767	7863.03
516.135	7897.38
516.502	7804.5
516.869	7905.06
517.237	7941.22
517.604	7901.67
517.972	7981.89
518.339	8001.56
518.706	7947.32
519.073	7920.88
519.44	7991.16
519.808	8058.5
520.175	7982.35
520.542	8140.76
520.909	8093.3
521.276	8061.21
521.643	8159.29
522.009	8190.25
522.376	8142.12
522.743	8251.49
523.11	8272.73
523.477	8261.66
523.843	8281.55
524.21	8330.36
524.577	8369.23
524.943	8373.97
525.31	8386.63
525.676	8387.53
526.043	8379.85
526.409	8478.15
526.776	8463.92
527.142	8463.46
527.508	8510.02
527.874	8582.33
528.241	8529.45
528.607	8518.6
528.973	8576.91
529.339	8578.49
529.705	8589.11
530.071	8592.95
530.437	8664.14
530.803	8622.1
531.169	8657.13
531.535	8591.6
531.901	8608.32
532.267	8677.92
532.632	8711.59
532.998	8661.2
533.364	8688.32
533.73	8684.7
534.095	8722.44
534.461	8760.63
534.826	8708.43
535.192	8660.52
535.557	8761.54
535.923	8721.08
536.288	8776.68
536.653	8751.37
537.019	8696.68
537.384	8677.02
537.749	8716.11
538.114	8742.55
538.479	8715.43
538.845	8763.57
539.21	8686.73
539.575	8702.33
539.94	8696.45
540.305	8721.54
540.67	8674.31
541.034	8659.62
541.399	8691.25
541.764	8642.22
542.129	8719.05
542.494	8718.37
542.858	8649.9
543.223	8676.79
543.587	8680.41
543.952	8637.02
544.316	8645.61
544.681	8616.45
545.045	8646.96
545.41	8660.75
545.774	8688.99
546.138	8649.45
546.503	8609
546.867	8593.18
547.231	8626.4
547.595	8612.16
547.959	8638.15
548.324	8587.75
548.688	8583.23
549.052	8579.85
549.416	8647.87
549.779	8589.11
550.143	8562.22
550.507	8582.78
550.871	8590.92
551.235	8582.1
551.599	8585.95
551.962	8585.72
552.326	8564.7
552.689	8611.03
553.053	8540.3
553.417	8551.82
553.78	8635.89
554.143	8486.29
554.507	8533.29
554.87	8592.27
555.234	8669.56
555.597	8526.29
555.96	8587.98
556.323	8530.58
556.686	8531.26
557.05	8658.26
557.413	8606.29
557.776	8588.66
558.139	8614.87
558.502	8626.62
558.865	8552.05
559.228	8665.04
559.59	8637.92
559.953	8628.66
560.316	8716.34
560.679	8652.16
561.041	8686.96
561.404	8728.54
561.767	8703.01
562.129	8702.78
562.492	8747.75
562.854	8676.57
563.217	8738.03
563.579	8795.88
563.941	8847.86
564.304	8885.83
564.666	8848.09
565.028	8856
565.39	8882.66
565.753	8947.07
566.115	8976.9
566.477	8982.32
566.839	8923.11
567.201	8999.5
567.563	9021.19
567.925	9004.24
568.287	9100.51
568.648	9093.28
569.01	9109.77
569.372	9097.57
569.734	9137.57
570.095	9135.99
570.457	9188.64
570.819	9247.85
571.18	9197.46
571.542	9199.94
571.903	9234.52
572.265	9228.64
572.626	9274.97
572.987	9280.62
573.349	9346.15
573.71	9351.12
574.071	9343.21
574.432	9352.25
574.794	9447.84
575.155	9475.87
575.516	9464.12
575.877	9482.87
576.238	9538.92
576.599	9515.41
576.96	9459.37
577.32	9558.8
577.681	9641.74
578.042	9621.4
578.403	9552.93
578.763	9633.6
579.124	9658.91
579.485	9733.94
579.845	9698.46
580.206	9674.28
580.566	9686.48
580.927	9683.77
581.287	9767.38
581.648	9768.51
582.008	9854.84
582.368	9805.58
582.728	9855.52
583.089	9811
583.449	9859.81
583.809	9848.51
584.169	9920.83
584.529	9952.92
584.889	9999.69
585.249	9904.33
585.609	9880.15
585.969	9972.8
586.329	10051.67
586.688	10055.29
587.048	10012.35
587.408	9973.25
587.768	9983.65
588.127	10030.88
588.487	10016.87
588.846	10146.36
589.206	10105.45
589.565	10093.48
589.925	10221.84
590.284	10177.54
590.643	10139.58
591.003	10202.18
591.362	10273.59
591.721	10247.6
592.08	10264.55
592.44	10321.49
592.799	10298.22
593.158	10295.51
593.517	10341.38
593.876	10257.99
594.235	10276.3
594.593	10341.15
594.952	10297.77
595.311	10244.43
595.67	10329.4
596.029	10388.39
596.387	10408.05
596.746	10386.13
597.104	10381.15
597.463	10337.99
597.822	10447.59
598.18	10443.75
598.538	10449.85
598.897	10486.69
599.255	10384.54
599.613	10537.08
599.972	10457.08
600.33	10457.99
600.688	10385.67
601.046	10488.5
601.404	10524.88
601.762	10490.53
602.12	10549.06
602.478	10520.13
602.836	10560.58
603.194	10494.37
603.552	10487.82
603.91	10500.7
604.268	10558.78
604.625	10518.33
604.983	10571.43
605.341	10489.63
605.698	10559.23
606.056	10631.32
606.413	10627.25
606.771	10619.11
607.128	10642.84
607.485	10617.98
607.843	10571.66
608.2	10676.06
608.557	10665.44
608.914	10662.5
609.272	10751.77
609.629	10691.65
609.986	10765.78
610.343	10704.99
610.7	10693.91
611.057	10730.52
611.414	10794.02
611.771	10783.63
612.127	10854.14
612.484	10789.5
612.841	10776.85
613.198	10801.93
613.554	10808.49
613.911	10833.8
614.267	10864.98
614.624	10814.36
614.98	10855.49
615.337	10905.21
615.693	10887.81
616.05	10865.89
616.406	10915.38
616.762	10905.89
617.118	10835.15
617.475	10885.1
617.831	10897.07
618.187	10916.96
618.543	10910.41
618.899	10993.11
619.255	10938.43
619.611	10942.72
619.967	10976.17
620.323	11074.47
620.678	10966
621.034	11011.87
621.39	11009.39
621.746	10978.2
622.101	11091.42
622.457	10997.18
622.812	10992.21
623.168	10982.72
623.523	10970.29
623.879	10987.69
624.234	10962.61
624.589	10920.8
624.945	10956.96
625.3	10962.38
625.655	11013.23
626.01	10962.38
626.365	11004.87
626.72	10984.3
627.075	10975.26
627.43	10971.65
627.785	10935.04
628.14	10918.99
628.495	10965.32
628.85	10876.06
629.205	10847.58
629.559	10993.11
629.914	10997.63
630.269	10930.29
630.623	10812.33
630.978	10865.43
631.332	10907.47
631.687	10862.5
632.041	10884.87
632.396	10854.14
632.75	10830.41
633.104	10916.96
633.459	10867.69
633.813	10773.91
634.167	10805.1
634.521	10763.06
634.875	10800.35
635.229	10747.02
635.583	10729.17
635.937	10714.48
636.291	10708.83
636.645	10681.03
636.999	10649.17
637.352	10719
637.706	10688.04
638.06	10721.48
638.413	10698.43
638.767	10615.95
639.121	10662.5
639.474	10613.46
639.828	10588.61
640.181	10606.68
640.534	10598.55
640.888	10539.34
641.241	10568.27
641.594	10551.09
641.947	10525.56
642.301	10513.81
642.654	10535.95
643.007	10498.44
643.36	10464.32
643.713	10490.53
644.066	10485.78
644.419	10478.1
644.771	10487.14
645.124	10254.83
645.477	10248.95
645.83	10192.23
646.182	10178.45
646.535	10081.27
646.888	10205.11
647.24	10070.2
647.593	10105.68
647.945	10092.57
648.298	10043.54
648.65	10039.47
649.002	10069.75
649.355	10043.54
649.707	10092.57
650.059	10224.55
650.411	10181.61
650.763	10240.14
651.115	10381.38
651.467	10313.58
651.819	10337.76
652.171	10370.98
652.523	10310.42
652.875	10347.26
653.227	10287.6
653.578	10318.56
653.93	10335.51
654.282	10236.52
654.633	10270.65
654.985	10272
655.337	10290.76
655.688	10270.87
656.039	10355.39
656.391	10253.93
656.742	10307.71
657.094	10290.76
657.445	10329.86
657.796	10342.06
658.147	10259.35
658.498	10259.8
658.849	10310.65
659.2	10247.37
659.551	10263.19
659.902	10351.32
660.253	10290.31
660.604	10280.82
660.955	10235.39
661.306	10394.26
661.656	10326.92
662.007	10351.32
662.358	10279.01
662.708	10372.34
663.059	10299.8
663.409	10305.45
663.76	10385.9
664.11	10388.16
664.461	10296.41
664.811	10367.59
665.161	10335.96
665.511	10340.48
665.862	10257.09
666.212	10385.67
666.562	10347.03
666.912	10272.91
667.262	10303.64
667.612	10363.53
667.962	10370.76
668.312	10325.56
668.662	10355.62
669.011	10362.62
669.361	10325.56
669.711	10282.85
670.06	10334.15
670.41	10268.84
670.76	10256.41
671.109	10265.68
671.459	10322.4
671.808	10264.77
672.157	10247.82
672.507	10209.63
672.856	10196.07
673.205	10131.89
673.554	10301.83
673.904	10249.18
674.253	10276.98
674.602	10178.22
674.951	10045.12
675.3	10052.8
675.649	10149.97
675.998	10152.23
676.346	10124.21
676.695	10194.04
677.044	10141.61
677.393	10152.91
677.741	10194.94
678.09	10114.72
678.438	10076.75
678.787	10133.25
679.135	10020.26
679.484	10005.34
679.832	10134.15
680.181	10016.64
680.529	10020.49
680.877	9953.37
681.225	9987.04
681.573	10027.49
681.922	10019.58
682.27	9900.49
682.618	9855.29
682.966	9926.93
683.314	9848.51
683.661	9866.36
684.009	9822.07
684.357	9814.61
684.705	9742.75
685.053	9726.48
685.4	9719.48
685.748	9689.87
686.095	9720.61
686.443	9653.72
686.79	9681.06
687.138	9654.85
687.485	9665.24
687.832	9555.86
688.18	9591.34
688.527	9511.12
688.874	9571.91
689.221	9540.72
689.568	9491.01
689.915	9441.29
690.262	9426.6
690.609	9403.1
690.956	9339.83
691.303	9381.63
691.65	9283.78
691.997	9369.2
692.344	9238.81
692.69	9267.28
693.037	9202.65
693.383	9152.26
693.73	9181.64
694.077	9157.46
694.423	9129.89
694.769	9009.21
695.116	9044.01
695.462	9063.67
695.808	8920.18
696.155	9005.37
696.501	8892.61
696.847	8947.97
697.193	8912.94
697.539	8946.16
697.885	8819.84
698.231	8803.12
698.577	8793.17
698.923	8817.58
699.269	8740.52
699.614	8604.03
699.96	8572.39
700.306	8656.23
700.651	8565.83
700.997	8501.2
701.342	8554.53
701.688	8452.16
702.033	8517.47
702.379	8481.77
702.724	8464.82
703.069	8492.16
703.415	8322.45
703.76	8336.24
704.105	8338.04
704.45	8323.13
704.795	8264.37
705.14	8159.97
705.485	8179.4
705.83	8126.3
706.175	8216.01
706.52	8132.17
706.865	8089.91
707.209	8024.83
707.554	8006.3
707.899	8043.36
708.243	7973.76
708.588	8013.98
708.932	7964.95
709.277	7980.54
709.621	7898.06
709.966	7870.03
710.31	7819.87
710.654	7821.67
710.998	7848.56
711.342	7801.56
711.687	7784.61
712.031	7730.15
712.375	7697.38
712.719	7747.55
713.063	7748.45
713.407	7721.11
713.75	7686.99
714.094	7644.73
714.438	7642.92
714.782	7609.7
715.125	7603.15
715.469	7684.73
715.812	7564.5
716.156	7608.8
716.499	7529.93
716.843	7568.12
717.186	7531.74
717.53	7548.69
717.873	7571.96
718.216	7493.55
718.559	7463.04
718.902	7387.56
719.246	7485.41
719.589	7424.4
719.932	7412.42
720.275	7445.64
720.617	7408.35
720.96	7357.28
721.303	7479.08
721.646	7374
721.989	7348.92
722.331	7411.74
722.674	7299.65
723.016	7394.34
723.359	7367.45
723.701	7263.72
724.044	7271.86
724.386	7265.3
724.729	7329.71
725.071	7302.14
725.413	7284.96
725.755	7238.86
726.097	7248.35
726.439	7238.64
726.782	7195.25
727.124	7261.01
727.465	7205.64
727.807	7268.02
728.149	7248.35
728.491	7166.32
728.833	7263.95
729.175	7188.92
729.516	7179.2
729.858	7174.46
730.199	7206.32
730.541	7184.18
730.882	7181.24
731.224	7175.59
731.565	7106.66
731.906	7150.96
732.248	7146.89
732.589	7142.37
732.93	7119.54
733.271	7151.86
733.612	7209.71
733.953	7170.16
734.294	7140.79
734.635	7076.83
734.976	7203.38
735.317	7137.4
735.658	7151.86
735.999	7126.1
736.339	7136.49
736.68	7143.05
737.021	7131.75
737.361	7138.75
737.702	7176.94
738.042	7191.63
738.383	7165.42
738.723	7201.12
739.063	7191.41
739.404	7180.79
739.744	7192.31
740.084	7179.43
740.424	7231.63
740.764	7211.97
741.104	7218.75
741.444	7180.79
741.784	7180.11
742.124	7221.01
742.464	7237.51
742.804	7298.07
743.143	7233.21
743.483	7296.49
743.823	7245.42
744.162	7303.04
744.502	7320.22
744.841	7291.07
745.181	7384.17
745.52	7409.25
745.86	7429.82
746.199	7430.04
746.538	7443.15
746.877	7537.39
747.216	7520.44
747.556	7585.07
747.895	7643.82
748.234	7606.31
748.573	7681.56
748.911	7693.09
749.25	7775.35
749.589	7781.9
749.928	7846.76
750.267	7959.52
750.605	8021.44
750.944	8063.7
751.283	8136.47
751.621	8187.99
751.96	8211.49
752.298	8299.4
752.636	8385.5
752.975	8440.87
753.313	8470.24
753.651	8649
753.989	8638.83
754.327	8754.08
754.666	8803.34
755.004	8965.15
755.342	9040.85
755.679	9148.64
756.017	9248.3
756.355	9352.03
756.693	9364.68
757.031	9576.65
757.368	9667.95
757.706	9757.67
758.044	9866.82
758.381	10064.33
758.719	10111.56
759.056	10204.21
759.394	10362.17
759.731	10485.33
760.068	10645.55
760.405	10688.72
760.743	10796.96
761.08	11027.01
761.417	11028.82
761.754	11134.13
762.091	11309.72
762.428	11495.7
762.765	11566.89
763.102	11741.12
763.438	11881.45
763.775	11926.2
764.112	12121.67
764.449	12202.8
764.785	12328.22
765.122	12403.02
765.458	12473.3
765.795	12722.79
766.131	12812.28
766.467	12826.51
766.804	12969.56
767.14	13066.28
767.476	13165.49
767.812	13208.42
768.148	13353.5
768.485	13386.72
768.821	13500.85
769.157	13671.46
769.492	13762.08
769.828	13810.67
770.164	13784.68
770.5	13933.38
770.836	14108.29
771.171	14160.94
771.507	14093.6
771.842	14178.12
772.178	14229.87
772.513	14313.03
772.849	14416.08
773.184	14440.71
773.519	14453.59
773.855	14482.97
774.19	14639.12
774.525	14619.69
774.86	14611.1
775.195	14693.13
775.53	14757.31
775.865	14745.56
776.2	14708.72
776.535	14694.49
776.87	14791.66
777.205	14805.22
777.539	14794.82
777.874	14863.75
778.209	14799.79
778.543	14957.08
778.878	14841.83
779.212	14800.25
779.547	14937.19
779.881	14901.49
780.215	14791.21
780.55	15045.66
780.884	14899
781.218	14972.67
781.552	14887.25
781.886	14882.96
782.22	14898.32
782.554	14986
782.888	14900.58
783.222	14809.74
783.556	14916.4
783.889	14784.2
784.223	14725.9
784.557	14718.89
784.89	14829.85
785.224	14711.21
785.557	14787.82
785.891	14738.55
786.224	14727.03
786.558	14740.36
786.891	14587.14
787.224	14653.13
787.557	14577.65
787.891	14607.48
788.224	14568.84
788.557	14548.5
788.89	14580.59
789.223	14573.81
789.556	14519.12
789.888	14483.87
790.221	14353.03
790.554	14321.39
790.887	14355.74
791.219	14343.31
791.552	14354.61
791.884	14286.59
792.217	14254.95
792.549	14200.94
792.882	14183.77
793.214	14076.88
793.546	14110.32
793.879	14014.05
794.211	13946.71
794.543	14084.33
794.875	14024
795.207	14155.97
795.539	13998.46
795.871	13996.2
796.203	13834.85
796.535	13844.11
796.867	13892.93
797.198	13870.78
797.53	13803.21
797.862	13788.75
798.193	13770.22
798.525	13618.36
798.856	13711.91
799.188	13591.46
799.519	13555.08
799.85	13470.79
800.182	13538.36
800.513	13604.12
800.844	13373.39
801.175	13530.22
801.506	13455.42
801.837	13398.7
802.168	13372.26
802.499	13323.9
802.83	13279.16
803.161	13215.2
803.491	13282.55
803.822	13212.49
804.153	13195.77
804.483	13094.53
804.814	13093.17
805.145	13043.91
805.475	13046.62
805.805	12888.21
806.136	12988.54
806.466	12963.91
806.796	12920.3
807.126	12900.64
807.457	12812.5
807.787	12825.16
808.117	12795.78
808.447	12728.66
808.777	12746.29
809.107	12765.72
809.436	12669.68
809.766	12695.22
810.096	12660.19
810.426	12618.61
810.755	12595.56
811.085	12449.12
811.414	12534.77
811.744	12468.78
812.073	12468.33
812.403	12427.2
812.732	12369.8
813.061	12434.21
813.39	12372.74
813.719	12386.07
814.049	12434.88
814.378	12313.08
814.707	12265.4
815.036	12230.82
815.365	12222.91
815.693	12160.32
816.022	12218.17
816.351	12175.23
816.68	12034.67
817.008	12158.73
817.337	12088.45
817.665	11998.29
817.994	12019.3
818.322	11952.64
818.651	11911.28
818.979	11924.84
819.307	11975.91
819.636	11898.85
819.964	11946.76
820.292	11941.56
820.62	11892.75
820.948	11776.37
821.276	11941.11
821.604	11771.4
821.932	11770.04
822.259	11771.17
822.587	11774.34
822.915	11755.81
823.243	11823.38
823.57	11763.04
823.898	11801.68
824.225	11698.41
824.553	11727.11
824.88	11793.77
825.207	11844.39
825.535	11782.92
825.862	11727.33
826.189	11791.74
826.516	11775.24
826.843	11883.26
827.17	11837.61
827.497	11799.87
827.824	11871.96
828.151	11841
828.478	11906.99
828.805	11850.27
829.131	11824.28
829.458	11803.94
829.785	11831.28
830.111	11850.27
830.438	11876.93
830.764	11797.16
831.09	11892.3
831.417	11735.47
831.743	11858.85
832.069	11866.99
832.395	11768.69
832.722	11788.35
833.048	11748.8
833.374	11813.21
833.7	11734.34
834.026	11734.79
834.351	11785.18
834.677	11741.34
835.003	11774.11
835.329	11767.56
835.654	11674.68
835.98	11591.07
836.306	11696.83
836.631	11618.64
836.956	11696.83
837.282	11658.63
837.607	11639.65
837.932	11595.81
838.258	11558.07
838.583	11577.51
838.908	11539.77
839.233	11549.94
839.558	11445.31
839.883	11477.17
840.208	11400.11
840.533	11455.7
840.858	11406.89
841.182	11427.45
841.507	11421.58
841.832	11389.26
842.156	11296.38
842.481	11318.08
842.805	11360.34
843.13	11346.1
843.454	11223.84
843.778	11281.47
844.103	11165.77
844.427	11195.82
844.751	11225.2
845.075	11224.75
845.399	11099.1
845.723	10970.29
846.047	11027.46
846.371	10943.85
846.695	10949.05
847.019	10863.17
847.343	10782.27
847.666	10702.05
847.99	10704.08
848.313	10704.08
848.637	10691.88
848.96	10698.89
849.284	10674.03
849.607	10628.83
849.931	10555.16
850.254	10471.09
850.577	10411.66
850.9	10384.09
851.223	10349.06
851.546	10256.41
851.869	10218.22
852.192	10303.64
852.515	10175.06
852.838	10168.73
853.161	10182.51
853.483	10081.73
853.806	10046.25
854.129	9984.1
854.451	9927.61
854.774	9971.45
855.096	9903.88
855.419	9900.71
855.741	9898.23
856.063	9842.64
856.385	9804.67
856.708	9770.32
857.03	9666.6
857.352	9701.85
857.674	9732.36
857.996	9679.93
858.318	9599.71
858.64	9554.28
858.961	9587.5
859.283	9493.72
859.605	9496.66
859.926	9544.34
860.248	9444.23
860.57	9436.32
860.891	9486.26
861.212	9397.22
861.534	9413.04
861.855	9425.92
862.176	9362.2
862.498	9349.09
862.819	9400.84
863.14	9355.42
863.461	9219.83
863.782	9230
864.103	9278.58
864.424	9193.16
864.745	9250.79
865.065	9231.13
865.386	9150.9
865.707	9123.79
866.027	9147.06
866.348	9128.53
866.668	9147.51
866.989	9069.32
867.309	9087.4
867.63	9091.02
867.95	9057.57
868.27	8990
868.59	9060.28
868.91	8980.29
869.23	9066.16
869.55	8931.47
869.87	9037.69
870.19	8991.81
870.51	8981.42
870.83	8989.1
871.15	8858.03
871.469	8887.41
871.789	8961.53
872.109	8872.49
872.428	8876.33
872.748	8855.77
873.067	8908.65
873.386	8807.18
873.706	8902.1
874.025	8740.97
874.344	8727.86
874.663	8821.42
874.982	8700.75
875.301	8760.63
875.62	8697.58
875.939	8688.54
876.258	8723.57
876.577	8617.58
876.896	8675.89
877.214	8598.83
877.533	8644.02
877.852	8628.21
878.17	8618.49
878.489	8596.34
878.807	8618.94
879.125	8549.34
879.444	8605.16
879.762	8481.99
880.08	8523.12
880.398	8478.83
880.716	8482.67
881.034	8495.55
881.352	8452.39
881.67	8357.93
881.988	8466.18
882.306	8400.87
882.624	8365.39
882.941	8335.11
883.259	8359.51
883.577	8328.33
883.894	8296.69
884.212	8272.28
884.529	8326.29
884.846	8307.76
885.164	8197.93
885.481	8205.62
885.798	8175.79
886.115	8137.14
886.432	8145.96
886.75	8145.28
887.067	8112.74
887.383	8048.33
887.7	8040.65
888.017	8017.83
888.334	8056.92
888.651	8022.35
888.967	7951.39
889.284	7971.73
889.6	7951.61
889.917	7926.53
890.233	7929.47
890.55	7871.39
890.866	7819.41
891.182	7880.43
891.498	7788
891.815	7792.52
892.131	7776.7
892.447	7721.79
892.763	7703.71
893.079	7667.33
893.395	7679.76
893.71	7685.86
894.026	7642.69
894.342	7580.32
894.657	7501
894.973	7477.73
895.289	7554.56
895.604	7525.86
895.92	7513.88
896.235	7386.2
896.55	7461.23
896.865	7383.27
897.181	7347.79
897.496	7350.95
897.811	7328.58
898.126	7311.18
898.441	7226.66
898.756	7292.2
899.071	7198.64
899.386	7200.9
899.7	7177.85
900.015	7088.58
900.33	7055.14
900.644	7065.76
900.959	7082.48
901.273	7051.07
901.588	7063.27
901.902	6944.86
902.216	7004.07
902.531	6942.15
902.845	6945.31
903.159	6870.96
903.473	6898.76
903.787	6861.7
904.101	6811.98
904.415	6768.14
904.729	6768.59
905.042	6801.59
905.356	6665.55
905.67	6674.36
905.984	6693.57
906.297	6652.89
906.611	6707.58
906.924	6643.17
907.237	6637.75
907.551	6557.98
907.864	6522.05
908.177	6478.88
908.491	6468.26
908.804	6442.5
909.117	6395.72
909.43	6335.61
909.743	6322.96
910.056	6333.58
910.368	6315.72
910.681	6259.23
910.994	6276.18
911.307	6257.87
911.619	6133.58
911.932	6210.42
912.244	6198.66
912.557	6175.84
912.869	6085.22
913.181	6086.13
913.494	6076.86
913.806	6047.93
914.118	5999.57
914.43	6034.6
914.742	6015.62
915.054	5909.63
915.366	5915.06
915.678	5880.48
915.99	5882.74
916.302	5810.65
916.613	5810.2
916.925	5866.24
917.236	5768.85
917.548	5759.81
917.859	5768.85
918.171	5712.35
918.482	5661.28
918.794	5611.34
919.105	5629.64
919.416	5642.07
919.727	5603.88
920.038	5598.91
920.349	5537.89
920.66	5506.48
920.971	5517.78
921.282	5467.16
921.593	5454.96
921.903	5402.75
922.214	5424.22
922.525	5422.64
922.835	5337.44
923.146	5348.52
923.456	5361.85
923.767	5349.65
924.077	5324.79
924.387	5270.1
924.697	5252.02
925.008	5221.06
925.318	5195.3
925.628	5206.37
925.938	5190.78
926.248	5084.34
926.558	5173.83
926.867	5134.74
927.177	5074.85
927.487	5088.86
927.796	5037.79
928.106	5012.48
928.416	5014.06
928.725	5012.03
929.034	4952.14
929.344	4927.06
929.653	4973.61
929.962	4925.25
930.271	4896.78
930.581	4859.49
930.89	4830.34
931.199	4766.39
931.508	4818.81
931.817	4838.93
932.125	4770.23
932.434	4800.74
932.743	4691.36
933.051	4691.13
933.36	4669.67
933.669	4665.15
933.977	4672.83
934.286	4643.45
934.594	4627.86
934.902	4557.58
935.21	4576.33
935.519	4570.23
935.827	4529.78
936.135	4493.62
936.443	4491.59
936.751	4528.43
937.059	4465.38
937.367	4433.97
937.674	4397.13
937.982	4412.27
938.29	4401.2
938.597	4367.75
938.905	4339.05
939.213	4313.52
939.52	4303.8
939.827	4360.52
940.135	4306.29
940.442	4271.48
940.749	4241.88
941.056	4264.7
941.363	4200.3
941.67	4144.03
941.977	4148.78
942.284	4150.13
942.591	4165.05
942.898	4077.59
943.205	4121.43
943.511	4054.54
943.818	4081.43
944.125	3999.17
944.431	4010.93
944.738	3998.27
945.044	3989.23
945.35	3972.73
945.657	3918.95
945.963	3977.25
946.269	3932.74
946.575	3923.24
946.881	3893.64
947.187	3865.84
947.493	3860.87
947.799	3879.18
948.105	3866.75
948.41	3837.37
948.716	3819.74
949.022	3815.45
949.327	3780.88
949.633	3694.55
949.938	3763.25
950.244	3781.33
950.549	3676.02
950.854	3663.82
951.16	3665.62
951.465	3687.54
951.77	3663.14
952.075	3626.75
952.38	3624.04
952.685	3601.9
952.99	3558.51
953.294	3580.65
953.599	3582.69
953.904	3531.62
954.209	3536.14
954.513	3499.07
954.818	3496.36
955.122	3471.5
955.426	3450.49
955.731	3485.74
956.035	3432.18
956.339	3429.02
956.643	3418.4
956.948	3389.25
957.252	3362.58
957.556	3378.4
957.86	3361.68
958.163	3349.25
958.467	3318.97
958.771	3301.11
959.075	3292.3
959.378	3294.11
959.682	3272.19
959.985	3270.38
960.289	3246.65
960.592	3238.52
960.896	3208.23
961.199	3203.04
961.502	3191.29
961.805	3172.3
962.108	3161.23
962.411	3114.68
962.714	3123.49
963.017	3112.87
963.32	3112.64
963.623	3090.95
963.926	3114
964.228	3062.25
964.531	3065.19
964.833	3064.51
965.136	3030.61
965.438	2992.87
965.741	2982.48
966.043	2952.65
966.345	2991.07
966.648	2960.11
966.95	2956.26
967.252	2957.39
967.554	2909.94
967.856	2928.47
968.158	2903.61
968.46	2858.87
968.761	2884.18
969.063	2840.79
969.365	2878.07
969.666	2847.79
969.968	2806.89
970.269	2808.92
970.571	2814.57
970.872	2767.12
971.174	2773.67
971.475	2777.51
971.776	2757.4
972.077	2747.46
972.378	2745.87
972.679	2758.98
972.98	2682.37
973.281	2638.76
973.582	2714.46
973.883	2644.18
974.183	2650.74
974.484	2657.29
974.785	2648.02
975.085	2632.2
975.386	2652.09
975.686	2604.18
975.986	2607.57
976.287	2575.94
976.587	2574.35
976.887	2578.42
977.187	2565.99
977.487	2583.39
977.787	2549.5
978.087	2524.64
978.387	2515.82
978.687	2492.55
978.987	2462.27
979.286	2496.84
979.586	2494.81
979.885	2454.13
980.185	2448.93
980.484	2467.46
980.784	2438.09
981.083	2434.92
981.382	2420.46
981.682	2398.54
981.981	2373
982.28	2387.24
982.579	2368.93
982.878	2376.62
983.177	2356.96
983.475	2351.76
983.774	2297.3
984.073	2319.9
984.372	2330.74
984.67	2325.55
984.969	2294.36
985.267	2266.11
985.566	2257.07
985.864	2258.88
986.162	2220.46
986.461	2223.63
986.759	2243.97
987.057	2199.9
987.355	2189.05
987.653	2209.17
987.951	2182.5
988.249	2184.08
988.547	2177.53
988.844	2160.58
989.142	2147.47
989.44	2098.89
989.737	2125.1
990.035	2119.22
990.332	2117.19
990.63	2053.24
990.927	2097.3
991.224	2091.43
991.521	2068.83
991.819	2077.64
992.116	2044.88
992.413	2033.58
992.71	2019.34
993.006	1993.13
993.303	1981.37
993.6	1996.97
993.897	1995.16
994.193	1972.34
994.49	2006.01
994.787	1967.82
995.083	1931.21
995.379	1961.71
995.676	1943.41
995.972	1942.51
996.268	1933.69
996.565	1909.74
996.861	1866.35
997.157	1904.09
997.453	1873.13
997.749	1865.22
998.044	1831.1
998.34	1848.72
998.636	1841.72
998.932	1857.99
999.227	1810.08
999.523	1810.31
999.818	1807.59
1000.114	1791.32
1000.409	1785.45
1000.704	1786.58
1001	1758.1
1001.295	1783.19
1001.59	1751.32
1001.885	1736.41
1002.18	1715.17
1002.475	1736.41
1002.77	1717.43
1003.065	1720.36
1003.359	1706.81
1003.654	1685.56
1003.949	1690.31
1004.243	1676.52
1004.538	1652.57
1004.832	1672.23
1005.127	1660.93
1005.421	1620.48
1005.715	1656.64
1006.009	1618.22
1006.304	1631.33
1006.598	1623.19
1006.892	1622.06
1007.186	1571.67
1007.48	1583.42
1007.773	1561.95
1008.067	1559.24
1008.361	1536.19
1008.655	1567.15
1008.948	1536.19
1009.242	1499.13
1009.535	1476.75
1009.829	1511.56
1010.122	1486.7
1010.415	1491.67
1010.708	1478.34
1011.001	1476.08
1011.295	1465.68
1011.588	1442.86
1011.881	1452.12
1012.173	1432.01
1012.466	1430.65
1012.759	1435.85
1013.052	1398.79
1013.344	1405.34
1013.637	1406.47
1013.93	1407.38
1014.222	1403.76
1014.514	1365.12
1014.807	1362.41
1015.099	1382.75
1015.391	1344.1
1015.683	1348.17
1015.976	1358.57
1016.268	1333.03
1016.56	1332.58
1016.851	1325.57
1017.143	1300.49
1017.435	1295.06
1017.727	1278.34
1018.018	1270.66
1018.31	1280.38
1018.602	1259.36
1018.893	1260.49
1019.185	1240.15
1019.476	1231.34
1019.767	1255.52
1020.058	1231.11
1020.35	1219.36
1020.641	1208.29
1020.932	1200.6
1021.223	1186.59
1021.514	1186.14
1021.804	1183.43
1022.095	1192.02
1022.386	1168.51
1022.677	1164.9
1022.967	1175.29
1023.258	1138.91
1023.548	1163.77
1023.839	1129.42
1024.129	1146.37
1024.419	1129.42
1024.709	1132.81
1025	1105.92
1025.29	1108.4
1025.58	1094.62
1025.87	1101.4
1026.16	1102.75
1026.449	1066.14
1026.739	1073.6
1027.029	1049.65
1027.319	1067.73
1027.608	1056.43
1027.898	1040.83
1028.187	1017.78
1028.477	1040.83
1028.766	1023.21
1029.055	1020.95
1029.344	1011
1029.634	1005.35
1029.923	998.12
1030.212	981.85
1030.501	992.7
1030.79	962.19
1031.078	970.55
1031.367	986.37
1031.656	957.9
1031.945	957.45
1032.233	966.26
1032.522	950.67
1032.81	932.81
1033.099	928.07
1033.387	906.37
1033.675	943.44
1033.963	904.34
1034.251	917.22
1034.54	900.5
1034.828	913.61
1035.116	881.29
1035.403	878.58
1035.691	912.48
1035.979	903.21
1036.267	875.19
1036.554	872.93
1036.842	870.44
1037.129	833.16
1037.417	856.88
1037.704	862.31
1037.992	839.94
1038.279	832.48
1038.566	836.77
1038.853	836.77
1039.14	836.77
