Data from hue_340_FLMS001491_29.txt Node
Date: Mon Feb 06 15:42:42 GMT 2017
User: dcchb
Spectrometer: FLMS00149
Trigger mode: 0
Integration Time (sec): 2.000000E-2
Scans to average: 10
Electric dark correction enabled: true
Nonlinearity correction enabled: false
Boxcar width: 0
XAxis mode: Wavelengths
Number of Pixels in Spectrum: 2048
>>>>>Begin Spectral Data<<<<<
341.393	-9.75
341.776	-9.75
342.16	-9.75
342.543	-61.27
342.927	-47.48
343.31	-65.56
343.693	-70.99
344.077	-69.86
344.46	-52.68
344.843	-57.65
345.226	-60.82
345.61	-42.06
345.993	-29.41
346.376	0.42
346.759	13.53
347.142	46.07
347.525	68.22
347.908	60.54
348.291	80.87
348.674	73.19
349.057	106.18
349.44	125.62
349.823	126.52
350.206	158.61
350.588	181.66
350.971	187.31
351.354	237.25
351.737	237.03
352.119	251.72
352.502	245.39
352.884	259.4
353.267	290.59
353.65	302.56
354.032	286.97
354.414	328.55
354.797	328.1
355.179	326.06
355.562	322.45
355.944	318.83
356.326	332.39
356.709	345.95
357.091	329.23
357.473	337.36
357.855	331.04
358.238	340.08
358.62	331.49
359.002	336.01
359.384	330.81
359.766	328.32
360.148	333.52
360.53	354.31
360.912	336.01
361.294	327.65
361.676	337.36
362.057	335.78
362.439	340.98
362.821	326.52
363.203	315.44
363.584	308.66
363.966	317.25
364.348	309.12
364.729	301.66
365.111	316.57
365.493	313.41
365.874	332.84
366.256	318.83
366.637	320.19
367.019	307.08
367.4	321.55
367.781	318.16
368.163	312.96
368.544	301.43
368.925	324.26
369.306	305.27
369.688	317.93
370.069	306.4
370.45	335.33
370.831	319.06
371.212	297.59
371.593	301.66
371.974	318.16
372.355	288.33
372.736	317.48
373.117	327.19
373.498	324.93
373.879	310.02
374.26	303.47
374.641	323.81
375.021	303.92
375.402	317.93
375.783	307.08
376.163	322.22
376.544	322
376.925	313.18
377.305	317.7
377.686	302.56
378.066	320.42
378.447	312.28
378.827	314.09
379.208	309.57
379.588	319.96
379.968	347.08
380.349	343.24
380.729	339.85
381.109	337.36
381.489	338.27
381.87	330.58
382.25	312.73
382.63	341.21
383.01	318.16
383.39	329
383.77	328.78
384.15	346.4
384.53	350.7
384.91	346.86
385.29	318.16
385.67	338.27
386.049	350.02
386.429	359.06
386.809	358.61
387.189	347.99
387.568	341.43
387.948	357.25
388.328	348.21
388.707	353.41
389.087	345.5
389.466	339.85
389.846	352.73
390.225	349.34
390.605	372.39
390.984	352.05
391.363	370.58
391.743	363.13
392.122	362.45
392.501	354.31
392.881	348.66
393.26	360.41
393.639	370.13
394.018	353.41
394.397	380.3
394.776	375.56
395.155	385.27
395.534	375.56
395.913	378.49
396.292	381.2
396.671	388.66
397.05	377.81
397.429	372.17
397.808	357.93
398.186	373.75
398.565	378.27
398.944	391.6
399.323	386.85
399.701	364.03
400.08	365.16
400.458	381.2
400.837	395.67
401.215	409.23
401.594	399.96
401.972	396.57
402.351	361.09
402.729	394.31
403.107	391.6
403.486	400.87
403.864	402.67
404.242	415.78
404.62	382.11
404.999	397.48
405.377	409
405.755	415.1
406.133	418.72
406.511	419.62
406.889	429.34
407.267	437.93
407.645	430.02
408.023	426.63
408.401	432.95
408.779	440.19
409.156	418.27
409.534	434.76
409.912	455.55
410.29	444.03
410.667	447.87
411.045	465.5
411.422	459.85
411.8	467.08
412.178	450.13
412.555	453.75
412.933	461.43
413.31	482.22
413.687	468.89
414.065	490.13
414.442	504.59
414.819	487.19
415.197	480.41
415.574	516.12
415.951	528.55
416.328	505.5
416.705	530.35
417.082	513.86
417.46	507.53
417.837	532.61
418.214	533.07
418.591	544.36
418.967	524.93
419.344	555.66
419.721	542.1
420.098	539.62
420.475	547.08
420.852	573.06
421.228	551.82
421.605	548.43
421.982	581.65
422.358	592.95
422.735	575.32
423.111	591.59
423.488	589.33
423.864	590.24
424.241	603.8
424.617	591.59
424.994	605.15
425.37	613.29
425.746	627.3
426.123	616.23
426.499	626.4
426.875	631.82
427.251	606.28
427.627	665.49
428.003	637.92
428.379	655.77
428.756	651.48
429.132	657.58
429.507	674.98
429.883	658.71
430.259	670.46
430.635	703.91
431.011	689.67
431.387	719.27
431.763	690.8
432.138	723.79
432.514	723.34
432.89	706.17
433.265	745.04
433.641	737.35
434.016	727.86
434.392	757.47
434.767	719.27
435.143	743.23
435.518	782.1
435.894	763.79
436.269	774.64
436.644	791.82
437.02	799.72
437.395	783.23
437.77	802.21
438.145	808.31
438.52	812.15
438.895	808.76
439.271	819.84
439.646	815.09
440.021	830.01
440.395	844.24
440.77	852.6
441.145	848.09
441.52	869.78
441.895	869.78
442.27	868.42
442.645	864.58
443.019	887.86
443.394	892.38
443.769	884.92
444.143	879.04
444.518	912.04
444.892	867.29
445.267	890.8
445.641	901.42
446.016	914.52
446.39	905.48
446.764	919.95
447.139	918.37
447.513	913.85
447.887	907.07
448.262	933.51
448.636	908.65
449.01	930.79
449.384	933.05
449.758	948.2
450.132	963.79
450.506	947.07
450.88	972.15
451.254	971.47
451.628	974.64
452.002	956.1
452.376	995.2
452.75	983
453.123	982.32
453.497	1033.39
453.871	1015.54
454.244	1051.7
454.618	1045.82
454.992	1030.68
455.365	1045.82
455.739	1072.94
456.112	1054.41
456.486	1057.12
456.859	1059.38
457.232	1069.32
457.606	1084.46
457.979	1072.94
458.352	1130.11
458.725	1115.2
459.099	1130.56
459.472	1147.74
459.845	1157.23
460.218	1150.22
460.591	1148.87
460.964	1173.27
461.337	1177.12
461.71	1197.68
462.083	1225.93
462.456	1208.53
462.829	1220.28
463.201	1230.22
463.574	1241.75
463.947	1257.11
464.32	1268.64
464.692	1249.88
465.065	1289.2
465.438	1306.83
465.81	1295.76
466.183	1318.13
466.555	1319.71
466.928	1332.14
467.3	1359.94
467.672	1397.68
468.045	1379.6
468.417	1394.74
468.789	1382.53
469.161	1424.12
469.534	1437.67
469.906	1441.97
470.278	1467.96
470.65	1514.06
471.022	1502.53
471.394	1515.86
471.766	1537.11
472.138	1536.2
472.51	1563.09
472.882	1581.17
473.253	1625.01
473.625	1642.41
473.997	1651.91
474.369	1632.25
474.74	1685.35
475.112	1707.95
475.484	1722.41
475.855	1748.63
476.227	1776.42
476.598	1781.39
476.97	1810.55
477.341	1842.18
477.713	1915.63
478.084	1866.59
478.455	1913.37
478.827	1926.02
479.198	1980.71
479.569	1992.01
479.94	2027.72
480.311	2056.87
480.682	2074.49
481.053	2133.7
481.424	2142.29
481.795	2160.82
482.166	2198.33
482.537	2218.9
482.908	2291.21
483.279	2272.23
483.65	2312.23
484.021	2380.7
484.391	2424.77
484.762	2441.94
485.133	2409.17
485.503	2478.1
485.874	2541.6
486.244	2514.48
486.615	2565.78
486.985	2617.08
487.356	2668.83
487.726	2658.66
488.097	2679.45
488.467	2728.94
488.837	2792.67
489.207	2805.77
489.578	2811.88
489.948	2864.76
490.318	2887.35
490.688	2883.06
491.058	2957.63
491.428	3017.75
491.798	2999.21
492.168	3070.4
492.538	3043.06
492.908	3127.35
493.278	3154.01
493.648	3131.87
494.017	3203.05
494.387	3178.42
494.757	3234.01
495.126	3239.89
495.496	3257.29
495.866	3300.68
496.235	3351.52
496.605	3338.87
496.974	3387.45
497.344	3358.53
497.713	3419.09
498.082	3444.85
498.452	3443.5
498.821	3519.88
499.19	3487.34
499.559	3499.09
499.928	3524.17
500.298	3561.01
500.667	3631.74
501.036	3601.68
501.405	3618.18
501.774	3620.67
502.143	3706.99
502.512	3653.89
502.88	3688.69
503.249	3708.8
503.618	3703.38
503.987	3743.15
504.356	3809.82
504.724	3735.01
505.093	3787.22
505.462	3832.19
505.83	3809.59
506.199	3861.79
506.567	3881.23
506.936	3841.45
507.304	3958.51
507.672	3972.97
508.041	3980.88
508.409	3981.56
508.777	3956.93
509.145	3998.96
509.514	3987.66
509.882	4041
510.25	4032.18
510.618	4079.19
510.986	4031.5
511.354	4050.71
511.722	4104.72
512.09	4134.1
512.458	4125.51
512.826	4144.27
513.193	4161.22
513.561	4151.28
513.929	4220.2
514.297	4210.26
514.664	4177.49
515.032	4234.89
515.4	4277.6
515.767	4264.49
516.135	4249.8
516.502	4261.78
516.869	4309.91
517.237	4334.1
517.604	4298.62
517.972	4375.22
518.339	4359.18
518.706	4370.03
519.073	4414.09
519.44	4428.56
519.808	4418.84
520.175	4424.04
520.542	4455.9
520.909	4521.89
521.276	4429.91
521.643	4485.05
522.009	4494.09
522.376	4536.35
522.743	4603.47
523.11	4612.28
523.477	4637.82
523.843	4667.42
524.21	4652.28
524.577	4727.31
524.943	4706.29
525.31	4732.95
525.676	4768.21
526.043	4810.69
526.409	4769.56
526.776	4847.08
527.142	4844.82
527.508	4866.28
527.874	4876.91
528.241	4935.21
528.607	4960.29
528.973	5010.69
529.339	5024.7
529.705	5025.38
530.071	5085.94
530.437	5079.61
530.803	5104.24
531.169	5136.56
531.535	5119.84
531.901	5184.02
532.267	5103.11
532.632	5171.14
532.998	5257.91
533.364	5267.18
533.73	5217.91
534.095	5333.84
534.461	5303.56
534.826	5362.54
535.192	5336.78
535.557	5398.02
535.923	5410.68
536.288	5427.4
536.653	5478.02
537.019	5430.11
537.384	5466.72
537.749	5516.89
538.114	5504.01
538.479	5507.17
538.845	5515.31
539.21	5505.59
539.575	5584.68
539.94	5638.69
540.305	5666.49
540.67	5632.37
541.034	5657.22
541.399	5683.66
541.764	5700.16
542.129	5778.12
542.494	5788.75
542.858	5795.3
543.223	5760.72
543.587	5859.48
543.952	5845.69
544.316	5844.34
544.681	5911
545.045	5949.42
545.41	5960.27
545.774	5948.52
546.138	5992.13
546.503	6012.47
546.867	5963.2
547.231	6084.78
547.595	6059.02
547.959	6085.91
548.324	6109.42
548.688	6167.49
549.052	6130.66
549.416	6131.11
549.779	6138.34
550.143	6175.63
550.507	6290.43
550.871	6315.74
551.235	6292.69
551.599	6337.43
551.962	6332.91
552.326	6329.07
552.689	6362.06
553.053	6373.59
553.417	6391.22
553.78	6444.77
554.143	6428.28
554.507	6450.88
554.87	6492
555.234	6580.36
555.597	6565.9
555.96	6546.69
556.323	6580.59
556.686	6617.42
557.05	6593.02
557.413	6646.35
557.776	6658.33
558.139	6642.06
558.502	6737.87
558.865	6700.36
559.228	6712.34
559.59	6718.67
559.953	6777.42
560.316	6844.09
560.679	6838.21
561.041	6873.24
561.404	6907.36
561.767	6956.85
562.129	6911.2
562.492	6936.51
562.854	6974.7
563.217	6947.59
563.579	6965.21
563.941	7012.44
564.304	7054.7
564.666	7058.09
565.028	7076.85
565.39	7098.54
565.753	7131.08
566.115	7180.35
566.477	7188.94
566.839	7242.95
567.201	7337.18
567.563	7322.72
567.925	7367.01
568.287	7322.72
568.648	7356.16
569.01	7381.25
569.372	7500.57
569.734	7388.25
570.095	7509.6
570.457	7547.34
570.819	7562.71
571.18	7624.18
571.542	7634.57
571.903	7613.78
572.265	7694.91
572.626	7711.86
572.987	7768.81
573.349	7794.34
573.71	7826.21
574.071	7836.83
574.432	7932.19
574.794	8065.3
575.155	8081.79
575.516	8030.27
575.877	8078.86
576.238	8165.41
576.599	8249.47
576.96	8305.29
577.32	8379.41
577.681	8484.49
578.042	8528.79
578.403	8604.94
578.763	8633.19
579.124	8700.76
579.485	8818.5
579.845	8946.86
580.206	8995.44
580.566	9095.1
580.927	9205.38
581.287	9327.86
581.648	9398.82
582.008	9570.79
582.368	9645.59
582.728	9835.42
583.089	9880.62
583.449	10105.24
583.809	10197.9
584.169	10395.86
584.529	10527.83
584.889	10777.77
585.249	10789.74
585.609	11013.69
585.969	11140.47
586.329	11302.95
586.688	11533.45
587.048	11621.36
587.408	11916.49
587.768	12156.71
588.127	12327.56
588.487	12631.73
588.846	12832.85
589.206	12954.66
589.565	13276.23
589.925	13402.56
590.284	13677.58
590.643	13845.26
591.003	14243.21
591.362	14438.24
591.721	14697.66
592.08	14948.51
592.44	15184.43
592.799	15541.03
593.158	15718.43
593.517	16023.73
593.876	16262.14
594.235	16504.4
594.593	16771.28
594.952	17107.54
595.311	17283.13
595.67	17604.25
596.029	18009.89
596.387	18394.06
596.746	18560.61
597.104	18649.88
597.463	19032.92
597.822	19370.76
598.18	19488.72
598.538	19782.73
598.897	20113.12
599.255	20350.85
599.613	20855.24
599.972	20897.95
600.33	21309.02
600.688	21480.31
601.046	21809.57
601.404	22141.99
601.762	22259.73
602.12	22649.09
602.478	22878.24
602.836	23117.56
603.194	23254.73
603.552	23538.11
603.91	23800.93
604.268	24078.21
604.625	24308.26
604.983	24677.51
605.341	24731.98
605.698	24998.64
606.056	25291.28
606.413	25545.74
606.771	25779.63
607.128	26135.78
607.485	26179.4
607.843	26343.23
608.2	26688.76
608.557	27026.38
608.914	27062.54
609.272	27422.75
609.629	27662.52
609.986	28001.95
610.343	27939.35
610.7	28454.14
611.057	28444.2
611.414	28549.5
611.771	28817.97
612.127	29024.97
612.484	29188.58
612.841	29322.59
613.198	29464.06
613.554	29806.65
613.911	30053.64
614.267	29998.73
614.624	30251.15
614.98	30453.86
615.337	30667.87
615.693	30783.57
616.05	30829.44
616.406	31180.39
616.762	31107.85
617.118	31312.82
617.475	31473.04
617.831	31652.02
618.187	31822.19
618.543	31883.88
618.899	32316.41
619.255	32250.65
619.611	32365
619.967	32387.14
620.323	32692.67
620.678	32740.35
621.034	32857.86
621.39	32845.66
621.746	32912.1
622.101	33393.22
622.457	33139.89
622.812	33495.59
623.168	33507.34
623.523	33532.88
623.879	33760.21
624.234	33702.81
624.589	33891.06
624.945	33887.44
625.3	34051.05
625.655	34005.63
626.01	34243.82
626.365	34144.84
626.72	34213.08
627.075	34277.26
627.43	34266.64
627.785	34219.64
628.14	34386.64
628.495	34567.2
628.85	34493.98
629.205	34454.21
629.559	34809.23
629.914	34562.23
630.269	34599.51
630.623	34674.54
630.978	34794.99
631.332	34757.93
631.687	35025.94
632.041	34829.79
632.396	34927.41
632.75	34820.75
633.104	34942.78
633.459	34890.35
633.813	34915.66
634.167	34837.47
634.521	35029.79
634.875	35076.79
635.229	35062.1
635.583	34884.48
635.937	35023.46
636.291	34919.05
636.645	34867.08
636.999	34972.61
637.352	35077.02
637.706	34844.48
638.06	35052.16
638.413	34961.54
638.767	34806.51
639.121	35085.15
639.474	34788.66
639.828	34819.62
640.181	34984.14
640.534	34997.7
640.888	34889.22
641.241	34708.89
641.594	34821.43
641.947	34846.74
642.301	34805.38
642.654	34951.82
643.007	34907.75
643.36	34838.38
643.713	34906.4
644.066	35032.72
644.419	34680.19
644.771	34644.48
645.124	34086.76
645.477	34124.05
645.83	34069.36
646.182	33916.37
646.535	33796.82
646.888	33910.27
647.24	33738.29
647.593	33888.57
647.945	33791.17
648.298	33797.05
648.65	33598.41
649.002	33632.31
649.355	33790.95
649.707	33676.6
650.059	33919.53
650.411	34124.27
650.763	34232.07
651.115	34611.27
651.467	34537.82
651.819	34517.93
652.171	34433.64
652.523	34407.2
652.875	34417.37
653.227	34230.94
653.578	34570.81
653.93	34388.45
654.282	34317.49
654.633	34151.62
654.985	34275.45
655.337	34334.66
655.688	34253.53
656.039	34419.18
656.391	34143.48
656.742	34164.5
657.094	34152.75
657.445	34316.13
657.796	34321.78
658.147	34226.42
658.498	34213.08
658.849	34283.36
659.2	34203.59
659.551	34033.43
659.902	34279.07
660.253	34263.7
660.604	34299.63
660.955	33970.15
661.306	34201.78
661.656	34076.59
662.007	34051.05
662.358	34026.65
662.708	34094.22
663.059	34246.98
663.409	33850.38
663.76	34193.65
664.11	34041.79
664.461	34184.16
664.811	34241.78
665.161	34100.54
665.511	33981.23
665.862	34046.31
666.212	34180.54
666.562	34129.92
666.912	34130.6
667.262	34009.02
667.612	34057.83
667.962	34076.14
668.312	34023.26
668.662	34049.25
669.011	34175.57
669.361	34111.17
669.711	33991.62
670.06	33914.11
670.41	33870.49
670.76	34056.93
671.109	33995.69
671.459	33975.35
671.808	33904.84
672.157	33941.23
672.507	33816.48
672.856	33850.61
673.205	33798.63
673.554	33852.64
673.904	33820.33
674.253	33948.23
674.602	33883.83
674.951	33373.11
675.3	33193.22
675.649	33609.03
675.998	33748.24
676.346	33636.83
676.695	33819.87
677.044	33607.22
677.393	33585.53
677.741	33632.99
678.09	33625.3
678.438	33520.45
678.787	33653.32
679.135	33659.88
679.484	33394.8
679.832	33668.24
680.181	33464.85
680.529	33428.02
680.877	33314.35
681.225	33297.85
681.573	33639.09
681.922	33315.48
682.27	33091.76
682.618	33253.33
682.966	33129.04
683.314	33214.69
683.661	33109.38
684.009	32890.41
684.357	32837.07
684.705	32788.94
685.053	32889.05
685.4	32770.64
685.748	32664.2
686.095	32676.4
686.443	32499.23
686.79	32523.86
687.138	32531.32
687.485	32616.74
687.832	32487.71
688.18	32486.8
688.527	32156.19
688.874	32319.57
689.221	32211.78
689.568	32092.69
689.915	32135.4
690.262	32059.69
690.609	32078.68
690.956	31931.11
691.303	31844.11
691.65	31778.8
691.997	31657.44
692.344	31477.79
692.69	31534.74
693.037	31499.03
693.383	31217.91
693.73	31452.25
694.077	31210.9
694.423	31235.31
694.769	31178.14
695.116	31149.21
695.462	31032.15
695.808	30937.46
696.155	30750.12
696.501	30728.43
696.847	30640.52
697.193	30527.08
697.539	30616.57
697.885	30254.54
698.231	30310.81
698.577	30256.13
698.923	30140.87
699.269	30043.93
699.614	29958.51
699.96	29819.75
700.306	29980.88
700.651	29802.13
700.997	29743.14
701.342	29644.39
701.688	29638.97
702.033	29474
702.379	29585.63
702.724	29390.39
703.069	29533.21
703.415	29144.06
703.76	29181.8
704.105	29231.52
704.45	29107.68
704.795	28861.59
705.14	28983.62
705.485	28834.69
705.83	28771.19
706.175	28829.95
706.52	28646.45
706.865	28514.48
707.209	28475.61
707.554	28532.1
707.899	28479.22
708.243	28330.75
708.588	28451.2
708.932	28156.52
709.277	28058.22
709.621	28138.44
709.966	27981.83
710.31	28111.1
710.654	27698
710.998	27807.38
711.342	27848.28
711.687	27683.31
712.031	27547.27
712.375	27542.75
712.719	27633.14
713.063	27471.57
713.407	27504.11
713.75	27332.81
714.094	27316.32
714.438	27362.64
714.782	27235.19
715.125	26969.43
715.469	27255.98
715.812	26891.47
716.156	26929.21
716.499	26975.76
716.843	26944.12
717.186	26823
717.53	26934.86
717.873	26959.94
718.216	26832.26
718.559	26741.19
718.902	26571.02
719.246	26631.59
719.589	26439.05
719.932	26456
720.275	26313.18
720.617	26359.96
720.96	26260.98
721.303	26264.14
721.646	26235.67
721.989	26151.83
722.331	26246.29
722.674	26169.23
723.016	26151.37
723.359	26137.59
723.701	26077.25
724.044	25940.76
724.386	25742.57
724.729	25875.22
725.071	25750.71
725.413	25767.66
725.755	25728.11
726.097	25598.85
726.439	25558.62
726.782	25583.71
727.124	25677.04
727.465	25522.46
727.807	25516.59
728.149	25564.27
728.491	25374.22
728.833	25568.11
729.175	25239.31
729.516	25291.51
729.858	25316.37
730.199	25227.56
730.541	25250.16
730.882	25152.3
731.224	25286.09
731.565	25098.29
731.906	25090.61
732.248	25055.81
732.589	24896.49
732.93	24808.81
733.271	24800.68
733.612	24903.05
733.953	24928.13
734.294	24829.6
734.635	24752.99
734.976	24820.34
735.317	24654.24
735.658	24635.71
735.999	24635.93
736.339	24648.14
736.68	24585.31
737.021	24614.24
737.361	24442.49
737.702	24509.38
738.042	24532.21
738.383	24412.21
738.723	24413.79
739.063	24386
739.404	24416.5
739.744	24240.24
740.084	24161.14
740.424	24220.35
740.764	24219.9
741.104	24275.49
741.444	24149.62
741.784	24118.89
742.124	24036.18
742.464	24106.46
742.804	23915.95
743.143	24063.97
743.483	23931.77
743.823	23770.65
744.162	23715.96
744.502	23839.57
744.841	23697.65
745.181	23743.75
745.52	23667.6
745.86	23665.56
746.199	23730.42
746.538	23633.25
746.877	23714.6
747.216	23667.82
747.556	23637.32
747.895	23598.67
748.234	23531.78
748.573	23459.47
748.911	23435.29
749.25	23332.69
749.589	23275.29
749.928	23360.26
750.267	23303.09
750.605	23242.75
750.944	23213.37
751.283	23230.55
751.621	23181.06
751.96	22985.36
752.298	23047.95
752.636	22947.62
752.975	22892.48
753.313	22848.41
753.651	22889.77
753.989	22851.12
754.327	22757.34
754.666	22714.85
755.004	22591.69
755.342	22614.97
755.679	22590.79
756.017	22484.35
756.355	22515.54
756.693	22442.77
757.031	22530.9
757.368	22407.29
757.706	22334.75
758.044	22240.52
758.381	22213.85
758.719	22145.38
759.056	22144.93
759.394	22065.83
759.731	21937.7
760.068	21904.48
760.405	21850.7
760.743	21752.62
761.08	21871.71
761.417	21728.67
761.754	21601.21
762.091	21659.29
762.428	21526.86
762.765	21501.1
763.102	21465.17
763.438	21363.03
763.775	21138.62
764.112	21261.79
764.449	21194.67
764.785	21183.14
765.122	20960.1
765.458	20870.38
765.795	20928.46
766.131	20788.35
766.467	20711.74
766.804	20742.93
767.14	20554.91
767.476	20551.97
767.812	20463.39
768.148	20554.01
768.485	20404.86
768.821	20300.23
769.157	20373.9
769.492	20199.44
769.828	20136.39
770.164	19959.22
770.5	19987.24
770.836	19912.67
771.171	19865.89
771.507	19763.75
771.842	19643.3
772.178	19615.28
772.513	19594.94
772.849	19452.12
773.184	19466.13
773.519	19503.87
773.855	19382.74
774.19	19272.23
774.525	19257.32
774.86	19178.68
775.195	19178.68
775.53	18996.31
775.865	18882.19
776.2	18815.07
776.535	18679.71
776.87	18779.14
777.205	18683.32
777.539	18520.61
777.874	18667.5
778.209	18426.83
778.543	18384.12
778.878	18273.84
779.212	18259.6
779.547	18109.33
779.881	18221.41
780.215	18127.63
780.55	18066.62
780.884	17968.31
781.218	17863
781.552	17816.68
781.886	17853.97
782.22	17744.14
782.554	17670.24
782.888	17507.31
783.222	17438.84
783.556	17379.4
783.889	17377.14
784.223	17206.07
784.557	17255.56
784.89	17178.5
785.224	17123.36
785.557	17038.17
785.891	16988.23
786.224	16930.83
786.558	16866.65
786.891	16768.57
787.224	16775.35
787.557	16723.37
787.891	16561.8
788.224	16703.49
788.557	16560.89
788.89	16577.84
789.223	16484.28
789.556	16351.41
789.888	16337.4
790.221	16242.03
790.554	16169.94
790.887	16181.24
791.219	16087.46
791.552	16054.92
791.884	15988.03
792.217	15878.42
792.549	15852.89
792.882	15757.98
793.214	15659.45
793.546	15692.89
793.879	15559.34
794.211	15564.53
794.543	15539.22
794.875	15506.23
795.207	15542.61
795.539	15391.88
795.871	15450.41
796.203	15228.05
796.535	15172.68
796.867	15125.9
797.198	15105.79
797.53	15094.04
797.862	14950.09
798.193	14955.06
798.525	14835.51
798.856	14958.67
799.188	14771.56
799.519	14731.34
799.85	14726.59
800.182	14655.63
800.513	14669.42
800.844	14567.5
801.175	14627.84
801.506	14542.19
801.837	14520.49
802.168	14392.36
802.499	14357.11
802.83	14313.49
803.161	14243.21
803.491	14234.4
803.822	14289.09
804.153	14138.58
804.483	14065.59
804.814	14065.36
805.145	13978.14
805.475	13971.13
805.805	14012.03
806.136	13998.47
806.466	13918.02
806.796	13856.78
807.126	13825.14
807.457	13766.39
807.787	13775.65
808.117	13637.35
808.447	13623.12
808.777	13645.71
809.107	13647.75
809.436	13524.36
809.766	13568.88
810.096	13504.02
810.426	13314.65
810.755	13445.04
811.085	13429
811.414	13382.67
811.744	13325.27
812.073	13249.11
812.403	13224.26
812.732	13119.85
813.061	13140.19
813.39	13086.86
813.719	13105.16
814.049	13075.79
814.378	13013.41
814.707	13000.76
815.036	12964.15
815.365	12872.4
815.693	12830.59
816.022	12832.18
816.351	12804.83
816.68	12747.21
817.008	12732.97
817.337	12645.74
817.665	12546.76
817.994	12603.71
818.322	12585.63
818.651	12577.27
818.979	12546.31
819.307	12529.13
819.636	12478.74
819.964	12443.49
820.292	12488
820.62	12431.51
820.948	12350.83
821.276	12463.82
821.604	12375.69
821.932	12469.47
822.259	12371.85
822.587	12341.57
822.915	12372.53
823.243	12390.83
823.57	12324.62
823.898	12359.87
824.225	12305.64
824.553	12389.93
824.88	12282.13
825.207	12425.18
825.535	12316.26
825.862	12390.61
826.189	12266.54
826.516	12325.75
826.843	12346.99
827.17	12350.38
827.497	12344.28
827.824	12367.1
828.151	12393.54
828.478	12363.49
828.805	12344.96
829.131	12318.74
829.458	12295.24
829.785	12161.91
830.111	12274.9
830.438	12331.62
830.764	12342.25
831.09	12281.46
831.417	12236.49
831.743	12248.69
832.069	12241.23
832.395	12278.07
832.722	12320.78
833.048	12202.36
833.374	12226.77
833.7	12138.64
834.026	12198.07
834.351	12150.61
834.677	12138.64
835.003	12194
835.329	12110.39
835.654	12095.02
835.98	11984.06
836.306	12022.71
836.631	11985.87
836.956	12018.86
837.282	12058.64
837.607	11979.77
837.932	11935.25
838.258	11983.39
838.583	11991.97
838.908	11945.65
839.233	11940.22
839.558	11956.49
839.883	11821.13
840.208	11889.15
840.533	11836.95
840.858	11736.39
841.182	11798.08
841.507	11789.04
841.832	11732.32
842.156	11698.42
842.481	11660
842.805	11573.45
843.13	11565.32
843.454	11589.05
843.778	11555.37
844.103	11534.36
844.427	11540.01
844.751	11506.56
845.075	11388.37
845.399	11427.02
845.723	11399.22
846.047	11379.79
846.371	11417.52
846.695	11222.73
847.019	11239.45
847.343	11130.3
847.666	11124.2
847.99	11059.57
848.313	11084.43
848.637	10984.32
848.96	10964.43
849.284	10954.71
849.607	10876.97
849.931	10824.55
850.254	10698
850.577	10684.21
850.9	10626.36
851.223	10634.72
851.546	10509.98
851.869	10480.83
852.192	10562.63
852.515	10432.92
852.838	10438.57
853.161	10438.34
853.483	10380.49
853.806	10348.17
854.129	10273.6
854.451	10255.97
854.774	10211.91
855.096	10242.64
855.419	10149.76
855.741	10092.36
856.063	10048.07
856.385	10108.41
856.708	9989.31
857.03	9971.23
857.352	9992.25
857.674	9907.96
857.996	9898.47
858.318	9827.28
858.64	9884.91
858.961	9829.09
859.283	9769.66
859.605	9747.06
859.926	9804.91
860.248	9724.24
860.57	9674.52
860.891	9653.28
861.212	9625.93
861.534	9597.01
861.855	9554.97
862.176	9652.6
862.498	9585.93
862.819	9530.57
863.14	9530.12
863.461	9461.87
863.782	9516.78
864.103	9503.68
864.424	9452.6
864.745	9468.42
865.065	9420.52
865.386	9439.5
865.707	9340.52
866.027	9411.7
866.348	9391.82
866.668	9363.12
866.989	9277.02
867.309	9252.61
867.63	9225.04
867.95	9253.97
868.27	9239.5
868.59	9220.07
868.91	9242.21
869.23	9174.65
869.55	9206.06
869.87	9195.44
870.19	9149.79
870.51	9200.63
870.83	9164.48
871.15	9096.23
871.469	9092.16
871.789	9073.86
872.109	9059.39
872.428	9056.68
872.748	8992.96
873.067	9069.56
873.386	9138.26
873.706	9062.11
874.025	8959.06
874.344	8989.79
874.663	9037.02
874.982	8927.42
875.301	8938.27
875.62	8908.89
875.939	8906.63
876.258	8919.51
876.577	8873.18
876.896	8842.23
877.214	8815.33
877.533	8783.7
877.852	8855.33
878.17	8791.15
878.489	8839.29
878.807	8810.59
879.125	8743.7
879.444	8745.96
879.762	8738.5
880.08	8759.06
880.398	8726.52
880.716	8705.05
881.034	8676.35
881.352	8651.5
881.67	8670.93
881.988	8684.26
882.306	8625.51
882.624	8520.88
882.941	8551.39
883.259	8514.1
883.577	8459.64
883.894	8526.3
884.212	8392.07
884.529	8396.81
884.846	8409.02
885.164	8424.61
885.481	8397.72
885.798	8405.4
886.115	8381.9
886.432	8300.77
886.75	8270.04
887.067	8282.01
887.383	8306.42
887.7	8241.34
888.017	8254.44
888.334	8254.9
888.651	8166.54
888.967	8162.47
889.284	8112.3
889.6	8043.83
889.917	8026.2
890.233	8059.42
890.55	8115.46
890.866	7998.41
891.182	7964.28
891.498	7978.75
891.815	7930.16
892.131	7947.11
892.447	7896.04
892.763	7918.63
893.079	7838.41
893.395	7882.7
893.71	7848.35
894.026	7774.91
894.342	7785.53
894.657	7776.49
894.973	7718.41
895.289	7712.99
895.604	7635.48
895.92	7642.71
896.235	7594.8
896.55	7566.33
896.865	7522.94
897.181	7494.24
897.496	7533.78
897.811	7512.54
898.126	7437.52
898.441	7470.51
898.756	7397.52
899.071	7407.01
899.386	7372.66
899.7	7307.8
900.015	7296.96
900.33	7249.5
900.644	7228.71
900.959	7286.56
901.273	7195.49
901.588	7212.66
901.902	7137.64
902.216	7187.13
902.531	7049.5
902.845	7135.6
903.159	7013.12
903.473	7044.08
903.787	6988.49
904.101	6940.81
904.415	7004.31
904.729	6980.35
905.042	6882.95
905.356	6930.19
905.67	6831.43
905.984	6864.88
906.297	6831.43
906.611	6820.58
906.924	6780.81
907.237	6741.04
907.551	6764.31
907.864	6701.04
908.177	6715.73
908.491	6705.33
908.804	6608.61
909.117	6587.37
909.43	6521.61
909.743	6553.02
910.056	6485.45
910.368	6492.68
910.681	6418.33
910.994	6414.49
911.307	6462.4
911.619	6330.43
911.932	6415.4
912.244	6309.18
912.557	6222.63
912.869	6247.72
913.181	6275.51
913.494	6230.54
913.806	6177.21
914.118	6234.61
914.43	6144.44
914.742	6149.41
915.054	6129.75
915.366	6114.16
915.678	6046.37
915.99	5978.35
916.302	5994.84
916.613	5930.44
916.925	5921.17
917.236	5966.14
917.548	5899.7
917.859	5902.42
918.171	5851.8
918.482	5790.55
918.794	5782.19
919.105	5758.24
919.416	5757.11
919.727	5747.84
920.038	5718.69
920.349	5670.78
920.66	5640.28
920.971	5645.92
921.282	5568.19
921.593	5607.51
921.903	5522.76
922.214	5532.26
922.525	5487.51
922.835	5470.34
923.146	5490.67
923.456	5437.12
923.767	5410.9
924.077	5382.88
924.387	5384.46
924.697	5347.18
925.008	5366.84
925.318	5318.25
925.628	5340.62
925.938	5327.52
926.248	5248.42
926.558	5241.19
926.867	5200.74
927.177	5209.1
927.487	5148.08
927.796	5139.95
928.106	5115.09
928.416	5140.63
928.725	5056.56
929.034	5050.69
929.344	5072.38
929.653	5027.86
929.962	4981.31
930.271	4939.95
930.581	4963.46
930.89	4931.82
931.199	4889.33
931.508	4889.56
931.817	4875.78
932.125	4889.33
932.434	4845.49
932.743	4795.1
933.051	4767.76
933.36	4734.08
933.669	4704.93
933.977	4716.91
934.286	4698.38
934.594	4646.18
934.902	4633.75
935.21	4621.77
935.519	4652.05
935.827	4638.49
936.135	4571.38
936.443	4541.77
936.751	4548.55
937.059	4523.02
937.367	4490.7
937.674	4512.4
937.982	4465.17
938.29	4480.76
938.597	4487.76
938.905	4373.87
939.213	4349.69
939.52	4349.24
939.827	4368.9
940.135	4358.28
940.442	4324.83
940.749	4305.85
941.056	4319.63
941.363	4265.85
941.67	4219.3
941.977	4229.01
942.284	4212.52
942.591	4184.72
942.898	4171.16
943.205	4226.98
943.511	4145.63
943.818	4093.2
944.125	4112.18
944.431	4109.47
944.738	4097.72
945.044	4099.98
945.35	4062.24
945.657	3996.93
945.963	4011.39
946.269	4016.14
946.575	4020.88
946.881	3955.35
947.187	3938.17
947.493	3925.74
947.799	3900.43
948.105	3867.89
948.41	3884.16
948.716	3900.43
949.022	3873.09
949.327	3854.33
949.633	3765.07
949.938	3797.61
950.244	3782.92
950.549	3756.26
950.854	3754.22
951.16	3704.06
951.465	3708.12
951.77	3678.29
952.075	3704.28
952.38	3674.68
952.685	3677.39
952.99	3610.05
953.294	3651.18
953.599	3584.74
953.904	3558.75
954.209	3567.34
954.513	3575.47
954.818	3582.7
955.122	3511.52
955.426	3512.42
955.731	3511.29
956.035	3484.4
956.339	3466.55
956.643	3467.23
956.948	3419.32
957.252	3404.18
957.556	3457.28
957.86	3400.56
958.163	3408.7
958.467	3378.64
958.771	3373.89
959.075	3372.31
959.378	3331.64
959.682	3296.61
959.985	3306.33
960.289	3281.92
960.592	3241.92
960.896	3222.49
961.199	3235.14
961.502	3237.17
961.805	3221.58
962.108	3222.49
962.411	3189.27
962.714	3158.08
963.017	3169.61
963.32	3188.14
963.623	3163.5
963.926	3111.08
964.228	3106.56
964.531	3106.33
964.833	3105.65
965.136	3056.84
965.438	3041.93
965.741	3014.58
966.043	3005.77
966.345	3018.42
966.648	3003.96
966.95	2982.27
967.252	2979.55
967.554	2966.67
967.856	2936.39
968.158	2962.15
968.46	2937.07
968.761	2901.82
969.063	2923.06
969.365	2903.85
969.666	2846.68
969.968	2869.5
970.269	2852.55
970.571	2828.82
970.872	2858.65
971.174	2807.58
971.475	2784.31
971.776	2817.75
972.077	2792.21
972.378	2788.6
972.679	2774.81
972.98	2754.02
973.281	2751.99
973.582	2744.98
973.883	2705.66
974.183	2708.6
974.484	2672.9
974.785	2673.35
975.085	2670.64
975.386	2683.29
975.686	2625.89
975.986	2640.81
976.287	2631.54
976.587	2602.39
976.887	2591.09
977.187	2602.39
977.487	2566.46
977.787	2537.76
978.087	2528.72
978.387	2573.01
978.687	2533.01
978.987	2526.46
979.286	2508.61
979.586	2498.44
979.885	2496.4
980.185	2443.98
980.484	2465.22
980.784	2467.93
981.083	2444.65
981.382	2418.44
981.682	2432.68
981.981	2437.65
982.28	2387.93
982.579	2368.05
982.878	2394.03
983.177	2352.68
983.475	2371.66
983.774	2370.53
984.073	2313.58
984.372	2315.62
984.67	2316.97
984.969	2288.27
985.267	2287.82
985.566	2291.21
985.864	2268.84
986.162	2273.81
986.461	2264.32
986.759	2269.06
987.057	2225.9
987.355	2235.62
987.653	2223.64
987.951	2237.65
988.249	2204.89
988.547	2190.2
988.844	2168.95
989.142	2144.77
989.44	2164.43
989.737	2153.36
990.035	2155.17
990.332	2137.54
990.63	2128.28
990.927	2136.64
991.224	2110.2
991.521	2078.34
991.819	2081.27
992.116	2087.83
992.413	2053.03
992.71	2070.2
993.006	2041.05
993.303	2034.72
993.6	2034.04
993.897	2016.19
994.193	2004.44
994.49	1996.08
994.787	1993.82
995.083	1990.2
995.379	1968.06
995.676	1944.1
995.972	1952.69
996.268	1952.01
996.565	1931.45
996.861	1919.47
997.157	1921.28
997.453	1939.13
997.749	1893.71
998.044	1911.33
998.34	1902.75
998.636	1882.41
998.932	1849.19
999.227	1868.4
999.523	1803.77
999.818	1843.09
1000.114	1833.37
1000.409	1841.05
1000.704	1799.92
1001	1785.91
1001.295	1825.91
1001.59	1795.63
1001.885	1752.92
1002.18	1748.85
1002.475	1750.66
1002.77	1735.97
1003.065	1716.31
1003.359	1714.28
1003.654	1724.45
1003.949	1708.18
1004.243	1708.63
1004.538	1678.35
1004.832	1703.88
1005.127	1714.05
1005.421	1657.78
1005.715	1662.98
1006.009	1667.95
1006.304	1626.6
1006.598	1627.95
1006.892	1618.91
1007.186	1604.45
1007.48	1623.66
1007.773	1597.22
1008.067	1608.52
1008.361	1582.98
1008.655	1584.56
1008.948	1533.94
1009.242	1524.9
1009.535	1520.61
1009.829	1514.51
1010.122	1519.48
1010.415	1516.54
1010.708	1524.9
1011.001	1498.92
1011.295	1479.25
1011.588	1500.27
1011.881	1453.04
1012.173	1459.37
1012.466	1465.47
1012.759	1461.4
1013.052	1432.7
1013.344	1449.43
1013.637	1418.92
1013.93	1433.61
1014.222	1416.66
1014.514	1403.55
1014.807	1408.97
1015.099	1389.09
1015.391	1349.77
1015.683	1396.09
1015.976	1389.31
1016.268	1339.37
1016.56	1336.66
1016.851	1316.32
1017.143	1337.11
1017.435	1331.46
1017.727	1311.12
1018.018	1300.73
1018.31	1312.03
1018.602	1313.61
1018.893	1286.49
1019.185	1286.72
1019.476	1293.27
1019.767	1275.87
1020.058	1250.79
1020.35	1237.68
1020.641	1246.04
1020.932	1236.78
1021.223	1228.41
1021.514	1218.24
1021.804	1218.24
1022.095	1185.03
1022.386	1199.04
1022.677	1209.21
1022.967	1156.55
1023.258	1189.54
1023.548	1158.59
1023.839	1156.55
1024.129	1180.05
1024.419	1185.93
1024.709	1145.03
1025	1130.79
1025.29	1151.58
1025.58	1101.64
1025.87	1086.72
1026.16	1131.24
1026.449	1111.35
1026.739	1107.51
1027.029	1090.34
1027.319	1103.45
1027.608	1081.53
1027.898	1077.91
1028.187	1034.75
1028.477	1042.88
1028.766	1038.14
1029.055	1033.84
1029.344	1041.98
1029.634	1050.11
1029.923	1046.95
1030.212	1031.58
1030.501	1002.21
1030.79	995.2
1031.078	1005.14
1031.367	982.32
1031.656	1010.79
1031.945	987.29
1032.233	964.01
1032.522	957.91
1032.81	949.1
1033.099	945.26
1033.387	961.75
1033.675	937.35
1033.963	942.32
1034.251	927.4
1034.54	943.45
1034.828	922.89
1035.116	910.91
1035.403	921.76
1035.691	911.36
1035.979	907.97
1036.267	891.47
1036.554	880.17
1036.842	906.39
1037.129	892.6
1037.417	871.36
1037.704	874.75
1037.992	877.69
1038.279	854.19
1038.566	867.75
1038.853	867.75
1039.14	867.75
