Data from hue_36_FLMS001491_00073.txt Node
Date: Tue Feb 07 17:30:16 GMT 2017
User: dcchb
Spectrometer: FLMS00149
Trigger mode: 0
Integration Time (sec): 2.000000E-2
Scans to average: 10
Electric dark correction enabled: true
Nonlinearity correction enabled: false
Boxcar width: 0
XAxis mode: Wavelengths
Number of Pixels in Spectrum: 2048
>>>>>Begin Spectral Data<<<<<
341.393	-9.73
341.776	-9.73
342.16	-9.73
342.543	-59.45
342.927	-56.06
343.31	-59.45
343.693	-65.78
344.077	-65.55
344.46	-68.26
344.843	-60.35
345.226	-30.75
345.61	-43.63
345.993	-7.47
346.376	-2.5
346.759	31.17
347.142	36.82
347.525	49.7
347.908	57.84
348.291	65.29
348.674	79.08
349.057	83.83
349.44	120.66
349.823	124.5
350.206	172.86
350.588	214.22
350.971	221.45
351.354	238.4
351.737	232.3
352.119	268.45
352.502	276.14
352.884	284.95
353.267	298.74
353.65	301.9
354.032	302.58
354.414	315.91
354.797	312.97
355.179	338.73
355.562	310.49
355.944	327.43
356.326	329.92
356.709	339.41
357.091	329.47
357.473	344.16
357.855	350.94
358.238	346.42
358.62	356.13
359.002	333.08
359.384	353.65
359.766	353.42
360.148	310.94
360.53	333.99
360.912	388
361.294	341.45
361.676	334.89
362.057	326.3
362.439	331.28
362.821	331.28
363.203	327.43
363.584	326.3
363.966	343.93
364.348	317.72
364.729	346.42
365.111	334.44
365.493	318.4
365.874	337.38
366.256	326.98
366.637	324.72
367.019	324.27
367.4	341.45
367.781	335.8
368.163	332.63
368.544	319.98
368.925	324.27
369.306	323.37
369.688	326.53
370.069	310.49
370.45	320.2
370.831	317.04
371.212	315.91
371.593	317.04
371.974	317.27
372.355	334.44
372.736	340.54
373.117	316.14
373.498	323.14
373.879	340.09
374.26	324.05
374.641	336.93
375.021	307.77
375.402	324.05
375.783	327.66
376.163	344.16
376.544	317.94
376.925	329.69
377.305	331.95
377.686	349.13
378.066	345.51
378.447	320.66
378.827	333.54
379.208	336.25
379.588	335.34
379.968	328.11
380.349	329.24
380.729	356.13
381.109	334.89
381.489	350.94
381.87	333.99
382.25	336.25
382.63	370.37
383.01	352.74
383.39	369.47
383.77	343.03
384.15	336.93
384.53	340.09
384.91	346.42
385.29	366.3
385.67	374.67
386.049	349.81
386.429	359.75
386.809	373.76
387.189	357.26
387.568	348.23
387.948	347.77
388.328	373.31
388.707	352.29
389.087	358.39
389.466	366.53
389.846	362.46
390.225	363.82
390.605	373.31
390.984	396.81
391.363	384.83
391.743	357.26
392.122	392.07
392.501	374.21
392.881	390.94
393.26	372.18
393.639	390.48
394.018	393.42
394.397	383.93
394.776	374.89
395.155	376.02
395.534	375.34
395.913	374.89
396.292	405.17
396.671	395.68
397.05	393.2
397.429	399.75
397.808	380.54
398.186	401.56
398.565	395
398.944	380.09
399.323	405.85
399.701	386.19
400.08	394.78
400.458	400.2
400.837	404.27
401.215	391.16
401.594	411.73
401.972	430.26
402.351	413.76
402.729	405.4
403.107	408.34
403.486	406.08
403.864	402.24
404.242	395
404.62	417.38
404.999	414.44
405.377	417.38
405.755	423.03
406.133	446.75
406.511	429.13
406.889	444.95
407.267	432.97
407.645	409.24
408.023	425.06
408.401	450.82
408.779	451.27
409.156	465.06
409.534	471.84
409.912	467.09
410.29	456.7
410.667	441.1
411.045	456.47
411.422	467.09
411.8	464.15
412.178	475
412.555	454.44
412.933	485.85
413.31	469.13
413.687	472.97
414.065	506.41
414.442	490.59
414.819	482.23
415.197	479.75
415.574	498.73
415.951	495.79
416.328	495.34
416.705	490.14
417.082	483.14
417.46	516.81
417.837	514.55
418.214	502.57
418.591	508.22
418.967	513.42
419.344	529.46
419.721	541.89
420.098	503.02
420.475	523.36
420.852	528.33
421.228	528.79
421.605	549.58
421.982	543.7
422.358	569.69
422.735	545.73
423.111	521.78
423.488	550.93
423.864	537.37
424.241	567.65
424.617	554.77
424.994	579.41
425.37	561.33
425.746	554.77
426.123	564.94
426.499	570.37
426.875	567.65
427.251	576.47
427.627	590.03
428.003	599.52
428.379	592.06
428.756	585.96
429.132	617.82
429.507	608.78
429.883	611.04
430.259	632.74
430.635	623.92
431.011	631.16
431.387	626.18
431.763	629.8
432.138	643.36
432.514	651.04
432.89	629.8
433.265	647.2
433.641	674.32
434.016	688.78
434.392	675.22
434.767	669.8
435.143	658.27
435.518	695.79
435.894	690.82
436.269	702.11
436.644	704.83
437.02	721.32
437.395	708.44
437.77	719.97
438.145	721.1
438.52	712.74
438.895	712.96
439.271	738.27
439.646	734.2
440.021	753.41
440.395	746.18
440.77	733.98
441.145	743.47
441.52	755.9
441.895	777.59
442.27	792.96
442.645	762
443.019	771.04
443.394	777.59
443.769	796.58
444.143	775.78
444.518	774.2
444.892	772.85
445.267	768.55
445.641	791.38
446.016	824.6
446.39	769.91
446.764	839.06
447.139	811.94
447.513	829.34
447.887	826.4
448.262	820.53
448.636	817.82
449.01	863.92
449.384	825.73
449.758	831.83
450.132	858.95
450.506	856.69
450.88	851.26
451.254	863.92
451.628	882.67
452.002	878.83
452.376	891.49
452.75	907.76
453.123	863.47
453.497	915.22
453.871	909.79
454.244	941.2
454.618	950.92
454.992	928.1
455.365	931.94
455.739	980.98
456.112	978.94
456.486	973.97
456.859	995.44
457.232	972.62
457.606	1013.52
457.979	1010.58
458.352	1004.71
458.725	1046.06
459.099	1037.25
459.472	1057.59
459.845	1068.21
460.218	1073.4
460.591	1087.41
460.964	1084.03
461.337	1076.12
461.71	1121.09
462.083	1179.39
462.456	1133.06
462.829	1176.45
463.201	1162.67
463.574	1164.48
463.947	1181.2
464.32	1187.53
464.692	1224.36
465.065	1229.33
465.438	1242.44
465.81	1252.61
466.183	1256.68
466.555	1305.26
466.928	1309.33
467.3	1327.41
467.672	1347.75
468.045	1357.69
468.417	1347.75
468.789	1408.31
469.161	1378.93
469.534	1437.69
469.906	1437.91
470.278	1467.97
470.65	1488.31
471.022	1514.75
471.394	1570.57
471.766	1593.39
472.138	1598.81
472.51	1610.79
472.882	1660.28
473.253	1706.83
473.625	1724.91
473.997	1744.8
474.369	1786.83
474.74	1819.6
475.112	1860.5
475.484	1873.16
475.855	1956.54
476.227	1953.83
476.598	2003.55
476.97	2022.98
477.341	2075.41
477.713	2116.99
478.084	2155.64
478.455	2233.6
478.827	2275.63
479.198	2385.46
479.569	2340.72
479.94	2447.15
480.311	2475.85
480.682	2554.49
481.053	2626.81
481.424	2696.86
481.795	2739.12
482.166	2803.98
482.537	2911.1
482.908	2966.46
483.279	3023.64
483.65	3109.96
484.021	3193.57
484.391	3296.85
484.762	3319.9
485.133	3407.35
485.503	3460.23
485.874	3568.71
486.244	3704.07
486.615	3734.58
486.985	3763.05
487.356	3954.46
487.726	4013.89
488.097	4125.3
488.467	4166.2
488.837	4319.87
489.207	4402.36
489.578	4504.73
489.948	4554.22
490.318	4699.07
490.688	4748.79
491.058	4853.64
491.428	5015.45
491.798	5133.86
492.168	5156.23
492.538	5291.82
492.908	5377.25
493.278	5499.95
493.648	5513.29
494.017	5714.86
494.387	5774.07
494.757	5843.45
495.126	5995.31
495.496	6032.82
495.866	6119.15
496.235	6236.88
496.605	6339.03
496.974	6378.58
497.344	6487.5
497.713	6543.09
498.082	6658.57
498.452	6794.61
498.821	6797.55
499.19	6922.97
499.559	7019.01
499.928	7105.79
500.298	7196.86
500.667	7275.95
501.036	7329.28
501.405	7389.4
501.774	7447.02
502.143	7578.09
502.512	7675.04
502.88	7742.83
503.249	7749.61
503.618	7878.42
503.987	7950.51
504.356	8004.07
504.724	8098.53
505.093	8110.96
505.462	8265.31
505.83	8315.93
506.199	8394.57
506.567	8489.48
506.936	8554.34
507.304	8630.72
507.672	8669.81
508.041	8761.34
508.409	8852.63
508.777	8889.02
509.145	8970.37
509.514	8967.89
509.882	9060.76
510.25	9120.88
510.618	9214.66
510.986	9179.63
511.354	9379.4
511.722	9428.44
512.09	9510.02
512.458	9536.01
512.826	9660.75
513.193	9705.95
513.561	9749.33
513.929	9832.95
514.297	9938.03
514.664	9949.55
515.032	10001.76
515.4	10103.9
515.767	10165.14
516.135	10167.85
516.502	10123.56
516.869	10337.79
517.237	10316.78
517.604	10391.13
517.972	10482.42
518.339	10570.56
518.706	10632.47
519.073	10693.04
519.44	10706.6
519.808	10801.96
520.175	10850.32
520.542	10926.48
520.909	11096.64
521.276	10961.73
521.643	11093.48
522.009	11257.99
522.376	11214.38
522.743	11247.6
523.11	11440.81
523.477	11465.45
523.843	11510.19
524.21	11705.21
524.577	11750.86
524.943	11821.14
525.31	11861.14
525.676	12027.24
526.043	12029.95
526.409	12084.41
526.776	12194.02
527.142	12332.32
527.508	12313.33
527.874	12345.42
528.241	12496.83
528.607	12549.03
528.973	12651.86
529.339	12654.79
529.705	12777.28
530.071	12897.27
530.437	12953.77
530.803	12984.5
531.169	13054.33
531.535	13073.31
531.901	13144.5
532.267	13228.56
532.632	13309.24
532.998	13318.51
533.364	13366.41
533.73	13482.34
534.095	13589.69
534.461	13634.43
534.826	13573.87
535.192	13710.81
535.557	13815.89
535.923	13868.1
536.288	13832.39
536.653	13970.92
537.019	13931.37
537.384	14005.72
537.749	14067.86
538.114	14099.5
538.479	14200.06
538.845	14218.6
539.21	14153.51
539.575	14362.32
539.94	14376.11
540.305	14520.96
540.67	14497.23
541.034	14540.62
541.399	14672.59
541.764	14739.03
542.129	14725.47
542.494	14749.88
542.858	14849.99
543.223	14834.4
543.587	14989.65
543.952	14878.24
544.316	14987.61
544.681	15085.24
545.045	15075.75
545.41	15210.66
545.774	15177.67
546.138	15278.23
546.503	15280.04
546.867	15359.36
547.231	15548.28
547.595	15508.73
547.959	15635.05
548.324	15658.78
548.688	15649.07
549.052	15714.37
549.416	15753.47
549.779	15724.77
550.143	15864.88
550.507	15959.79
550.871	15952.79
551.235	15948.95
551.599	16089.28
551.962	16154.82
552.326	16149.62
552.689	16210.86
553.053	16235.04
553.417	16370.85
553.78	16530.4
554.143	16437.07
554.507	16607.68
554.87	16641.36
555.234	16703.5
555.597	16641.81
555.96	16819.88
556.323	16894.68
556.686	16879.32
557.05	16985.53
557.413	16966.09
557.776	17133.77
558.139	17170.16
558.502	17206.54
558.865	17278.4
559.228	17337.38
559.59	17418.96
559.953	17376.7
560.316	17568.34
560.679	17623.48
561.041	17711.38
561.404	17723.59
561.767	17909.57
562.129	17859.86
562.492	18047.42
562.854	17981.21
563.217	18068.44
563.579	18027.76
563.941	18216.46
564.304	18290.13
564.666	18388.88
565.028	18469.33
565.39	18462.78
565.753	18650.34
566.115	18571.93
566.477	18724.47
566.839	18744.35
567.201	18925.14
567.563	18922.88
567.925	19036.1
568.287	18968.98
568.648	19026.6
569.01	19119.26
569.372	19273.38
569.734	19302.08
570.095	19476.31
570.457	19492.58
570.819	19462.3
571.18	19718.11
571.542	19709.98
571.903	19862.29
572.265	19795.4
572.626	19912.23
572.987	19957.2
573.349	20126.01
573.71	20182.73
574.071	20296.85
574.432	20417.53
574.794	20563.96
575.155	20530.29
575.516	20511.54
575.877	20703.4
576.238	20897.52
576.599	20989.04
576.96	21133.44
577.32	21155.36
577.681	21324.4
578.042	21368.01
578.403	21566.88
578.763	21582.92
579.124	21835.34
579.485	22006.64
579.845	22084.38
580.206	22180.19
580.566	22313.3
580.927	22416.12
581.287	22579.51
581.648	22712.83
582.008	22965.03
582.368	23100.4
582.728	23303.1
583.089	23316.21
583.449	23578.12
583.809	23785.35
584.169	23835.97
584.529	24059.69
584.889	24428.5
585.249	24413.58
585.609	24593.69
585.969	24946.22
586.329	25052.21
586.688	25343.5
587.048	25424.85
587.408	25606.09
587.768	25933.54
588.127	26098.28
588.487	26214.21
588.846	26780.75
589.206	26748.44
589.565	26799.73
589.925	27184.13
590.284	27386.61
590.643	27511.58
591.003	27842.87
591.362	28127.61
591.721	28303.42
592.08	28592.23
592.44	28977.98
592.799	29092.55
593.158	29214.13
593.517	29384.75
593.876	29727.34
594.235	29852.76
594.593	30097.73
594.952	30381.56
595.311	30509.69
595.67	30737.48
596.029	31139.05
596.387	31405.49
596.746	31506.73
597.104	31740.85
597.463	31931.12
597.822	32260.61
598.18	32258.57
598.538	32428.06
598.897	32808.84
599.255	32734.72
599.613	33421.03
599.972	33312.1
600.33	33672.55
600.688	33578.76
601.046	33942.6
601.404	34299.2
601.762	34363.15
602.12	34731.28
602.478	34842.69
602.836	35079.97
603.194	35093.07
603.552	35230.02
603.91	35326.06
604.268	35589.56
604.625	35628.43
604.983	35922.43
605.341	35857.57
605.698	36348.86
606.056	36486.48
606.413	36581.4
606.771	36874.95
607.128	36958.79
607.485	36929.64
607.843	37112.91
608.2	37470.19
608.557	37705.21
608.914	37676.74
609.272	37932.32
609.629	38123.96
609.986	38406.66
610.343	38353.1
610.7	38708.12
611.057	38595.36
611.414	38731.17
611.771	38936.14
612.127	39189.69
612.484	39168.9
612.841	39382.68
613.198	39262.68
613.554	39354.43
613.911	39810.01
614.267	39926.85
614.624	39830.8
614.98	40034.19
615.337	40273.5
615.693	40021.76
616.05	40193.05
616.406	40611.8
616.762	40498.58
617.118	40656.77
617.475	40720.95
617.831	40808.86
618.187	41075.52
618.543	41021.96
618.899	41417.43
619.255	41224.44
619.611	41338.79
619.967	41533.81
620.323	41642.51
620.678	41704.2
621.034	41572.45
621.39	41614.03
621.746	41728.38
622.101	42113.91
622.457	41831.2
622.812	42097.41
623.168	42178.31
623.523	42224.64
623.879	42317.29
624.234	42022.61
624.589	42248.37
624.945	42435.03
625.3	42376.5
625.655	42428.47
626.01	42512.54
626.365	42462.6
626.72	42538.75
627.075	42511.64
627.43	42583.72
627.785	42558.64
628.14	42691.29
628.495	42755.7
628.85	42617.4
629.205	42673.21
629.559	42915.24
629.914	42561.58
630.269	42693.78
630.623	42771.52
630.978	42606.55
631.332	42944.17
631.687	42883.6
632.041	42773.78
632.396	42894.45
632.75	42769.71
633.104	42756.83
633.459	42645.87
633.813	42872.3
634.167	42673.44
634.521	42742.36
634.875	42846.77
635.229	42883.83
635.583	42695.81
635.937	42725.87
636.291	42653.1
636.645	42629.83
636.999	42677.28
637.352	42891.06
637.706	42525.65
638.06	42670.73
638.413	42649.71
638.767	42473.22
639.121	42623.95
639.474	42409.27
639.828	42471.64
640.181	42512.77
640.534	42464.41
640.888	42364.3
641.241	42204.07
641.594	42415.59
641.947	42383.28
642.301	42338.53
642.654	42286.11
643.007	42334.92
643.36	42339.21
643.713	42379.66
644.066	42509.83
644.419	42140.8
644.771	41932.22
645.124	41661.04
645.477	41542.17
645.83	41261.5
646.182	41301.95
646.535	41303.76
646.888	41191.45
647.24	40948.97
647.593	41256.08
647.945	41155.06
648.298	40884.33
648.65	40871.45
649.002	40851.34
649.355	41047.04
649.707	40825.13
650.059	41131.33
650.411	41584.2
650.763	41574.94
651.115	41990.97
651.467	41873.69
651.819	41816.29
652.171	41691.55
652.523	41701.49
652.875	41598.89
653.227	41433.7
653.578	41755.72
653.93	41627.59
654.282	41394.83
654.633	41492.68
654.985	41439.8
655.337	41486.13
655.688	41650.19
656.039	41668.04
656.391	41383.76
656.742	41442.51
657.094	41440.25
657.445	41540.81
657.796	41453.13
658.147	41318.9
658.498	41403.64
658.849	41562.73
659.2	41438.22
659.551	41222.86
659.902	41566.12
660.253	41503.08
660.604	41422.17
660.955	41233.03
661.306	41493.13
661.656	41400.25
662.007	41378.78
662.358	41387.82
662.708	41319.8
663.059	41226.47
663.409	40974.05
663.76	41342.18
664.11	41220.82
664.461	41338.33
664.811	41237.77
665.161	41212.24
665.511	41050.88
665.862	41086.14
666.212	41205.91
666.562	41252.01
666.912	41129.3
667.262	41019.92
667.612	41151.67
667.962	41048.17
668.312	40998.23
668.662	41354.38
669.011	41278.9
669.361	40974.05
669.711	41054.95
670.06	41087.72
670.41	40965.24
670.76	40829.65
671.109	41087.95
671.459	41091.56
671.808	41066.25
672.157	40963.43
672.507	40898.8
672.856	40847.73
673.205	40842.3
673.554	41083.43
673.904	40819.7
674.253	41084.56
674.602	40844.34
674.951	40419.49
675.3	40157.12
675.649	40915.75
675.998	40790.78
676.346	40780.61
676.695	40925.24
677.044	40607.51
677.393	40754.39
677.741	40761.4
678.09	40569.54
678.438	40546.49
678.787	40670.33
679.135	40678.92
679.484	40414.97
679.832	40622.87
680.181	40360.73
680.529	40404.12
680.877	40412.93
681.225	40346.27
681.573	40519.15
681.922	40199.15
682.27	40076.22
682.618	40232.83
682.966	39978.6
683.314	40138.14
683.661	40011.82
684.009	39875.77
684.357	39796.91
684.705	39789.45
685.053	39798.71
685.4	39818.83
685.748	39520.75
686.095	39502.68
686.443	39408.44
686.79	39367.54
687.138	39460.19
687.485	39366.63
687.832	39069.24
688.18	39230.14
688.527	39104.27
688.874	38948.11
689.221	38995.34
689.568	38854.56
689.915	38838.51
690.262	38815.46
690.609	38671.96
690.956	38562.59
691.303	38478.52
691.65	38438.07
691.997	38317.62
692.344	38117.85
692.69	38134.8
693.037	38224.29
693.383	37805.77
693.73	37978.65
694.077	37912.21
694.423	37882.83
694.769	37702.95
695.116	37640.8
695.462	37691.2
695.808	37312.9
696.155	37477.19
696.501	37266.35
696.847	37267.03
697.193	37039.69
697.539	37167.6
697.885	36864.55
698.231	36770.54
698.577	36956.08
698.923	36606.25
699.269	36583.66
699.614	36400.38
699.96	36371.46
700.306	36391.8
700.651	36261.41
700.997	35973.5
701.342	36054.86
701.688	35957.68
702.033	36011.02
702.379	35842.66
702.724	35722.66
703.069	35955.65
703.415	35426.4
703.76	35442.22
704.105	35444.93
704.45	35333.97
704.795	35299.4
705.14	35072.28
705.485	34928.56
705.83	34938.95
706.175	34954.1
706.52	34868.9
706.865	34701.22
707.209	34777.6
707.554	34558.4
707.899	34587.33
708.243	34397.5
708.588	34355.01
708.932	34137.62
709.277	34051.52
709.621	34224.17
709.966	34022.82
710.31	34025.31
710.654	33766.56
710.998	33837.29
711.342	33898.98
711.687	33723.84
712.031	33523.4
712.375	33369.5
712.719	33533.34
713.063	33530.86
713.407	33481.37
713.75	33331.31
714.094	33322.95
714.438	33129.51
714.782	33145.56
715.125	33045.9
715.469	33082.05
715.812	32869.63
716.156	32620.15
716.499	32701.95
716.843	32789.86
717.186	32685
717.53	32794.6
717.873	32710.54
718.216	32729.75
718.559	32488.85
718.902	32450.88
719.246	32318.46
719.589	32341.51
719.932	32092.02
720.275	32191.46
720.617	32042.31
720.96	32190.55
721.303	32068.3
721.646	32021.29
721.989	31784.23
722.331	32011.8
722.674	31851.35
723.016	31916.43
723.359	31824.01
723.701	31845.93
724.044	31467.18
724.386	31424.92
724.729	31659.94
725.071	31557.57
725.413	31539.27
725.755	31548.53
726.097	31260.86
726.439	31074.2
726.782	31215.89
727.124	31347.86
727.465	31014.31
727.807	31170.24
728.149	31054.08
728.491	30852.06
728.833	31001.88
729.175	30904.71
729.516	30852.06
729.858	30774.77
730.199	30740.42
730.541	30723.47
730.882	30577.49
731.224	30687.54
731.565	30545.62
731.906	30518.51
732.248	30560.31
732.589	30298.4
732.93	30302.92
733.271	30319.87
733.612	30429.69
733.953	30387.44
734.294	30169.59
734.635	30277.38
734.976	30163.49
735.317	30158.29
735.658	30034
735.999	30057.05
736.339	29942.02
736.68	30166.65
737.021	29871.74
737.361	29662.71
737.702	29966.88
738.042	29832.65
738.383	29749.94
738.723	29767.79
739.063	29664.06
739.404	29670.84
739.744	29676.27
740.084	29465.43
740.424	29510.62
740.764	29477.18
741.104	29577.74
741.444	29398.99
741.784	29172.33
742.124	29359.21
742.464	29180.91
742.804	29205.55
743.143	29095.49
743.483	29100.92
743.823	28937.3
744.162	28843.75
744.502	29025.66
744.841	28965.1
745.181	28934.82
745.52	28963.07
745.86	28930.75
746.199	28740.25
746.538	28759.91
746.877	28847.14
747.216	28806.23
747.556	28699.12
747.895	28748.83
748.234	28511.55
748.573	28462.74
748.911	28441.72
749.25	28374.16
749.589	28253.93
749.928	28269.75
750.267	28443.31
750.605	28247.15
750.944	28254.16
751.283	28173.93
751.621	28193.59
751.96	28088.06
752.298	27973.71
752.636	27922.64
752.975	27858.46
753.313	27911.12
753.651	27903.21
753.989	27651.01
754.327	27677
754.666	27592.93
755.004	27555.65
755.342	27611.69
755.679	27511.13
756.017	27378.7
756.355	27547.06
756.693	27238.14
757.031	27314.07
757.368	27157.01
757.706	26977.36
758.044	27143.23
758.381	27071.59
758.719	26886.06
759.056	26995.21
759.394	26832.05
759.731	26617.14
760.068	26509.8
760.405	26577.37
760.743	26452.85
761.08	26482
761.417	26334.21
761.754	26242.91
762.091	26237.26
762.428	26154.78
762.765	26066.87
763.102	26056.7
763.438	25925.41
763.775	25763.38
764.112	25840.21
764.449	25753.88
764.785	25709.14
765.122	25527.9
765.458	25387.79
765.795	25354.35
766.131	25392.76
766.467	25265.54
766.804	25230.96
767.14	25052.43
767.476	24999.1
767.812	24861.93
768.148	24946.45
768.485	24673.91
768.821	24510.53
769.157	24599.79
769.492	24423.07
769.828	24435.5
770.164	24295.62
770.5	24167.71
770.836	24205.23
771.171	24097.21
771.507	24021.05
771.842	23792.13
772.178	23866.48
772.513	23812.24
772.849	23757.55
773.184	23618.35
773.519	23561.85
773.855	23437.79
774.19	23296.1
774.525	23352.14
774.86	23357.79
775.195	23271.01
775.53	23073.05
775.865	23072.15
776.2	22882.32
776.535	22687.75
776.87	22769.1
777.205	22745.6
777.539	22588.32
777.874	22660.63
778.209	22392.39
778.543	22395.78
778.878	22252.28
779.212	22172.96
779.547	22088.67
779.881	22158.05
780.215	21923.25
780.55	21933.87
780.884	21899.98
781.218	21742.92
781.552	21726.42
781.886	21678.96
782.22	21506.31
782.554	21454.56
782.888	21265.19
783.222	21186.77
783.556	21160.11
783.889	21119.66
784.223	20954.69
784.557	20930.28
784.89	20893.45
785.224	20718.99
785.557	20648.71
785.891	20646.67
786.224	20526.23
786.558	20553.8
786.891	20345.44
787.224	20281.71
787.557	20181.38
787.891	20158.78
788.224	20147.25
788.557	20165.33
788.89	19991.32
789.223	20074.49
789.556	19873.14
789.888	19752.91
790.221	19734.38
790.554	19603.54
790.887	19695.51
791.219	19567.38
791.552	19555.86
791.884	19389.98
792.217	19419.36
792.549	19287.84
792.882	19117.68
793.214	19014.63
793.546	19066.38
793.879	18968.98
794.211	18781.64
794.543	18810.79
794.875	18818.47
795.207	18828.87
795.539	18668.65
795.871	18768.98
796.203	18495.54
796.535	18461.42
796.867	18464.81
797.198	18378.94
797.53	18425.94
797.862	18243.8
798.193	18264.82
798.525	18077.02
798.856	18100.98
799.188	18003.58
799.519	17904.83
799.85	17766.3
800.182	17814.43
800.513	17869.12
800.844	17618.51
801.175	17740.08
801.506	17595.23
801.837	17501.67
802.168	17482.01
802.499	17473.65
802.83	17427.1
803.161	17317.27
803.491	17306.88
803.822	17330.83
804.153	17234.79
804.483	17123.6
804.814	17021.69
805.145	16980.78
805.475	17028.92
805.805	16927
806.136	16959.54
806.466	16924.74
806.796	16906.66
807.126	16836.83
807.457	16684.07
807.787	16732.65
808.117	16602.04
808.447	16494.69
808.777	16560.45
809.107	16545.77
809.436	16475.48
809.766	16496.73
810.096	16406.33
810.426	16296.73
810.755	16326.34
811.085	16331.76
811.414	16182.39
811.744	16118.66
812.073	16073.69
812.403	16115.27
812.732	16063.97
813.061	15947.36
813.39	15848.16
813.719	15870.98
814.049	15862.62
814.378	15868.72
814.707	15814.94
815.036	15695.39
815.365	15669.86
815.693	15505.11
816.022	15549.41
816.351	15505.79
816.68	15395.51
817.008	15465.79
817.337	15301.96
817.665	15278
817.994	15262.86
818.322	15231.68
818.651	15197.33
818.979	15087.72
819.307	15166.14
819.636	15075.97
819.964	15059.02
820.292	15150.55
820.62	15095.18
820.948	15082.53
821.276	15086.37
821.604	15033.49
821.932	15021.51
822.259	15054.96
822.587	15005.69
822.915	14978.35
823.243	15022.87
823.57	14958.69
823.898	14970.21
824.225	14919.82
824.553	14950.55
824.88	14849.31
825.207	14950.55
825.535	14919.14
825.862	15044.79
826.189	14986.48
826.516	14990.33
826.843	15046.14
827.17	14990.1
827.497	15015.86
827.824	15093.15
828.151	14968.63
828.478	14888.18
828.805	15023.09
829.131	15036.88
829.458	14968.86
829.785	14842.76
830.111	14842.76
830.438	14980.38
830.764	14849.76
831.09	14890.44
831.417	14852.93
831.743	14864.23
832.069	14802.99
832.395	14785.59
832.722	14840.5
833.048	14743.78
833.374	14739.26
833.7	14738.36
834.026	14809.09
834.351	14760.73
834.677	14785.81
835.003	14737.68
835.329	14750.11
835.654	14790.33
835.98	14685.25
836.306	14700.16
836.631	14608.19
836.956	14718.69
837.282	14661.07
837.607	14553.5
837.932	14568.87
838.258	14524.12
838.583	14440.28
838.908	14440.74
839.233	14404.35
839.558	14395.99
839.883	14402.55
840.208	14352.15
840.533	14383.11
840.858	14379.27
841.182	14283.23
841.507	14276.45
841.832	14247.29
842.156	14211.14
842.481	14190.57
842.805	14214.3
843.13	14161.42
843.454	14139.5
843.778	14008.21
844.103	14078.71
844.427	13989.9
844.751	13901.99
845.075	13918.49
845.399	13883.01
845.723	13799.17
846.047	13861.54
846.371	13823.8
846.695	13719.85
847.019	13598.05
847.343	13487.77
847.666	13476.02
847.99	13407.32
848.313	13451.61
848.637	13334.32
848.96	13325.74
849.284	13282.57
849.607	13183.37
849.931	13149.92
850.254	12988.12
850.577	13022.47
850.9	12896.37
851.223	12868.35
851.546	12978.18
851.869	12760.78
852.192	12827.9
852.515	12648.01
852.838	12610.95
853.161	12646.43
853.483	12570.05
853.806	12489.83
854.129	12522.14
854.451	12442.37
854.774	12460
855.096	12395.14
855.419	12330.06
855.741	12335.71
856.063	12311.75
856.385	12198.99
856.708	12184.07
857.03	12136.62
857.352	12085.32
857.674	12095.49
857.996	12043.96
858.318	11898.88
858.64	11903.85
858.961	11902.5
859.283	11834.48
859.605	11790.64
859.926	11869.73
860.248	11796.06
860.57	11768.49
860.891	11787.25
861.212	11687.36
861.534	11535.73
861.855	11621.38
862.176	11575.73
862.498	11592.22
862.819	11654.82
863.14	11561.04
863.461	11542.28
863.782	11510.42
864.103	11529.85
864.424	11500.47
864.745	11510.19
865.065	11469.97
865.386	11362.62
865.707	11342.96
866.027	11367.37
866.348	11280.37
866.668	11348.16
866.989	11297.99
867.309	11236.75
867.63	11239.01
867.95	11233.36
868.27	11173.7
868.59	11212.35
868.91	11220.03
869.23	11140.48
869.55	11151.78
869.87	11111.56
870.19	11160.6
870.51	11156.08
870.83	11062.07
871.15	10989.08
871.469	11026.36
871.789	11013.71
872.109	10979.36
872.428	10955.18
872.748	10944.78
873.067	10897.78
873.386	10968.74
873.706	10922.41
874.025	10924.22
874.344	10754.28
874.663	10865.46
874.982	10792.47
875.301	10768.29
875.62	10768.06
875.939	10727.61
876.258	10735.3
876.577	10741.4
876.896	10744.11
877.214	10667.5
877.533	10687.84
877.852	10686.48
878.17	10684.22
878.489	10655.98
878.807	10608.07
879.125	10580.27
879.444	10550.44
879.762	10621.4
880.08	10579.37
880.398	10536.21
880.716	10544.57
881.034	10454.17
881.352	10507.05
881.67	10436.77
881.988	10430.22
882.306	10461.63
882.624	10296.44
882.941	10306.83
883.259	10267.29
883.577	10266.83
883.894	10211.47
884.212	10170.57
884.529	10215.99
884.846	10206.5
885.164	10187.29
885.481	10155.88
885.798	10118.82
886.115	10114.07
886.432	10084.47
886.75	10056.44
887.067	10046.28
887.383	9998.14
887.7	9983.9
888.017	9983.9
888.334	9957.01
888.651	9887.41
888.967	9858.71
889.284	9851.7
889.6	9778.94
889.917	9745.27
890.233	9778.71
890.55	9710.24
890.866	9721.31
891.182	9742.1
891.498	9655.1
891.815	9661.65
892.131	9555.44
892.447	9606.96
892.763	9542.79
893.079	9552.28
893.395	9464.6
893.71	9394.09
894.026	9452.39
894.342	9443.81
894.657	9364.49
894.973	9339.4
895.289	9315.9
895.604	9298.95
895.92	9266.63
896.235	9151.38
896.55	9231.83
896.865	9146.86
897.181	9133.53
897.496	9100.31
897.811	9034.78
898.126	9068.22
898.441	9045.17
898.756	8966.53
899.071	8904.16
899.386	8908
899.7	8880.66
900.015	8835.01
900.33	8835.46
900.644	8791.17
900.959	8815.12
901.273	8701.68
901.588	8706.88
901.902	8687.22
902.216	8626.65
902.531	8620.32
902.845	8557.05
903.159	8552.98
903.473	8603.38
903.787	8414.68
904.101	8431.18
904.415	8451.74
904.729	8409.71
905.042	8363.38
905.356	8300.33
905.67	8295.81
905.984	8239.77
906.297	8239.54
906.611	8173.78
906.924	8192.76
907.237	8171.75
907.551	8138.08
907.864	8147.57
908.177	8025.99
908.491	8062.82
908.804	8072.99
909.117	7976.73
909.43	7931.75
909.743	7861.93
910.056	7861.02
910.368	7810.18
910.681	7795.04
910.994	7784.41
911.307	7715.72
911.619	7694.7
911.932	7667.13
912.244	7588.03
912.557	7661.25
912.869	7559.79
913.181	7549.84
913.494	7549.62
913.806	7453.35
914.118	7411.77
914.43	7423.97
914.742	7442.5
915.054	7381.26
915.366	7330.19
915.678	7285.67
915.99	7269.4
916.302	7172.68
916.613	7212.45
916.925	7174.94
917.236	7151.44
917.548	7106.24
917.859	7057.2
918.171	7025.34
918.482	6979.24
918.794	7014.26
919.105	6952.35
919.416	6965.68
919.727	6934.27
920.038	6845.68
920.349	6812.01
920.66	6782.41
920.971	6805.91
921.282	6793.93
921.593	6693.14
921.903	6682.07
922.214	6679.81
922.525	6629.87
922.835	6591.22
923.146	6527.95
923.456	6564.79
923.767	6553.03
924.077	6483.43
924.387	6487.5
924.697	6436.65
925.008	6401.63
925.318	6438.23
925.628	6333.83
925.938	6377.9
926.248	6290.89
926.558	6245.7
926.867	6213.61
927.177	6248.86
927.487	6169.32
927.796	6120.95
928.106	6178.35
928.416	6141.52
928.725	6115.98
929.034	6086.38
929.344	6105.59
929.653	6037.34
929.962	6012.03
930.271	5964.12
930.581	5903.33
930.89	5892.49
931.199	5855.2
931.508	5880.28
931.817	5889.1
932.125	5850.23
932.434	5833.73
932.743	5758.25
933.051	5773.39
933.36	5712.38
933.669	5655.66
933.977	5697.46
934.286	5681.64
934.594	5666.73
934.902	5593.06
935.21	5526.39
935.519	5562.33
935.827	5496.11
936.135	5510.58
936.443	5471.48
936.751	5472.61
937.059	5433.97
937.367	5357.36
937.674	5462.22
937.982	5362.56
938.29	5359.84
938.597	5317.13
938.905	5290.24
939.213	5274.42
939.52	5273.75
939.827	5250.02
940.135	5252.96
940.442	5151.04
940.749	5163.24
941.056	5212.05
941.363	5087.54
941.67	5091.38
941.977	5030.59
942.284	5084.15
942.591	5072.17
942.898	5029.01
943.205	4996.01
943.511	4967.99
943.818	4980.87
944.125	4949.69
944.431	4886.19
944.738	4881.67
945.044	4893.19
945.35	4844.6
945.657	4850.93
945.963	4830.59
946.269	4789.01
946.575	4763.25
946.881	4723.25
947.187	4733.19
947.493	4662.91
947.799	4691.16
948.105	4661.33
948.41	4643.93
948.716	4664.5
949.022	4636.93
949.327	4587.21
949.633	4517.16
949.938	4521
950.244	4544.27
950.549	4529.36
950.854	4474.67
951.16	4472.18
951.465	4454.78
951.77	4459.08
952.075	4415.24
952.38	4393.09
952.685	4377.05
952.99	4290.49
953.294	4325.3
953.599	4283.49
953.904	4287.56
954.209	4251.17
954.513	4318.06
954.818	4267.44
955.122	4240.33
955.426	4186.54
955.731	4160.33
956.035	4130.72
956.339	4182.02
956.643	4154.23
956.948	4108.35
957.252	4098.86
957.556	4071.52
957.86	4070.61
958.163	4027.45
958.467	4038.07
958.771	4001.24
959.075	3965.31
959.378	3993.33
959.682	3949.71
959.985	3938.87
960.289	3902.71
960.592	3888.92
960.896	3917.17
961.199	3867.23
961.502	3823.84
961.805	3803.28
962.108	3815.48
962.411	3815.03
962.714	3772.32
963.017	3749.94
963.32	3765.99
963.623	3750.62
963.926	3681.7
964.228	3691.19
964.531	3716.72
964.833	3678.53
965.136	3625.65
965.438	3636.73
965.741	3625.88
966.043	3595.82
966.345	3608.93
966.648	3536.39
966.95	3537.75
967.252	3540.46
967.554	3574.58
967.856	3523.28
968.158	3490.52
968.46	3501.81
968.761	3460.46
969.063	3440.12
969.365	3442.83
969.666	3432.21
969.968	3391.31
970.269	3383.85
970.571	3383.4
970.872	3350.63
971.174	3365.77
971.475	3332.33
971.776	3304.76
972.077	3293.91
972.378	3317.64
972.679	3271.76
972.98	3294.59
973.281	3270.41
973.582	3243.97
973.883	3225.89
974.183	3210.07
974.484	3154.25
974.785	3167.59
975.085	3147.47
975.386	3194.03
975.686	3148.6
975.986	3130.98
976.287	3109.28
976.587	3111.77
976.887	3053.24
977.187	3070.19
977.487	3043.97
977.787	3055.72
978.087	3013.24
978.387	2977.31
978.687	2972.56
978.987	3037.42
979.286	2990.64
979.586	2995.84
979.885	2966.01
980.185	2942.96
980.484	2934.6
980.784	2916.75
981.083	2900.02
981.382	2902.51
981.682	2890.98
981.981	2865.9
982.28	2808.5
982.579	2860.25
982.878	2822.28
983.177	2823.19
983.475	2789.07
983.774	2811.89
984.073	2764.66
984.372	2765.34
984.67	2774.6
984.969	2749.07
985.267	2713.13
985.566	2710.2
985.864	2697.09
986.162	2682.63
986.461	2612.35
986.759	2697.09
987.057	2620.26
987.355	2651.67
987.653	2635.4
987.951	2615.51
988.249	2596.08
988.547	2602.63
988.844	2582.97
989.142	2575.29
989.44	2538.45
989.737	2564.21
990.035	2540.26
990.332	2500.26
990.63	2538
990.927	2525.34
991.224	2507.26
991.521	2454.38
991.819	2446.25
992.116	2462.97
992.413	2438.34
992.71	2412.8
993.006	2426.81
993.303	2381.39
993.6	2396.31
993.897	2375.97
994.193	2371.22
994.49	2381.17
994.787	2343.88
995.083	2380.71
995.379	2342.07
995.676	2315.86
995.972	2289.64
996.268	2305.69
996.565	2281.73
996.861	2260.04
997.157	2250.77
997.453	2250.77
997.749	2236.09
998.044	2206.48
998.34	2213.26
998.636	2199.25
998.932	2206.26
999.227	2165.8
999.523	2158.12
999.818	2163.09
1000.114	2153.38
1000.409	2145.69
1000.704	2141.62
1001	2135.75
1001.295	2108.86
1001.59	2111.12
1001.885	2078.35
1002.18	2059.59
1002.475	2070.67
1002.77	2058.91
1003.065	2035.41
1003.359	2020.95
1003.654	2002.87
1003.949	2028.18
1004.243	1993.61
1004.538	1960.16
1004.832	1959.26
1005.127	1950.44
1005.421	1965.36
1005.715	1940.73
1006.009	1950.22
1006.304	1910.67
1006.598	1915.64
1006.892	1906.6
1007.186	1859.15
1007.48	1873.38
1007.773	1884.46
1008.067	1872.7
1008.361	1827.73
1008.655	1843.55
1008.948	1817.57
1009.242	1789.32
1009.535	1802.65
1009.829	1800.62
1010.122	1782.54
1010.415	1786.61
1010.708	1791.8
1011.001	1752.03
1011.295	1743.44
1011.588	1760.62
1011.881	1706.83
1012.173	1726.49
1012.466	1700.96
1012.759	1690.79
1013.052	1683.78
1013.344	1684.69
1013.637	1647.4
1013.93	1652.15
1014.222	1649.66
1014.514	1658.7
1014.807	1615.76
1015.099	1615.99
1015.391	1604.46
1015.683	1602.66
1015.976	1585.71
1016.268	1592.49
1016.56	1577.35
1016.851	1548.19
1017.143	1554.52
1017.435	1585.71
1017.727	1526.05
1018.018	1544.8
1018.31	1486.05
1018.602	1520.17
1018.893	1493.73
1019.185	1484.01
1019.476	1467.29
1019.767	1462.09
1020.058	1444.02
1020.35	1441.3
1020.641	1424.36
1020.932	1424.13
1021.223	1436.11
1021.514	1394.07
1021.804	1387.52
1022.095	1360.85
1022.386	1401.98
1022.677	1380.97
1022.967	1378.93
1023.258	1331.02
1023.548	1336.45
1023.839	1365.15
1024.129	1329.67
1024.419	1319.5
1024.709	1318.14
1025	1304.81
1025.29	1294.87
1025.58	1294.19
1025.87	1262.78
1026.16	1267.3
1026.449	1275.66
1026.739	1224.13
1027.029	1262.1
1027.319	1251.48
1027.608	1226.39
1027.898	1252.83
1028.187	1226.62
1028.477	1202.89
1028.766	1173.51
1029.055	1173.51
1029.344	1190.01
1029.634	1168.77
1029.923	1160.86
1030.212	1157.7
1030.501	1145.72
1030.79	1159.96
1031.078	1148.43
1031.367	1122.67
1031.656	1150.92
1031.945	1132.16
1032.233	1112.72
1032.522	1112.72
1032.81	1135.78
1033.099	1073.18
1033.387	1083.12
1033.675	1061.43
1033.963	1042.67
1034.251	1058.72
1034.54	1055.33
1034.828	1057.13
1035.116	1027.98
1035.403	1036.12
1035.691	1027.98
1035.979	1021.65
1036.267	1007.42
1036.554	1010.35
1036.842	1018.26
1037.129	1010.13
1037.417	1004.03
1037.704	994.31
1037.992	991.6
1038.279	973.97
1038.566	937.81
1038.853	937.81
1039.14	937.81
