Data from hue_310_FLMS001491_77.txt Node
Date: Mon Feb 06 15:50:09 GMT 2017
User: dcchb
Spectrometer: FLMS00149
Trigger mode: 0
Integration Time (sec): 2.000000E-2
Scans to average: 10
Electric dark correction enabled: true
Nonlinearity correction enabled: false
Boxcar width: 0
XAxis mode: Wavelengths
Number of Pixels in Spectrum: 2048
>>>>>Begin Spectral Data<<<<<
341.393	-30
341.776	-30
342.16	-30
342.543	-53.95
342.927	-65.25
343.31	-70
343.693	-73.84
344.077	-59.6
344.46	-62.99
344.843	-37.68
345.226	-35.87
345.61	-36.55
345.993	-21.86
346.376	-13.05
346.759	7.29
347.142	17.91
347.525	58.81
347.908	42.99
348.291	74.86
348.674	94.97
349.057	114.63
349.44	121.86
349.823	160.96
350.206	162.31
350.588	212.71
350.971	206.83
351.354	221.52
351.737	252.48
352.119	278.24
352.502	265.81
352.884	273.04
353.267	283.21
353.65	285.7
354.032	294.74
354.414	317.11
354.797	306.04
355.179	309.43
355.562	319.37
355.944	325.7
356.326	365.02
356.709	370.89
357.091	356.88
357.473	315.08
357.855	341.52
358.238	366.83
358.62	330.9
359.002	348.3
359.384	339.48
359.766	334.28
360.148	343.32
360.53	334.28
360.912	336.09
361.294	344
361.676	319.37
362.057	338.35
362.439	341.52
362.821	336.09
363.203	342.87
363.584	331.8
363.966	326.15
364.348	323.66
364.729	329.31
365.111	321.63
365.493	311.69
365.874	334.96
366.256	322.99
366.637	313.49
367.019	323.44
367.4	285.92
367.781	326.38
368.163	325.92
368.544	326.15
368.925	325.02
369.306	322.99
369.688	315.98
370.069	301.74
370.45	312.14
370.831	324.57
371.212	313.95
371.593	326.15
371.974	320.5
372.355	327.05
372.736	298.35
373.117	339.93
373.498	315.3
373.879	309.65
374.26	315.98
374.641	323.44
375.021	315.75
375.402	325.02
375.783	322.53
376.163	332.25
376.544	319.6
376.925	336.54
377.305	337.45
377.686	337.67
378.066	337.22
378.447	333.16
378.827	349.65
379.208	360.95
379.588	327.51
379.968	344.23
380.349	344.23
380.729	369.54
381.109	336.77
381.489	343.32
381.87	341.06
382.25	331.12
382.63	335.64
383.01	349.2
383.39	329.09
383.77	348.3
384.15	346.49
384.53	341.29
384.91	355.08
385.29	339.71
385.67	378.35
386.049	363.21
386.429	346.71
386.809	365.7
387.189	367.5
387.568	365.24
387.948	343.55
388.328	350.1
388.707	365.47
389.087	387.62
389.466	352.14
389.846	379.48
390.225	363.21
390.605	391.01
390.984	369.54
391.363	367.28
391.743	364.79
392.122	379.93
392.501	384.91
392.881	377.67
393.26	385.81
393.639	370.89
394.018	392.59
394.397	392.59
394.776	380.16
395.155	400.27
395.534	385.58
395.913	378.13
396.292	409.76
396.671	381.52
397.05	398.24
397.429	392.81
397.808	395.53
398.186	404.79
398.565	412.02
398.944	422.87
399.323	431.46
399.701	426.49
400.08	412.93
400.458	420.61
400.837	450.89
401.215	423.55
401.594	404.34
401.972	406.6
402.351	427.39
402.729	425.13
403.107	414.51
403.486	436.43
403.864	441.17
404.242	432.14
404.62	448.18
404.999	449.99
405.377	456.09
405.755	458.35
406.133	468.97
406.511	477.33
406.889	475.98
407.267	473.72
407.645	479.82
408.023	472.59
408.401	478.01
408.779	492.47
409.156	487.95
409.534	508.52
409.912	492.92
410.29	502.87
410.667	503.55
411.045	521.4
411.422	532.92
411.8	533.6
412.178	536.09
412.555	554.84
412.933	555.75
413.31	553.71
413.687	580.61
414.065	565.47
414.442	584.22
414.819	578.35
415.197	601.4
415.574	613.37
415.951	641.4
416.328	628.29
416.705	627.38
417.082	639.36
417.46	638.01
417.837	666.71
418.214	647.95
418.591	671.45
418.967	659.7
419.344	679.59
419.721	721.85
420.098	689.3
420.475	697.89
420.852	715.97
421.228	713.03
421.605	731.11
421.982	739.25
422.358	721.85
422.735	733.14
423.111	752.81
423.488	770.66
423.864	766.59
424.241	787.83
424.617	777.89
424.994	793.93
425.37	813.59
425.746	802.3
426.123	827.83
426.499	810.66
426.875	827.38
427.251	854.27
427.627	872.58
428.003	849.75
428.379	884.1
428.756	903.99
429.132	890.2
429.507	914.83
429.883	909.41
430.259	932.46
430.635	927.94
431.011	943.31
431.387	994.15
431.763	969.3
432.138	989.18
432.514	1006.13
432.89	1001.39
433.265	1013.36
433.641	1048.84
434.016	1027.15
434.392	1058.33
434.767	1068.95
435.143	1076.64
435.518	1083.87
435.894	1080.03
436.269	1101.5
436.644	1109.86
437.02	1121.83
437.395	1144.43
437.77	1149.18
438.145	1144.66
438.52	1191.89
438.895	1212.45
439.271	1166.81
439.646	1210.42
440.021	1214.49
440.395	1215.39
440.77	1206.8
441.145	1223.75
441.52	1214.49
441.895	1249.29
442.27	1273.02
442.645	1253.81
443.019	1256.52
443.394	1271.44
443.769	1292.68
444.143	1291.77
444.518	1312.34
444.892	1291.77
445.267	1291.77
445.641	1306.01
446.016	1319.57
446.39	1316.63
446.764	1306.46
447.139	1326.35
447.513	1343.52
447.887	1327.71
448.262	1360.02
448.636	1345.56
449.01	1363.86
449.384	1355.5
449.758	1366.12
450.132	1381.04
450.506	1367.48
450.88	1390.08
451.254	1391.43
451.628	1424.65
452.002	1395.95
452.376	1405.44
452.75	1429.17
453.123	1429.4
453.497	1447.48
453.871	1437.08
454.244	1459.91
454.618	1470.07
454.992	1476.85
455.365	1482.73
455.739	1539.45
456.112	1528.38
456.486	1508.27
456.859	1525.44
457.232	1573.57
457.606	1540.13
457.979	1549.85
458.352	1583.97
458.725	1604.53
459.099	1619.67
459.472	1638.21
459.845	1629.84
460.218	1624.19
460.591	1644.98
460.964	1634.59
461.337	1678.88
461.71	1674.81
462.083	1750.07
462.456	1718.88
462.829	1720.01
463.201	1746.23
463.574	1749.62
463.947	1784.42
464.32	1809.5
464.692	1826.45
465.065	1804.08
465.438	1818.54
465.81	1871.19
466.183	1865.09
466.555	1892.66
466.928	1873.45
467.3	1902.83
467.672	1917.97
468.045	1969.04
468.417	1947.35
468.789	1956.39
469.161	1972.43
469.534	1992.55
469.906	1999.33
470.278	2020.34
470.65	2055.14
471.022	2099.66
471.394	2103.96
471.766	2089.27
472.138	2176.27
472.51	2167.46
472.882	2180.56
473.253	2211.98
473.625	2228.02
473.997	2296.27
474.369	2242.03
474.74	2235.7
475.112	2317.06
475.484	2342.59
475.855	2350.5
476.227	2385.53
476.598	2423.95
476.97	2445.87
477.341	2468.24
477.713	2503.27
478.084	2510.05
478.455	2585.07
478.827	2588.01
479.198	2625.75
479.569	2644.73
479.94	2663.04
480.311	2665.3
480.682	2790.04
481.053	2788.46
481.424	2804.73
481.795	2797.5
482.166	2868
482.537	2880.43
482.908	2947.1
483.279	2948.91
483.65	2992.07
484.021	3059.64
484.391	3030.49
484.762	3079.52
485.133	3064.61
485.503	3082.69
485.874	3159.3
486.244	3176.7
486.615	3218.5
486.985	3246.98
487.356	3300.08
487.726	3328.56
488.097	3337.6
488.467	3370.36
488.837	3430.47
489.207	3478.38
489.578	3485.61
489.948	3519.96
490.318	3561.32
490.688	3505.5
491.058	3617.81
491.428	3639.06
491.798	3652.62
492.168	3757.92
492.538	3767.19
492.908	3760.41
493.278	3782.33
493.648	3801.99
494.017	3837.7
494.387	3877.24
494.757	3881.08
495.126	3916.11
495.496	3908.43
495.866	3911.37
496.235	3960.63
496.605	3999.05
496.974	3995.88
497.344	4020.74
497.713	4052.61
498.082	4092.83
498.452	4149.1
498.821	4079.72
499.19	4155.43
499.559	4180.06
499.928	4194.3
500.298	4200.4
500.667	4246.27
501.036	4270.68
501.405	4235.2
501.774	4250.11
502.143	4311.13
502.512	4327.4
502.88	4354.07
503.249	4313.16
503.618	4359.94
503.987	4366.27
504.356	4383.22
504.724	4394.52
505.093	4379.38
505.462	4424.12
505.83	4437.45
506.199	4461.86
506.567	4512.25
506.936	4521.75
507.304	4561.74
507.672	4524.23
508.041	4558.13
508.409	4569.43
508.777	4618.24
509.145	4631.12
509.514	4570.56
509.882	4645.81
510.25	4681.97
510.618	4722.42
510.986	4698.92
511.354	4741.63
511.722	4732.81
512.09	4787.05
512.458	4792.92
512.826	4791.79
513.193	4857.1
513.561	4829.31
513.929	4808.29
514.297	4848.29
514.664	4902.75
515.032	4893.49
515.4	4912.7
515.767	4921.06
516.135	4896.65
516.502	4902.75
516.869	4990.43
517.237	4983.43
517.604	4962.64
517.972	5051.45
518.339	5050.77
518.706	5019.36
519.073	5046.25
519.44	5054.16
519.808	5124.67
520.175	5052.35
520.542	5188.17
520.909	5181.84
521.276	5126.48
521.643	5204.44
522.009	5199.92
522.376	5224.78
522.743	5254.61
523.11	5318.33
523.477	5336.41
523.843	5338.67
524.21	5330.76
524.577	5393.59
524.943	5439.01
525.31	5422.51
525.676	5422.74
526.043	5449.63
526.409	5502.06
526.776	5548.39
527.142	5577.76
527.508	5599.46
527.874	5647.59
528.241	5693.92
528.607	5662.73
528.973	5688.95
529.339	5718.55
529.705	5779.57
530.071	5843.29
530.437	5824.08
530.803	5850.98
531.169	5850.07
531.535	5857.3
531.901	5890.75
532.267	5920.8
532.632	5919.9
532.998	5958.09
533.364	5988.37
533.73	6059.56
534.095	6087.13
534.461	6068.37
534.826	6127.13
535.192	6145.88
535.557	6203.74
535.923	6135.04
536.288	6225.66
536.653	6244.64
537.019	6177.52
537.384	6293.68
537.749	6277.41
538.114	6329.83
538.479	6309.04
538.845	6368.48
539.21	6368.48
539.575	6404.86
539.94	6432.66
540.305	6449.15
540.67	6463.62
541.034	6481.02
541.399	6554.91
541.764	6525.76
542.129	6540.9
542.494	6640.56
542.858	6674.68
543.223	6637.4
543.587	6681.01
543.952	6649.37
544.316	6700.9
544.681	6769.14
545.045	6742.7
545.41	6810.72
545.774	6841.01
546.138	6877.39
546.503	6892.3
546.867	6915.58
547.231	6949.48
547.595	7014.79
547.959	7021.57
548.324	7045.75
548.688	7039.19
549.052	7055.92
549.416	7079.87
549.779	7123.94
550.143	7137.95
550.507	7147.89
550.871	7182.69
551.235	7183.14
551.599	7278.96
551.962	7303.14
552.326	7248.68
552.689	7285.97
553.053	7284.38
553.417	7300.88
553.78	7428.34
554.143	7381.78
554.507	7448.45
554.87	7409.81
555.234	7453.42
555.597	7457.71
555.96	7573.19
556.323	7562.57
556.686	7578.84
557.05	7605.05
557.413	7623.36
557.776	7662.68
558.139	7670.82
558.502	7704.26
558.865	7645.28
559.228	7694.54
559.59	7814.31
559.953	7759.4
560.316	7824.26
560.679	7769.8
561.041	7916.23
561.404	7953.75
561.767	7973.41
562.129	7878.72
562.492	8051.37
562.854	7986.51
563.217	7983.58
563.579	8066.74
563.941	8079.39
564.304	8063.12
564.666	8104.48
565.028	8186.51
565.39	8223.57
565.753	8250.69
566.115	8308.09
566.477	8278.03
566.839	8302.21
567.201	8354.64
567.563	8367.75
567.925	8373.62
568.287	8365.71
568.648	8454.98
569.01	8523.9
569.372	8504.24
569.734	8521.87
570.095	8563.22
570.457	8620.62
570.819	8681.64
571.18	8656.78
571.542	8729.09
571.903	8734.74
572.265	8730
572.626	8846.83
572.987	8877.79
573.349	8964.11
573.71	8965.24
574.071	9025.13
574.432	9071
574.794	9191
575.155	9218.12
575.516	9302.41
575.877	9265.58
576.238	9413.14
576.599	9545.34
576.96	9541.95
577.32	9621.05
577.681	9664.66
578.042	9788.05
578.403	9831.21
578.763	9929.74
579.124	9983.3
579.485	10081.83
579.845	10237.98
580.206	10351.2
580.566	10417.86
580.927	10574.69
581.287	10705.54
581.648	10741.24
582.008	10957.28
582.368	11123.38
582.728	11256.71
583.089	11325.18
583.449	11572.41
583.809	11747.32
584.169	11915.68
584.529	12048.55
584.889	12286.74
585.249	12500.74
585.609	12629.1
585.969	12850.79
586.329	13077.9
586.688	13284.68
587.048	13624.33
587.408	13640.38
587.768	13953.36
588.127	14145.45
588.487	14372.56
588.846	14807.12
589.206	14811.19
589.565	15116.5
589.925	15431.52
590.284	15661.57
590.643	15988.34
591.003	16269.23
591.362	16574.99
591.721	16810.91
592.08	17167.97
592.44	17463.55
592.799	17742.87
593.158	17989.64
593.517	18312.8
593.876	18614.93
594.235	18855.38
594.593	19219.89
594.952	19529.94
595.311	19744.17
595.67	20188
596.029	20477.94
596.387	20750.47
596.746	21096.22
597.104	21301.42
597.463	21578.47
597.822	22010.33
598.18	22173.94
598.538	22473.36
598.897	22851.43
599.255	22942.96
599.613	23711.75
599.972	23793.33
600.33	24130.27
600.688	24387.89
601.046	24689.35
601.404	25007.08
601.762	25349.45
602.12	25640.06
602.478	25993.27
602.836	26153.49
603.194	26339.7
603.552	26640.49
603.91	26904.66
604.268	27191.21
604.625	27386.91
604.983	27678.2
605.341	27845.43
605.698	28169.26
606.056	28593.2
606.413	28616.93
606.771	28986.19
607.128	29350.25
607.485	29526.74
607.843	29649.67
608.2	30013.05
608.557	30272.03
608.914	30379.37
609.272	30622.3
609.629	31009.41
609.986	31308.61
610.343	31363.53
610.7	31671.31
611.057	31845.32
611.414	32108.36
611.771	32295.03
612.127	32461.8
612.484	32708.35
612.841	32967.78
613.198	33078.51
613.554	33112.18
613.911	33544.94
614.267	33645.05
614.624	33842.33
614.98	34030.12
615.337	34302.66
615.693	34417.91
616.05	34603.89
616.406	34858.12
616.762	34883.66
617.118	34985.58
617.475	35134.5
617.831	35347.15
618.187	35466.02
618.543	35618.1
618.899	35936.29
619.255	35942.84
619.611	36069.84
619.967	36304.41
620.323	36511.19
620.678	36474.13
621.034	36404.97
621.39	36458.76
621.746	36670.5
622.101	37134
622.457	36906.66
622.812	37094.22
623.168	37279.75
623.523	37398.4
623.879	37531.27
624.234	37442.01
624.589	37521.33
624.945	37867.54
625.3	37892.85
625.655	37871.6
626.01	37952.73
626.365	38009.23
626.72	38070.02
627.075	38070.24
627.43	38230.01
627.785	38102.11
628.14	38337.13
628.495	38428.42
628.85	38348.88
629.205	38485.6
629.559	38626.39
629.914	38470.23
630.269	38600.85
630.623	38583.9
630.978	38512.49
631.332	38679.04
631.687	38836.32
632.041	38791.13
632.396	38778.47
632.75	38739.6
633.104	38842.43
633.459	38725.14
633.813	38762.88
634.167	38659.38
634.521	38851.24
634.875	38951.12
635.229	38838.36
635.583	38687.17
635.937	38785.03
636.291	38762.2
636.645	38835.42
636.999	38904.8
637.352	38902.76
637.706	38615.54
638.06	38856.66
638.413	38813.73
638.767	38744.35
639.121	38964.23
639.474	38765.59
639.828	38738.47
640.181	38814.18
640.534	38860.73
640.888	38685.59
641.241	38484.24
641.594	38835.19
641.947	38833.16
642.301	38821.86
642.654	38728.08
643.007	38863.44
643.36	38849.43
643.713	38643.56
644.066	38821.63
644.419	38598.14
644.771	38357.69
645.124	38143.01
645.477	37930.81
645.83	37679.07
646.182	37712.29
646.535	37618.28
646.888	37742.11
647.24	37384.84
647.593	37662.12
647.945	37700.99
648.298	37439.52
648.65	37423.93
649.002	37250.38
649.355	37434.1
649.707	37398.4
650.059	37568.11
650.411	38079.73
650.763	38136.23
651.115	38368.54
651.467	38258.26
651.819	38372.83
652.171	38266.39
652.523	38122.44
652.875	38317.69
653.227	38125.61
653.578	38390.91
653.93	38298.94
654.282	37981.43
654.633	37918.61
654.985	38070.92
655.337	38161.99
655.688	38094.2
656.039	38153.4
656.391	37978.94
656.742	37935.1
657.094	38086.96
657.445	38121.09
657.796	37997.02
658.147	38034.31
658.498	37905.95
658.849	38033.18
659.2	37912.51
659.551	37784.37
659.902	37839.74
660.253	37892.85
660.604	38022.79
660.955	37867.08
661.306	37846.07
661.656	37795.67
662.007	37884.03
662.358	37885.39
662.708	37909.57
663.059	37858.95
663.409	37749.12
663.76	37973.75
664.11	37842.9
664.461	37956.8
664.811	37849.68
665.161	37937.59
665.511	37734.88
665.862	37660.08
666.212	37895.78
666.562	38003.8
666.912	37749.57
667.262	37734.43
667.612	37801.32
667.962	37867.99
668.312	37818.27
668.662	37927.19
669.011	37694.43
669.361	37842.68
669.711	37597.71
670.06	37658.05
670.41	37792.74
670.76	37594.1
671.109	37725.17
671.459	37547.32
671.808	37571.05
672.157	37683.13
672.507	37457.15
672.856	37512.74
673.205	37595.23
673.554	37591.38
673.904	37609.92
674.253	37680.65
674.602	37558.62
674.951	37057.39
675.3	36870.73
675.649	37507.54
675.998	37397.94
676.346	37450.37
676.695	37534.66
677.044	37264.39
677.393	37396.81
677.741	37376.25
678.09	37225.29
678.438	37227.78
678.787	37461.67
679.135	37193.88
679.484	37077.73
679.832	37213.32
680.181	36948.24
680.529	37100.78
680.877	37061.23
681.225	37009.93
681.573	37107.1
681.922	36870.27
682.27	36828.01
682.618	36799.54
682.966	36636.61
683.314	36732.42
683.661	36705.08
684.009	36475.48
684.357	36444.97
684.705	36291.08
685.053	36458.31
685.4	36287.92
685.748	36221.03
686.095	36381.7
686.443	36027.81
686.79	36203.4
687.138	36097.41
687.485	36262.61
687.832	36014.48
688.18	36048.15
688.527	35866.68
688.874	35792.56
689.221	35764.31
689.568	35587.37
689.915	35633.92
690.262	35505.11
690.609	35484.1
690.956	35389.41
691.303	35297.43
691.65	35156.19
691.997	35228.28
692.344	34912.81
692.69	35034.39
693.037	34943.32
693.383	34569.77
693.73	34958.69
694.077	34587.62
694.423	34646.6
694.769	34465.82
695.116	34471.01
695.462	34343.33
695.808	34312.6
696.155	34257.91
696.501	34093.4
696.847	34043.68
697.193	33899.5
697.539	33862.44
697.885	33765.04
698.231	33699.51
698.577	33658.15
698.923	33578.83
699.269	33403.47
699.614	33278.73
699.96	33207.54
700.306	33258.84
700.651	33159.86
700.997	33106.3
701.342	33006.65
701.688	32985.63
702.033	32880.77
702.379	32804.17
702.724	32801.68
703.069	32757.39
703.415	32502.03
703.76	32442.59
704.105	32412.54
704.45	32343.84
704.795	32147.69
705.14	32128.25
705.485	32026.33
705.83	31908.37
706.175	32067.69
706.52	31780.24
706.865	31703.4
707.209	31709.51
707.554	31647.13
707.899	31701.14
708.243	31459.79
708.588	31562.39
708.932	31388.38
709.277	31294.6
709.621	31313.81
709.966	31109.07
710.31	31205.79
710.654	30965.34
710.998	30889.19
711.342	31002.63
711.687	30857.32
712.031	30673.83
712.375	30611.23
712.719	30699.14
713.063	30571
713.407	30613.04
713.75	30410.33
714.094	30526.71
714.438	30347.73
714.782	30426.38
715.125	30165.59
715.469	30254.85
715.812	29945.03
716.156	29982.54
716.499	30012.15
716.843	29978.03
717.186	29799.72
717.53	29927.63
717.873	29789.1
718.216	29771.7
718.559	29719.05
718.902	29501.65
719.246	29487.87
719.589	29559.51
719.932	29316.57
720.275	29381.66
720.617	29386.4
720.96	29270.47
721.303	29242.45
721.646	29231.6
721.989	29135.79
722.331	29164.94
722.674	29065.28
723.016	29090.37
723.359	29054.89
723.701	29023.7
724.044	28859.18
724.386	28792.75
724.729	28970.14
725.071	28760.2
725.413	28720.43
725.755	28588.01
726.097	28510.95
726.439	28430.27
726.782	28483.6
727.124	28688.79
727.465	28338.29
727.807	28353.44
728.149	28305.53
728.491	28313.21
728.833	28397.28
729.175	28270.05
729.516	28175.36
729.858	28111.41
730.199	28122.03
730.541	28054.91
730.882	28053.56
731.224	28075.02
731.565	27858.31
731.906	27944.41
732.248	27839.32
732.589	27777.18
732.93	27665.54
733.271	27640.01
733.612	27726.33
733.953	27751.87
734.294	27617.18
734.635	27608.37
734.976	27442.05
735.317	27442.72
735.658	27377.19
735.999	27496.28
736.339	27410.18
736.68	27369.73
737.021	27246.57
737.361	27196.63
737.702	27297.87
738.042	27101.26
738.383	27145.78
738.723	27152.11
739.063	26974.49
739.404	27089.97
739.744	26967.03
740.084	26895.17
740.424	26922.96
740.764	26835.28
741.104	26880.25
741.444	26682.07
741.784	26724.78
742.124	26846.58
742.464	26706.7
742.804	26631.45
743.143	26572.01
743.483	26488.63
743.823	26426.25
744.162	26538.57
744.502	26542.18
744.841	26359.59
745.181	26383.77
745.52	26403.43
745.86	26404.79
746.199	26387.16
746.538	26177.45
746.877	26304.45
747.216	26299.48
747.556	26204.11
747.895	26172.48
748.234	26018.81
748.573	25919.6
748.911	25879.83
749.25	25874.63
749.589	25855.2
749.928	25720.06
750.267	25787.85
750.605	25745.82
750.944	25808.19
751.283	25597.35
751.621	25527.75
751.96	25493.62
752.298	25537.92
752.636	25461.08
752.975	25348.77
753.313	25245.27
753.651	25294.76
753.989	25238.94
754.327	25191.94
754.666	24956.01
755.004	25093.41
755.342	25104.71
755.679	25041.43
756.017	24944.03
756.355	24933.19
756.693	24761.21
757.031	24829.23
757.368	24649.35
757.706	24639.18
758.044	24488.68
758.381	24535.23
758.719	24427.89
759.056	24564.83
759.394	24381.11
759.731	24340.66
760.068	24186.54
760.405	24137.27
760.743	24013.44
761.08	24094.11
761.417	24078.29
761.754	23928.24
762.091	23876.04
762.428	23776.38
762.765	23625.42
763.102	23759.66
763.438	23513.11
763.775	23472.89
764.112	23488.48
764.449	23418.42
764.785	23422.49
765.122	23158.09
765.458	23137.53
765.795	23001.49
766.131	23094.14
766.467	22984.76
766.804	22938.44
767.14	22809.17
767.476	22805.56
767.812	22666.58
768.148	22712
768.485	22504.32
768.821	22435.17
769.157	22413.93
769.492	22313.59
769.828	22222.07
770.164	22091.9
770.5	22032.92
770.836	22087.61
771.171	21884.23
771.507	21883.55
771.842	21738.69
772.178	21729.2
772.513	21668.87
772.849	21574.63
773.184	21510
773.519	21337.35
773.855	21297.35
774.19	21293.51
774.525	21189.1
774.86	21131.7
775.195	21019.62
775.53	20975.1
775.865	20922.44
776.2	20740.98
776.535	20599.29
776.87	20658.27
777.205	20474.55
777.539	20463.25
777.874	20358.62
778.209	20352.52
778.543	20264.83
778.878	20127.89
779.212	20115.01
779.547	19938.74
779.881	20040.43
780.215	19752.53
780.55	19898.06
780.884	19779.88
781.218	19731.52
781.552	19771.06
781.886	19531.97
782.22	19560.22
782.554	19354.35
782.888	19284.07
783.222	19135.6
783.556	19097.86
783.889	19122.72
784.223	18977.64
784.557	18917.53
784.89	18989.61
785.224	18803.4
785.557	18726.57
785.891	18669.62
786.224	18641.37
786.558	18599.34
786.891	18539.23
787.224	18354.83
787.557	18373.58
787.891	18352.79
788.224	18232.8
788.557	18232.35
788.89	18198.22
789.223	18208.84
789.556	18116.87
789.888	18005.68
790.221	17991.45
790.554	17826.93
790.887	17833.71
791.219	17713.26
791.552	17701.29
791.884	17598.46
792.217	17530.89
792.549	17538.58
792.882	17298.13
793.214	17368.87
793.546	17373.61
793.879	17234.86
794.211	17071.25
794.543	17152.83
794.875	17075.31
795.207	17118.25
795.539	17077.35
795.871	16962.77
796.203	16806.62
796.535	16710.8
796.867	16691.14
797.198	16741.54
797.53	16665.61
797.862	16517.59
798.193	16550.58
798.525	16447.53
798.856	16483.46
799.188	16247.76
799.519	16356.24
799.85	16127.32
800.182	16164.6
800.513	16244.6
800.844	15984.49
801.175	16081.67
801.506	16057.04
801.837	15903.82
802.168	15871.5
802.499	15866.98
802.83	15693.43
803.161	15691.17
803.491	15726.2
803.822	15778.85
804.153	15697.04
804.483	15500.44
804.814	15405.53
805.145	15512.64
805.475	15442.81
805.805	15375.92
806.136	15325.3
806.466	15278.07
806.796	15269.03
807.126	15162.37
807.457	15140.22
807.787	15165.08
808.117	15148.36
808.447	14989.49
808.777	15083.73
809.107	15007.12
809.436	14920.57
809.766	14804.64
810.096	14810.97
810.426	14758.76
810.755	14728.71
811.085	14798.54
811.414	14730.74
811.744	14566.91
812.073	14535.95
812.403	14622.72
812.732	14481.48
813.061	14514.03
813.39	14378.44
813.719	14402.39
814.049	14451.2
814.378	14410.98
814.707	14335.27
815.036	14312.67
815.365	14201.04
815.693	14094.6
816.022	14093.47
816.351	14049.4
816.68	13999.24
817.008	13980.71
817.337	13829.98
817.665	13905.45
817.994	13914.49
818.322	13840.14
818.651	13779.81
818.979	13820.03
819.307	13834.04
819.636	13739.13
819.964	13645.57
820.292	13663.88
820.62	13636.76
820.948	13585.91
821.276	13717.89
821.604	13609.42
821.932	13658
822.259	13600.6
822.587	13623.2
822.915	13527.38
823.243	13618.91
823.57	13542.75
823.898	13570.1
824.225	13491.68
824.553	13620.94
824.88	13558.57
825.207	13633.14
825.535	13544.11
825.862	13582.3
826.189	13475.18
826.516	13559.93
826.843	13609.42
827.17	13616.2
827.497	13565.35
827.824	13620.49
828.151	13595.41
828.478	13570.77
828.805	13591.11
829.131	13558.57
829.458	13493.94
829.785	13426.14
830.111	13519.02
830.438	13634.95
830.764	13604.44
831.09	13547.27
831.417	13440.61
831.743	13519.93
832.069	13479.48
832.395	13468.85
832.722	13470.66
833.048	13419.36
833.374	13518.8
833.7	13323.32
834.026	13406.94
834.351	13466.14
834.677	13377.11
835.003	13412.59
835.329	13458.91
835.654	13373.04
835.98	13274.51
836.306	13337.56
836.631	13271.35
836.956	13241.06
837.282	13305.92
837.607	13151.58
837.932	13213.27
838.258	13154.96
838.583	13146.15
838.908	13015.53
839.233	13084.68
839.558	13038.81
839.883	13025.93
840.208	12943.22
840.533	12978.7
840.858	12958.59
841.182	12968.76
841.507	12931.69
841.832	12881.75
842.156	12959.72
842.481	12807.18
842.805	12786.39
843.13	12706.16
843.454	12806.95
843.778	12665.26
844.103	12668.42
844.427	12654.41
844.751	12629.1
845.075	12679.05
845.399	12625.94
845.723	12499.84
846.047	12585.94
846.371	12456.23
846.695	12419.16
847.019	12302.33
847.343	12221.43
847.666	12167.19
847.99	12104.37
848.313	12209
848.637	12045.16
848.96	12041.1
849.284	12009.91
849.607	11924.71
849.931	11907.31
850.254	11873.42
850.577	11832.51
850.9	11710.26
851.223	11716.36
851.546	11611.95
851.869	11519.98
852.192	11622.8
852.515	11517.27
852.838	11395.24
853.161	11481.56
853.483	11468.23
853.806	11356.59
854.129	11259.87
854.451	11342.13
854.774	11226.88
855.096	11225.3
855.419	11174.9
855.741	11173.77
856.063	11124.06
856.385	11049.71
856.708	11019.43
857.03	11004.74
857.352	11004.74
857.674	10983.04
857.996	10941.01
858.318	10921.8
858.64	10823.95
858.961	10811.75
859.283	10783.28
859.605	10701.7
859.926	10765.2
860.248	10682.71
860.57	10630.74
860.891	10631.64
861.212	10626.67
861.534	10528.82
861.855	10594.81
862.176	10595.48
862.498	10511.19
862.819	10551.19
863.14	10558.2
863.461	10443.4
863.782	10449.5
864.103	10467.35
864.424	10402.04
864.745	10402.49
865.065	10354.81
865.386	10287.7
865.707	10292.44
866.027	10292.89
866.348	10270.52
866.668	10259.22
866.989	10222.39
867.309	10086.57
867.63	10139.68
867.95	10191.43
868.27	10145.55
868.59	10094.25
868.91	10089.73
869.23	10097.19
869.55	10108.04
869.87	10073.01
870.19	10039.11
870.51	10048.83
870.83	10038.89
871.15	9959.79
871.469	10014.71
871.789	10013.58
872.109	9980.13
872.428	9973.35
872.748	10004.31
873.067	9981.94
873.386	9922.28
873.706	9917.08
874.025	9854.94
874.344	9830.53
874.663	9853.81
874.982	9847.03
875.301	9807.71
875.62	9789.63
875.939	9773.58
876.258	9774.49
876.577	9821.27
876.896	9758.67
877.214	9766.58
877.533	9771.78
877.852	9713.25
878.17	9723.19
878.489	9630.09
878.807	9696.75
879.125	9623.98
879.444	9649.97
879.762	9581.73
880.08	9614.49
880.398	9524.55
880.716	9575.62
881.034	9514.16
881.352	9538.56
881.67	9487.49
881.988	9446.59
882.306	9483.2
882.624	9443.65
882.941	9370.66
883.259	9315.97
883.577	9294.95
883.894	9342.41
884.212	9299.7
884.529	9197.1
884.846	9279.36
885.164	9234.39
885.481	9231.45
885.798	9180.83
886.115	9143.32
886.432	9197.33
886.75	9150.55
887.067	9125.01
887.383	9064.68
887.7	9123.88
888.017	8966.37
888.334	9031.46
888.651	9031.91
888.967	9013.6
889.284	8869.88
889.6	8885.02
889.917	8830.33
890.233	8894.96
890.55	8819.49
890.866	8829.65
891.182	8832.14
891.498	8770.45
891.815	8736.1
892.131	8751.46
892.447	8630.56
892.763	8618.81
893.079	8605.93
893.395	8555.31
893.71	8537.91
894.026	8548.98
894.342	8543.11
894.657	8462.88
894.973	8510.79
895.289	8474.86
895.604	8456.33
895.92	8342.89
896.235	8349.67
896.55	8385.6
896.865	8303.57
897.181	8328.88
897.496	8292.95
897.811	8248.43
898.126	8230.57
898.441	8158.03
898.756	8110.8
899.071	8116.45
899.386	8171.14
899.7	8098.83
900.015	7983.35
900.33	7978.15
900.644	7961.2
900.959	8007.3
901.273	7896.57
901.588	7889.34
901.902	7833.52
902.216	7814.77
902.531	7800.08
902.845	7736.35
903.159	7715.79
903.473	7733.64
903.787	7663.81
904.101	7605.96
904.415	7647.99
904.729	7598.27
905.042	7547.88
905.356	7588.11
905.67	7489.13
905.984	7554.21
906.297	7470.82
906.611	7417.26
906.924	7424.04
907.237	7351.95
907.551	7382.91
907.864	7314.44
908.177	7310.6
908.491	7291.39
908.804	7254.1
909.117	7221.79
909.43	7184.95
909.743	7152.64
910.056	7114.67
910.368	7068.12
910.681	7032.19
910.994	6999.42
911.307	6985.64
911.619	6953.32
911.932	6960.78
912.244	6902.02
912.557	6860.44
912.869	6858.86
913.181	6850.95
913.494	6897.28
913.806	6788.35
914.118	6796.94
914.43	6756.26
914.742	6727.11
915.054	6658.86
915.366	6686.43
915.678	6654.34
915.99	6618.64
916.302	6524.63
916.613	6521.92
916.925	6523.05
917.236	6515.59
917.548	6480.34
917.859	6499.09
918.171	6468.14
918.482	6363.73
918.794	6338.42
919.105	6328.7
919.416	6313.56
919.727	6304.98
920.038	6261.36
920.349	6242.6
920.66	6163.28
920.971	6220.46
921.282	6218.42
921.593	6140.01
921.903	6063.63
922.214	6058.2
922.525	6074.7
922.835	6062.95
923.146	5965.78
923.456	5995.15
923.767	5937.98
924.077	5935.04
924.387	5914.7
924.697	5878.09
925.008	5883.07
925.318	5876.74
925.628	5830.41
925.938	5808.27
926.248	5730.3
926.558	5736.18
926.867	5730.3
927.177	5694.6
927.487	5686.23
927.796	5587.25
928.106	5628.84
928.416	5644.2
928.725	5591.1
929.034	5553.81
929.344	5519.46
929.653	5539.8
929.962	5460.25
930.271	5462.29
930.581	5457.09
930.89	5427.48
931.199	5368.28
931.508	5356.3
931.817	5329.86
932.125	5309.52
932.434	5312.01
932.743	5231.56
933.051	5234.5
933.36	5262.74
933.669	5186.81
933.977	5157.66
934.286	5127.61
934.594	5121.28
934.902	5083.31
935.21	5061.84
935.519	5086.48
935.827	5089.87
936.135	5021.62
936.443	4929.19
936.751	4992.69
937.059	4965.35
937.367	4910.44
937.674	4918.35
937.982	4885.58
938.29	4842.19
938.597	4855.3
938.905	4843.54
939.213	4802.87
939.52	4794.51
939.827	4786.15
940.135	4759.48
940.442	4789.31
940.749	4715.64
941.056	4720.16
941.363	4675.87
941.67	4670.22
941.977	4651.69
942.284	4641.97
942.591	4595.64
942.898	4584.12
943.205	4559.26
943.511	4556.55
943.818	4536.43
944.125	4499.83
944.431	4446.95
944.738	4432.48
945.044	4452.59
945.35	4371.92
945.657	4378.92
945.963	4376.21
946.269	4333.95
946.575	4395.65
946.881	4354.97
947.187	4315.88
947.493	4280.85
947.799	4244.24
948.105	4294.41
948.41	4230.91
948.716	4175.77
949.022	4200.85
949.327	4203.56
949.633	4105.71
949.938	4181.42
950.244	4179.38
950.549	4093.51
950.854	4113.39
951.16	4053.74
951.465	4034.07
951.77	4046.96
952.075	4024.58
952.38	4035.2
952.685	4002.44
952.99	3959.5
953.294	3973.96
953.599	3940.07
953.904	3920.18
954.209	3898.03
954.513	3907.07
954.818	3877.02
955.122	3865.27
955.426	3860.75
955.731	3771.93
956.035	3794.76
956.339	3796.79
956.643	3790.47
956.948	3792.5
957.252	3735.33
957.556	3766.29
957.86	3690.13
958.163	3698.04
958.467	3674.31
958.771	3674.99
959.075	3660.53
959.378	3629.34
959.682	3647.64
959.985	3642.45
960.289	3615.55
960.592	3569.91
960.896	3534.2
961.199	3540.53
961.502	3525.39
961.805	3499.63
962.108	3505.05
962.411	3460.3
962.714	3423.92
963.017	3444.03
963.32	3447.42
963.623	3392.74
963.926	3419.85
964.228	3378.95
964.531	3384.37
964.833	3339.63
965.136	3357.71
965.438	3312.96
965.741	3319.97
966.043	3335.11
966.345	3268.22
966.648	3247.65
966.95	3256.02
967.252	3232.74
967.554	3243.36
967.856	3204.27
968.158	3145.28
968.46	3145.74
968.761	3197.26
969.063	3140.99
969.365	3167.88
969.666	3133.31
969.968	3084.72
970.269	3098.96
970.571	3066.64
970.872	3091.95
971.174	3047.66
971.475	3064.83
971.776	3009.02
972.077	3028
972.378	3020.54
972.679	2997.27
972.98	2974.67
973.281	2981.9
973.582	2946.65
973.883	2963.59
974.183	2968.11
974.484	2929.7
974.785	2909.36
975.085	2909.58
975.386	2918.4
975.686	2880.88
975.986	2845.86
976.287	2842.47
976.587	2810.38
976.887	2820.32
977.187	2813.09
977.487	2805.63
977.787	2756.59
978.087	2771.28
978.387	2747.55
978.687	2733.54
978.987	2732.87
979.286	2737.39
979.586	2704.39
979.885	2699.65
980.185	2683.15
980.484	2648.57
980.784	2678.86
981.083	2678.4
981.382	2632.08
981.682	2625.07
981.981	2623.49
982.28	2607.22
982.579	2589.14
982.878	2609.48
983.177	2584.17
983.475	2589.82
983.774	2543.04
984.073	2527
984.372	2543.49
984.67	2525.19
984.969	2558.63
985.267	2485.64
985.566	2502.36
985.864	2466.43
986.162	2471.4
986.461	2444.29
986.759	2468.01
987.057	2459.2
987.355	2392.54
987.653	2421.24
987.951	2403.16
988.249	2394.8
988.547	2389.15
988.844	2365.42
989.142	2375.59
989.44	2334.23
989.737	2321.58
990.035	2308.7
990.332	2312.54
990.63	2263.95
990.927	2288.36
991.224	2293.78
991.521	2270.51
991.819	2257.85
992.116	2239.09
992.413	2226.21
992.71	2240.9
993.006	2224.18
993.303	2234.12
993.6	2198.19
993.897	2206.55
994.193	2195.7
994.49	2190.96
994.787	2168.36
995.083	2167.91
995.379	2145.08
995.676	2115.71
995.972	2110.28
996.268	2109.15
996.565	2135.37
996.861	2087.01
997.157	2082.71
997.453	2047.69
997.749	2049.27
998.044	2056.95
998.34	2044.75
998.636	2016.05
998.932	2037.74
999.227	1995.48
999.523	2026.9
999.818	1981.47
1000.114	2001.81
1000.409	1963.62
1000.704	1960.91
1001	1915.26
1001.295	1957.07
1001.59	1929.05
1001.885	1919.55
1002.18	1910.51
1002.475	1881.14
1002.77	1893.34
1003.065	1898.31
1003.359	1890.18
1003.654	1877.52
1003.949	1866.45
1004.243	1828.26
1004.538	1833
1004.832	1844.08
1005.127	1810.18
1005.421	1794.81
1005.715	1795.04
1006.009	1796.39
1006.304	1776.73
1006.598	1789.16
1006.892	1734.93
1007.186	1729.73
1007.48	1755.94
1007.773	1705.77
1008.067	1724.76
1008.361	1715.27
1008.655	1708.26
1008.948	1660.35
1009.242	1700.58
1009.535	1668.49
1009.829	1653.12
1010.122	1611.99
1010.415	1654.7
1010.708	1635.04
1011.001	1626.68
1011.295	1611.31
1011.588	1597.08
1011.881	1583.29
1012.173	1576.51
1012.466	1579.68
1012.759	1577.19
1013.052	1578.55
1013.344	1530.64
1013.637	1558.21
1013.93	1539
1014.222	1538.1
1014.514	1527.47
1014.807	1484.54
1015.099	1499.23
1015.391	1487.93
1015.683	1486.57
1015.976	1461.49
1016.268	1478.66
1016.56	1448.38
1016.851	1462.62
1017.143	1458.78
1017.435	1428.27
1017.727	1404.09
1018.018	1421.26
1018.31	1386.46
1018.602	1399.12
1018.893	1379.46
1019.185	1389.85
1019.476	1350.08
1019.767	1364.54
1020.058	1376.52
1020.35	1353.24
1020.641	1355.5
1020.932	1358.44
1021.223	1325.67
1021.514	1322.73
1021.804	1290.42
1022.095	1313.47
1022.386	1291.77
1022.677	1263.75
1022.967	1252.45
1023.258	1248.84
1023.548	1273.47
1023.839	1265.11
1024.129	1249.29
1024.419	1230.08
1024.709	1216.3
1025	1229.63
1025.29	1201.38
1025.58	1201.83
1025.87	1188.27
1026.16	1174.49
1026.449	1183.75
1026.739	1178.1
1027.029	1159.57
1027.319	1160.93
1027.608	1150.99
1027.898	1132.23
1028.187	1125.9
1028.477	1128.39
1028.766	1085.68
1029.055	1111.21
1029.344	1079.12
1029.634	1085.45
1029.923	1087.49
1030.212	1080.93
1030.501	1085.9
1030.79	1075.06
1031.078	1057.88
1031.367	1052.23
1031.656	1041.39
1031.945	1053.81
1032.233	1056.75
1032.522	1053.59
1032.81	1065.57
1033.099	1020.59
1033.387	1013.14
1033.675	1019.69
1033.963	1001.84
1034.251	1006.13
1034.54	991.67
1034.828	989.18
1035.116	995.51
1035.403	982.18
1035.691	977.43
1035.979	977.21
1036.267	955.51
1036.554	931.33
1036.842	954.38
1037.129	904.89
1037.417	912.35
1037.704	941.05
1037.992	890.88
1038.279	911.44
1038.566	924.55
1038.853	924.55
1039.14	924.55
