Data from hue_38_FLMS001491_00086.txt Node
Date: Tue Feb 07 17:32:06 GMT 2017
User: dcchb
Spectrometer: FLMS00149
Trigger mode: 0
Integration Time (sec): 2.000000E-2
Scans to average: 10
Electric dark correction enabled: true
Nonlinearity correction enabled: false
Boxcar width: 0
XAxis mode: Wavelengths
Number of Pixels in Spectrum: 2048
>>>>>Begin Spectral Data<<<<<
341.393	-21.85
341.776	-21.85
342.16	-21.85
342.543	-70.89
342.927	-53.49
343.31	-59.81
343.693	-91.68
344.077	-81.06
344.46	-74.96
344.843	-47.16
345.226	-48.97
345.61	-25.47
345.993	-20.95
346.376	8.21
346.759	16.57
347.142	14.76
347.525	76.9
347.908	67.64
348.291	58.6
348.674	77.81
349.057	129.56
349.44	129.56
349.823	132.72
350.206	151.71
350.588	171.82
350.971	203
351.354	208.65
351.737	227.41
352.119	246.17
352.502	233.96
352.884	272.61
353.267	261.31
353.65	281.42
354.032	299.27
354.414	313.06
354.797	292.94
355.179	325.26
355.562	315.77
355.944	333.85
356.326	310.8
356.709	347.41
357.091	325.26
357.473	337.01
357.855	360.97
358.238	337.24
358.62	353.28
359.002	348.08
359.384	360.74
359.766	313.51
360.148	319.84
360.53	321.42
360.912	330.68
361.294	333.4
361.676	318.71
362.057	326.16
362.439	340.63
362.821	327.75
363.203	309.67
363.584	318.25
363.966	343.79
364.348	312.83
364.729	323.9
365.111	340.63
365.493	311.25
365.874	318.93
366.256	308.99
366.637	308.76
367.019	314.41
367.4	287.52
367.781	326.16
368.163	319.38
368.544	336.78
368.925	320.29
369.306	304.92
369.688	316.22
370.069	321.19
370.45	327.07
370.831	313.96
371.212	314.86
371.593	319.16
371.974	309.67
372.355	325.03
372.736	347.86
373.117	329.1
373.498	311.7
373.879	321.87
374.26	302.21
374.641	320.74
375.021	323.23
375.402	323.45
375.783	339.5
376.163	323.23
376.544	320.74
376.925	339.72
377.305	337.01
377.686	325.26
378.066	306.5
378.447	330.23
378.827	331.59
379.208	362.32
379.588	347.41
379.968	324.58
380.349	336.33
380.729	332.72
381.109	355.77
381.489	338.82
381.87	345.37
382.25	335.43
382.63	358.93
383.01	337.46
383.39	344.24
383.77	344.69
384.15	335.88
384.53	352.83
384.91	325.26
385.29	370.68
385.67	353.51
386.049	352.38
386.429	366.61
386.809	346.5
387.189	348.76
387.568	338.14
387.948	349.21
388.328	349.44
388.707	384.69
389.087	371.13
389.466	358.25
389.846	361.19
390.225	379.5
390.605	366.84
390.984	360.74
391.363	387.86
391.743	372.94
392.122	368.87
392.501	382.89
392.881	395.77
393.26	393.05
393.639	379.04
394.018	365.71
394.397	370
394.776	376.78
395.155	354.86
395.534	371.36
395.913	370
396.292	391.7
396.671	390.57
397.05	388.53
397.429	378.82
397.808	395.99
398.186	408.87
398.565	394.64
398.944	403.45
399.323	394.86
399.701	392.83
400.08	410.46
400.458	388.99
400.837	400.29
401.215	403.22
401.594	407.29
401.972	385.6
402.351	411.36
402.729	402.09
403.107	435.54
403.486	430.12
403.864	422.43
404.242	422.88
404.62	405.94
404.999	408.2
405.377	417.01
405.755	425.82
406.133	421.53
406.511	423.79
406.889	429.66
407.267	443.9
407.645	421.08
408.023	425.6
408.401	438.03
408.779	428.76
409.156	426.27
409.534	446.84
409.912	441.64
410.29	445.26
410.667	455.43
411.045	444.35
411.422	444.35
411.8	465.6
412.178	448.19
412.555	464.92
412.933	471.47
413.31	491.81
413.687	470.34
414.065	491.13
414.442	478.7
414.819	499.72
415.197	476.89
415.574	488.19
415.951	497.01
416.328	510.11
416.705	488.87
417.082	503.33
417.46	501.3
417.837	516.22
418.214	513.96
418.591	510.57
418.967	522.77
419.344	536.33
419.721	543.56
420.098	520.28
420.475	523.9
420.852	522.09
421.228	543.11
421.605	539.72
421.982	538.59
422.358	544.69
422.735	545.37
423.111	539.94
423.488	570.9
423.864	555.76
424.241	549.89
424.617	565.03
424.994	585.82
425.37	572.48
425.746	563.67
426.123	583.11
426.499	586.27
426.875	569.1
427.251	592.15
427.627	597.57
428.003	594.18
428.379	599.83
428.756	600.28
429.132	609.32
429.507	620.62
429.883	610.45
430.259	621.98
430.635	621.98
431.011	646.38
431.387	647.06
431.763	651.58
432.138	653.84
432.514	677.34
432.89	658.81
433.265	673.95
433.641	680.5
434.016	670.56
434.392	683.67
434.767	684.8
435.143	667.4
435.518	697.68
435.894	712.14
436.269	721.41
436.644	727.96
437.02	733.38
437.395	725.02
437.77	721.18
438.145	750.79
438.52	747.4
438.895	760.5
439.271	758.92
439.646	742.2
440.021	777.45
440.395	767.96
440.77	764.57
441.145	769.54
441.52	781.97
441.895	768.64
442.27	786.26
442.645	790.11
443.019	805.02
443.394	802.99
443.769	816.09
444.143	815.42
444.518	800.5
444.892	821.97
445.267	807.96
445.641	830.11
446.016	849.54
446.39	840.73
446.764	848.41
447.139	856.77
447.513	845.92
447.887	855.19
448.262	829.43
448.636	835.53
449.01	871.91
449.384	896.32
449.758	881.18
450.132	909.2
450.506	895.64
450.88	864.45
451.254	896.77
451.628	918.69
452.002	937.45
452.376	911.01
452.75	913.04
453.123	928.18
453.497	946.03
453.871	971.8
454.244	967.05
454.618	942.42
454.992	979.03
455.365	972.47
455.739	1008.86
456.112	1029.42
456.486	993.49
456.859	1016.32
457.232	1050.66
457.606	1044.79
457.979	1045.69
458.352	1078.01
458.725	1062.19
459.099	1092.25
459.472	1142.19
459.845	1130.21
460.218	1111.91
460.591	1125.01
460.964	1139.48
461.337	1158.01
461.71	1169.76
462.083	1184.9
462.456	1180.83
462.829	1213.82
463.201	1253.6
463.574	1241.85
463.947	1236.42
464.32	1276.87
464.692	1278.23
465.065	1308.96
465.438	1327.27
465.81	1330.21
466.183	1339.02
466.555	1385.34
466.928	1385.8
467.3	1419.92
467.672	1415.4
468.045	1468.96
468.417	1476.19
468.789	1455.17
469.161	1496.08
469.534	1571.78
469.906	1569.52
470.278	1582.85
470.65	1606.36
471.022	1637.09
471.394	1676.64
471.766	1661.27
472.138	1715.96
472.51	1730.65
472.882	1774.94
473.253	1842.73
473.625	1867.14
473.997	1922.96
474.369	1934.48
474.74	1940.81
475.112	2006.57
475.484	2038.66
475.855	2097.19
476.227	2120.01
476.598	2157.3
476.97	2235.27
477.341	2284.53
477.713	2332.66
478.084	2357.75
478.455	2482.94
478.827	2490.4
479.198	2588.03
479.569	2583.51
479.94	2696.04
480.311	2738.08
480.682	2833.44
481.053	2906.66
481.424	2957.28
481.795	3066.43
482.166	3092.42
482.537	3187.11
482.908	3268.91
483.279	3329.02
483.65	3452.18
484.021	3532.41
484.391	3578.06
484.762	3679.97
485.133	3759.52
485.503	3780.08
485.874	3870.48
486.244	4035.44
486.615	4143.46
486.985	4219.39
487.356	4320.86
487.726	4371.03
488.097	4542.1
488.467	4548.43
488.837	4744.58
489.207	4862.99
489.578	4946.16
489.948	5034.06
490.318	5160.39
490.688	5271.34
491.058	5364.22
491.428	5477.44
491.798	5614.39
492.168	5730.32
492.538	5788.17
492.908	5849.63
493.278	6005.79
493.648	6109.51
494.017	6197.87
494.387	6290.53
494.757	6367.59
495.126	6570.97
495.496	6600.12
495.866	6714.02
496.235	6770.74
496.605	6872.66
496.974	6950.85
497.344	7079.43
497.713	7168.02
498.082	7283.04
498.452	7396.26
498.821	7451.17
499.19	7560.1
499.559	7641.45
499.928	7822.46
500.298	7788.11
500.667	7906.76
501.036	7951.05
501.405	8098.39
501.774	8102.23
502.143	8289.57
502.512	8307.87
502.88	8421.32
503.249	8493.86
503.618	8574.53
503.987	8667.87
504.356	8718.71
504.724	8827.18
505.093	8913.96
505.462	8891.36
505.83	8999.16
506.199	9096.1
506.567	9232.6
506.936	9286.15
507.304	9374.06
507.672	9508.97
508.041	9520.27
508.409	9624.68
508.777	9704.45
509.145	9764.79
509.514	9833.94
509.882	9976.76
510.25	9958
510.618	10042.74
510.986	10093.59
511.354	10209.29
511.722	10305.11
512.09	10420.14
512.458	10365
512.826	10529.29
513.193	10532.22
513.561	10663.52
513.929	10632.11
514.297	10802.27
514.664	10884.53
515.032	10928.82
515.4	11004.75
515.767	10994.13
516.135	11092.43
516.502	11025.32
516.869	11240.45
517.237	11283.62
517.604	11316.16
517.972	11442.03
518.339	11540.11
518.706	11539.88
519.073	11596.6
519.44	11679.09
519.808	11856.93
520.175	11795.01
520.542	11964.5
520.909	11975.12
521.276	12039.3
521.643	12129.02
522.009	12238.84
522.376	12303.02
522.743	12370.14
523.11	12473.41
523.477	12593.41
523.843	12679.96
524.21	12747.08
524.577	12839.51
524.943	12936
525.31	12905.27
525.676	13053.74
526.043	13166.96
526.409	13203.79
526.776	13293.96
527.142	13364.46
527.508	13483.56
527.874	13572.6
528.241	13752.25
528.607	13659.82
528.973	13781.86
529.339	13802.65
529.705	14024.33
530.071	14043.09
530.437	14143.43
530.803	14175.07
531.169	14342.97
531.535	14176.87
531.901	14389.75
532.267	14440.37
532.632	14460.71
532.998	14561.5
533.364	14708.16
533.73	14667.48
534.095	14832.9
534.461	14879.68
534.826	14987.25
535.192	14924.2
535.557	15118.09
535.923	15135.49
536.288	15132.55
536.653	15228.82
537.019	15231.99
537.384	15314.92
537.749	15443.28
538.114	15401.47
538.479	15456.16
538.845	15565.76
539.21	15566.67
539.575	15669.49
539.94	15704.74
540.305	15776.83
540.67	15826.77
541.034	15886.43
541.399	16006.88
541.764	16008.24
542.129	16083.26
542.494	16052.98
542.858	16237.84
543.223	16229.02
543.587	16293.88
543.952	16306.76
544.316	16380.88
544.681	16443.71
545.045	16445.74
545.41	16575.45
545.774	16645.51
546.138	16586.53
546.503	16820.87
546.867	16824.71
547.231	17007.53
547.595	17011.83
547.959	17099.28
548.324	17071.94
548.688	17090.02
549.052	17198.49
549.416	17127.53
549.779	17278.26
550.143	17370.01
550.507	17375.66
550.871	17575.43
551.235	17481.64
551.599	17583.56
551.962	17720.28
552.326	17618.36
552.689	17778.59
553.053	17746.04
553.417	17788.98
553.78	18079.14
554.143	17986.94
554.507	18018.35
554.87	18132.02
555.234	18266.26
555.597	18249.08
555.96	18317.78
556.323	18395.52
556.686	18388.51
557.05	18499.02
557.413	18585.57
557.776	18579.47
558.139	18723.19
558.502	18658.79
558.865	18850.2
559.228	18909.63
559.59	18993.24
559.953	19015.62
560.316	19174.71
560.679	19235.27
561.041	19269.85
561.404	19359.56
561.767	19538.31
562.129	19454.7
562.492	19642.94
562.854	19661.25
563.217	19594.81
563.579	19738.76
563.941	19833
564.304	19918.42
564.666	20023.05
565.028	20014.23
565.39	19967.91
565.753	20205.64
566.115	20192.31
566.477	20466.65
566.839	20456.26
567.201	20588.91
567.563	20547.55
567.925	20632.97
568.287	20775.57
568.648	20738.51
569.01	20936.92
569.372	21085.39
569.734	20972.63
570.095	21134.2
570.457	21273.86
570.819	21335.78
571.18	21329.91
571.542	21537.81
571.903	21549.11
572.265	21662.55
572.626	21638.6
572.987	21801.31
573.349	21794.3
573.71	22065.71
574.071	22016.89
574.432	22270.22
574.794	22372.82
575.155	22440.61
575.516	22370.33
575.877	22611.23
576.238	22751.79
576.599	22869.98
576.96	22856.87
577.32	23015.06
577.681	23250.76
578.042	23306.12
578.403	23342.06
578.763	23573.69
579.124	23634.03
579.485	23805.77
579.845	23976.16
580.206	24068.82
580.566	24301.58
580.927	24297.96
581.287	24590.16
581.648	24705.18
582.008	24818.18
582.368	24964.61
582.728	25196.24
583.089	25410.48
583.449	25442.11
583.809	25678.94
584.169	25876.9
584.529	26054.98
584.889	26302.66
585.249	26301.3
585.609	26461.75
585.969	26847.5
586.329	26959.36
586.688	27028.06
587.048	27410.42
587.408	27468.05
587.768	27698.33
588.127	27915.49
588.487	28095.83
588.846	28540.56
589.206	28469.38
589.565	28684.29
589.925	29080.66
590.284	29103.94
590.643	29386.87
591.003	29550.48
591.362	29927.87
591.721	30019.39
592.08	30326.73
592.44	30495.77
592.799	30767.4
593.158	30879.94
593.517	31059.82
593.876	31338.46
594.235	31398.34
594.593	31560.14
594.952	31825.22
595.311	32142.5
595.67	32325.32
596.029	32650.51
596.387	32811.19
596.746	33032.87
597.104	33089.37
597.463	33156.49
597.822	33633.76
598.18	33678.06
598.538	33750.6
598.897	34244.14
599.255	34124.15
599.613	34662.21
599.972	34669.44
600.33	34979.04
600.688	34819.72
601.046	35045.7
601.404	35425.35
601.762	35595.52
602.12	35743.09
602.478	35946.02
602.836	36075.28
603.194	36117.54
603.552	36289.51
603.91	36407.02
604.268	36600.24
604.625	36646.79
604.983	36990.96
605.341	36881.13
605.698	37198.64
606.056	37311.63
606.413	37503.72
606.771	37727.44
607.128	37816.7
607.485	37818.96
607.843	37965.4
608.2	38249.01
608.557	38502.56
608.914	38310.93
609.272	38590.24
609.629	38821.2
609.986	38993.17
610.343	38923.57
610.7	39385.25
611.057	39333.73
611.414	39258.02
611.771	39511.12
612.127	39770.55
612.484	39670.89
612.841	40163.76
613.198	39931.22
613.554	40047.61
613.911	40409.86
614.267	40474.49
614.624	40372.12
614.98	40540.93
615.337	40790.41
615.693	40751.54
616.05	40859.11
616.406	41065.66
616.762	41048.93
617.118	41092.1
617.475	41092.55
617.831	41377.06
618.187	41450.28
618.543	41435.14
618.899	41993.99
619.255	41693.66
619.611	41736.83
619.967	41977.27
620.323	42113.77
620.678	41919.19
621.034	41971.4
621.39	42183.37
621.746	42031.51
622.101	42659.06
622.457	42385.62
622.812	42414.1
623.168	42647.31
623.523	42562.12
623.879	42842.56
624.234	42533.87
624.589	42618.39
624.945	42814.31
625.3	42807.53
625.655	42777.48
626.01	42780.87
626.365	42972.73
626.72	42948.77
627.075	42955.33
627.43	42997.36
627.785	42881.88
628.14	43048.43
628.495	43097.24
628.85	43023.8
629.205	42935.66
629.559	43329.55
629.914	42982.44
630.269	43098.15
630.623	43154.19
630.978	42910.35
631.332	43174.98
631.687	43348.31
632.041	43171.59
632.396	43300.18
632.75	43140.63
633.104	43118.48
633.459	43165.26
633.813	43145.83
634.167	43093.17
634.521	43137.69
634.875	43208.65
635.229	43181.31
635.583	42948.32
635.937	42962.33
636.291	42915.33
636.645	43044.14
636.999	42956.23
637.352	43146.73
637.706	42852.28
638.06	43088.66
638.413	43004.82
638.767	42805.72
639.121	42994.87
639.474	42824.26
639.828	42707.87
640.181	42876.46
640.534	42936.79
640.888	42649.8
641.241	42595.11
641.594	42621.32
641.947	42757.14
642.301	42631.49
642.654	42673.07
643.007	42760.3
643.36	42759.85
643.713	42475.56
644.066	42696.8
644.419	42290.71
644.771	42218.62
645.124	41955.35
645.477	41725.08
645.83	41554.46
646.182	41479.88
646.535	41403.5
646.888	41570.5
647.24	41300.68
647.593	41467
647.945	41446.44
648.298	41169.84
648.65	41223.39
649.002	41151.98
649.355	41330.28
649.707	41298.42
650.059	41390.17
650.411	41862.02
650.763	41794
651.115	42357.15
651.467	42117.16
651.819	42150.83
652.171	41997.84
652.523	42099.75
652.875	41918.52
653.227	41830.84
653.578	42195.57
653.93	42141.11
654.282	41754.45
654.633	41796.49
654.985	41861.57
655.337	41906.77
655.688	41899.08
656.039	42028.34
656.391	41764.17
656.742	41799.2
657.094	41662.93
657.445	42041.23
657.796	41773.21
658.147	41736.83
658.498	41828.12
658.849	41848.91
659.2	41698.86
659.551	41659.99
659.902	41765.98
660.253	41839.42
660.604	41793.1
660.955	41415.48
661.306	41669.26
661.656	41556.04
662.007	41537.28
662.358	41537.74
662.708	41513.56
663.059	41580.67
663.409	41203.73
663.76	41648.02
664.11	41675.36
664.461	41592.88
664.811	41597.62
665.161	41641.69
665.511	41420.9
665.862	41528.47
666.212	41617.06
666.562	41589.49
666.912	41530.05
667.262	41524.18
667.612	41429.94
667.962	41528.7
668.312	41447.57
668.662	41624.29
669.011	41601.69
669.361	41465.65
669.711	41473.78
670.06	41503.84
670.41	41105.2
670.76	41277.86
671.109	41434.24
671.459	41376.16
671.808	41202.6
672.157	41455.03
672.507	41191.3
672.856	41184.52
673.205	41325.99
673.554	41304.07
673.904	41198.99
674.253	41467.23
674.602	41316.5
674.951	40731.2
675.3	40503.64
675.649	41163.96
675.998	41125.77
676.346	41179.33
676.695	41394.69
677.044	40846.68
677.393	41005.32
677.741	41103.17
678.09	40965.32
678.438	40949.05
678.787	40863.4
679.135	40960.8
679.484	40743.86
679.832	40936.62
680.181	40727.81
680.529	40805.55
680.877	40708.6
681.225	40635.39
681.573	40970.07
681.922	40441.04
682.27	40500.25
682.618	40495.05
682.966	40264.55
683.314	40436.97
683.661	40278.56
684.009	40150.2
684.357	40276.07
684.705	40115.63
685.053	40115.4
685.4	39873.6
685.748	39785.69
686.095	39945.69
686.443	39815.52
686.79	39700.5
687.138	39759.25
687.485	39658.01
687.832	39585.02
688.18	39603.1
688.527	39369.88
688.874	39399.71
689.221	39270.22
689.568	39184.8
689.915	39206.95
690.262	39116.56
690.609	38945.94
690.956	38975.09
691.303	38947.07
691.65	38662.33
691.997	38645.61
692.344	38373.75
692.69	38550.24
693.037	38481.32
693.383	38231.16
693.73	38422.56
694.077	38075
694.423	38031.16
694.769	37997.26
695.116	37874.33
695.462	37749.59
695.808	37704.84
696.155	37783.48
696.501	37330.84
696.847	37487.45
697.193	37259.2
697.539	37399.31
697.885	37090.85
698.231	36945.99
698.577	37056.05
698.923	36962.49
699.269	36789.61
699.614	36499.68
699.96	36593.01
700.306	36529.96
700.651	36518.43
700.997	36273.92
701.342	36266.69
701.688	36314.37
702.033	36124.32
702.379	36014.72
702.724	35959.13
703.069	36060.37
703.415	35597.55
703.76	35670.77
704.105	35629.42
704.45	35570.43
704.795	35344.9
705.14	35366.37
705.485	35323.89
705.83	35139.71
706.175	35216.32
706.52	35066.95
706.865	34832.38
707.209	34795.77
707.554	34779.72
707.899	34821.75
708.243	34670.8
708.588	34562.55
708.932	34405.95
709.277	34323.69
709.621	34410.24
709.966	34174.99
710.31	34188.32
710.654	33990.14
710.998	33996.69
711.342	34117.37
711.687	33926.41
712.031	33899.97
712.375	33772.52
712.719	33814.1
713.063	33699.07
713.407	33880.54
713.75	33577.72
714.094	33555.35
714.438	33528
714.782	33562.58
715.125	33156.71
715.469	33434.22
715.812	33069.94
716.156	33027.9
716.499	33057.96
716.843	33038.07
717.186	32758.31
717.53	33048.47
717.873	33018.86
718.216	32777.06
718.559	32687.12
718.902	32432.44
719.246	32646.22
719.589	32358.77
719.932	32265.21
720.275	32389.73
720.617	32283.06
720.96	32293.68
721.303	32256.17
721.646	32146.8
721.989	31858.44
722.331	32133.01
722.674	32023.86
723.016	32042.62
723.359	31976.86
723.701	31939.34
724.044	31690.54
724.386	31576.19
724.729	31733.02
725.071	31737.77
725.413	31590.2
725.755	31471.79
726.097	31562.18
726.439	31373.26
726.782	31432.46
727.124	31483.54
727.465	31223.43
727.807	31180.72
728.149	31218.68
728.491	31180.49
728.833	31288.29
729.175	31096.65
729.516	30983.89
729.858	31017.11
730.199	31076.99
730.541	30932.14
730.882	30913.16
731.224	30909.31
731.565	30661.64
731.906	30768.98
732.248	30782.09
732.589	30655.08
732.93	30455.99
733.271	30365.6
733.612	30551.13
733.953	30530.57
734.294	30319.5
734.635	30248.09
734.976	30362.21
735.317	30136.45
735.658	30202.44
735.999	30242.21
736.339	30184.81
736.68	30227.3
737.021	30201.99
737.361	29992.73
737.702	30233.85
738.042	29925.61
738.383	30018.04
738.723	30038.38
739.063	29838.83
739.404	29839.06
739.744	29854.65
740.084	29790.47
740.424	29787.76
740.764	29741.66
741.104	29790.7
741.444	29651.04
741.784	29547.09
742.124	29588.9
742.464	29643.58
742.804	29531.27
743.143	29421.9
743.483	29376.47
743.823	29351.39
744.162	29244.27
744.502	29354.1
744.841	29108.23
745.181	29233.2
745.52	29166.31
745.86	29088.35
746.199	29031.17
746.538	29112.75
746.877	29032.3
747.216	28891.51
747.556	28909.82
747.895	29030.27
748.234	28843.38
748.573	28720.22
748.911	28641.58
749.25	28652.42
749.589	28543.5
749.928	28502.37
750.267	28601.58
750.605	28390.28
750.944	28390.06
751.283	28348.03
751.621	28366.1
751.96	28241.59
752.298	28192.1
752.636	28286.33
752.975	28026
753.313	27936.29
753.651	28164.08
753.989	27952.33
754.327	27905.1
754.666	27824.65
755.004	27920.01
755.342	27915.27
755.679	27841.15
756.017	27639.12
756.355	27703.07
756.693	27590.31
757.031	27490.2
757.368	27295.85
757.706	27349.41
758.044	27350.54
758.381	27329.52
758.719	27240.71
759.056	27210.2
759.394	27163.65
759.731	27002.98
760.068	26870.78
760.405	26859.7
760.743	26711.91
761.08	26846.37
761.417	26680.27
761.754	26612.48
762.091	26611.12
762.428	26405.7
762.765	26348.3
763.102	26496.1
763.438	26226.73
763.775	26110.57
764.112	26133.85
764.449	26179.27
764.785	26055.66
765.122	25821.54
765.458	25681.88
765.795	25638.27
766.131	25643.24
766.467	25572.28
766.804	25415.22
767.14	25388.56
767.476	25322.12
767.812	25274.43
768.148	25226.75
768.485	25080.32
768.821	25018.4
769.157	24896.37
769.492	24958.96
769.828	24756.93
770.164	24606.88
770.5	24541.35
770.836	24511.74
771.171	24385.64
771.507	24314.01
771.842	24257.29
772.178	24037.4
772.513	24024.07
772.849	23945.2
773.184	23841.25
773.519	23933.45
773.855	23724.64
774.19	23671.31
774.525	23583.18
774.86	23526.23
775.195	23482.84
775.53	23379.12
775.865	23219.57
776.2	23210.76
776.535	23060.48
776.87	23067.49
777.205	22850.09
777.539	22849.19
777.874	22870.2
778.209	22653.49
778.543	22585.24
778.878	22478.8
779.212	22484.68
779.547	22418.01
779.881	22384.11
780.215	22224.57
780.55	22229.77
780.884	21978.7
781.218	21917.91
781.552	21931.47
781.886	21794.53
782.22	21650.8
782.554	21722.21
782.888	21466.17
783.222	21439.51
783.556	21279.29
783.889	21267.99
784.223	21167.42
784.557	21193.86
784.89	21141.21
785.224	20980.31
785.557	20925.85
785.891	20802.46
786.224	20872.97
786.558	20819.41
786.891	20548
787.224	20543.71
787.557	20516.14
787.891	20515.69
788.224	20448.57
788.557	20298.29
788.89	20350.5
789.223	20374.22
789.556	20143.5
789.888	20127.68
790.221	20048.36
790.554	19835.48
790.887	19803.17
791.219	19763.17
791.552	19799.55
791.884	19715.94
792.217	19548.03
792.549	19533.34
792.882	19248.6
793.214	19231.66
793.546	19315.27
793.879	19172.45
794.211	19089.96
794.543	19087.48
794.875	19082.28
795.207	19067.59
795.539	18928.84
795.871	18849.07
796.203	18788.28
796.535	18716.41
796.867	18682.97
797.198	18636.64
797.53	18542.18
797.862	18492.69
798.193	18500.6
798.525	18264.68
798.856	18362.07
799.188	18161.18
799.519	18116.88
799.85	18052.25
800.182	18069.43
800.513	18058.58
800.844	17850.9
801.175	17950.33
801.506	17989.2
801.837	17908.98
802.168	17781.75
802.499	17764.58
802.83	17662.66
803.161	17548.31
803.491	17651.81
803.822	17431.7
804.153	17442.32
804.483	17311.71
804.814	17226.28
805.145	17243.69
805.475	17269.9
805.805	17283.01
806.136	17085.95
806.466	17115.33
806.796	17109.45
807.126	16928.44
807.457	16850.02
807.787	16957.59
808.117	16839.85
808.447	16845.73
808.777	16788.33
809.107	16751.27
809.436	16622.23
809.766	16668.33
810.096	16619.07
810.426	16429.92
810.755	16498.62
811.085	16506.53
811.414	16386.98
811.744	16366.19
812.073	16435.34
812.403	16263.15
812.732	16175.92
813.061	16242.36
813.39	16122.81
813.719	16022.93
814.049	16201
814.378	16128.91
814.707	15946.09
815.036	15947.9
815.365	15895.47
815.693	15784.06
816.022	15750.62
816.351	15688.47
816.68	15571.64
817.008	15692.31
817.337	15503.39
817.665	15543.62
817.994	15543.62
818.322	15458.87
818.651	15425.88
818.979	15350.85
819.307	15482.15
819.636	15387.01
819.964	15240.57
820.292	15309.72
820.62	15272.89
820.948	15295.94
821.276	15248.03
821.604	15234.02
821.932	15265.88
822.259	15208.94
822.587	15226.79
822.915	15232.66
823.243	15309.95
823.57	15219.78
823.898	15183.17
824.225	15137.53
824.553	15175.72
824.88	15110.41
825.207	15189.5
825.535	15152.67
825.862	15220.01
826.189	15118.77
826.516	15199.67
826.843	15165.55
827.17	15220.24
827.497	15137.75
827.824	15250.29
828.151	15216.39
828.478	15135.49
828.805	15289.39
829.131	15026.12
829.458	15140.46
829.785	15154.7
830.111	15123.29
830.438	15140.01
830.764	15109.28
831.09	15142.72
831.417	15007.13
831.743	15213.68
832.069	15139.33
832.395	15047.58
832.722	15073.8
833.048	15032.9
833.374	15041.48
833.7	15014.14
834.026	14998.09
834.351	15017.53
834.677	14999.22
835.003	14941.15
835.329	14967.36
835.654	14959.45
835.98	14942.05
836.306	14831.09
836.631	14828.38
836.956	14868.61
837.282	14855.05
837.607	14704.99
837.932	14670.42
838.258	14753.36
838.583	14722.17
838.908	14569.86
839.233	14651.89
839.558	14671.32
839.883	14601.72
840.208	14461.61
840.533	14455.74
840.858	14498.45
841.182	14516.98
841.507	14405.34
841.832	14405.79
842.156	14381.84
842.481	14361.95
842.805	14440.14
843.13	14333.03
843.454	14275.4
843.778	14236.76
844.103	14106.82
844.427	14168.51
844.751	14173.94
845.075	14104.11
845.399	14059.59
845.723	13983.66
846.047	14101.39
846.371	13987.95
846.695	13901.17
847.019	13795.41
847.343	13669.54
847.666	13689.88
847.99	13607.85
848.313	13681.07
848.637	13555.87
848.96	13552.93
849.284	13459.83
849.607	13391.58
849.931	13387.06
850.254	13300.29
850.577	13156.79
850.9	13078.37
851.223	13150.46
851.546	13027.98
851.869	12888.09
852.192	13086.96
852.515	12892.61
852.838	12857.81
853.161	12804.48
853.483	12726.52
853.806	12663.69
854.129	12748.89
854.451	12611.26
854.774	12496.01
855.096	12517.03
855.419	12453.08
855.741	12508.22
856.063	12420.53
856.385	12373.08
856.708	12384.38
857.03	12227.32
857.352	12285.17
857.674	12230.71
857.996	12144.16
858.318	12103.71
858.64	12096.25
858.961	12116.59
859.283	11987.1
859.605	11967.67
859.926	12019.87
860.248	11939.42
860.57	11877.72
860.891	11883.6
861.212	11801.12
861.534	11832.3
861.855	11759.54
862.176	11751.4
862.498	11768.12
862.819	11779.87
863.14	11685.19
863.461	11726.09
863.782	11650.16
864.103	11685.64
864.424	11686.54
864.745	11604.06
865.065	11603.16
865.386	11522.48
865.707	11470.05
866.027	11495.14
866.348	11461.24
866.668	11489.94
866.989	11415.59
867.309	11406.78
867.63	11409.26
867.95	11328.13
868.27	11286.33
868.59	11283.84
868.91	11240.45
869.23	11265.09
869.55	11239.78
869.87	11259.66
870.19	11255.37
870.51	11258.31
870.83	11252.43
871.15	11188.7
871.469	11201.13
871.789	11101.47
872.109	11205.2
872.428	11082.04
872.748	11126.56
873.067	11112.32
873.386	11140.57
873.706	11032.32
874.025	11029.16
874.344	10957.52
874.663	11025.77
874.982	11006.79
875.301	11021.7
875.62	10981.02
875.939	10919.33
876.258	10895.38
876.577	10870.29
876.896	10863.51
877.214	10862.61
877.533	10827.13
877.852	10847.92
878.17	10820.13
878.489	10793.01
878.807	10738.55
879.125	10712.56
879.444	10703.52
879.762	10700.35
880.08	10690.41
880.398	10672.33
880.716	10683.18
881.034	10627.36
881.352	10602.05
881.67	10578.32
881.988	10505.11
882.306	10500.81
882.624	10489.06
882.941	10423.75
883.259	10394.83
883.577	10404.09
883.894	10358.67
884.212	10403.86
884.529	10388.05
884.846	10301.27
885.164	10284.77
885.481	10285.9
885.798	10281.16
886.115	10186.24
886.432	10216.07
886.75	10233.47
887.067	10185.34
887.383	10125.23
887.7	10140.14
888.017	10017.89
888.334	10082.52
888.651	10092.23
888.967	10020.15
889.284	9972.01
889.6	9977.66
889.917	9876.65
890.233	9930.2
890.55	9870.32
890.866	9830.55
891.182	9777.67
891.498	9814.5
891.815	9773.15
892.131	9708.74
892.447	9746.03
892.763	9692.92
893.079	9615.86
893.395	9590.78
893.71	9652.25
894.026	9618.12
894.342	9532.7
894.657	9518.92
894.973	9485.92
895.289	9494.51
895.604	9473.95
895.92	9360.5
896.235	9342.2
896.55	9374.74
896.865	9250.45
897.181	9298.36
897.496	9305.14
897.811	9238.47
898.126	9199.38
898.441	9106.27
898.756	9165.25
899.071	9058.82
899.386	9080.06
899.7	8992.83
900.015	8959.84
900.33	8931.36
900.644	8869.22
900.959	8941.08
901.273	8871.25
901.588	8803.68
901.902	8742.44
902.216	8739.73
902.531	8735.66
902.845	8655.66
903.159	8593.52
903.473	8610.01
903.787	8580.18
904.101	8578.6
904.415	8491.37
904.729	8487.08
905.042	8451.6
905.356	8426.74
905.67	8390.13
905.984	8339.51
906.297	8332.28
906.611	8309.46
906.924	8279.85
907.237	8273.98
907.551	8266.07
907.864	8148.56
908.177	8175.45
908.491	8090.03
908.804	8108.33
909.117	8078.28
909.43	8038.28
909.743	7972.97
910.056	7993.53
910.368	7947.66
910.681	7910.6
910.994	7813.42
911.307	7878.28
911.619	7723.48
911.932	7742.01
912.244	7694.11
912.557	7664.95
912.869	7663.82
913.181	7659.3
913.494	7609.81
913.806	7573.88
914.118	7535.01
914.43	7469.93
914.742	7498.63
915.054	7482.59
915.366	7453.43
915.678	7380.89
915.99	7357.84
916.302	7325.98
916.613	7249.6
916.925	7283.04
917.236	7242.37
917.548	7196.94
917.859	7214.8
918.171	7101.8
918.482	7062.26
918.794	7077.17
919.105	7036.72
919.416	7015.03
919.727	7029.26
920.038	6998.98
920.349	6944.75
920.66	6937.52
920.971	6883.28
921.282	6846.44
921.593	6780.46
921.903	6834.92
922.214	6757.41
922.525	6740.23
922.835	6694.36
923.146	6689.84
923.456	6681.02
923.767	6593.34
924.077	6600.35
924.387	6593.34
924.697	6533.91
925.008	6538.88
925.318	6463.4
925.628	6478.09
925.938	6404.2
926.248	6350.64
926.558	6349.96
926.867	6319.45
927.177	6294.14
927.487	6288.49
927.796	6237.87
928.106	6198.78
928.416	6163.07
928.725	6192.22
929.034	6199.46
929.344	6148.84
929.653	6107.25
929.962	6105.22
930.271	6083.75
930.581	6018.44
930.89	5970.76
931.199	5936.86
931.508	5958.78
931.817	5976.18
932.125	5939.8
932.434	5940.71
932.743	5786.36
933.051	5800.14
933.36	5735.51
933.669	5701.62
933.977	5737.55
934.286	5720.82
934.594	5722.86
934.902	5642.18
935.21	5614.39
935.519	5631.79
935.827	5637.89
936.135	5595.86
936.443	5535.52
936.751	5476.54
937.059	5483.09
937.367	5469.31
937.674	5439.02
937.982	5409.87
938.29	5380.04
938.597	5382.75
938.905	5314.28
939.213	5339.82
939.52	5284.23
939.827	5334.39
940.135	5264.34
940.442	5253.72
940.749	5260.05
941.056	5247.39
941.363	5154.96
941.67	5173.95
941.977	5129.88
942.284	5147.05
942.591	5070.22
942.898	5076.77
943.205	5037.9
943.511	4990.45
943.818	4991.58
944.125	4921.98
944.431	4952.93
944.738	4961.52
945.044	4898.02
945.35	4910.68
945.657	4851.92
945.963	4841.75
946.269	4824.12
946.575	4813.05
946.881	4750.91
947.187	4764.69
947.493	4794.07
947.799	4698.25
948.105	4741.64
948.41	4675.65
948.716	4694.86
949.022	4642.21
949.327	4630.46
949.633	4594.3
949.938	4575.32
950.244	4578.48
950.549	4545.49
950.854	4536.45
951.16	4519.5
951.465	4466.85
951.77	4455.32
952.075	4452.38
952.38	4447.86
952.685	4416.23
952.99	4345.72
953.294	4371.26
953.599	4390.24
953.904	4320.86
954.209	4315.66
954.513	4324.02
954.818	4260.07
955.122	4272.73
955.426	4281.99
955.731	4208.1
956.035	4162.9
956.339	4183.92
956.643	4173.75
956.948	4198.6
957.252	4148.44
957.556	4122.67
957.86	4112.96
958.163	4089.68
958.467	4059.17
958.771	4027.08
959.075	4016.01
959.378	4042.9
959.682	3992.51
959.985	4000.42
960.289	3943.02
960.592	3937.82
960.896	3917.03
961.199	3882.45
961.502	3891.95
961.805	3884.94
962.108	3855.11
962.411	3797.26
962.714	3783.25
963.017	3825.28
963.32	3823.47
963.623	3788.22
963.926	3786.19
964.228	3771.04
964.531	3736.02
964.833	3705.51
965.136	3642.46
965.438	3665.28
965.741	3642.69
966.043	3614.21
966.345	3673.19
966.648	3569.69
966.95	3613.76
967.252	3573.08
967.554	3579.64
967.856	3563.14
968.158	3544.84
968.46	3506.19
968.761	3502.35
969.063	3480.66
969.365	3470.49
969.666	3463.71
969.968	3407.66
970.269	3429.36
970.571	3433.2
970.872	3430.26
971.174	3403.37
971.475	3374.45
971.776	3359.08
972.077	3325.63
972.378	3338.97
972.679	3330.15
972.98	3324.28
973.281	3294.9
973.582	3271.62
973.883	3269.14
974.183	3254.9
974.484	3252.64
974.785	3209.03
975.085	3174.22
975.386	3174.68
975.686	3188.01
975.986	3159.08
976.287	3121.8
976.587	3137.62
976.887	3059.2
977.187	3116.82
977.487	3089.03
977.787	3081.57
978.087	3034.79
978.387	3053.1
978.687	3037.96
978.987	3029.14
979.286	3019.43
979.586	2962.03
979.885	2941.91
980.185	2959.09
980.484	2962.48
980.784	2941.91
981.083	2933.1
981.382	2923.16
981.682	2866.44
981.981	2898.07
982.28	2861.92
982.579	2822.6
982.878	2818.3
983.177	2814.01
983.475	2847.23
983.774	2788.02
984.073	2776.49
984.372	2752.09
984.67	2779.21
984.969	2750.73
985.267	2725.87
985.566	2751.64
985.864	2695.59
986.162	2709.38
986.461	2683.62
986.759	2704.63
987.057	2693.11
987.355	2642.94
987.653	2642.71
987.951	2643.84
988.249	2617.63
988.547	2606.1
988.844	2603.39
989.142	2623.05
989.44	2571.75
989.737	2553.45
990.035	2541.92
990.332	2550.74
990.63	2516.39
990.927	2483.17
991.224	2491.76
991.521	2503.28
991.819	2485.65
992.116	2483.85
992.413	2444.07
992.71	2458.76
993.006	2438.88
993.303	2445.88
993.6	2444.53
993.897	2374.47
994.193	2424.19
994.49	2358.65
994.787	2388.48
995.083	2371.31
995.379	2332.21
995.676	2329.27
995.972	2324.76
996.268	2308.26
996.565	2323.63
996.861	2315.04
997.157	2296.73
997.453	2262.38
997.749	2260.8
998.044	2256.51
998.34	2239.56
998.636	2237.3
998.932	2214.02
999.227	2211.99
999.523	2209.28
999.818	2160.69
1000.114	2159.56
1000.409	2137.87
1000.704	2181.48
1001	2093.35
1001.295	2113.24
1001.59	2123.18
1001.885	2103.52
1002.18	2105.1
1002.475	2077.08
1002.77	2044.08
1003.065	2065.55
1003.359	2025.78
1003.654	2026.23
1003.949	2032.56
1004.243	2040.92
1004.538	1985.33
1004.832	1979.68
1005.127	1972.22
1005.421	1939.23
1005.715	1965.89
1006.009	1957.76
1006.304	1910.3
1006.598	1910.75
1006.892	1928.83
1007.186	1903.07
1007.48	1877.99
1007.773	1869.85
1008.067	1873.69
1008.361	1881.6
1008.655	1862.85
1008.948	1856.07
1009.242	1851.77
1009.535	1833.69
1009.829	1803.86
1010.122	1792.57
1010.415	1780.14
1010.708	1803.41
1011.001	1760.02
1011.295	1724.09
1011.588	1748.95
1011.881	1743.08
1012.173	1754.6
1012.466	1748.5
1012.759	1716.86
1013.052	1736.3
1013.344	1687.94
1013.637	1690.65
1013.93	1667.37
1014.222	1674.6
1014.514	1658.56
1014.807	1635.51
1015.099	1625.34
1015.391	1612.46
1015.683	1607.03
1015.976	1592.35
1016.268	1591.44
1016.56	1578.11
1016.851	1567.94
1017.143	1574.49
1017.435	1536.53
1017.727	1524.78
1018.018	1531.33
1018.31	1515.51
1018.602	1516.87
1018.893	1501.27
1019.185	1508.96
1019.476	1483.87
1019.767	1492.23
1020.058	1447.04
1020.35	1463.99
1020.641	1436.42
1020.932	1460.15
1021.223	1426.02
1021.514	1424.89
1021.804	1412.24
1022.095	1385.12
1022.386	1384.22
1022.677	1402.52
1022.967	1385.57
1023.258	1364.33
1023.548	1344.22
1023.839	1356.65
1024.129	1355.52
1024.419	1328.4
1024.709	1314.84
1025	1308.06
1025.29	1307.61
1025.58	1282.3
1025.87	1281.62
1026.16	1287.04
1026.449	1268.96
1026.739	1277.1
1027.029	1268.74
1027.319	1260.83
1027.608	1246.37
1027.898	1233.48
1028.187	1189.42
1028.477	1213.15
1028.766	1216.08
1029.055	1211.34
1029.344	1201.17
1029.634	1189.42
1029.923	1168.63
1030.212	1158.68
1030.501	1180.6
1030.79	1173.6
1031.078	1150.77
1031.367	1154.16
1031.656	1150.55
1031.945	1133.37
1032.233	1134.5
1032.522	1107.39
1032.81	1079.36
1033.099	1083.66
1033.387	1104.67
1033.675	1076.88
1033.963	1072.81
1034.251	1076.88
1034.54	1027.61
1034.828	1074.39
1035.116	1043.66
1035.403	1026.03
1035.691	1040.5
1035.979	1038.46
1036.267	1026.48
1036.554	996.88
1036.842	995.3
1037.129	1021.29
1037.417	997.56
1037.704	981.74
1037.992	980.61
1038.279	983.1
1038.566	969.54
1038.853	969.54
1039.14	969.54
