Data from hue_70_FLMS001491_71.txt Node
Date: Mon Feb 06 15:21:24 GMT 2017
User: dcchb
Spectrometer: FLMS00149
Trigger mode: 0
Integration Time (sec): 2.000000E-2
Scans to average: 10
Electric dark correction enabled: true
Nonlinearity correction enabled: false
Boxcar width: 0
XAxis mode: Wavelengths
Number of Pixels in Spectrum: 2048
>>>>>Begin Spectral Data<<<<<
341.393	6.68
341.776	6.68
342.16	6.68
342.543	-72.87
342.927	-62.92
343.31	-85.75
343.693	-49.59
344.077	-85.52
344.46	-47.1
344.843	-56.59
345.226	-41.68
345.61	-19.76
345.993	-11.62
346.376	-9.36
346.759	13.01
347.142	15.49
347.525	27.47
347.908	57.07
348.291	79.45
348.674	117.64
349.057	96.85
349.44	126.45
349.823	147.92
350.206	150.63
350.588	200.8
350.971	195.38
351.354	242.61
351.737	242.61
352.119	249.39
352.502	281.7
352.884	305.43
353.267	290.51
353.65	305.66
354.032	310.4
354.414	318.08
354.797	323.96
355.179	319.44
355.562	342.27
355.944	330.74
356.326	339.33
356.709	343.85
357.091	320.8
357.473	358.08
357.855	332.32
358.238	333.23
358.62	346.33
359.002	337.52
359.384	358.54
359.766	344.3
360.148	323.51
360.53	346.56
360.912	356.95
361.294	337.29
361.676	338.2
362.057	313.79
362.439	338.2
362.821	340.91
363.203	330.29
363.584	327.35
363.966	333.45
364.348	336.84
364.729	347.24
365.111	318.08
365.493	317.86
365.874	319.89
366.256	334.36
366.637	320.34
367.019	329.61
367.4	335.71
367.781	325.09
368.163	314.02
368.544	291.64
368.925	323.96
369.306	303.85
369.688	311.31
370.069	292.32
370.45	312.21
370.831	306.11
371.212	322.83
371.593	323.06
371.974	325.99
372.355	321.25
372.736	315.37
373.117	316.95
373.498	321.93
373.879	316.05
374.26	318.99
374.641	335.03
375.021	302.27
375.402	316.28
375.783	330.51
376.163	323.06
376.544	317.63
376.925	342.94
377.305	324.86
377.686	329.84
378.066	315.83
378.447	334.13
378.827	346.11
379.208	322.6
379.588	337.07
379.968	324.64
380.349	346.33
380.729	353.34
381.109	344.98
381.489	335.49
381.87	336.16
382.25	337.52
382.63	350.17
383.01	344.07
383.39	352.43
383.77	343.17
384.15	335.03
384.53	363.96
384.91	335.03
385.29	363.28
385.67	350.4
386.049	348.59
386.429	328.25
386.809	348.37
387.189	326.45
387.568	325.09
387.948	363.28
388.328	358.31
388.707	363.73
389.087	370.74
389.466	370.29
389.846	348.14
390.225	374.35
390.605	357.41
390.984	373.22
391.363	356.95
391.743	363.96
392.122	355.15
392.501	387.91
392.881	386.78
393.26	370.74
393.639	367.35
394.018	373.9
394.397	395.14
394.776	362.38
395.155	372.77
395.534	380.68
395.913	370.74
396.292	367.12
396.671	397.18
397.05	388.14
397.429	396.27
397.808	382.72
398.186	379.55
398.565	385.65
398.944	413.45
399.323	384.07
399.701	384.07
400.08	380.46
400.458	388.82
400.837	413.9
401.215	386.33
401.594	413.9
401.972	408.93
402.351	375.48
402.729	400.57
403.107	396.05
403.486	410.74
403.864	394.69
404.242	406.67
404.62	392.21
404.999	403.51
405.377	411.64
405.755	431.98
406.133	410.96
406.511	405.99
406.889	424.75
407.267	427.69
407.645	435.82
408.023	431.08
408.401	437.63
408.779	418.42
409.156	422.71
409.534	437.63
409.912	439.21
410.29	429.95
410.667	439.44
411.045	433.34
411.422	439.66
411.8	439.44
412.178	467.01
412.555	435.6
412.933	451.64
413.31	457.74
413.687	480.11
414.065	475.59
414.442	459.55
414.819	461.36
415.197	464.3
415.574	468.36
415.951	481.02
416.328	486.44
416.705	485.09
417.082	468.14
417.46	484.86
417.837	475.14
418.214	510.85
418.591	486.44
418.967	493.22
419.344	479.66
419.721	497.52
420.098	486.89
420.475	477.63
420.852	497.29
421.228	515.37
421.605	519.66
421.982	521.47
422.358	507.23
422.735	519.89
423.111	541.81
423.488	527.12
423.864	539.1
424.241	526.44
424.617	512.66
424.994	531.19
425.37	537.74
425.746	525.09
426.123	549.27
426.499	533.67
426.875	528.7
427.251	540.23
427.627	542.49
428.003	553.56
428.379	561.02
428.756	554.46
429.132	578.42
429.507	590.85
429.883	577.29
430.259	586.55
430.635	594.91
431.011	594.69
431.387	584.07
431.763	602.6
432.138	593.78
432.514	595.37
432.89	598.53
433.265	604.18
433.641	645.53
434.016	620.45
434.392	634.69
434.767	655.48
435.143	626.55
435.518	648.7
435.894	633.1
436.269	685.76
436.644	669.04
437.02	664.74
437.395	664.52
437.77	698.87
438.145	668.81
438.52	688.92
438.895	668.58
439.271	686.89
439.646	694.57
440.021	703.39
440.395	683.95
440.77	704.74
441.145	710.16
441.52	709.26
441.895	721.92
442.27	726.66
442.645	706.32
443.019	726.89
443.394	732.99
443.769	716.04
444.143	724.4
444.518	738.19
444.892	709.26
445.267	768.02
445.641	772.08
446.016	739.54
446.39	763.5
446.764	750.39
447.139	768.02
447.513	778.41
447.887	784.51
448.262	796.94
448.636	785.87
449.01	798.52
449.384	798.75
449.758	773.44
450.132	806.43
450.506	823.83
450.88	806.66
451.254	812.76
451.628	829.03
452.002	834.23
452.376	856.38
452.75	859.09
453.123	843.04
453.497	821.57
453.871	864.29
454.244	871.06
454.618	887.34
454.992	885.98
455.365	895.92
455.739	897.28
456.112	898.86
456.486	944.28
456.859	947.67
457.232	950.61
457.606	938.86
457.979	944.96
458.352	991.97
458.725	995.58
459.099	1014.56
459.472	992.64
459.845	1022.7
460.218	1013.89
460.591	1038.52
460.964	1031.29
461.337	1061.57
461.71	1079.42
462.083	1094.11
462.456	1087.1
462.829	1089.14
463.201	1113.32
463.574	1118.29
463.947	1162.13
464.32	1151.51
464.692	1181.56
465.065	1160.55
465.438	1209.81
465.81	1214.11
466.183	1223.15
466.555	1237.38
466.928	1278.96
467.3	1256.14
467.672	1316.93
468.045	1310.38
468.417	1337.27
468.789	1318.74
469.161	1352.86
469.534	1409.13
469.906	1408.23
470.278	1455
470.65	1454.78
471.022	1468.79
471.394	1532.52
471.766	1569.8
472.138	1569.13
472.51	1584.04
472.882	1634.43
473.253	1643.25
473.625	1677.82
473.997	1781.78
474.369	1795.56
474.74	1811.15
475.112	1843.92
475.484	1893.41
475.855	1936.35
476.227	1976.8
476.598	2014.76
476.97	2078.26
477.341	2138.83
477.713	2181.76
478.084	2200.3
478.455	2290.24
478.827	2339.5
479.198	2413.17
479.569	2473.06
479.94	2560.74
480.311	2652.26
480.682	2715.54
481.053	2783.78
481.424	2863.33
481.795	2933.61
482.166	3023.32
482.537	3131.8
482.908	3171.57
483.279	3288.4
483.65	3357.1
484.021	3467.61
484.391	3585.12
484.762	3659.47
485.133	3733.81
485.503	3827.15
485.874	3933.81
486.244	4081.38
486.615	4193.46
486.985	4275.27
487.356	4444.76
487.726	4561.14
488.097	4654.24
488.467	4738.99
488.837	4918.64
489.207	5032.54
489.578	5159.77
489.948	5310.95
490.318	5436.37
490.688	5543.94
491.058	5670.71
491.428	5857.37
491.798	5916.58
492.168	6163.13
492.538	6254.65
492.908	6325.84
493.278	6527.87
493.648	6635.66
494.017	6792.72
494.387	6858.25
494.757	7063.67
495.126	7181.63
495.496	7345.02
495.866	7419.37
496.235	7657.55
496.605	7687.16
496.974	7864.33
497.344	8013.93
497.713	8096.19
498.082	8272.9
498.452	8461.15
498.821	8568.04
499.19	8662.5
499.559	8773.46
499.928	8885.09
500.298	9049.15
500.667	9259.09
501.036	9300
501.405	9419.09
501.774	9499.99
502.143	9716.93
502.512	9821.79
502.88	9968.23
503.249	10014.55
503.618	10099.3
503.987	10200.54
504.356	10388.1
504.724	10489.34
505.093	10580.41
505.462	10628.32
505.83	10823.8
506.199	10988.76
506.567	11158.93
506.936	11074.64
507.304	11263.11
507.672	11376.1
508.041	11487.06
508.409	11612.25
508.777	11760.5
509.145	11901.74
509.514	11906.93
509.882	12102.86
510.25	12158.23
510.618	12271.89
510.986	12249.75
511.354	12502.62
511.722	12587.37
512.09	12644.77
512.458	12673.01
512.826	12925.89
513.193	12925.66
513.561	12999.33
513.929	13076.39
514.297	13242.49
514.664	13362.04
515.032	13400.45
515.4	13551.41
515.767	13542.14
516.135	13692.65
516.502	13737.39
516.869	13931.29
517.237	13989.14
517.604	13944.62
517.972	14158.62
518.339	14238.62
518.706	14265.74
519.073	14402.91
519.44	14409.24
519.808	14587.31
520.175	14572.85
520.542	14824.6
520.909	14907.31
521.276	14824.37
521.643	15105.27
522.009	15124.7
522.376	15246.73
522.743	15279.05
523.11	15477.23
523.477	15610.79
523.843	15700.73
524.21	15730.11
524.577	15851.24
524.943	15910.22
525.31	16058.01
525.676	16132.36
526.043	16222.07
526.409	16368.96
526.776	16500.71
527.142	16434.27
527.508	16561.27
527.874	16624.1
528.241	16708.84
528.607	16735.96
528.973	16921.26
529.339	16854.6
529.705	17042.39
530.071	17066.35
530.437	17194.48
530.803	17280.8
531.169	17231.31
531.535	17235.61
531.901	17350.63
532.267	17398.77
532.632	17476.73
532.998	17490.97
533.364	17639.66
533.73	17592.88
534.095	17771.86
534.461	17836.95
534.826	17836.95
535.192	17933.89
535.557	18025.64
535.923	17971.18
536.288	18041.91
536.653	18021.57
537.019	18052.31
537.384	18110.16
537.749	18162.36
538.114	18109.03
538.479	18077.84
538.845	18152.19
539.21	18170.95
539.575	18188.58
539.94	18227.22
540.305	18282.81
540.67	18286.88
541.034	18304.96
541.399	18456.59
541.764	18345.86
542.129	18474.9
542.494	18415.69
542.858	18396.48
543.223	18464.95
543.587	18493.88
543.952	18533.43
544.316	18555.57
544.681	18551.5
545.045	18636.7
545.41	18697.49
545.774	18645.29
546.138	18686.42
546.503	18683.25
546.867	18690.03
547.231	18818.62
547.595	18758.05
547.959	18838.5
548.324	18772.29
548.688	18820.2
549.052	18815
549.416	18761.44
549.779	18888.44
550.143	18851.61
550.507	19047.99
550.871	18995.33
551.235	18968.22
551.599	19113.75
551.962	19002.11
552.326	19068.78
552.689	19150.13
553.053	19012.73
553.417	19111.04
553.78	19360.3
554.143	19179.28
554.507	19312.84
554.87	19262.45
555.234	19414.08
555.597	19298.83
555.96	19287.08
556.323	19372.05
556.686	19377.47
557.05	19419.73
557.413	19492.04
557.776	19601.42
558.139	19583.34
558.502	19600.97
558.865	19645.03
559.228	19732.49
559.59	19791.47
559.953	19898.36
560.316	19893.16
560.679	19954.18
561.041	20068.53
561.404	20119.6
561.767	20231.46
562.129	20130.45
562.492	20257.45
562.854	20253.38
563.217	20301.29
563.579	20284.79
563.941	20447.73
564.304	20504.9
564.666	20559.59
565.028	20528.17
565.39	20606.82
565.753	20728.85
566.115	20705.12
566.477	20811.33
566.839	20881.61
567.201	21017.88
567.563	21009.07
567.925	21089.06
568.287	21027.6
568.648	21125.9
569.01	21244.99
569.372	21290.87
569.734	21277.08
570.095	21510.07
570.457	21504.19
570.819	21460.58
571.18	21495.61
571.542	21617.41
571.903	21572.44
572.265	21633.23
572.626	21687.24
572.987	21705.32
573.349	21856.95
573.71	21808.14
574.071	21806.79
574.432	21869.61
574.794	22138.3
575.155	22044.75
575.516	21912.55
575.877	22083.61
576.238	22018.31
576.599	22160.22
576.96	22166.32
577.32	22182.82
577.681	22228.92
578.042	22310.27
578.403	22332.2
578.763	22234.57
579.124	22297.85
579.485	22325.64
579.845	22482.02
580.206	22497.39
580.566	22442.25
580.927	22374.23
581.287	22496.71
581.648	22491.06
582.008	22599.08
582.368	22592.98
582.728	22588.23
583.089	22460.33
583.449	22423.94
583.809	22560.89
584.169	22594.11
584.529	22514.34
584.889	22593.88
585.249	22428.01
585.609	22395.47
585.969	22553.43
586.329	22552.08
586.688	22534
587.048	22550.27
587.408	22418.75
587.768	22563.38
588.127	22537.61
588.487	22534.68
588.846	22601.34
589.206	22450.38
589.565	22462.36
589.925	22616.71
590.284	22529.7
590.643	22574.45
591.003	22555.92
591.362	22636.37
591.721	22584.62
592.08	22488.12
592.44	22565.86
592.799	22613.32
593.158	22563.38
593.517	22649.48
593.876	22575.58
594.235	22569.25
594.593	22578.29
594.952	22564.05
595.311	22555.92
595.67	22608.35
596.029	22676.14
596.387	22716.59
596.746	22691.06
597.104	22637.27
597.463	22625.07
597.822	22721.79
598.18	22595.01
598.538	22677.5
598.897	22696.25
599.255	22491.29
599.613	22915.91
599.972	22665.75
600.33	22760.66
600.688	22584.62
601.046	22762.24
601.404	22800.88
601.762	22919.52
602.12	22897.15
602.478	22833.2
602.836	22845.4
603.194	22668.23
603.552	22847.21
603.91	22769.7
604.268	22895.57
604.625	22854.67
604.983	22964.95
605.341	22948.9
605.698	22975.79
606.056	23096.24
606.413	22964.04
606.771	22971.05
607.128	22919.07
607.485	22932.63
607.843	22971.05
608.2	23168.78
608.557	23180.08
608.914	23077.26
609.272	23176.92
609.629	23257.37
609.986	23244.49
610.343	23225.51
610.7	23379.85
611.057	23317.25
611.414	23306.63
611.771	23320.42
612.127	23413.3
612.484	23372.39
612.841	23439.06
613.198	23297.14
613.554	23434.09
613.911	23554.54
614.267	23601.99
614.624	23606.51
614.98	23611.71
615.337	23708.66
615.693	23680.86
616.05	23691.48
616.406	23733.51
616.762	23734.64
617.118	23695.78
617.475	23790.24
617.831	23807.86
618.187	23852.83
618.543	23795.21
618.899	24009.89
619.255	23899.39
619.611	23879.95
619.967	23936.9
620.323	23992.94
620.678	23983
621.034	23928.99
621.39	23944.58
621.746	23935.54
622.101	24167.85
622.457	24011.93
622.812	24068.87
623.168	24263.44
623.523	24103.22
623.879	24199.04
624.234	24085.82
624.589	24176.21
624.945	24196.33
625.3	24200.85
625.655	24182.09
626.01	24211.69
626.365	24238.59
626.72	24144.13
627.075	24098.93
627.43	24053.05
627.785	24130.34
628.14	24193.84
628.495	24301.41
628.85	24098.25
629.205	23990.91
629.559	24244.01
629.914	24102.77
630.269	24160.4
630.623	24180.73
630.978	23934.19
631.332	24168.98
631.687	24123.79
632.041	23927.63
632.396	24024.58
632.75	23938.48
633.104	23977.58
633.459	23956.11
633.813	23896
634.167	23863.23
634.521	23830.01
634.875	23822.55
635.229	23900.29
635.583	23821.2
635.937	23774.42
636.291	23802.21
636.645	23767.64
636.999	23686.74
637.352	23730.58
637.706	23675.89
638.06	23726.51
638.413	23687.64
638.767	23721.09
639.121	23721.99
639.474	23576.46
639.828	23564.93
640.181	23574.87
640.534	23580.52
640.888	23453.75
641.241	23423.92
641.594	23481.09
641.947	23494.2
642.301	23429.12
642.654	23399.06
643.007	23441.77
643.36	23497.14
643.713	23445.61
644.066	23574.2
644.419	23338.95
644.771	23235.22
645.124	22988.68
645.477	22949.13
645.83	22803.6
646.182	22851.5
646.535	22616.03
646.888	22772.41
647.24	22654.45
647.593	22753.2
647.945	22728.34
648.298	22518.86
648.65	22547.33
649.002	22481.8
649.355	22612.41
649.707	22557.95
650.059	22668.23
650.411	22801.56
650.763	22842.46
651.115	23239.52
651.467	23124.04
651.819	23193.64
652.171	23079.29
652.523	23133.3
652.875	23070.93
653.227	23005.85
653.578	23096.47
653.93	23118.39
654.282	22970.82
654.633	23076.13
654.985	22922.01
655.337	23051.5
655.688	23011.73
656.039	23119.07
656.391	22966.08
656.742	22912.74
657.094	23012.4
657.445	23053.76
657.796	22976.92
658.147	22987.32
658.498	22990.48
658.849	22936.02
659.2	23001.78
659.551	22864.16
659.902	22945.29
660.253	22982.35
660.604	23038.39
660.955	22876.59
661.306	22929.02
661.656	22936.93
662.007	22953.87
662.358	22953.2
662.708	22871.62
663.059	22934.89
663.409	22811.5
663.76	22911.62
664.11	22953.65
664.461	22970.82
664.811	22978.51
665.161	22935.12
665.511	22909.36
665.862	23011.73
666.212	23104.15
666.562	23095.79
666.912	22993.42
667.262	23047.43
667.612	22985.06
667.962	23131.27
668.312	22892.86
668.662	23077.94
669.011	22986.19
669.361	22907.32
669.711	22885.4
670.06	22932.63
670.41	22879.3
670.76	22824.84
671.109	22870.26
671.459	22785.29
671.808	22790.71
672.157	22839.98
672.507	22692.41
672.856	22821.22
673.205	22808.57
673.554	22734.67
673.904	22731.73
674.253	22877.04
674.602	22855.8
674.951	22441.34
675.3	22339.43
675.649	22751.17
675.998	22663.94
676.346	22642.47
676.695	22774.67
677.044	22486.77
677.393	22711.85
677.741	22731.96
678.09	22519.76
678.438	22542.81
678.787	22554.56
679.135	22556.37
679.484	22409.26
679.832	22408.58
680.181	22391.18
680.529	22364.06
680.877	22320.22
681.225	22356.83
681.573	22463.72
681.922	22261.91
682.27	22189.83
682.618	22263.72
682.966	22053.11
683.314	22181.01
683.661	22175.14
684.009	21893.56
684.357	22022.15
684.705	21915.48
685.053	21918.87
685.4	21885.43
685.748	21795.26
686.095	21766.79
686.443	21734.47
686.79	21713.91
687.138	21696.51
687.485	21673.68
687.832	21543.74
688.18	21627.58
688.527	21431.2
688.874	21468.94
689.221	21339
689.568	21294.93
689.915	21246.8
690.262	21183.07
690.609	21144.88
690.956	21120.25
691.303	21082.96
691.65	21025.56
691.997	21032.57
692.344	20889.75
692.69	20885.45
693.037	20863.08
693.383	20667.61
693.73	20779.47
694.077	20551.45
694.423	20585.35
694.769	20552.58
695.116	20576.08
695.462	20445.47
695.808	20405.69
696.155	20444.56
696.501	20219.93
696.847	20229.43
697.193	20078.92
697.539	20216.32
697.885	19950.34
698.231	19939.04
698.577	19865.37
698.923	19877.8
699.269	19794.41
699.614	19680.97
699.96	19649.1
700.306	19593.28
700.651	19515.09
700.997	19437.58
701.342	19401.88
701.688	19316.46
702.033	19248.89
702.379	19227.64
702.724	19181.77
703.069	19175.44
703.415	19000.31
703.76	18999.4
704.105	18922.57
704.45	18894.55
704.795	18816.36
705.14	18750.82
705.485	18803.02
705.83	18585.18
706.175	18600.54
706.52	18518.74
706.865	18509.92
707.209	18531.17
707.554	18402.36
707.899	18462.47
708.243	18452.07
708.588	18290.72
708.932	18113.32
709.277	18051.86
709.621	18193.32
709.966	18029.26
710.31	18104.51
710.654	17979.54
710.998	17948.13
711.342	17937.96
711.687	17817.29
712.031	17809.38
712.375	17743.39
712.719	17831.52
713.063	17726.89
713.407	17867
713.75	17722.37
714.094	17690.06
714.438	17501.36
714.782	17660.45
715.125	17453.45
715.469	17530.06
715.812	17503.4
716.156	17333.91
716.499	17345.89
716.843	17427.69
717.186	17304.76
717.53	17322.61
717.873	17298.43
718.216	17291.88
718.559	17261.37
718.902	17034.93
719.246	17107.02
719.589	17011.21
719.932	17010.98
720.275	16942.28
720.617	16992
720.96	16927.37
721.303	16922.39
721.646	16935.05
721.989	16855.28
722.331	16952.9
722.674	16872.68
723.016	16922.85
723.359	16762.85
723.701	16846.46
724.044	16780.02
724.386	16617.32
724.729	16817.09
725.071	16769.63
725.413	16706.58
725.755	16695.06
726.097	16628.16
726.439	16587.71
726.782	16544.32
727.124	16639.92
727.465	16636.53
727.807	16507.49
728.149	16460.94
728.491	16570.54
728.833	16555.62
729.175	16460.71
729.516	16338.91
729.858	16384.56
730.199	16472.46
730.541	16425.23
730.882	16435.63
731.224	16458
731.565	16319.7
731.906	16283.09
732.248	16313.37
732.589	16317.89
732.93	16218.23
733.271	16296.65
733.612	16319.7
733.953	16241.51
734.294	16223.2
734.635	16174.17
734.976	16183.2
735.317	16173.04
735.658	16269.98
735.999	16312.92
736.339	16140.95
736.68	16311.79
737.021	16128.29
737.361	16115.18
737.702	16112.7
738.042	16185.46
738.383	16157.44
738.723	16168.74
739.063	16131.45
739.404	16210.1
739.744	16110.44
740.084	16057.11
740.424	16122.87
740.764	16089.2
741.104	16171.45
741.444	16085.81
741.784	16117.44
742.124	16085.13
742.464	16033.15
742.804	16036.32
743.143	16144.79
743.483	16218.91
743.823	16101.4
744.162	16112.47
744.502	16066.37
744.841	16103.66
745.181	16279.7
745.52	16194.28
745.86	16272.02
746.199	16239.7
746.538	16272.02
746.877	16311.34
747.216	16333.26
747.556	16293.71
747.895	16418.68
748.234	16357.21
748.573	16393.82
748.911	16338.23
749.25	16458.23
749.589	16488.73
749.928	16494.38
750.267	16534.61
750.605	16535.29
750.944	16596.75
751.283	16624.32
751.621	16673.81
751.96	16782.28
752.298	16852.11
752.636	16923.52
752.975	16850.76
753.313	16926.91
753.651	17129.39
753.989	17085.78
754.327	17074.03
754.666	17167.13
755.004	17290.97
755.342	17423.62
755.679	17329.39
756.017	17326.9
756.355	17460.91
756.693	17565.09
757.031	17663.39
757.368	17564.64
757.706	17703.62
758.044	17732.09
758.381	17853.89
758.719	17850.73
759.056	18001.69
759.394	17959.2
759.731	18010.5
760.068	18106.54
760.405	18152.64
760.743	18230.83
761.08	18208.24
761.417	18375.24
761.754	18423.37
762.091	18376.82
762.428	18433.54
762.765	18433.31
763.102	18490.04
763.438	18480.32
763.775	18553.09
764.112	18666.08
764.449	18666.08
764.785	18698.17
765.122	18677.83
765.458	18735
765.795	18749.92
766.131	18872.17
766.467	18688.68
766.804	18757.6
767.14	18742.91
767.476	18803.25
767.812	18801.44
768.148	18896.13
768.485	18799.63
768.821	18777.71
769.157	18831.27
769.492	18795.57
769.828	18820.88
770.164	18802.8
770.5	18787.66
770.836	18809.35
771.171	18819.97
771.507	18783.59
771.842	18685.74
772.178	18770.71
772.513	18753.98
772.849	18703.59
773.184	18647.09
773.519	18755.34
773.855	18620.88
774.19	18488.23
774.525	18638.73
774.86	18632.18
775.195	18460.21
775.53	18443.94
775.865	18471.96
776.2	18332.98
776.535	18223.15
776.87	18405.07
777.205	18294.11
777.539	18146.99
777.874	18302.24
778.209	18116.94
778.543	18057.96
778.878	18007.79
779.212	17992.2
779.547	17852.77
779.881	17985.87
780.215	17903.16
780.55	17882.82
780.884	17864.52
781.218	17750.17
781.552	17853.89
781.886	17683.73
782.22	17670.17
782.554	17591.98
782.888	17383.17
783.222	17439.89
783.556	17350.86
783.889	17419.56
784.223	17253.01
784.557	17184.31
784.89	17266.79
785.224	17123.07
785.557	17113.35
785.891	17093.91
786.224	16948.61
786.558	17091.2
786.891	16914.03
787.224	16829.74
787.557	16815.5
787.891	16812.57
788.224	16853.7
788.557	16720.37
788.89	16627.94
789.223	16622.97
789.556	16472.01
789.888	16431.56
790.221	16475.17
790.554	16302.75
790.887	16343.43
791.219	16303.2
791.552	16222.3
791.884	16212.36
792.217	16251.45
792.549	16068.63
792.882	15964.91
793.214	15994.96
793.546	15968.97
793.879	15784.57
794.211	15722.2
794.543	15881.29
794.875	15680.62
795.207	15728.75
795.539	15615.08
795.871	15738.24
796.203	15556.1
796.535	15424.13
796.867	15459.38
797.198	15412.83
797.53	15373.73
797.862	15264.58
798.193	15381.87
798.525	15188.2
798.856	15239.5
799.188	15018.94
799.519	14975.33
799.85	15024.82
800.182	14980.3
800.513	14988.89
800.844	14821.21
801.175	14885.16
801.506	14862.79
801.837	14840.41
802.168	14797.48
802.499	14623.25
802.83	14660.53
803.161	14550.03
803.491	14633.41
803.822	14504.83
804.153	14517.71
804.483	14426.41
804.814	14381.9
805.145	14409.69
805.475	14361.11
805.805	14217.38
806.136	14298.73
806.466	14144.84
806.796	14313.42
807.126	14125.41
807.457	14118.85
807.787	14112.3
808.117	13962.47
808.447	13867.56
808.777	13975.35
809.107	13960.21
809.436	13904.85
809.766	13879.08
810.096	13844.28
810.426	13823.27
810.755	13778.07
811.085	13733.78
811.414	13747.79
811.744	13577.17
812.073	13606.55
812.403	13587.57
812.732	13536.27
813.061	13504.4
813.39	13404.75
813.719	13355.48
814.049	13511.86
814.378	13444.52
814.707	13335.14
815.036	13303.28
815.365	13202.27
815.693	13143.74
816.022	13178.09
816.351	13087.69
816.68	13013.8
817.008	13110.74
817.337	12974.93
817.665	12971.31
817.994	13043.63
818.322	12980.35
818.651	12924.08
818.979	12870.07
819.307	12790.53
819.636	12816.74
819.964	12785.55
820.292	12812.9
820.62	12913.01
820.948	12727.93
821.276	12817.19
821.604	12801.6
821.932	12791.2
822.259	12757.08
822.587	12725.22
822.915	12666.23
823.243	12782.62
823.57	12670.3
823.898	12759.79
824.225	12685.44
824.553	12681.15
824.88	12709.85
825.207	12744.42
825.535	12666.91
825.862	12750.75
826.189	12681.38
826.516	12671.88
826.843	12740.81
827.17	12805.21
827.497	12697.87
827.824	12682.28
828.151	12736.74
828.478	12673.01
828.805	12771.09
829.131	12680.47
829.458	12641.6
829.785	12520.93
830.111	12612.45
830.438	12669.4
830.764	12585.33
831.09	12660.59
831.417	12622.62
831.743	12674.14
832.069	12640.47
832.395	12598.44
832.722	12607.93
833.048	12615.61
833.374	12677.53
833.7	12582.85
834.026	12589.63
834.351	12541.72
834.677	12591.21
835.003	12557.31
835.329	12484.09
835.654	12490.19
835.98	12452.46
836.306	12475.96
836.631	12459.23
836.956	12433.92
837.282	12514.83
837.607	12362.97
837.932	12371.55
838.258	12348.05
838.583	12399.58
838.908	12272.57
839.233	12289.75
839.558	12317.32
839.883	12225.57
840.208	12223.08
840.533	12237.09
840.858	12203.87
841.182	12219.24
841.507	12168.62
841.832	12085.46
842.156	12060.15
842.481	12143.76
842.805	12125.68
843.13	11973.6
843.454	12052.69
843.778	12005.46
844.103	11879.59
844.427	11901.74
844.751	11875.97
845.075	11805.47
845.399	11791
845.723	11746.26
846.047	11804.56
846.371	11609.77
846.695	11654.96
847.019	11551.91
847.343	11497.9
847.666	11475.31
847.99	11446.61
848.313	11417.45
848.637	11275.54
848.96	11342.65
849.284	11263.11
849.607	11226.95
849.931	11160.06
850.254	11089.33
850.577	11042.32
850.9	10999.16
851.223	11028.54
851.546	10966.62
851.869	10860.63
852.192	11006.39
852.515	10897.92
852.838	10790.8
853.161	10766.85
853.483	10688.66
853.806	10663.8
854.129	10656.12
854.451	10676.68
854.774	10623.8
855.096	10578.38
855.419	10573.86
855.741	10460.87
856.063	10414.32
856.385	10406.41
856.708	10351.72
857.03	10309.91
857.352	10344.94
857.674	10304.71
857.996	10347.88
858.318	10219.29
858.64	10222.91
858.961	10163.25
859.283	10049.13
859.605	10038.28
859.926	10119.86
860.248	10068.56
860.57	10014.78
860.891	10035.12
861.212	9939.3
861.534	9892.97
861.855	9950.83
862.176	9885.06
862.498	9967.55
862.819	9874.44
863.14	9872.41
863.461	9800.32
863.782	9751.06
864.103	9766.2
864.424	9780.21
864.745	9776.14
865.065	9709.25
865.386	9705.63
865.707	9700.21
866.027	9736.14
866.348	9625.41
866.668	9690.49
866.989	9621.12
867.309	9534.79
867.63	9550.16
867.95	9564.4
868.27	9556.94
868.59	9517.84
868.91	9507
869.23	9515.81
869.55	9428.58
869.87	9551.51
870.19	9459.77
870.51	9499.54
870.83	9502.25
871.15	9509.93
871.469	9402.59
871.789	9399.88
872.109	9414.12
872.428	9343.16
872.748	9337.73
873.067	9336.6
873.386	9322.14
873.706	9279.21
874.025	9235.82
874.344	9296.83
874.663	9280.56
874.982	9224.97
875.301	9315.14
875.62	9220.9
875.939	9161.47
876.258	9176.38
876.577	9173.45
876.896	9151.3
877.214	9064.75
877.533	9093.22
877.852	9126.21
878.17	9090.96
878.489	9075.37
878.807	9081.7
879.125	9025.43
879.444	8965.09
879.762	8989.5
880.08	9014.35
880.398	8975.03
880.716	9022.04
881.034	8968.48
881.352	8936.84
881.67	8897.07
881.988	8899.33
882.306	8835.83
882.624	8921.93
882.941	8763.96
883.259	8776.39
883.577	8756.96
883.894	8716.96
884.212	8709.95
884.529	8695.27
884.846	8690.75
885.164	8697.3
885.481	8642.84
885.798	8622.95
886.115	8577.53
886.432	8672.44
886.75	8532.33
887.067	8559.22
887.383	8489.85
887.7	8526
888.017	8538.43
888.334	8496.4
888.651	8524.42
888.967	8492.56
889.284	8356.74
889.6	8388.16
889.917	8294.37
890.233	8382.05
890.55	8307.25
890.866	8332.56
891.182	8239.91
891.498	8235.62
891.815	8201.49
892.131	8160.82
892.447	8203.75
892.763	8136.41
893.079	8120.59
893.395	8062.06
893.71	8100.48
894.026	8072.46
894.342	8070.88
894.657	7974.15
894.973	8001.27
895.289	7915.17
895.604	7947.71
895.92	7843.31
896.235	7867.04
896.55	7819.36
896.865	7836.53
897.181	7828.62
897.496	7825.91
897.811	7761.05
898.126	7671.11
898.441	7696.87
898.756	7715.18
899.071	7599.93
899.386	7661.17
899.7	7552.92
900.015	7519.03
900.33	7513.83
900.644	7487.16
900.959	7497.11
901.273	7408.07
901.588	7361.52
901.902	7373.72
902.216	7347.5
902.531	7361.06
902.845	7264.34
903.159	7248.98
903.473	7200.84
903.787	7206.27
904.101	7187.28
904.415	7165.36
904.729	7137.11
905.042	7121.97
905.356	7061.86
905.67	7070.9
905.984	7043.33
906.297	7002.43
906.611	7005.14
906.924	6963.11
907.237	6928.31
907.551	6924.92
907.864	6859.83
908.177	6812.6
908.491	6848.76
908.804	6787.29
909.117	6808.54
909.43	6780.06
909.743	6722.21
910.056	6700.52
910.368	6675.88
910.681	6661.87
910.994	6584.59
911.307	6638.82
911.619	6527.41
911.932	6563.34
912.244	6464.59
912.557	6434.08
912.869	6468.21
913.181	6444.03
913.494	6402.44
913.806	6352.28
914.118	6359.73
914.43	6316.12
914.742	6305.72
915.054	6327.64
915.366	6208.55
915.678	6260.08
915.99	6187.54
916.302	6191.15
916.613	6111.15
916.925	6141.43
917.236	6091.04
917.548	6090.59
917.859	6057.59
918.171	6001.78
918.482	5979.4
918.794	5966.52
919.105	5936.92
919.416	5948.67
919.727	5907.99
920.038	5849.24
920.349	5863.93
920.66	5819.86
920.971	5843.36
921.282	5762.69
921.593	5718.39
921.903	5763.59
922.214	5763.14
922.525	5715.68
922.835	5670.03
923.146	5655.8
923.456	5653.99
923.767	5623.93
924.077	5593.88
924.387	5558.17
924.697	5536.48
925.008	5510.72
925.318	5511.39
925.628	5478.63
925.938	5447.44
926.248	5374.45
926.558	5400.89
926.867	5382.58
927.177	5317.28
927.487	5293.1
927.796	5280.44
928.106	5249.71
928.416	5264.4
928.725	5242.25
929.034	5214.45
929.344	5240.67
929.653	5173.32
929.962	5187.56
930.271	5127.45
930.581	5077.51
930.89	5022.37
931.199	5026.89
931.508	5053.33
931.817	5013.78
932.125	5065.53
932.434	4981.69
932.743	4981.24
933.051	4933.33
933.36	4931.97
933.669	4864.86
933.977	4920.9
934.286	4870.28
934.594	4827.12
934.902	4760.45
935.21	4819.21
935.519	4786.67
935.827	4733.56
936.135	4742.38
936.443	4674.58
936.751	4678.65
937.059	4666.9
937.367	4664.41
937.674	4619.89
937.982	4673.22
938.29	4571.08
938.597	4578.09
938.905	4570.18
939.213	4549.39
939.52	4475.94
939.827	4481.59
940.135	4441.59
940.442	4476.17
940.749	4480.69
941.056	4433.68
941.363	4418.77
941.67	4399.11
941.977	4311.43
942.284	4288.6
942.591	4322.5
942.898	4323.63
943.205	4309.62
943.511	4290.86
943.818	4262.61
944.125	4247.02
944.431	4245.89
944.738	4202.05
945.044	4193.69
945.35	4172.9
945.657	4091.77
945.963	4147.36
946.269	4130.19
946.575	4128.38
946.881	4086.12
947.187	4021.04
947.493	4041.15
947.799	4013.35
948.105	4067.36
948.41	4003.86
948.716	3975.84
949.022	3951.66
949.327	3954.15
949.633	3939.91
949.938	3922.51
950.244	3934.49
950.549	3905.11
950.854	3855.62
951.16	3870.08
951.465	3833.25
951.77	3780.82
952.075	3815.39
952.38	3760.48
952.685	3790.99
952.99	3738.11
953.294	3739.24
953.599	3714.61
953.904	3716.41
954.209	3694.49
954.513	3673.7
954.818	3629.64
955.122	3591.67
955.426	3658.79
955.731	3615.85
956.035	3585.57
956.339	3547.38
956.643	3553.25
956.948	3537.89
957.252	3503.31
957.556	3548.96
957.86	3489.53
958.163	3460.38
958.467	3443.43
958.771	3482.97
959.075	3427.83
959.378	3383.77
959.682	3399.81
959.985	3402.52
960.289	3369.08
960.592	3370.43
960.896	3359.59
961.199	3360.26
961.502	3279.14
961.805	3311
962.108	3285.01
962.411	3294.28
962.714	3255.86
963.017	3286.14
963.32	3286.59
963.623	3239.59
963.926	3235.07
964.228	3202.98
964.531	3177.44
964.833	3153.04
965.136	3137.45
965.438	3144.23
965.741	3152.59
966.043	3148.97
966.345	3110.55
966.648	3140.84
966.95	3122.08
967.252	3064.91
967.554	3023.78
967.856	3025.36
968.158	2979.94
968.46	3036.66
968.761	3005.92
969.063	2986.04
969.365	2964.57
969.666	2960.73
969.968	2940.61
970.269	2910.79
970.571	2924.8
970.872	2966.38
971.174	2881.63
971.475	2887.51
971.776	2902.2
972.077	2835.53
972.378	2847.06
972.679	2869.43
972.98	2835.53
973.281	2817.23
973.582	2846.38
973.883	2787.4
974.183	2733.16
974.484	2789.66
974.785	2787.4
975.085	2736.55
975.386	2747.17
975.686	2741.52
975.986	2708.98
976.287	2692.49
976.587	2642.09
976.887	2679.83
977.187	2661.53
977.487	2647.74
977.787	2659.72
978.087	2613.17
978.387	2606.61
978.687	2617.01
978.987	2593.73
979.286	2605.93
979.586	2591.25
979.885	2530.23
980.185	2571.81
980.484	2535.43
980.784	2541.08
981.083	2536.33
981.382	2498.59
981.682	2484.36
981.981	2455.2
982.28	2503.34
982.579	2468.31
982.878	2438.93
983.177	2454.75
983.475	2456.79
983.774	2418.37
984.073	2424.7
984.372	2380.4
984.67	2388.31
984.969	2402.32
985.267	2375.88
985.566	2329.11
985.864	2324.36
986.162	2352.16
986.461	2299.95
986.759	2344.25
987.057	2341.53
987.355	2293.4
987.653	2314.42
987.951	2293.17
988.249	2286.85
988.547	2256.11
988.844	2233.51
989.142	2218.15
989.44	2198.49
989.737	2205.04
990.035	2192.84
990.332	2183.35
990.63	2225.38
990.927	2191.26
991.224	2181.99
991.521	2153.52
991.819	2170.47
992.116	2150.58
992.413	2127.75
992.71	2114.65
993.006	2118.26
993.303	2139.73
993.6	2108.32
993.897	2076.68
994.193	2106.29
994.49	2065.16
994.787	2040.98
995.083	2041.2
995.379	2058.38
995.676	1991.94
995.972	1987.65
996.268	2002.33
996.565	1957.59
996.861	1967.76
997.157	1967.08
997.453	1966.4
997.749	1932.73
998.044	1966.18
998.34	1934.99
998.636	1913.98
998.932	1927.76
999.227	1890.47
999.523	1915.33
999.818	1890.02
1000.114	1872.17
1000.409	1840.53
1000.704	1823.81
1001	1862.45
1001.295	1824.71
1001.59	1851.83
1001.885	1851.38
1002.18	1818.61
1002.475	1838.5
1002.77	1802.11
1003.065	1759.63
1003.359	1762.79
1003.654	1764.15
1003.949	1758.5
1004.243	1764.37
1004.538	1732.51
1004.832	1738.16
1005.127	1726.41
1005.421	1735.22
1005.715	1709.23
1006.009	1685.51
1006.304	1692.06
1006.598	1641.44
1006.892	1680.31
1007.186	1660.42
1007.48	1660.42
1007.773	1651.16
1008.067	1633.98
1008.361	1630.14
1008.655	1616.58
1008.948	1593.98
1009.242	1588.79
1009.535	1584.94
1009.829	1551.95
1010.122	1574.77
1010.415	1565.06
1010.708	1552.4
1011.001	1563.48
1011.295	1513.31
1011.588	1524.61
1011.881	1534.55
1012.173	1526.41
1012.466	1516.7
1012.759	1488.22
1013.052	1464.95
1013.344	1467.89
1013.637	1498.84
1013.93	1481.22
1014.222	1460.2
1014.514	1458.85
1014.807	1437.83
1015.099	1454.33
1015.391	1417.26
1015.683	1428.11
1015.976	1423.82
1016.268	1398.96
1016.56	1392.63
1016.851	1375.91
1017.143	1367.77
1017.435	1375.01
1017.727	1381.11
1018.018	1331.39
1018.31	1340.66
1018.602	1355.12
1018.893	1336.36
1019.185	1332.3
1019.476	1299.98
1019.767	1296.36
1020.058	1291.62
1020.35	1302.69
1020.641	1277.83
1020.932	1260.88
1021.223	1271.05
1021.514	1263.37
1021.804	1239.42
1022.095	1246.42
1022.386	1229.7
1022.677	1204.84
1022.967	1208.91
1023.258	1210.04
1023.548	1219.53
1023.839	1159.42
1024.129	1154.22
1024.419	1172.75
1024.709	1174.79
1025	1171.85
1025.29	1150.83
1025.58	1149.25
1025.87	1127.78
1026.16	1119.42
1026.449	1125.07
1026.739	1130.04
1027.029	1131.4
1027.319	1081.23
1027.608	1112.41
1027.898	1088.01
1028.187	1083.26
1028.477	1081.91
1028.766	1065.18
1029.055	1040.33
1029.344	1037.84
1029.634	1064.73
1029.923	1060.66
1030.212	1036.26
1030.501	1029.93
1030.79	1039.87
1031.078	1006.65
1031.367	989.03
1031.656	997.84
1031.945	1019.54
1032.233	1006.88
1032.522	983.38
1032.81	986.54
1033.099	975.02
1033.387	971.63
1033.675	986.77
1033.963	965.07
1034.251	975.92
1034.54	936.37
1034.828	927.33
1035.116	934.57
1035.403	918.07
1035.691	945.41
1035.979	918.52
1036.267	918.07
1036.554	907.9
1036.842	904.96
1037.129	898.18
1037.417	867.67
1037.704	866.32
1037.992	869.71
1038.279	882.59
1038.566	868.13
1038.853	868.13
1039.14	868.13
