Data from hue_40_FLMS001491_80.txt Node
Date: Mon Feb 06 15:08:26 GMT 2017
User: dcchb
Spectrometer: FLMS00149
Trigger mode: 0
Integration Time (sec): 2.000000E-2
Scans to average: 10
Electric dark correction enabled: true
Nonlinearity correction enabled: false
Boxcar width: 0
XAxis mode: Wavelengths
Number of Pixels in Spectrum: 2048
>>>>>Begin Spectral Data<<<<<
341.393	-15.54
341.776	-15.54
342.16	-15.54
342.543	-46.72
342.927	-87.85
343.31	-67.74
343.693	-74.74
344.077	-75.87
344.46	-60.96
344.843	-53.5
345.226	-40.17
345.61	-23.67
345.993	-17.34
346.376	6.38
346.759	14.29
347.142	23.56
347.525	38.7
347.908	57
348.291	76.89
348.674	89.09
349.057	108.08
349.44	125.02
349.823	155.53
350.206	163.67
350.588	187.85
350.971	197.11
351.354	219.26
351.737	234.85
352.119	242.31
352.502	265.13
352.884	275.3
353.267	283.89
353.65	285.25
354.032	303.1
354.414	296.09
354.797	316.43
355.179	307.39
355.562	325.25
355.944	348.75
356.326	322.08
356.709	324.57
357.091	351.46
357.473	347.62
357.855	323.44
358.238	349.88
358.62	336.77
359.002	344
359.384	330.44
359.766	339.03
360.148	344.91
360.53	329.99
360.912	356.88
361.294	341.06
361.676	320.5
362.057	337
362.439	358.24
362.821	297.9
363.203	326.38
363.584	323.44
363.966	318.01
364.348	326.6
364.729	341.06
365.111	299.48
365.493	326.83
365.874	326.6
366.256	313.04
366.637	323.44
367.019	316.43
367.4	316.21
367.781	302.87
368.163	315.08
368.544	321.4
368.925	322.76
369.306	320.27
369.688	323.44
370.069	316.43
370.45	301.52
370.831	306.49
371.212	325.02
371.593	313.95
371.974	308.75
372.355	294.06
372.736	320.27
373.117	327.73
373.498	310.1
373.879	324.79
374.26	325.02
374.641	315.98
375.021	316.21
375.402	308.07
375.783	311.91
376.163	322.99
376.544	324.12
376.925	303.55
377.305	326.38
377.686	313.49
378.066	317.56
378.447	319.6
378.827	333.38
379.208	337.9
379.588	338.58
379.968	321.63
380.349	347.62
380.729	339.71
381.109	323.66
381.489	343.55
381.87	329.31
382.25	338.58
382.63	321.4
383.01	353.49
383.39	347.17
383.77	338.8
384.15	315.53
384.53	343.1
384.91	357.34
385.29	346.94
385.67	345.58
386.049	362.76
386.429	343.1
386.809	346.71
387.189	355.75
387.568	335.41
387.948	361.18
388.328	337.22
388.707	347.39
389.087	347.39
389.466	358.69
389.846	344.45
390.225	393.72
390.605	368.86
390.984	375.19
391.363	370.44
391.743	354.4
392.122	334.74
392.501	361.18
392.881	365.24
393.26	357.56
393.639	365.47
394.018	379.03
394.397	377.45
394.776	358.69
395.155	360.5
395.534	385.81
395.913	381.97
396.292	357.11
396.671	372.02
397.05	372.25
397.429	384
397.808	369.54
398.186	387.16
398.565	369.99
398.944	354.17
399.323	381.52
399.701	386.26
400.08	395.53
400.458	389.88
400.837	372.7
401.215	388.75
401.594	400.72
401.972	390.78
402.351	399.82
402.729	403.66
403.107	428.97
403.486	383.78
403.864	413.83
404.242	417.45
404.62	413.83
404.999	421.06
405.377	384
405.755	384
406.133	425.58
406.511	398.24
406.889	413.15
407.267	414.06
407.645	402.08
408.023	417.22
408.401	426.49
408.779	419.25
409.156	444.34
409.534	440.72
409.912	441.17
410.29	416.77
410.667	426.03
411.045	442.3
411.422	444.11
411.8	465.35
412.178	429.2
412.555	459.48
412.933	461.29
413.31	470.1
413.687	454.73
414.065	455.19
414.442	457.9
414.819	494.73
415.197	472.13
415.574	471.23
415.951	473.04
416.328	471.91
416.705	464.45
417.082	483.21
417.46	494.05
417.837	487.5
418.214	459.93
418.591	485.47
418.967	481.63
419.344	512.36
419.721	501.96
420.098	507.16
420.475	505.81
420.852	511.23
421.228	512.59
421.605	505.58
421.982	501.51
422.358	505.13
422.735	490.89
423.111	500.16
423.488	523.66
423.864	531.79
424.241	531.57
424.617	548.06
424.994	538.8
425.37	526.82
425.746	560.04
426.123	538.35
426.499	538.57
426.875	535.18
427.251	563.21
427.627	551.91
428.003	567.95
428.379	558.01
428.756	574.28
429.132	555.75
429.507	574.96
429.883	557.56
430.259	605.01
430.635	595.52
431.011	584.67
431.387	606.14
431.763	619.25
432.138	606.82
432.514	631.68
432.89	614.28
433.265	624.45
433.641	625.35
434.016	635.75
434.392	626.48
434.767	663.54
435.143	645.01
435.518	645.92
435.894	656.54
436.269	662.86
436.644	662.41
437.02	667.38
437.395	671.23
437.77	669.64
438.145	673.94
438.52	677.1
438.895	679.59
439.271	699.25
439.646	681.39
440.021	717.55
440.395	729.98
440.77	675.97
441.145	725.46
441.52	720.04
441.895	730.88
442.27	734.73
442.645	693.15
443.019	738.79
443.394	715.29
443.769	731.79
444.143	736.99
444.518	771.34
444.892	752.35
445.267	766.59
445.641	755.52
446.016	757.1
446.39	735.18
446.764	784.67
447.139	781.96
447.513	768.85
447.887	779.47
448.262	803.2
448.636	795.97
449.01	814.05
449.384	793.93
449.758	809.98
450.132	802.52
450.506	821.96
450.88	807.04
451.254	795.74
451.628	851.11
452.002	832.35
452.376	852.01
452.75	822.63
453.123	860.37
453.497	877.55
453.871	869.64
454.244	863.08
454.618	877.55
454.992	892.91
455.365	889.52
455.739	922.29
456.112	927.72
456.486	913.03
456.859	929.3
457.232	951.67
457.606	936.76
457.979	927.04
458.352	964.32
458.725	988.96
459.099	1000.03
459.472	1008.39
459.845	1021.27
460.218	1021.05
460.591	1022.63
460.964	1024.66
461.337	1018.33
461.71	1067.37
462.083	1090.65
462.456	1083.87
462.829	1092.91
463.201	1094.94
463.574	1083.19
463.947	1116.86
464.32	1129.52
464.692	1136.75
465.065	1148.27
465.438	1169.29
465.81	1211.1
466.183	1202.28
466.555	1241.61
466.928	1240.02
467.3	1248.61
467.672	1290.19
468.045	1289.74
468.417	1287.48
468.789	1359.34
469.161	1327.25
469.534	1355.95
469.906	1387.14
470.278	1427.36
470.65	1461.71
471.022	1463.75
471.394	1454.71
471.766	1479.57
472.138	1514.59
472.51	1566.34
472.882	1573.57
473.253	1592.56
473.625	1653.35
473.997	1670.75
474.369	1691.54
474.74	1735.15
475.112	1773.57
475.484	1788.71
475.855	1846.11
476.227	1855.37
476.598	1920.46
476.97	1967.01
477.341	2014.92
477.713	2015.6
478.084	2086.1
478.455	2142.6
478.827	2156.84
479.198	2286.78
479.569	2300.33
479.94	2377.62
480.311	2424.17
480.682	2505.75
481.053	2545.53
481.424	2624.39
481.795	2703.94
482.166	2749.36
482.537	2816.71
482.908	2898.06
483.279	2924.5
483.65	3005.18
484.021	3109.81
484.391	3195.45
484.762	3269.35
485.133	3312.29
485.503	3398.39
485.874	3448.78
486.244	3578.95
486.615	3673.86
486.985	3746.17
487.356	3832.72
487.726	3909.56
488.097	4059.38
488.467	4108.42
488.837	4237.46
489.207	4291.7
489.578	4459.6
489.948	4473.39
490.318	4620.5
490.688	4663.66
491.058	4798.8
491.428	4884.22
491.798	4943.66
492.168	5107.49
492.538	5147.72
492.908	5275.62
493.278	5394.72
493.648	5432.68
494.017	5557.42
494.387	5666.35
494.757	5721.26
495.126	5825.44
495.496	5945.89
495.866	6027.69
496.235	6078.54
496.605	6262.04
496.974	6295.71
497.344	6423.84
497.713	6461.36
498.082	6549.94
498.452	6681.24
498.821	6735.92
499.19	6855.02
499.559	6960.55
499.928	7028.35
500.298	7098.63
500.667	7207.55
501.036	7242.58
501.405	7332.97
501.774	7323.48
502.143	7490.26
502.512	7487.77
502.88	7682.79
503.249	7673.08
503.618	7770.93
503.987	7902.22
504.356	7926.18
504.724	8031.71
505.093	8120.07
505.462	8170.69
505.83	8201.42
506.199	8318.26
506.567	8381.08
506.936	8406.39
507.304	8520.51
507.672	8618.13
508.041	8708.53
508.409	8692.26
508.777	8842.54
509.145	8936.32
509.514	8933.38
509.882	8977.67
510.25	9070.55
510.618	9139.48
510.986	9216.09
511.354	9275.52
511.722	9362.75
512.09	9476.64
512.458	9441.62
512.826	9604.32
513.193	9658.56
513.561	9718.22
513.929	9764.55
514.297	9800.25
514.664	9948.5
515.032	9957.99
515.4	10047.93
515.767	10060.13
516.135	10179.9
516.502	10108.27
516.869	10297.86
517.237	10337.41
517.604	10320.01
517.972	10426.45
518.339	10497.86
518.706	10537.63
519.073	10598.42
519.44	10666.22
519.808	10819.66
520.175	10785.08
520.542	10930.16
520.909	11002.03
521.276	11038.18
521.643	11140.1
522.009	11245.64
522.376	11253.32
522.743	11300.78
523.11	11435.69
523.477	11564.95
523.843	11606.08
524.21	11735.79
524.577	11747.32
524.943	11865.96
525.31	11910.03
525.676	11990.02
526.043	11968.33
526.409	12058.95
526.776	12228.21
527.142	12250.36
527.508	12288.77
527.874	12445.83
528.241	12484.25
528.607	12636.11
528.973	12724.02
529.339	12721.98
529.705	12825.26
530.071	12821.41
530.437	12921.75
530.803	13066.61
531.169	13099.15
531.535	13081.52
531.901	13115.42
532.267	13178.47
532.632	13352.7
532.998	13412.59
533.364	13453.94
533.73	13441.96
534.095	13603.54
534.461	13616.2
534.826	13710.88
535.192	13757.89
535.557	13858
535.923	13900.48
536.288	13889.18
536.653	13940.71
537.019	14021.61
537.384	14081.95
537.749	14099.35
538.114	14168.05
538.479	14155.16
538.845	14346.8
539.21	14275.61
539.575	14421.6
539.94	14368.94
540.305	14562.61
540.67	14451.65
541.034	14565.32
541.399	14604.64
541.764	14607.81
542.129	14773.68
542.494	14828.14
542.858	14837.63
543.223	14900.68
543.587	15027.91
543.952	14949.49
544.316	15084.63
544.681	15136.38
545.045	15174.8
545.41	15245.08
545.774	15340.22
546.138	15306.32
546.503	15322.14
546.867	15387
547.231	15588.35
547.595	15547.44
547.959	15656.59
548.324	15741.56
548.688	15700.21
549.052	15683.94
549.416	15839.19
549.779	15855.68
550.143	15916.02
550.507	16046.87
550.871	16036.47
551.235	16033.53
551.599	16062.91
551.962	16237.6
552.326	16212.96
552.689	16350.81
553.053	16242.57
553.417	16339.06
553.78	16567.76
554.143	16475.1
554.507	16581.09
554.87	16646.17
555.234	16745.38
555.597	16704.93
555.96	16791.25
556.323	16869.22
556.686	16852.49
557.05	17017.69
557.413	16956.45
557.776	17117.8
558.139	17088.19
558.502	17099.49
558.865	17261.07
559.228	17474.85
559.59	17367.06
559.953	17412.03
560.316	17591.46
560.679	17576.54
561.041	17652.93
561.404	17784
561.767	17859.47
562.129	17862.41
562.492	18016.98
562.854	17966.82
563.217	17977.44
563.579	18140.14
563.941	18257.2
564.304	18275.73
564.666	18359.12
565.028	18503.98
565.39	18512.11
565.753	18646.8
566.115	18607.02
566.477	18694.03
566.839	18791.88
567.201	18839.56
567.563	18955.94
567.925	19031.42
568.287	19021.03
568.648	19088.59
569.01	19120.46
569.372	19345.08
569.734	19263.28
570.095	19433.44
570.457	19456.04
570.819	19607.9
571.18	19627.34
571.542	19677.05
571.903	19788.24
572.265	19861.68
572.626	19930.61
572.987	20062.35
573.349	20145.97
573.71	20144.39
574.071	20219.19
574.432	20302.12
574.794	20495.79
575.155	20424.6
575.516	20529.46
575.877	20696.91
576.238	20851.26
576.599	20919.05
576.96	20904.82
577.32	21058.94
577.681	21244.02
578.042	21289.21
578.403	21423.45
578.763	21476.33
579.124	21569.66
579.485	21800.16
579.845	21931.23
580.206	21909.31
580.566	22038.35
580.927	22267.72
581.287	22484.44
581.648	22484.44
582.008	22666.58
582.368	22798.78
582.728	22965.55
583.089	23005.33
583.449	23137.98
583.809	23268.15
584.169	23701.13
584.529	23667.23
584.889	24019.76
585.249	24057.05
585.609	24021.57
585.969	24416.82
586.329	24447.1
586.688	24700.42
587.048	24817.71
587.408	24998.04
587.768	25180.19
588.127	25322.1
588.487	25529.33
588.846	25886.16
589.206	25871.69
589.565	25939.26
589.925	26407.27
590.284	26376.54
590.643	26580.83
591.003	26905.34
591.362	27103.75
591.721	27205.44
592.08	27402.95
592.44	27635.49
592.799	27844.3
593.158	27913.22
593.517	28061.69
593.876	28235.02
594.235	28368.58
594.593	28664.61
594.952	28946.19
595.311	29000.88
595.67	29247.42
596.029	29636.79
596.387	29787.52
596.746	29888.99
597.104	29897.58
597.463	30215.76
597.822	30415.98
598.18	30438.13
598.538	30535.07
598.897	30946.14
599.255	30889.64
599.613	31390.42
599.972	31374.6
600.33	31542.96
600.688	31608.94
601.046	31747.47
601.404	32182.26
601.762	32111.98
602.12	32372.31
602.478	32492.76
602.836	32685.07
603.194	32611.18
603.552	32796.26
603.91	32800.55
604.268	33193.53
604.625	33097.27
604.983	33464.04
605.341	33360.76
605.698	33541.77
606.056	33781.32
606.413	33852.05
606.771	34107.63
607.128	34164.58
607.485	34035.09
607.843	34243.68
608.2	34574.74
608.557	34642.08
608.914	34672.59
609.272	34851.34
609.629	35032.81
609.986	35165.01
610.343	35207.72
610.7	35532.68
611.057	35562.74
611.414	35621.94
611.771	35705.56
612.127	35865.1
612.484	35880.24
612.841	36140.12
613.198	36159.56
613.554	36167.47
613.911	36366.56
614.267	36535.59
614.624	36576.72
614.98	36707.79
615.337	36862.82
615.693	36773.78
616.05	36934.9
616.406	37168.34
616.762	37052.19
617.118	37068.46
617.475	37189.36
617.831	37434.78
618.187	37389.13
618.543	37456.7
618.899	37721.1
619.255	37842
619.611	37666.64
619.967	38029.34
620.323	37978.94
620.678	38026.85
621.034	37813.53
621.39	38034.08
621.746	37942.56
622.101	38396.34
622.457	38123.57
622.812	38208.32
623.168	38379.16
623.523	38269.78
623.879	38586.84
624.234	38250.8
624.589	38380.06
624.945	38614.86
625.3	38550.23
625.655	38513.17
626.01	38774.86
626.365	38665.93
626.72	38544.35
627.075	38633.62
627.43	38740.51
627.785	38736.67
628.14	38916.55
628.495	38855.98
628.85	38796.55
629.205	38669.77
629.559	39050.56
629.914	38786.16
630.269	38890.33
630.623	38927.39
630.978	38806.72
631.332	38969.65
631.687	38997.68
632.041	38811.69
632.396	38975.75
632.75	38879.94
633.104	38788.87
633.459	38661.41
633.813	38706.84
634.167	38829.32
634.521	38868.19
634.875	38798.36
635.229	38735.31
635.583	38604.01
635.937	38716.78
636.291	38655.99
636.645	38837.23
636.999	38614.63
637.352	38789.77
637.706	38532.83
638.06	38704.58
638.413	38546.16
638.767	38559.72
639.121	38640.17
639.474	38388.43
639.828	38449.22
640.181	38441.31
640.534	38609.89
640.888	38367.18
641.241	38237.02
641.594	38398.14
641.947	38513.17
642.301	38244.25
642.654	38331.03
643.007	38397.24
643.36	38383.45
643.713	38220.75
644.066	38497.35
644.419	38160.41
644.771	37914.09
645.124	37566.53
645.477	37664.83
645.83	37299.41
646.182	37231.17
646.535	37110.72
646.888	37181.68
647.24	37006.54
647.593	37223.26
647.945	37254.67
648.298	36881.35
648.65	36898.3
649.002	36934.23
649.355	36792.08
649.707	36932.87
650.059	37008.35
650.411	37434.33
650.763	37534.66
651.115	37763.58
651.467	37608.56
651.819	37759.29
652.171	37700.08
652.523	37616.02
652.875	37555.91
653.227	37401.78
653.578	37876.57
653.93	37663.7
654.282	37438.17
654.633	37334.44
654.985	37529.92
655.337	37480.65
655.688	37421.67
656.039	37617.6
656.391	37212.64
656.742	37393.42
657.094	37362.01
657.445	37512.97
657.796	37404.72
658.147	37299.41
658.498	37198.4
658.849	37406.08
659.2	37282.92
659.551	37300.77
659.902	37286.08
660.253	37219.64
660.604	37285.86
660.955	37156.59
661.306	37356.59
661.656	37168.57
662.007	37253.09
662.358	37207.44
662.708	37110.95
663.059	37124.96
663.409	37009.25
663.76	37056.26
664.11	37072.98
664.461	37159.08
664.811	37184.84
665.161	37092.19
665.511	36944.62
665.862	37124.28
666.212	37145.75
666.562	37233.43
666.912	37037.95
667.262	36989.59
667.612	37079.53
667.962	37066.65
668.312	37016.94
668.662	37150.94
669.011	37002.02
669.361	36921.35
669.711	37021.23
670.06	37010.16
670.41	36833.66
670.76	36969.25
671.109	36918.18
671.459	37047.67
671.808	36974
672.157	36997.73
672.507	36737.85
672.856	36731.07
673.205	36642.03
673.554	36897.62
673.904	36818.3
674.253	36915.24
674.602	36836.15
674.951	36347.8
675.3	35987.58
675.649	36670.5
675.998	36775.36
676.346	36710.96
676.695	36714.12
677.044	36510.51
677.393	36497.63
677.741	36641.8
678.09	36496.72
678.438	36432.54
678.787	36552.99
679.135	36487.01
679.484	36392.55
679.832	36350.29
680.181	36156.62
680.529	36299.89
680.877	36172.66
681.225	36183.74
681.573	36424.86
681.922	36135.38
682.27	36046.57
682.618	36079.11
682.966	35943.74
683.314	36095.15
683.661	35984.2
684.009	35804.54
684.357	35809.06
684.705	35570.19
685.053	35692.23
685.4	35633.02
685.748	35499.01
686.095	35455.4
686.443	35480.93
686.79	35280.26
687.138	35404.55
687.485	35280.71
687.832	35189.19
688.18	35246.14
688.527	35096.53
688.874	34986.71
689.221	34953.94
689.568	34878.91
689.915	34814.73
690.262	34821.29
690.609	34642.76
690.956	34605.47
691.303	34459.26
691.65	34321.87
691.997	34397.8
692.344	34216.11
692.69	34147.18
693.037	34053.17
693.383	33887.3
693.73	34021.76
694.077	33914.87
694.423	33838.71
694.769	33574.09
695.116	33614.09
695.462	33514.43
695.808	33577.7
696.155	33519.4
696.501	33335.23
696.847	33414.55
697.193	33159.18
697.539	33138.85
697.885	32848.23
698.231	32908.34
698.577	32731.85
698.923	32895.46
699.269	32669.48
699.614	32510.61
699.96	32564.62
700.306	32667.45
700.651	32345.19
700.997	32242.6
701.342	32249.83
701.688	32120.34
702.033	32195.14
702.379	31900.91
702.724	31824.08
703.069	31957.86
703.415	31568.49
703.76	31676.74
704.105	31681.71
704.45	31636.29
704.795	31356.07
705.14	31192.23
705.485	31211.89
705.83	31026.59
706.175	31049.86
706.52	30989.3
706.865	30954.04
707.209	31007.38
707.554	30813.71
707.899	30966.7
708.243	30708.4
708.588	30622.3
708.932	30493.72
709.277	30369.65
709.621	30507.73
709.966	30284.91
710.31	30307.73
710.654	30015.09
710.998	30239.49
711.342	30188.64
711.687	30020.06
712.031	29938.7
712.375	29878.82
712.719	29692.84
713.063	29845.15
713.407	29961.75
713.75	29616
714.094	29675.89
714.438	29545.72
714.782	29637.7
715.125	29435.89
715.469	29449.68
715.812	29252.85
716.156	29206.75
716.499	29181.89
716.843	29162
717.186	29092.85
717.53	29133.75
717.873	29268.89
718.216	29142.79
718.559	28863.7
718.902	28672.07
719.246	28874.33
719.589	28743.48
719.932	28633.2
720.275	28667.78
720.617	28477.5
720.96	28570.38
721.303	28598.63
721.646	28362.93
721.989	28263.49
722.331	28449.03
722.674	28284.51
723.016	28327.22
723.359	28239.09
723.701	28150.73
724.044	28033.9
724.386	27917.06
724.729	28083.84
725.071	27922.26
725.413	27916.38
725.755	27898.76
726.097	27753.23
726.439	27809.72
726.782	27635.04
727.124	27837.06
727.465	27584.87
727.807	27543.74
728.149	27482.5
728.491	27323.18
728.833	27461.48
729.175	27426.45
729.516	27381.48
729.858	27335.38
730.199	27374.48
730.541	27392.78
730.882	27272.79
731.224	27261.71
731.565	27090.87
731.906	27032.79
732.248	27088.16
732.589	27038.44
732.93	26914.38
733.271	26979.01
733.612	27011.78
733.953	26964.77
734.294	26854.72
734.635	26871.89
734.976	26862.85
735.317	26755.06
735.658	26602.52
735.999	26642.97
736.339	26646.14
736.68	26693.14
737.021	26539.47
737.361	26482.98
737.702	26635.29
738.042	26478.91
738.383	26423.99
738.723	26497.21
739.063	26353.26
739.404	26472.13
739.744	26351.45
740.084	26186.94
740.424	26260.61
740.764	26313.26
741.104	26221.74
741.444	26190.78
741.784	25948.75
742.124	26013.61
742.464	25862.65
742.804	25816.1
743.143	25898.58
743.483	25899.26
743.823	25757.57
744.162	25784.92
744.502	25772.03
744.841	25725.48
745.181	25873.73
745.52	25700.62
745.86	25709.44
746.199	25480.74
746.538	25504.02
746.877	25536.79
747.216	25606.39
747.556	25488.65
747.895	25534.3
748.234	25248.43
748.573	25239.17
748.911	25306.28
749.25	25387.64
749.589	25168.89
749.928	25160.98
750.267	25257.92
750.605	25094.31
750.944	25075.1
751.283	24895.45
751.621	24974.99
751.96	24800.08
752.298	24862.68
752.636	24829.46
752.975	24790.82
753.313	24645.06
753.651	24806.86
753.989	24501.56
754.327	24507.43
754.666	24431.05
755.004	24467.66
755.342	24438.96
755.679	24378.62
756.017	24357.83
756.355	24140.21
756.693	24285.07
757.031	24123.94
757.368	24179.53
757.706	24031.97
758.044	23910.84
758.381	23951.52
758.719	23976.38
759.056	23828.13
759.394	23836.04
759.731	23696.38
760.068	23582.26
760.405	23541.81
760.743	23387.24
761.08	23568.25
761.417	23248.71
761.754	23374.13
762.091	23366.45
762.428	23274.92
762.765	23054.14
763.102	23172.78
763.438	23012.33
763.775	22880.81
764.112	22900.7
764.449	22936.18
764.785	22784.54
765.122	22703.64
765.458	22567.82
765.795	22594.04
766.131	22482.63
766.467	22365.57
766.804	22316.08
767.14	22165.12
767.476	22263.43
767.812	22043.77
768.148	22155.41
768.485	21991.79
768.821	21853.27
769.157	21834.96
769.492	21799.94
769.828	21637.45
770.164	21553.39
770.5	21472.26
770.836	21416.44
771.171	21380.96
771.507	21370.34
771.842	21266.16
772.178	21074.76
772.513	21147.98
772.849	21031.82
773.184	20964.7
773.519	20944.59
773.855	20718.83
774.19	20799.06
774.525	20808.77
774.86	20658.04
775.195	20674.09
775.53	20564.26
775.865	20355.23
776.2	20275.46
776.535	20173.09
776.87	20150.26
777.205	20072.52
777.539	19979.64
777.874	20115.69
778.209	19791.17
778.543	19814.45
778.878	19693.32
779.212	19743.04
779.547	19621.46
779.881	19630.73
780.215	19474.57
780.55	19455.14
780.884	19353.67
781.218	19366.1
781.552	19347.12
781.886	19129.72
782.22	19114.36
782.554	19103.96
782.888	18968.6
783.222	18743.52
783.556	18814.03
783.889	18595.05
784.223	18618.55
784.557	18497.2
784.89	18574.48
785.224	18494.26
785.557	18343.3
785.891	18317.99
786.224	18269.63
786.558	18260.14
786.891	18001.39
787.224	18094.27
787.557	17987.38
787.891	17882.07
788.224	17938.57
788.557	17945.35
788.89	17793.49
789.223	17842.53
789.556	17587.84
789.888	17599.59
790.221	17571.8
790.554	17389.66
790.887	17339.49
791.219	17315.08
791.552	17265.37
791.884	17158.48
792.217	17127.52
792.549	17009.33
792.882	16995.54
793.214	16918.71
793.546	17005.26
793.879	16812.27
794.211	16705.38
794.543	16707.87
794.875	16677.36
795.207	16786.06
795.539	16527.76
795.871	16626.51
796.203	16474.65
796.535	16410.7
796.867	16402.79
797.198	16301.55
797.53	16230.14
797.862	16139.52
798.193	16132.74
798.525	16069.69
798.856	16053.42
799.188	15953.31
799.519	15884.38
799.85	15869.7
800.182	15800.09
800.513	15762.35
800.844	15606.43
801.175	15783.82
801.506	15691.85
801.837	15614.11
802.168	15538.86
802.499	15522.59
802.83	15452.53
803.161	15400.56
803.491	15426.54
803.822	15322.14
804.153	15285.98
804.483	15164.86
804.814	15122.6
805.145	15104.07
805.475	15081.92
805.805	14958.76
806.136	15071.98
806.466	14959.21
806.796	14966.44
807.126	14817.52
807.457	14791.98
807.787	14774.36
808.117	14731.65
808.447	14683.51
808.777	14654.13
809.107	14595.38
809.436	14568.26
809.766	14540.92
810.096	14454.59
810.426	14409.17
810.755	14436.06
811.085	14352.45
811.414	14353.8
811.744	14172.34
812.073	14206.01
812.403	14185.67
812.732	14176.63
813.061	14118.33
813.39	14006.02
813.719	13978.22
814.049	14062.51
814.378	13977.99
814.707	13994.72
815.036	13995.62
815.365	13900.26
815.693	13765.12
816.022	13818.45
816.351	13773.93
816.68	13628.62
817.008	13729.19
817.337	13608.06
817.665	13559.47
817.994	13566.25
818.322	13558.12
818.651	13523.54
818.979	13406.03
819.307	13490.32
819.636	13416.2
819.964	13396.99
820.292	13377.78
820.62	13326.94
820.948	13349.31
821.276	13311.12
821.604	13305.02
821.932	13326.94
822.259	13364.22
822.587	13243.1
822.915	13281.97
823.243	13349.31
823.57	13314.73
823.898	13277.9
824.225	13213.49
824.553	13279.26
824.88	13276.54
825.207	13351.8
825.535	13140.28
825.862	13344.56
826.189	13193.16
826.516	13291.46
826.843	13316.54
827.17	13343.89
827.497	13293.72
827.824	13312.02
828.151	13365.35
828.478	13240.16
828.805	13355.41
829.131	13230.22
829.458	13089.2
829.785	13203.78
830.111	13259.14
830.438	13327.62
830.764	13209.43
831.09	13229.09
831.417	13216.21
831.743	13204.46
832.069	13131.01
832.395	13104.8
832.722	13193.16
833.048	13151.58
833.374	13077.68
833.7	13067.51
834.026	13072.71
834.351	13107.28
834.677	13052.82
835.003	13159.48
835.329	13041.75
835.654	13065.25
835.98	13076.77
836.306	12914.52
836.631	12952.03
836.956	13000.17
837.282	13064.57
837.607	12971.69
837.932	12884.92
838.258	12932.82
838.583	12830.23
838.908	12816.89
839.233	12802.88
839.558	12726.73
839.883	12783
840.208	12697.35
840.533	12661.42
840.858	12745.48
841.182	12675.2
841.507	12630.91
841.832	12555.43
842.156	12585.49
842.481	12474.3
842.805	12562.66
843.13	12523.57
843.454	12496.68
843.778	12373.74
844.103	12352.05
844.427	12375.78
844.751	12386.4
845.075	12278.6
845.399	12264.82
845.723	12218.04
846.047	12236.8
846.371	12113.41
846.695	12120.42
847.019	12084.26
847.343	11970.59
847.666	11919.97
847.99	11911.16
848.313	11887.65
848.637	11783.02
848.96	11784.38
849.284	11763.14
849.607	11720.65
849.931	11629.58
850.254	11615.57
850.577	11479.3
850.9	11392.3
851.223	11436.82
851.546	11385.29
851.869	11316.37
852.192	11317.5
852.515	11231.63
852.838	11218.07
853.161	11214.45
853.483	11166.77
853.806	11014.91
854.129	11036.83
854.451	10976.49
854.774	10910.28
855.096	10883.39
855.419	10945.53
855.741	10893.33
856.063	10786.89
856.385	10762.03
856.708	10755.48
857.03	10731.75
857.352	10735.82
857.674	10607.24
857.996	10672.77
858.318	10604.3
858.64	10600.91
858.961	10548.93
859.283	10562.49
859.605	10417.41
859.926	10522.49
860.248	10467.13
860.57	10363.4
860.891	10359.78
861.212	10300.35
861.534	10346
861.855	10289.28
862.176	10274.36
862.498	10243.18
862.819	10315.04
863.14	10244.08
863.461	10190.97
863.782	10201.82
864.103	10165.66
864.424	10081.6
864.745	10138.1
865.065	10103.97
865.386	10053.13
865.707	10078.44
866.027	9983.07
866.348	9967.03
866.668	10020.58
866.989	9970.19
867.309	9892.23
867.63	9909.63
867.95	9955.05
868.27	9875.05
868.59	9906.91
868.91	9871.89
869.23	9886.58
869.55	9819.23
869.87	9866.46
870.19	9772.91
870.51	9801.15
870.83	9749.18
871.15	9761.38
871.469	9750.76
871.789	9763.87
872.109	9767.26
872.428	9626.92
872.748	9767.94
873.067	9739.24
873.386	9675.06
873.706	9748.5
874.025	9633.48
874.344	9632.12
874.663	9672.8
874.982	9615.4
875.301	9580.37
875.62	9501.73
875.939	9503.99
876.258	9469.41
876.577	9456.53
876.896	9510.77
877.214	9460.82
877.533	9464.67
877.852	9468.51
878.17	9423.76
878.489	9428.74
878.807	9397.1
879.125	9409.07
879.444	9397.32
879.762	9355.74
880.08	9346.7
880.398	9331.11
880.716	9293.82
881.034	9296.54
881.352	9243.2
881.67	9208.63
881.988	9245.92
882.306	9229.42
882.624	9210.89
882.941	9203.2
883.259	9094.28
883.577	9053.38
883.894	9060.61
884.212	9045.24
884.529	9036.66
884.846	8983.55
885.164	9023.55
885.481	9059.93
885.798	9011.34
886.115	8956.88
886.432	8911.23
886.75	8902.65
887.067	8936.32
887.383	8836.66
887.7	8883.89
888.017	8831.46
888.334	8860.61
888.651	8728.19
888.967	8745.14
889.284	8719.15
889.6	8653.84
889.917	8529.78
890.233	8598.25
890.55	8654.07
890.866	8617.91
891.182	8580.4
891.498	8513.73
891.815	8512.15
892.131	8447.74
892.447	8505.82
892.763	8480.06
893.079	8465.14
893.395	8388.99
893.71	8375.66
894.026	8358.48
894.342	8299.5
894.657	8311.48
894.973	8226.73
895.289	8260.63
895.604	8240.97
895.92	8147.64
896.235	8149.45
896.55	8146.06
896.865	8174.98
897.181	8057.47
897.496	8124.81
897.811	8054.08
898.126	8001.88
898.441	7957.59
898.756	8034.2
899.071	7931.37
899.386	7899.28
899.7	7838.95
900.015	7883.47
900.33	7747.42
900.644	7805.5
900.959	7788.78
901.273	7744.49
901.588	7611.16
901.902	7652.06
902.216	7651.83
902.531	7643.7
902.845	7578.16
903.159	7525.73
903.473	7510.82
903.787	7454.55
904.101	7495.68
904.415	7462.46
904.729	7455
905.042	7350.82
905.356	7339.98
905.67	7326.87
905.984	7302.01
906.297	7289.36
906.611	7306.53
906.924	7224.73
907.237	7215.69
907.551	7236.48
907.864	7109.7
908.177	7109.25
908.491	7173.65
908.804	6987.22
909.117	7002.81
909.43	7015.01
909.743	6994.45
910.056	6967.1
910.368	6906.99
910.681	6922.59
910.994	6902.25
911.307	6869.03
911.619	6798.97
911.932	6774.79
912.244	6727.11
912.557	6779.77
912.869	6693.67
913.181	6681.46
913.494	6664.29
913.806	6585.19
914.118	6588.36
914.43	6582.48
914.742	6610.73
915.054	6413.22
915.366	6456.38
915.678	6461.36
915.99	6463.84
916.302	6404.41
916.613	6364.18
916.925	6332.55
917.236	6426.1
917.548	6263.85
917.859	6303.39
918.171	6246.67
918.482	6269.5
918.794	6262.94
919.105	6248.48
919.416	6148.82
919.727	6102.27
920.038	6159.89
920.349	6086.9
920.66	6048.26
920.971	6058.65
921.282	5971.42
921.593	5929.62
921.903	5945.44
922.214	5911.77
922.525	5912.9
922.835	5873.35
923.146	5829.96
923.456	5805.55
923.767	5764.65
924.077	5773.46
924.387	5806.46
924.697	5708.15
925.008	5732.79
925.318	5695.5
925.628	5713.13
925.938	5679.91
926.248	5580.02
926.558	5583.86
926.867	5526.24
927.177	5559.68
927.487	5475.84
927.796	5473.36
928.106	5469.52
928.416	5419.8
928.725	5436.98
929.034	5406.92
929.344	5378.45
929.653	5367.82
929.962	5316.53
930.271	5300.93
930.581	5314.04
930.89	5245.12
931.199	5213.48
931.508	5212.12
931.817	5209.86
932.125	5182.07
932.434	5179.58
932.743	5141.62
933.051	5088.96
933.36	5103.2
933.669	5034.05
933.977	5037.21
934.286	5014.16
934.594	5006.48
934.902	5002.64
935.21	4925.12
935.519	4942.07
935.827	4891.91
936.135	4868.86
936.443	4899.36
936.751	4878.57
937.059	4805.58
937.367	4839.25
937.674	4804.45
937.982	4788.86
938.29	4747.28
938.597	4817.1
938.905	4727.84
939.213	4695.53
939.52	4655.3
939.827	4652.14
940.135	4648.97
940.442	4606.94
940.749	4608.52
941.056	4571.24
941.363	4535.98
941.67	4557.9
941.977	4515.64
942.284	4457.11
942.591	4486.72
942.898	4422.77
943.205	4463.89
943.511	4442.65
943.818	4395.87
944.125	4379.15
944.431	4336.67
944.738	4328.98
945.044	4303.45
945.35	4279.27
945.657	4298.7
945.963	4254.18
946.269	4243.11
946.575	4246.5
946.881	4224.58
947.187	4210.57
947.493	4142.55
947.799	4161.3
948.105	4142.32
948.41	4127.41
948.716	4135.99
949.022	4091.02
949.327	4067.97
949.633	4004.7
949.938	4051.02
950.244	4046.28
950.549	4039.05
950.854	3961.76
951.16	3949.11
951.465	3975.09
951.77	3946.85
952.075	3912.72
952.38	3886.06
952.685	3867.53
952.99	3857.58
953.294	3867.3
953.599	3863.23
953.904	3807.87
954.209	3799.73
954.513	3767.64
954.818	3794.31
955.122	3734.87
955.426	3747.3
955.731	3760.18
956.035	3719.05
956.339	3690.58
956.643	3647.64
956.948	3621.2
957.252	3644.71
957.556	3611.94
957.86	3613.07
958.163	3590.24
958.467	3560.19
958.771	3582.11
959.075	3497.82
959.378	3485.84
959.682	3549.79
959.985	3500.3
960.289	3478.61
960.592	3438.16
960.896	3463.24
961.199	3419.85
961.502	3461.66
961.805	3412.62
962.108	3369.91
962.411	3401.32
962.714	3349.57
963.017	3338.95
963.32	3383.47
963.623	3355.22
963.926	3317.71
964.228	3307.99
964.531	3305.73
964.833	3291.95
965.136	3258.95
965.438	3252.17
965.741	3214.21
966.043	3229.58
966.345	3202.46
966.648	3235.45
966.95	3193.19
967.252	3147.54
967.554	3138.96
967.856	3172.85
968.158	3106.87
968.46	3088.34
968.761	3077.72
969.063	3116.58
969.365	3069.58
969.666	3067.32
969.968	3004.05
970.269	3052.86
970.571	3030.94
970.872	2988.45
971.174	2983.25
971.475	2972.63
971.776	2956.59
972.077	2986.87
972.378	2928.34
972.679	2931.96
972.98	2900.77
973.281	2885.86
973.582	2915.01
973.883	2856.7
974.183	2832.75
974.484	2836.14
974.785	2841.56
975.085	2843.37
975.386	2825.97
975.686	2801.56
975.986	2773.54
976.287	2789.14
976.587	2766.54
976.887	2770.15
977.187	2745.97
977.487	2725.63
977.787	2693.77
978.087	2656.71
978.387	2682.7
978.687	2672.98
978.987	2660.33
979.286	2661
979.586	2670.49
979.885	2608.35
980.185	2619.42
980.484	2640.67
980.784	2577.39
981.083	2585.53
981.382	2564.73
981.682	2560.67
981.981	2560.67
982.28	2516.83
982.579	2510.95
982.878	2499.2
983.177	2482.93
983.475	2517.73
983.774	2458.07
984.073	2496.04
984.372	2444.29
984.67	2437.73
984.969	2433.44
985.267	2462.36
985.566	2480.44
985.864	2412.2
986.162	2390.73
986.461	2395.02
986.759	2359.77
987.057	2362.48
987.355	2346.44
987.653	2360.67
987.951	2322.71
988.249	2344.85
988.547	2317.74
988.844	2313.67
989.142	2304.63
989.44	2291.52
989.737	2281.13
990.035	2254.91
990.332	2262.6
990.63	2239.55
990.927	2215.37
991.224	2221.47
991.521	2212.65
991.819	2238.19
992.116	2176.5
992.413	2187.12
992.71	2185.99
993.006	2182.6
993.303	2197.96
993.6	2136.72
993.897	2153.45
994.193	2106.22
994.49	2097.18
994.787	2127.23
995.083	2095.37
995.379	2073.22
995.676	2084.07
995.972	2076.84
996.268	2038.42
996.565	2043.39
996.861	2038.42
997.157	2029.38
997.453	2044.52
997.749	2018.08
998.044	1971.3
998.34	2005.65
998.636	1960.46
998.932	1980.34
999.227	1945.09
999.523	1947.35
999.818	1921.36
1000.114	1913.68
1000.409	1908.48
1000.704	1900.57
1001	1895.37
1001.295	1874.36
1001.59	1873.91
1001.885	1876.17
1002.18	1875.94
1002.475	1832.78
1002.77	1818.77
1003.065	1805.66
1003.359	1809.73
1003.654	1799.33
1003.949	1813.57
1004.243	1777.18
1004.538	1808.6
1004.832	1786.22
1005.127	1777.86
1005.421	1741.48
1005.715	1738.77
1006.009	1749.62
1006.304	1745.77
1006.598	1697.86
1006.892	1715.72
1007.186	1691.31
1007.48	1701.93
1007.773	1688.37
1008.067	1677.3
1008.361	1656.28
1008.655	1653.12
1008.948	1647.92
1009.242	1648.37
1009.535	1624.65
1009.829	1603.63
1010.122	1597.75
1010.415	1582.61
1010.708	1567.02
1011.001	1559.11
1011.295	1575.83
1011.588	1587.59
1011.881	1532.9
1012.173	1560.69
1012.466	1540.58
1012.759	1548.72
1013.052	1511.2
1013.344	1504.65
1013.637	1536.97
1013.93	1491.54
1014.222	1515.72
1014.514	1484.31
1014.807	1463.52
1015.099	1476.63
1015.391	1446.35
1015.683	1454.71
1015.976	1431.43
1016.268	1424.2
1016.56	1421.49
1016.851	1412.45
1017.143	1404.31
1017.435	1399.12
1017.727	1395.27
1018.018	1381.49
1018.31	1360.47
1018.602	1373.35
1018.893	1357.31
1019.185	1350.53
1019.476	1332.68
1019.767	1323.19
1020.058	1325.67
1020.35	1318.21
1020.641	1297.88
1020.932	1292.9
1021.223	1290.87
1021.514	1274.83
1021.804	1275.05
1022.095	1272.57
1022.386	1248.39
1022.677	1250.65
1022.967	1233.7
1023.258	1213.58
1023.548	1247.48
1023.839	1222.4
1024.129	1211.32
1024.419	1235.96
1024.709	1216.52
1025	1171.78
1025.29	1197.09
1025.58	1161.16
1025.87	1162.51
1026.16	1135.62
1026.449	1134.49
1026.739	1153.92
1027.029	1150.76
1027.319	1114.83
1027.608	1143.76
1027.898	1120.03
1028.187	1128.84
1028.477	1085
1028.766	1094.49
1029.055	1081.61
1029.344	1075.73
1029.634	1086.58
1029.923	1072.12
1030.212	1064.89
1030.501	1064.44
1030.79	1045.23
1031.078	1049.52
1031.367	1031.22
1031.656	1060.82
1031.945	1014.95
1032.233	1022.63
1032.522	1030.99
1032.81	1013.36
1033.099	995.74
1033.387	980.6
1033.675	954.83
1033.963	984.21
1034.251	978.11
1034.54	974.04
1034.828	956.87
1035.116	986.47
1035.403	948.96
1035.691	934.5
1035.979	946.25
1036.267	940.14
1036.554	924.78
1036.842	913.03
1037.129	926.36
1037.417	904.44
1037.704	890.2
1037.992	906.02
1038.279	888.39
1038.566	862.86
1038.853	862.86
1039.14	862.86
