Data from hue_320_FLMS001491_77.txt Node
Date: Mon Feb 06 15:47:41 GMT 2017
User: dcchb
Spectrometer: FLMS00149
Trigger mode: 0
Integration Time (sec): 2.000000E-2
Scans to average: 10
Electric dark correction enabled: true
Nonlinearity correction enabled: false
Boxcar width: 0
XAxis mode: Wavelengths
Number of Pixels in Spectrum: 2048
>>>>>Begin Spectral Data<<<<<
341.393	-0.47
341.776	-0.47
342.16	-0.47
342.543	-55.83
342.927	-71.65
343.31	-77.3
343.693	-85.44
344.077	-74.59
344.46	-62.61
344.843	-40.24
345.226	-49.96
345.61	-33.01
345.993	-35.49
346.376	3.83
346.759	16.03
347.142	26.65
347.525	49.25
347.908	90.6
348.291	77.95
348.674	86.54
349.057	107.78
349.44	129.25
349.823	142.13
350.206	156.37
350.588	193.43
350.971	209.25
351.354	224.84
351.737	230.04
352.119	238.62
352.502	236.82
352.884	247.66
353.267	289.47
353.65	285.63
354.032	281.11
354.414	319.53
354.797	293.99
355.179	328.56
355.562	318.62
355.944	315.01
356.326	307.1
356.709	325.85
357.091	321.79
357.473	330.6
357.855	349.81
358.238	334.67
358.62	313.2
359.002	343.71
359.384	329.92
359.766	343.48
360.148	353.2
360.53	334.67
360.912	344.38
361.294	336.47
361.676	326.76
362.057	334.67
362.439	327.43
362.821	319.53
363.203	342.12
363.584	328.34
363.966	320.66
364.348	319.98
364.729	327.21
365.111	341.45
365.493	331.5
365.874	308.9
366.256	305.29
366.637	327.21
367.019	308.68
367.4	325.4
367.781	306.87
368.163	308.9
368.544	319.75
368.925	305.06
369.306	322.01
369.688	314.78
370.069	316.81
370.45	310.94
370.831	290.83
371.212	298.96
371.593	320.88
371.974	318.85
372.355	312.29
372.736	315.23
373.117	310.94
373.498	317.04
373.879	308.68
374.26	324.95
374.641	304.38
375.021	324.5
375.402	320.43
375.783	321.33
376.163	327.89
376.544	320.43
376.925	324.05
377.305	314.33
377.686	332.86
378.066	329.24
378.447	318.4
378.827	335.8
379.208	319.75
379.588	315.91
379.968	346.42
380.349	326.08
380.729	329.47
381.109	328.11
381.489	344.38
381.87	325.4
382.25	319.53
382.63	344.61
383.01	327.43
383.39	324.72
383.77	320.66
384.15	349.81
384.53	333.54
384.91	340.54
385.29	354.55
385.67	340.54
386.049	342.12
386.429	326.3
386.809	345.06
387.189	347.55
387.568	354.1
387.948	348
388.328	357.94
388.707	323.37
389.087	360.43
389.466	367.43
389.846	362.46
390.225	367.66
390.605	346.87
390.984	372.41
391.363	370.15
391.743	354.78
392.122	365.4
392.501	352.97
392.881	373.76
393.26	378.96
393.639	397.72
394.018	382.8
394.397	363.82
394.776	367.43
395.155	394.78
395.534	381.67
395.913	394.55
396.292	382.8
396.671	364.04
397.05	383.03
397.429	395.91
397.808	380.77
398.186	388.68
398.565	358.17
398.944	380.09
399.323	381.67
399.701	405.4
400.08	393.65
400.458	369.69
400.837	399.75
401.215	404.27
401.594	415.12
401.972	416.47
402.351	397.04
402.729	394.55
403.107	403.37
403.486	419.41
403.864	408.11
404.242	401.56
404.62	420.77
404.999	416.02
405.377	437.94
405.755	427.32
406.133	437.26
406.511	442.46
406.889	441.1
407.267	439.75
407.645	446.08
408.023	422.12
408.401	430.48
408.779	457.83
409.156	459.63
409.534	463.7
409.912	444.27
410.29	474.78
410.667	472.52
411.045	484.49
411.422	471.61
411.8	491.27
412.178	495.57
412.555	515
412.933	482.46
413.31	490.82
413.687	525.17
414.065	517.49
414.442	530.82
414.819	514.1
415.197	543.25
415.574	527.43
415.951	548.45
416.328	548.45
416.705	549.12
417.082	542.12
417.46	567.88
417.837	563.59
418.214	563.36
418.591	573.53
418.967	585.28
419.344	611.72
419.721	631.16
420.098	601.55
420.475	616.92
420.852	610.37
421.228	606.52
421.605	606.52
421.982	640.87
422.358	650.82
422.735	651.72
423.111	682
423.488	662.79
423.864	650.36
424.241	668.67
424.617	681.55
424.994	684.49
425.37	692.62
425.746	670.93
426.123	710.25
426.499	708.89
426.875	704.6
427.251	712.96
427.627	736.46
428.003	742.11
428.379	745.95
428.756	754.32
429.132	755.45
429.507	776.24
429.883	782.11
430.259	797.25
430.635	781.21
431.011	808.33
431.387	796.12
431.763	780.53
432.138	850.36
432.514	834.31
432.89	826.18
433.265	851.49
433.641	854.88
434.016	860.53
434.392	882.45
434.767	898.72
435.143	903.46
435.518	878.83
435.894	902.79
436.269	889.68
436.644	933.07
437.02	921.54
437.395	935.1
437.77	956.57
438.145	947.76
438.52	972.62
438.895	993.18
439.271	975.1
439.646	983.46
440.021	988.89
440.395	994.08
440.77	985.72
441.145	1007.64
441.52	1020.52
441.895	996.12
442.27	1027.53
442.645	1025.5
443.019	1030.69
443.394	1021.65
443.769	1046.06
444.143	1037.02
444.518	1067.53
444.892	1050.58
445.267	1049.9
445.641	1049.45
446.016	1060.07
446.39	1046.96
446.764	1066.85
447.139	1091.26
447.513	1078.83
447.887	1089.45
448.262	1072.95
448.636	1074.53
449.01	1077.7
449.384	1087.87
449.758	1109.11
450.132	1129.22
450.506	1111.6
450.88	1131.93
451.254	1094.19
451.628	1107.98
452.002	1160.63
452.376	1150.01
452.75	1138.04
453.123	1159.96
453.497	1164.25
453.871	1166.28
454.244	1200.63
454.618	1199.5
454.992	1205.83
455.365	1195.66
455.739	1227.07
456.112	1211.93
456.486	1232.95
456.859	1277.69
457.232	1263
457.606	1237.69
457.979	1270.91
458.352	1278.82
458.725	1313.85
459.099	1317.47
459.472	1292.61
459.845	1337.58
460.218	1313.4
460.591	1326.5
460.964	1311.59
461.337	1362.21
461.71	1344.58
462.083	1375.77
462.456	1369.22
462.829	1379.16
463.201	1400.18
463.574	1420.74
463.947	1413.06
464.32	1444.92
464.692	1450.8
465.065	1475.88
465.438	1456.9
465.81	1485.14
466.183	1514.75
466.555	1503.9
466.928	1517.23
467.3	1505.26
467.672	1561.07
468.045	1588.19
468.417	1570.79
468.789	1580.74
469.161	1580.51
469.534	1584.8
469.906	1619.15
470.278	1620.51
470.65	1646.5
471.022	1669.55
471.394	1719.04
471.766	1657.57
472.138	1715.42
472.51	1734.4
472.882	1757.23
473.253	1758.81
473.625	1779.37
473.997	1836.1
474.369	1813.95
474.74	1825.25
475.112	1873.16
475.484	1867.73
475.855	1937.11
476.227	1906.15
476.598	1946.83
476.97	1931.69
477.341	1981.18
477.713	1996.54
478.084	2007.39
478.455	2043.77
478.827	2055.07
479.198	2120.61
479.569	2082.42
479.94	2121.51
480.311	2193.83
480.682	2204.45
481.053	2237.22
481.424	2267.72
481.795	2290.55
482.166	2291.45
482.537	2367.61
482.908	2373.26
483.279	2378.91
483.65	2411.9
484.021	2464.55
484.391	2485.12
484.762	2464.78
485.133	2468.85
485.503	2481.5
485.874	2574.16
486.244	2551.78
486.615	2603.31
486.985	2634.49
487.356	2657.09
487.726	2684.21
488.097	2691.67
488.467	2720.14
488.837	2742.29
489.207	2753.13
489.578	2805.34
489.948	2836.97
490.318	2867.93
490.688	2894.6
491.058	2903.19
491.428	2935.5
491.798	2982.73
492.168	3003.52
492.538	3009.85
492.908	3017.99
493.278	3073.8
493.648	3079
494.017	3095.27
494.387	3142.05
494.757	3138.89
495.126	3170.52
495.496	3149.51
495.866	3154.03
496.235	3206.68
496.605	3232.44
496.974	3224.31
497.344	3279.67
497.713	3279.9
498.082	3297.98
498.452	3305.44
498.821	3309.73
499.19	3332.78
499.559	3353.12
499.928	3355.15
500.298	3391.31
500.667	3405.55
501.036	3409.39
501.405	3413.23
501.774	3415.72
502.143	3444.19
502.512	3478.99
502.88	3451.19
503.249	3472.89
503.618	3486.45
503.987	3496.39
504.356	3511.98
504.724	3516.73
505.093	3563.28
505.462	3555.6
505.83	3591.98
506.199	3565.32
506.567	3625.43
506.936	3663.84
507.304	3613.68
507.672	3666.33
508.041	3673.11
508.409	3730.51
508.777	3711.75
509.145	3728.48
509.514	3738.19
509.882	3740.9
510.25	3741.58
510.618	3740
510.986	3748.14
511.354	3798.76
511.722	3843.95
512.09	3809.83
512.458	3834.01
512.826	3819.77
513.193	3815.25
513.561	3845.76
513.929	3849.83
514.297	3848.02
514.664	3904.52
515.032	3871.75
515.4	3927.79
515.767	3890.51
516.135	3951.97
516.502	3892.76
516.869	3987.23
517.237	3913.56
517.604	3982.03
517.972	3970.05
518.339	3986.55
518.706	3977.06
519.073	3983.38
519.44	4012.99
519.808	4005.98
520.175	4016.6
520.542	4073.33
520.909	4111.06
521.276	4075.58
521.643	4103.61
522.009	4111.97
522.376	4127.79
522.743	4156.49
523.11	4206.43
523.477	4208.69
523.843	4221.12
524.21	4202.36
524.577	4256.15
524.943	4279.87
525.31	4308.8
525.676	4334.34
526.043	4330.04
526.409	4354.22
526.776	4302.47
527.142	4329.82
527.508	4384.96
527.874	4428.12
528.241	4402.13
528.607	4418.4
528.973	4489.36
529.339	4514.67
529.705	4516.7
530.071	4570.04
530.437	4567.1
530.803	4532.97
531.169	4624.27
531.535	4587.21
531.901	4599.86
532.267	4645.06
532.632	4667.21
532.998	4678.96
533.364	4701.33
533.73	4708.79
534.095	4744.04
534.461	4757.83
534.826	4794.89
535.192	4810.71
535.557	4875.11
535.923	4813.64
536.288	4821.33
536.653	4810.03
537.019	4886.64
537.384	4909.01
537.749	4931.83
538.114	4924.6
538.479	4927.54
538.845	4939.74
539.21	4991.27
539.575	5021.77
539.94	4996.69
540.305	5003.02
540.67	5045.95
541.034	5103.35
541.399	5132.51
541.764	5134.99
542.129	5190.58
542.494	5134.54
542.858	5164.14
543.223	5205.27
543.587	5240.07
543.952	5243.69
544.316	5256.34
544.681	5218.61
545.045	5276.23
545.41	5353.29
545.774	5376.57
546.138	5427.87
546.503	5394.87
546.867	5398.26
547.231	5458.83
547.595	5424.93
547.959	5476.23
548.324	5522.78
548.688	5490.46
549.052	5526.85
549.416	5547.86
549.779	5537.69
550.143	5587.86
550.507	5658.59
550.871	5588.54
551.235	5596.22
551.599	5637.8
551.962	5690.91
552.326	5673.28
552.689	5758.03
553.053	5697.69
553.417	5701.53
553.78	5799.61
554.143	5740.4
554.507	5784.47
554.87	5828.76
555.234	5847.52
555.597	5846.61
555.96	5866.5
556.323	5851.58
556.686	5839.15
557.05	5895.2
557.413	5929.32
557.776	5912.15
558.139	5963.44
558.502	5961.64
558.865	5977.68
559.228	6001.18
559.59	6035.31
559.953	6017.45
560.316	6096.55
560.679	6090.9
561.041	6122.08
561.404	6132.71
561.767	6210.67
562.129	6188.3
562.492	6173.83
562.854	6203.66
563.217	6223.78
563.579	6217.22
563.941	6250.67
564.304	6261.74
564.666	6322.08
565.028	6315.3
565.39	6321.4
565.753	6383.09
566.115	6439.82
566.477	6413.83
566.839	6444.79
567.201	6472.13
567.563	6535.18
567.925	6507.16
568.287	6583.09
568.648	6575.86
569.01	6578.34
569.372	6638.68
569.734	6620.15
570.095	6606.37
570.457	6754.84
570.819	6730.66
571.18	6721.17
571.542	6820.37
571.903	6806.81
572.265	6816.3
572.626	6861.95
572.987	6931.56
573.349	6960.48
573.71	7075.28
574.071	7056.07
574.432	7088.16
574.794	7209.29
575.155	7201.15
575.516	7213.81
575.877	7289.06
576.238	7326.35
576.599	7364.99
576.96	7489.05
577.32	7456.74
577.681	7617.64
578.042	7705.77
578.403	7722.49
578.763	7782.83
579.124	7886.56
579.485	8017.63
579.845	8138.53
580.206	8203.16
580.566	8225.53
580.927	8398.64
581.287	8568.57
581.648	8621.91
582.008	8793.88
582.368	8923.59
582.728	9098.05
583.089	9159.29
583.449	9251.95
583.809	9506.18
584.169	9637.02
584.529	9801.76
584.889	9935.09
585.249	10112.26
585.609	10285.59
585.969	10551.12
586.329	10644.45
586.688	10847.61
587.048	11027.27
587.408	11317.43
587.768	11492.79
588.127	11709.96
588.487	11898.2
588.846	12197.63
589.206	12312.43
589.565	12632.2
589.925	12925.3
590.284	13112.41
590.643	13394.89
591.003	13638.5
591.362	13976.12
591.721	14126.85
592.08	14519.15
592.44	14767.96
592.799	15026.26
593.158	15250.21
593.517	15515.96
593.876	15817.2
594.235	16096.74
594.593	16324.08
594.952	16721.35
595.311	16893.78
595.67	17279.08
596.029	17539.41
596.387	17920.19
596.746	18197.47
597.104	18464.36
597.463	18712.04
597.822	19068.64
598.18	19232.25
598.538	19486.03
598.897	19992.45
599.255	20088.72
599.613	20584.76
599.972	20685.09
600.33	21045.53
600.688	21249.37
601.046	21574.56
601.404	21893.87
601.762	22092.74
602.12	22532.5
602.478	22709.67
602.836	22978.82
603.194	23183.11
603.552	23437.79
603.91	23599.59
604.268	23974.72
604.625	24150.09
604.983	24474.37
605.341	24591.2
605.698	25027.12
606.056	25253.33
606.413	25458.75
606.771	25612.19
607.128	26079.07
607.485	26084.95
607.843	26270.03
608.2	26787.3
608.557	26973.74
608.914	27022.33
609.272	27423.22
609.629	27675.42
609.986	27897.11
610.343	28083.99
610.7	28441.72
611.057	28484.21
611.414	28538.67
611.771	28813.69
612.127	29067.7
612.484	29236.05
612.841	29485.76
613.198	29489.15
613.554	29642.6
613.911	30001
614.267	30183.15
614.624	30271.28
614.98	30506.53
615.337	30826.75
615.693	30740.87
616.05	31054.76
616.406	31261.99
616.762	31158.04
617.118	31333.63
617.475	31673.73
617.831	31678.7
618.187	32002.08
618.543	32113.94
618.899	32379.02
619.255	32411.11
619.611	32547.15
619.967	32770.42
620.323	32842.29
620.678	32919.57
621.034	32886.35
621.39	33003.86
621.746	33171.77
622.101	33582.38
622.457	33514.36
622.812	33540.35
623.168	33711.42
623.523	33946.89
623.879	34016.49
624.234	33790.51
624.589	34106.89
624.945	34181.46
625.3	34253.77
625.655	34365.86
626.01	34288.12
626.365	34466.2
626.72	34522.92
627.075	34500.55
627.43	34543.71
627.785	34568.79
628.14	34708
628.495	34838.17
628.85	34866.41
629.205	34731.73
629.559	34981.89
629.914	35014.43
630.269	35061.66
630.623	35014.66
630.978	34940.99
631.332	35160.42
631.687	35462.1
632.041	35219.17
632.396	35239.51
632.75	35171.72
633.104	35238.61
633.459	35061.44
633.813	35225.5
634.167	35316.8
634.521	35340.07
634.875	35311.83
635.229	35403.8
635.583	35238.83
635.937	35245.39
636.291	35197.7
636.645	35427.3
636.999	35228.89
637.352	35419.85
637.706	35357.25
638.06	35453.29
638.413	35358.15
638.767	35295.78
639.121	35367.19
639.474	35162.68
639.828	35234.77
640.181	35262.56
640.534	35333.29
640.888	35182.11
641.241	35117.03
641.594	35227.31
641.947	35308.66
642.301	35140.76
642.654	35228.21
643.007	35166.97
643.36	35254.43
643.713	35211.04
644.066	35255.78
644.419	35197.48
644.771	34930.14
645.124	34686.98
645.477	34544.39
645.83	34470.94
646.182	34234.11
646.535	34133.1
646.888	34192.53
647.24	34132.42
647.593	34364.96
647.945	34218.3
648.298	34074.12
648.65	34042.93
649.002	34045.87
649.355	34217.39
649.707	34053.55
650.059	34277.5
650.411	34667.32
650.763	34665.29
651.115	35029.57
651.467	34959.74
651.819	34967.2
652.171	34839.52
652.523	34940.99
652.875	34803.59
653.227	34747.32
653.578	34971.5
653.93	34877.49
654.282	34695.34
654.633	34783.48
654.985	34757.26
655.337	34749.13
655.688	34792.97
656.039	34887.43
656.391	34550.49
656.742	34708.23
657.094	34647.89
657.445	34730.82
657.796	34755.68
658.147	34729.47
658.498	34641.79
658.849	34636.14
659.2	34671.39
659.551	34534.9
659.902	34740.77
660.253	34544.61
660.604	34613.54
660.955	34409.7
661.306	34668.9
661.656	34509.81
662.007	34623.93
662.358	34515.46
662.708	34435.92
663.059	34568.34
663.409	34294.45
663.76	34530.38
664.11	34467.78
664.461	34625.97
664.811	34510.49
665.161	34567.89
665.511	34397.5
665.862	34428.01
666.212	34646.53
666.562	34605.18
666.912	34559.08
667.262	34543.26
667.612	34566.31
667.962	34569.92
668.312	34491.51
668.662	34543.71
669.011	34565.18
669.361	34407.22
669.711	34387.1
670.06	34394.11
670.41	34417.16
670.76	34324.73
671.109	34567.44
671.459	34415.13
671.808	34268.46
672.157	34425.75
672.507	34095.59
672.856	34229.59
673.205	34339.42
673.554	34444.28
673.904	34095.13
674.253	34400.89
674.602	34351.85
674.951	33783.96
675.3	33698.31
675.649	34092.42
675.998	34150.5
676.346	34173.32
676.695	34422.13
677.044	34019.88
677.393	34112.08
677.741	34168.13
678.09	34108.24
678.438	33988.47
678.787	34035.25
679.135	34077.73
679.484	33943.5
679.832	33884.29
680.181	33752.09
680.529	33965.87
680.877	33772.43
681.225	33711.19
681.573	34000.45
681.922	33772.88
682.27	33633.45
682.618	33809.27
682.966	33482.5
683.314	33618.76
683.661	33638.65
684.009	33353.46
684.357	33297.19
684.705	33153.24
685.053	33308.49
685.4	33266.23
685.748	33060.36
686.095	33134.93
686.443	32847.71
686.79	32924.32
687.138	32939.23
687.485	33122.96
687.832	32977.2
688.18	32955.96
688.527	32762.51
688.874	32772.46
689.221	32701.95
689.568	32533.59
689.915	32471.22
690.262	32415.18
690.609	32314.62
690.956	32240.04
691.303	32282.07
691.65	32088.18
691.997	32141.97
692.344	31902.65
692.69	31863.1
693.037	31828.75
693.383	31739.72
693.73	31683.45
694.077	31655.42
694.423	31617.91
694.769	31490.01
695.116	31426.73
695.462	31374.75
695.808	31238.26
696.155	31397.13
696.501	31044.37
696.847	31204.36
697.193	30862
697.539	31003.92
697.885	30744.04
698.231	30683.92
698.577	30653.19
698.923	30727.77
699.269	30477.6
699.614	30463.14
699.96	30321
700.306	30250.72
700.651	30157.16
700.997	30094.11
701.342	30012.3
701.688	29956.71
702.033	29829.71
702.379	29869.71
702.724	29841.24
703.069	29913.55
703.415	29542.03
703.76	29507.46
704.105	29433.11
704.45	29595.37
704.795	29291.65
705.14	29229.05
705.485	29334.36
705.83	29056.62
706.175	29111.31
706.52	28982.05
706.865	28933.91
707.209	28931.2
707.554	28828.83
707.899	28881.71
708.243	28697.31
708.588	28764.2
708.932	28508.16
709.277	28548.39
709.621	28572.12
709.966	28388.84
710.31	28478.33
710.654	28141.17
710.998	28295.51
711.342	28177.78
711.687	28230.43
712.031	28016.2
712.375	27872.7
712.719	28072.92
713.063	27908.86
713.407	27955.63
713.75	27937.33
714.094	27834.28
714.438	27652.59
714.782	27623.67
715.125	27557
715.469	27567.17
715.812	27436.1
716.156	27440.85
716.499	27417.12
716.843	27384.58
717.186	27123.11
717.53	27231.13
717.873	27296.67
718.216	27262.55
718.559	27136.9
718.902	26928.32
719.246	26989.56
719.589	26846.06
719.932	26798.6
720.275	26741.43
720.617	26805.16
720.96	26703.46
721.303	26754.76
721.646	26724.03
721.989	26477.93
722.331	26654.43
722.674	26500.98
723.016	26495.33
723.359	26492.17
723.701	26502.11
724.044	26309.58
724.386	26197.94
724.729	26170.37
725.071	26119.53
725.413	26295.79
725.755	26144.84
726.097	26031.39
726.439	25981
726.782	25957.5
727.124	26133.54
727.465	25908.68
727.807	25813.77
728.149	25961.34
728.491	25893.99
728.833	25837.5
729.175	25661.68
729.516	25721.57
729.858	25532.2
730.199	25708.69
730.541	25669.82
730.882	25606.32
731.224	25689.71
731.565	25476.6
731.906	25481.12
732.248	25500.11
732.589	25304.63
732.93	25222.37
733.271	25277.51
733.612	25289.94
733.953	25363.84
734.294	25195.71
734.635	25127.69
734.976	25199.1
735.317	25127.23
735.658	25144.86
735.999	25030.29
736.339	25044.75
736.68	25066.22
737.021	25005.88
737.361	24891.99
737.702	24990.29
738.042	24760.01
738.383	24781.93
738.723	24921.14
739.063	24723.86
739.404	24744.42
739.744	24612.22
740.084	24616.29
740.424	24649.73
740.764	24492.45
741.104	24599.57
741.444	24435.73
741.784	24369.29
742.124	24517.08
742.464	24356.86
742.804	24363.19
743.143	24337.65
743.483	24323.87
743.823	24175.17
744.162	24224.66
744.502	24228.73
744.841	24055.62
745.181	24190.31
745.52	24105.34
745.86	24116.87
746.199	24047.49
746.538	23984.67
746.877	24027.15
747.216	23941.05
747.556	23936.31
747.895	23889.08
748.234	23715.29
748.573	23714.84
748.911	23695.63
749.25	23699.25
749.589	23556.88
749.928	23569.54
750.267	23626.03
750.605	23576.09
750.944	23513.72
751.283	23417.45
751.621	23471.69
751.96	23389.2
752.298	23224.69
752.636	23289.54
752.975	23188.3
753.313	23104.01
753.651	23224.46
753.989	23097.91
754.327	23026.73
754.666	22862.66
755.004	23009.32
755.342	23050.68
755.679	22915.99
756.017	22879.61
756.355	22906.73
756.693	22696.79
757.031	22832.38
757.368	22627.41
757.706	22574.08
758.044	22533.18
758.381	22537.7
758.719	22396.23
759.056	22318.72
759.394	22321.66
759.731	22157.14
760.068	22122.12
760.405	22087.54
760.743	22047.99
761.08	22120.31
761.417	21886.19
761.754	21878.96
762.091	21726.42
762.428	21705.4
762.765	21606.42
763.102	21697.72
763.438	21530.95
763.775	21391.51
764.112	21513.77
764.449	21545.18
764.785	21382.7
765.122	21123.95
765.458	21150.39
765.795	21066.55
766.131	20949.04
766.467	20977.97
766.804	20892.32
767.14	20808.25
767.476	20838.99
767.812	20742.72
768.148	20786.33
768.485	20543.4
768.821	20493.01
769.157	20528.03
769.492	20491.65
769.828	20363.97
770.164	20232.9
770.5	20091.66
770.836	20199.91
771.171	20050.53
771.507	19964.43
771.842	19806.92
772.178	19914.04
772.513	19795.62
772.849	19749.52
773.184	19638.34
773.519	19719.02
773.855	19554.27
774.19	19496.87
774.525	19378.46
774.86	19342.3
775.195	19304.56
775.53	19231.57
775.865	19110.67
776.2	19043.1
776.535	18952.26
776.87	18921.52
777.205	18978.92
777.539	18734.63
777.874	18806.5
778.209	18594.07
778.543	18642.21
778.878	18477.69
779.212	18433.85
779.547	18358.15
779.881	18426.17
780.215	18204.03
780.55	18288.54
780.884	18170.81
781.218	18108.21
781.552	18076.57
781.886	18018.5
782.22	17845.17
782.554	17881.55
782.888	17626.87
783.222	17547.55
783.556	17562.01
783.889	17444.72
784.223	17369.02
784.557	17412.64
784.89	17399.75
785.224	17245.63
785.557	17232.53
785.891	17171.06
786.224	17149.37
786.558	16997.51
786.891	16797.28
787.224	16827.79
787.557	16770.62
787.891	16769.04
788.224	16699.89
788.557	16728.81
788.89	16711.64
789.223	16557.06
789.556	16489.72
789.888	16441.59
790.221	16368.37
790.554	16292.89
790.887	16301.25
791.219	16208.15
791.552	16229.39
791.884	15982.39
792.217	15998.66
792.549	16026.01
792.882	15936.29
793.214	15811.77
793.546	15911.21
793.879	15762.96
794.211	15682.06
794.543	15748.72
794.875	15680.7
795.207	15603.64
795.539	15561.84
795.871	15582.4
796.203	15415.4
796.535	15331.79
796.867	15351.67
797.198	15280.49
797.53	15285.91
797.862	15154.39
798.193	15194.61
798.525	15045.01
798.856	15062.64
799.188	14945.58
799.519	14921.63
799.85	14800.73
800.182	14748.75
800.513	14790.56
800.844	14644.35
801.175	14673.95
801.506	14706.27
801.837	14496.33
802.168	14520.51
802.499	14555.99
802.83	14504.92
803.161	14477.35
803.491	14409.55
803.822	14369.55
804.153	14381.53
804.483	14275.32
804.814	14141.53
805.145	14180.4
805.475	14190.12
805.805	14039.16
806.136	14020.18
806.466	14106.96
806.796	14016.57
807.126	13883.01
807.457	13848.21
807.787	13809.57
808.117	13773.86
808.447	13765.95
808.777	13819.28
809.107	13629.46
809.436	13694.99
809.766	13709.46
810.096	13601.21
810.426	13580.65
810.755	13532.06
811.085	13558.5
811.414	13390.59
811.744	13359.86
812.073	13370.03
812.403	13355.79
812.732	13313.53
813.061	13289.13
813.39	13204.16
813.719	13207.1
814.049	13259.52
814.378	13134.1
814.707	13106.99
815.036	13098.17
815.365	12985.41
815.693	12893.43
816.022	12989.02
816.351	12861.57
816.68	12858.63
817.008	12866.31
817.337	12700.67
817.665	12746.09
817.994	12742.7
818.322	12771.18
818.651	12638.3
818.979	12621.35
819.307	12685.53
819.636	12698.64
819.964	12536.61
820.292	12648.92
820.62	12603.95
820.948	12465.19
821.276	12551.07
821.604	12563.95
821.932	12469.26
822.259	12463.16
822.587	12487.12
822.915	12440.79
823.243	12587.23
823.57	12443.73
823.898	12425.2
824.225	12398.76
824.553	12427.46
824.88	12499.32
825.207	12517.62
825.535	12465.87
825.862	12432.2
826.189	12445.31
826.516	12536.61
826.843	12437.62
827.17	12460.22
827.497	12502.93
827.824	12403.73
828.151	12450.96
828.478	12426.33
828.805	12445.31
829.131	12365.08
829.458	12348.59
829.785	12388.59
830.111	12374.12
830.438	12412.31
830.764	12422.48
831.09	12362.6
831.417	12352.88
831.743	12412.99
832.069	12373.22
832.395	12296.39
832.722	12423.39
833.048	12293
833.374	12300
833.7	12278.99
834.026	12292.32
834.351	12279.66
834.677	12276.73
835.003	12312.66
835.329	12243.28
835.654	12275.37
835.98	12168.03
836.306	12211.42
836.631	12193.34
836.956	12195.82
837.282	12178.87
837.607	12030.63
837.932	12040.57
838.258	12053.45
838.583	12095.04
838.908	11994.02
839.233	12031.31
839.558	11903.63
839.883	11908.15
840.208	11954.02
840.533	11974.59
840.858	11988.37
841.182	11888.03
841.507	11896.85
841.832	11785.21
842.156	11772.11
842.481	11805.78
842.805	11789.28
843.13	11748.15
843.454	11739.34
843.778	11678.77
844.103	11618.66
844.427	11658.21
844.751	11677.64
845.075	11582.51
845.399	11582.05
845.723	11552.68
846.047	11538.44
846.371	11463.41
846.695	11395.39
847.019	11299.8
847.343	11270.42
847.666	11221.61
847.99	11145.91
848.313	11073.37
848.637	11053.48
848.96	11055.51
849.284	11077.21
849.607	10911.34
849.931	10944.1
850.254	10818.91
850.577	10822.98
850.9	10649.2
851.223	10735.52
851.546	10600.84
851.869	10630.21
852.192	10646.71
852.515	10497.34
852.838	10490.11
853.161	10499.6
853.483	10474.74
853.806	10427.51
854.129	10385.93
854.451	10373.72
854.774	10297.12
855.096	10285.37
855.419	10137.35
855.741	10226.84
856.063	10165.82
856.385	10109.55
856.708	10123.11
857.03	10099.16
857.352	10030.46
857.674	9985.26
857.996	10010.57
858.318	9907.07
858.64	9963.57
858.961	10012.15
859.283	9877.69
859.605	9886.51
859.926	9949.33
860.248	9826.62
860.57	9702.1
860.891	9732.61
861.212	9684.25
861.534	9635.89
861.855	9628.66
862.176	9686.51
862.498	9632.5
862.819	9682.44
863.14	9662.56
863.461	9586.63
863.782	9555.89
864.103	9586.17
864.424	9536.23
864.745	9586.4
865.065	9559.28
865.386	9418.27
865.707	9449.91
866.027	9437.03
866.348	9473.86
866.668	9385.95
866.989	9387.99
867.309	9316.58
867.63	9353.19
867.95	9352.06
868.27	9258.73
868.59	9344.37
868.91	9359.97
869.23	9361.32
869.55	9197.94
869.87	9250.14
870.19	9260.08
870.51	9262.12
870.83	9214.43
871.15	9244.26
871.469	9171.72
871.789	9176.24
872.109	9181.21
872.428	9105.06
872.748	9160.65
873.067	9082.68
873.386	9107.77
873.706	9070.03
874.025	9062.35
874.344	9010.6
874.663	9005.4
874.982	9013.08
875.301	9019.18
875.62	8972.86
875.939	8944.84
876.258	9003.82
876.577	8934.21
876.896	8917.49
877.214	8904.38
877.533	8934.67
877.852	8858.28
878.17	8866.42
878.489	8846.08
878.807	8896.48
879.125	8796.59
879.444	8851.28
879.762	8804.27
880.08	8777.83
880.398	8755.69
880.716	8724.73
881.034	8693.77
881.352	8710.49
881.67	8694.22
881.988	8698.74
882.306	8620.1
882.624	8708.68
882.941	8580.33
883.259	8567.67
883.577	8540.33
883.894	8564.28
884.212	8540.1
884.529	8509.37
884.846	8503.49
885.164	8484.06
885.481	8430.72
885.798	8472.08
886.115	8373.55
886.432	8417.39
886.75	8389.6
887.067	8285.42
887.383	8300.33
887.7	8374.23
888.017	8320.9
888.334	8320.45
888.651	8230.73
888.967	8226.89
889.284	8205.19
889.6	8260.33
889.917	8192.54
890.233	8150.51
890.55	8132.65
890.866	8076.61
891.182	8033.9
891.498	8027.8
891.815	8055.37
892.131	7989.15
892.447	7977.86
892.763	7963.62
893.079	7887.69
893.395	7848.82
893.71	7834.36
894.026	7913.22
894.342	7835.94
894.657	7739.22
894.973	7795.49
895.289	7745.32
895.604	7790.52
895.92	7689.5
896.235	7633.01
896.55	7679.78
896.865	7622.61
897.181	7582.84
897.496	7590.29
897.811	7557.3
898.126	7553.91
898.441	7471.65
898.756	7503.74
899.071	7383.07
899.386	7429.4
899.7	7453.12
900.015	7350.3
900.33	7334.48
900.644	7280.47
900.959	7323.18
901.273	7272.56
901.588	7207.93
901.902	7162.28
902.216	7175.39
902.531	7157.31
902.845	7108.05
903.159	7127.03
903.473	7046.81
903.787	7099.69
904.101	7022.85
904.415	6996.19
904.729	6970.65
905.042	6889.97
905.356	6868.96
905.67	6956.64
905.984	6885.45
906.297	6853.14
906.611	6768.4
906.924	6835.06
907.237	6795.51
907.551	6758.45
907.864	6706.93
908.177	6731.79
908.491	6713.93
908.804	6646.82
909.117	6627.38
909.43	6564.11
909.743	6555.97
910.056	6542.41
910.368	6491.57
910.681	6506.48
910.994	6475.3
911.307	6468.29
911.619	6416.99
911.932	6381.51
912.244	6347.39
912.557	6323.21
912.869	6298.8
913.181	6334.96
913.494	6322.98
913.806	6231.23
914.118	6193.72
914.43	6198.92
914.742	6122.31
915.054	6133.84
915.366	6124.12
915.678	6098.13
915.99	6071.46
916.302	6039.6
916.613	6052.48
916.925	6003.67
917.236	5989.88
917.548	5945.59
917.859	6001.64
918.171	5948.3
918.482	5927.74
918.794	5882.77
919.105	5853.84
919.416	5817.23
919.727	5813.84
920.038	5798.7
920.349	5733.17
920.66	5685.26
920.971	5676.67
921.282	5651.36
921.593	5649.78
921.903	5640.52
922.214	5577.24
922.525	5583.57
922.835	5534.53
923.146	5534.53
923.456	5505.6
923.767	5501.54
924.077	5484.36
924.387	5425.38
924.697	5429
925.008	5374.08
925.318	5376.57
925.628	5326.17
925.938	5321.2
926.248	5308.77
926.558	5254.09
926.867	5257.02
927.177	5238.04
927.487	5201.66
927.796	5154.88
928.106	5109.68
928.416	5118.95
928.725	5163.47
929.034	5128.66
929.344	5120.76
929.653	5078.72
929.962	5036.24
930.271	4980.19
930.581	5005.73
930.89	4959.18
931.199	4911.95
931.508	4928.67
931.817	4928.44
932.125	4927.99
932.434	4880.76
932.743	4830.82
933.051	4852.51
933.36	4789.01
933.669	4786.53
933.977	4790.82
934.286	4767.09
934.594	4731.84
934.902	4694.78
935.21	4665.85
935.519	4628.79
935.827	4647.32
936.135	4556.93
936.443	4623.14
936.751	4570.71
937.059	4567.32
937.367	4586.53
937.674	4539.08
937.982	4506.76
938.29	4491.62
938.597	4483.71
938.905	4428.8
939.213	4450.26
939.52	4462.02
939.827	4418.17
940.135	4334.56
940.442	4376.14
940.749	4359.65
941.056	4320.78
941.363	4301.57
941.67	4280.55
941.977	4240.1
942.284	4316.03
942.591	4258.63
942.898	4228.8
943.205	4221.34
943.511	4144.96
943.818	4169.14
944.125	4212.98
944.431	4132.98
944.738	4096.83
945.044	4077.84
945.35	4121.01
945.657	4049.14
945.963	4036.49
946.269	4014.12
946.575	4033.33
946.881	3983.38
947.187	3973.44
947.493	3962.37
947.799	3959.2
948.105	3932.31
948.41	3875.36
948.716	3887.34
949.022	3860
949.327	3848.02
949.633	3823.39
949.938	3802.82
950.244	3840.34
950.549	3780.45
950.854	3743.16
951.16	3735.93
951.465	3741.13
951.77	3725.31
952.075	3725.99
952.38	3698.42
952.685	3734.12
952.99	3622.49
953.294	3628.59
953.599	3652.77
953.904	3644.41
954.209	3576.16
954.513	3540.23
954.818	3506.56
955.122	3570.97
955.426	3505.66
955.731	3521.93
956.035	3482.83
956.339	3517.63
956.643	3491.87
956.948	3450.97
957.252	3411.2
957.556	3456.84
957.86	3470.4
958.163	3385.89
958.467	3367.58
958.771	3422.49
959.075	3373.91
959.378	3396.05
959.682	3306.79
959.985	3310.18
960.289	3295.04
960.592	3332.33
960.896	3262.95
961.199	3267.47
961.502	3261.6
961.805	3235.16
962.108	3217.53
962.411	3203.74
962.714	3209.17
963.017	3193.12
963.32	3206.23
963.623	3128.94
963.926	3148.38
964.228	3127.14
964.531	3137.3
964.833	3086.23
965.136	3065.22
965.438	3071.77
965.741	3060.24
966.043	3054.14
966.345	2996.74
966.648	3009.85
966.95	3015.5
967.252	2988.83
967.554	2990.19
967.856	2947.03
968.158	2918.33
968.46	2949.96
968.761	2908.38
969.063	2923.98
969.365	2909.74
969.666	2861.61
969.968	2846.46
970.269	2839.69
970.571	2878.78
970.872	2861.15
971.174	2856.86
971.475	2842.85
971.776	2787.48
972.077	2785.22
972.378	2795.39
972.679	2774.6
972.98	2784.77
973.281	2719.01
973.582	2712.23
973.883	2745.68
974.183	2710.88
974.484	2708.16
974.785	2711.55
975.085	2690.76
975.386	2674.72
975.686	2647.15
975.986	2621.61
976.287	2640.82
976.587	2593.82
976.887	2593.14
977.187	2599.92
977.487	2578
977.787	2545.68
978.087	2528.28
978.387	2584.1
978.687	2535.51
978.987	2533.48
979.286	2517.43
979.586	2524.89
979.885	2515.85
980.185	2444.44
980.484	2446.02
980.784	2473.37
981.083	2432.24
981.382	2471.79
981.682	2436.53
981.981	2452.58
982.28	2408.06
982.579	2415.97
982.878	2390.66
983.177	2417.78
983.475	2345.91
983.774	2354.73
984.073	2337.78
984.372	2335.97
984.67	2348.85
984.969	2314.95
985.267	2304.56
985.566	2300.04
985.864	2276.08
986.162	2298.23
986.461	2303.88
986.759	2280.15
987.057	2261.17
987.355	2246.93
987.653	2236.99
987.951	2223.43
988.249	2199.25
988.547	2220.27
988.844	2196.31
989.142	2240.38
989.44	2162.87
989.737	2183.88
990.035	2161.96
990.332	2146.37
990.63	2106.82
990.927	2150.21
991.224	2143.43
991.521	2136.88
991.819	2091.68
992.116	2113.6
992.413	2084.22
992.71	2054.4
993.006	2052.81
993.303	2058.91
993.6	2051.23
993.897	2045.36
994.193	2013.94
994.49	2028.41
994.787	1989.99
995.083	1993.83
995.379	1949.99
995.676	1972.14
995.972	1970.33
996.268	1965.58
996.565	1943.89
996.861	1951.57
997.157	1929.88
997.453	1921.52
997.749	1927.62
998.044	1907.73
998.34	1870.22
998.636	1905.7
998.932	1878.81
999.227	1870.22
999.523	1871.58
999.818	1846.94
1000.114	1860.05
1000.409	1818.7
1000.704	1849.88
1001	1832.25
1001.295	1833.16
1001.59	1796.1
1001.885	1766.72
1002.18	1782.99
1002.475	1757
1002.77	1734.18
1003.065	1740.96
1003.359	1764.01
1003.654	1748.41
1003.949	1704.35
1004.243	1746.61
1004.538	1692.37
1004.832	1700.73
1005.127	1691.24
1005.421	1655.31
1005.715	1658.47
1006.009	1652.82
1006.304	1620.28
1006.598	1643.78
1006.892	1633.16
1007.186	1590.45
1007.48	1604.01
1007.773	1605.14
1008.067	1628.19
1008.361	1583.9
1008.655	1540.06
1008.948	1571.47
1009.242	1554.07
1009.535	1564.92
1009.829	1535.31
1010.122	1547.06
1010.415	1525.6
1010.708	1529.89
1011.001	1502.09
1011.295	1502.55
1011.588	1526.27
1011.881	1482.66
1012.173	1505.03
1012.466	1460.06
1012.759	1451.25
1013.052	1471.13
1013.344	1473.85
1013.637	1422.55
1013.93	1449.21
1014.222	1436.11
1014.514	1408.76
1014.807	1395.2
1015.099	1408.99
1015.391	1413.28
1015.683	1386.84
1015.976	1389.55
1016.268	1385.94
1016.56	1359.05
1016.851	1348.42
1017.143	1344.36
1017.435	1341.87
1017.727	1323.11
1018.018	1295.55
1018.31	1299.16
1018.602	1287.64
1018.893	1293.96
1019.185	1291.7
1019.476	1260.29
1019.767	1261.87
1020.058	1266.85
1020.35	1230.69
1020.641	1259.16
1020.932	1220.74
1021.223	1243.34
1021.514	1212.38
1021.804	1219.61
1022.095	1218.03
1022.386	1201.08
1022.677	1186.85
1022.967	1185.04
1023.258	1179.39
1023.548	1175.77
1023.839	1159.96
1024.129	1172.16
1024.419	1159.05
1024.709	1169.67
1025	1129.9
1025.29	1114.98
1025.58	1133.52
1025.87	1111.37
1026.16	1123.35
1026.449	1105.27
1026.739	1094.65
1027.029	1079.51
1027.319	1085.83
1027.608	1078.6
1027.898	1064.36
1028.187	1053.07
1028.477	1010.81
1028.766	1059.17
1029.055	1053.52
1029.344	1046.96
1029.634	1035.66
1029.923	1027.76
1030.212	1014.65
1030.501	1000.41
1030.79	1005.38
1031.078	1012.84
1031.367	988.43
1031.656	978.49
1031.945	975.55
1032.233	992.73
1032.522	987.53
1032.81	977.59
1033.099	949.79
1033.387	945.27
1033.675	969.23
1033.963	947.76
1034.251	937.36
1034.54	949.11
1034.828	916.8
1035.116	924.26
1035.403	916.35
1035.691	906.4
1035.979	910.02
1036.267	885.61
1036.554	888.55
1036.842	901.88
1037.129	859.62
1037.417	880.64
1037.704	858.27
1037.992	854.65
1038.279	862.34
1038.566	841.55
1038.853	841.55
1039.14	841.55
