Data from hue_280_FLMS001491_00071.txt Node
Date: Tue Feb 07 15:55:44 GMT 2017
User: dcchb
Spectrometer: FLMS00149
Trigger mode: 0
Integration Time (sec): 2.000000E-2
Scans to average: 10
Electric dark correction enabled: true
Nonlinearity correction enabled: false
Boxcar width: 0
XAxis mode: Wavelengths
Number of Pixels in Spectrum: 2048
>>>>>Begin Spectral Data<<<<<
341.393	-22.16
341.776	-22.16
342.16	-22.16
342.543	-58.32
342.927	-75.04
343.31	-59.9
343.693	-70.29
344.077	-55.38
344.46	-93.12
344.843	-44.53
345.226	-50.86
345.61	-35.27
345.993	-16.28
346.376	-2.05
346.759	38.63
347.142	27.78
347.525	34.34
347.908	51.96
348.291	71.62
348.674	84.73
349.057	118.63
349.44	124.05
349.823	130.38
350.206	145.74
350.588	173.31
350.971	219.64
351.354	217.38
351.737	244.73
352.119	238.4
352.502	241.11
352.884	279.53
353.267	282.01
353.65	300.99
354.032	287.89
354.414	302.58
354.797	299.19
355.179	301.22
355.562	322.92
355.944	319.75
356.326	328.34
356.709	332.63
357.091	313.88
357.473	336.47
357.855	342.12
358.238	340.32
358.62	339.41
359.002	346.64
359.384	329.24
359.766	347.77
360.148	324.05
360.53	335.12
360.912	351.84
361.294	334.44
361.676	345.06
362.057	327.43
362.439	321.11
362.821	308.45
363.203	312.29
363.584	325.63
363.966	350.26
364.348	336.47
364.729	309.58
365.111	322.01
365.493	297.83
365.874	313.2
366.256	327.21
366.637	303.93
367.019	298.51
367.4	312.75
367.781	291.28
368.163	308.45
368.544	302.8
368.925	315.91
369.306	324.05
369.688	313.65
370.069	309.13
370.45	305.97
370.831	312.52
371.212	327.66
371.593	312.52
371.974	312.75
372.355	328.34
372.736	319.75
373.117	328.34
373.498	326.08
373.879	312.52
374.26	315.91
374.641	309.36
375.021	320.2
375.402	301.22
375.783	324.95
376.163	300.09
376.544	320.88
376.925	343.03
377.305	336.02
377.686	322.46
378.066	319.53
378.447	317.72
378.827	329.47
379.208	349.58
379.588	339.86
379.968	317.94
380.349	327.89
380.729	341.45
381.109	335.8
381.489	343.71
381.87	336.25
382.25	315.91
382.63	342.8
383.01	333.54
383.39	345.74
383.77	349.13
384.15	336.93
384.53	359.07
384.91	324.27
385.29	370.15
385.67	351.84
386.049	349.58
386.429	367.43
386.809	363.14
387.189	351.84
387.568	315.68
387.948	349.81
388.328	349.13
388.707	363.82
389.087	352.74
389.466	387.09
389.846	378.28
390.225	385.74
390.605	379.18
390.984	374.21
391.363	375.57
391.743	361.11
392.122	371.05
392.501	381.22
392.881	390.71
393.26	374.21
393.639	379.86
394.018	402.24
394.397	352.52
394.776	394.55
395.155	396.36
395.534	395.46
395.913	397.94
396.292	398.85
396.671	396.81
397.05	411.95
397.429	395.23
397.808	378.73
398.186	393.65
398.565	395
398.944	392.52
399.323	427.55
399.701	404.72
400.08	410.82
400.458	432.06
400.837	423.25
401.215	419.18
401.594	419.86
401.972	434.32
402.351	427.32
402.729	433.87
403.107	447.66
403.486	449.69
403.864	448.34
404.242	446.75
404.62	422.8
404.999	442.01
405.377	457.83
405.755	458.73
406.133	456.92
406.511	453.53
406.889	453.99
407.267	463.93
407.645	486.3
408.023	483.36
408.401	500.09
408.779	501.67
409.156	501.22
409.534	511.38
409.912	489.46
410.29	491.95
410.667	530.59
411.045	531.05
411.422	560.2
411.8	537.6
412.178	550.93
412.555	540.99
412.933	552.06
413.31	570.37
413.687	588.22
414.065	578.28
414.442	570.37
414.819	575.11
415.197	612.17
415.574	589.57
415.951	612.63
416.328	612.4
416.705	620.08
417.082	627.77
417.46	635.68
417.837	664.83
418.214	639.97
418.591	661.89
418.967	666.86
419.344	657.14
419.721	696.92
420.098	685.84
420.475	685.62
420.852	703.47
421.228	715.45
421.605	733.53
421.982	716.58
422.358	761.1
422.735	747.08
423.111	758.84
423.488	750.25
423.864	769.91
424.241	790.93
424.617	811.04
424.994	797.03
425.37	817.37
425.746	825.5
426.123	815.78
426.499	865.05
426.875	870.92
427.251	812.85
427.627	870.02
428.003	874.31
428.379	881.32
428.756	893.07
429.132	895.1
429.507	924.93
429.883	904.82
430.259	957.25
430.635	951.83
431.011	947.31
431.387	960.64
431.763	1003.35
432.138	987.3
432.514	1034.08
432.89	1019.39
433.265	1041.77
433.641	1041.99
434.016	1073.86
434.392	1095.78
434.767	1099.39
435.143	1104.82
435.518	1116.11
435.894	1152.95
436.269	1131.93
436.644	1157.7
437.02	1168.77
437.395	1203.12
437.77	1158.6
438.145	1246.05
438.52	1232.72
438.895	1220.52
439.271	1240.18
439.646	1288.31
440.021	1288.99
440.395	1266.62
440.77	1300.97
441.145	1304.58
441.52	1332.61
441.895	1328.54
442.27	1347.97
442.645	1344.81
443.019	1370.8
443.394	1366.05
443.769	1360.85
444.143	1365.6
444.518	1406.05
444.892	1378.03
445.267	1395.2
445.641	1430.68
446.016	1400.18
446.39	1438.59
446.764	1433.85
447.139	1447.63
447.513	1438.59
447.887	1437.24
448.262	1474.52
448.636	1448.31
449.01	1489.21
449.384	1498.03
449.758	1497.35
450.132	1494.64
450.506	1527.63
450.88	1540.28
451.254	1519.72
451.628	1553.39
452.002	1552.26
452.376	1592.49
452.75	1556.33
453.123	1580.06
453.497	1622.32
453.871	1606.5
454.244	1632.94
454.618	1651.47
454.992	1653.73
455.365	1655.08
455.739	1701.64
456.112	1713.61
456.486	1716.32
456.859	1744.35
457.232	1752.71
457.606	1755.87
457.979	1735.76
458.352	1802.88
458.725	1812.59
459.099	1806.04
459.472	1857.34
459.845	1867.96
460.218	1857.34
460.591	1866.6
460.964	1873.61
461.337	1904.79
461.71	1953.38
462.083	1982.31
462.456	1940.73
462.829	1980.27
463.201	1995.64
463.574	1971.46
463.947	1997.22
464.32	2059.37
464.692	2052.14
465.065	2067.05
465.438	2112.25
465.81	2112.25
466.183	2143.66
466.555	2194.28
466.928	2180.95
467.3	2171.91
467.672	2200.38
468.045	2256.88
468.417	2231.57
468.789	2239.7
469.161	2307.5
469.534	2293.71
469.906	2366.03
470.278	2368.96
470.65	2385.69
471.022	2406.93
471.394	2465.68
471.766	2458.23
472.138	2484.21
472.51	2540.48
472.882	2540.71
473.253	2533.03
473.625	2586.13
473.997	2641.27
474.369	2626.13
474.74	2660.48
475.112	2711.78
475.484	2709.29
475.855	2788.39
476.227	2769.18
476.598	2833.81
476.97	2881.27
477.341	2899.34
477.713	2940.7
478.084	2936.63
478.455	3015.95
478.827	3016.63
479.198	3094.82
479.569	3077.42
479.94	3154.93
480.311	3175.04
480.682	3254.82
481.053	3302.27
481.424	3309.28
481.795	3297.53
482.166	3356.06
482.537	3402.38
482.908	3448.26
483.279	3496.39
483.65	3533
484.021	3610.74
484.391	3608.03
484.762	3619.55
485.133	3661.58
485.503	3676.73
485.874	3781.36
486.244	3773.67
486.615	3863.39
486.985	3834.91
487.356	3932.54
487.726	3933.44
488.097	4000.78
488.467	4037.62
488.837	4117.62
489.207	4103.83
489.578	4172.53
489.948	4198.52
490.318	4203.72
490.688	4257.95
491.058	4292.53
491.428	4351.28
491.798	4364.62
492.168	4411.85
492.538	4404.84
492.908	4476.93
493.278	4534.78
493.648	4522.8
494.017	4606.87
494.387	4618.62
494.757	4599.19
495.126	4654.55
495.496	4678.05
495.866	4716.7
496.235	4690.94
496.605	4735.91
496.974	4780.65
497.344	4796.24
497.713	4827.2
498.082	4844.15
498.452	4913.75
498.821	4909.24
499.19	4918.27
499.559	4937.03
499.928	4956.69
500.298	5014.54
500.667	5001.66
501.036	5026.07
501.405	5060.64
501.774	5056.12
502.143	5130.92
502.512	5152.17
502.88	5142.45
503.249	5111.49
503.618	5124.6
503.987	5218.38
504.356	5179.74
504.724	5210.24
505.093	5221.32
505.462	5205.72
505.83	5224.26
506.199	5273.29
506.567	5332.73
506.936	5357.81
507.304	5376.12
507.672	5356.46
508.041	5383.8
508.409	5396.45
508.777	5483.23
509.145	5495.21
509.514	5471.03
509.882	5470.8
510.25	5514.42
510.618	5504.25
510.986	5537.92
511.354	5558.71
511.722	5581.31
512.09	5615.66
512.458	5622.89
512.826	5645.26
513.193	5646.17
513.561	5671.02
513.929	5668.54
514.297	5757.12
514.664	5787.4
515.032	5745.15
515.4	5783.11
515.767	5786.73
516.135	5796.67
516.502	5722.32
516.869	5844.13
517.237	5799.38
517.604	5772.04
517.972	5863.56
518.339	5886.16
518.706	5887.51
519.073	5899.72
519.44	5890.9
519.808	5937.68
520.175	5958.25
520.542	6044.12
520.909	6027.17
521.276	5993.27
521.643	6070.11
522.009	6073.72
522.376	6112.59
522.743	6090
523.11	6180.39
523.477	6207.05
523.843	6171.8
524.21	6264.68
524.577	6273.04
524.943	6269.2
525.31	6279.14
525.676	6356.88
526.043	6338.8
526.409	6373.15
526.776	6375.64
527.142	6409.76
527.508	6450.21
527.874	6415.64
528.241	6473.71
528.607	6501.51
528.973	6570.66
529.339	6563.66
529.705	6557.78
530.071	6587.84
530.437	6651.11
530.803	6613.6
531.169	6669.64
531.535	6680.94
531.901	6725.68
532.267	6718.23
532.632	6737.44
532.998	6769.75
533.364	6804.33
533.73	6812.69
534.095	6895.17
534.461	6900.6
534.826	6896.3
535.192	6854.49
535.557	6896.3
535.923	6907.6
536.288	6949.63
536.653	6979.01
537.019	6970.2
537.384	6964.32
537.749	7045
538.114	6943.53
538.479	6971.33
538.845	7016.98
539.21	7006.81
539.575	7067.37
539.94	7090.42
540.305	7120.48
540.67	7093.13
541.034	7099.23
541.399	7065.34
541.764	7138.1
542.129	7168.38
542.494	7176.75
542.858	7160.93
543.223	7175.84
543.587	7192.34
543.952	7211.1
544.316	7288.61
544.681	7241.38
545.045	7339.68
545.41	7267.37
545.774	7336.74
546.138	7295.16
546.503	7350.98
546.867	7280.25
547.231	7377.87
547.595	7400.24
547.959	7426.46
548.324	7358.66
548.688	7454.71
549.052	7463.97
549.416	7437.08
549.779	7454.93
550.143	7415.84
550.507	7435.95
550.871	7481.6
551.235	7491.99
551.599	7536.74
551.962	7530.18
552.326	7468.04
552.689	7603.63
553.053	7509.62
553.417	7561.37
553.78	7673.91
554.143	7618.54
554.507	7624.64
554.87	7687.92
555.234	7749.84
555.597	7712.78
555.96	7705.77
556.323	7686.34
556.686	7739.22
557.05	7752.55
557.413	7827.8
557.776	7750.52
558.139	7781.25
558.502	7851.76
558.865	7842.94
559.228	7836.39
559.59	7960.45
559.953	7920.91
560.316	7999.32
560.679	7988.02
561.041	7999.55
561.404	7984.18
561.767	8050.62
562.129	8022.37
562.492	8092.43
562.854	8143.5
563.217	8141.47
563.579	8181.47
563.941	8192.54
564.304	8218.3
564.666	8189.38
565.028	8327.22
565.39	8319.32
565.753	8336.49
566.115	8322.25
566.477	8350.5
566.839	8381.01
567.201	8452.64
567.563	8460.1
567.925	8428.46
568.287	8498.97
568.648	8551.17
569.01	8577.84
569.372	8678.4
569.734	8617.39
570.095	8633.21
570.457	8708.68
570.819	8738.06
571.18	8712.3
571.542	8813.31
571.903	8782.35
572.265	8802.47
572.626	8854.67
572.987	8875.23
573.349	8956.36
573.71	8962.69
574.071	8983.7
574.432	8990.94
574.794	9095.11
575.155	9127.2
575.516	9048.11
575.877	9100.76
576.238	9171.95
576.599	9176.02
576.96	9251.04
577.32	9253.98
577.681	9265.5
578.042	9348.21
578.403	9442
578.763	9414.88
579.124	9470.92
579.485	9550.7
579.845	9615.1
580.206	9570.13
580.566	9628.89
580.927	9664.14
581.287	9720.63
581.648	9799.5
582.008	9798.6
582.368	9831.37
582.728	9921.98
583.089	9935.77
583.449	9965.6
583.809	10051.02
584.169	10162.88
584.529	10128.53
584.889	10319.04
585.249	10303.22
585.609	10301.18
585.969	10439.94
586.329	10448.52
586.688	10503.89
587.048	10644.9
587.408	10628.18
587.768	10719.7
588.127	10754.73
588.487	10740.04
588.846	10987.04
589.206	10996.31
589.565	10985.23
589.925	11135.29
590.284	11195.17
590.643	11267.49
591.003	11321.95
591.362	11417.99
591.721	11511.32
592.08	11506.35
592.44	11648.72
592.799	11648.49
593.158	11686.68
593.517	11751.54
593.876	11816.4
594.235	11947.92
594.593	11973.23
594.952	12143.17
595.311	12032.89
595.67	12188.82
596.029	12332.32
596.387	12370.96
596.746	12413.44
597.104	12436.04
597.463	12488.92
597.822	12598.52
598.18	12614.34
598.538	12682.82
598.897	12834.45
599.255	12765.75
599.613	12896.6
599.972	12944.28
600.33	13039.87
600.688	12939.08
601.046	13142.69
601.404	13237.83
601.762	13249.58
602.12	13296.81
602.478	13422.23
602.836	13360.54
603.194	13366.87
603.552	13392.63
603.91	13331.84
604.268	13516.47
604.625	13558.95
604.983	13626.52
605.341	13604.15
605.698	13688.89
606.056	13796.46
606.413	13752.39
606.771	13794.88
607.128	13914.2
607.485	13846.4
607.843	13951.71
608.2	14085.27
608.557	14091.82
608.914	14070.12
609.272	14151.48
609.629	14250.91
609.986	14350.79
610.343	14231.02
610.7	14326.16
611.057	14350.34
611.414	14390.79
611.771	14410.23
612.127	14508.08
612.484	14483.67
612.841	14647.28
613.198	14516.67
613.554	14581.52
613.911	14685.25
614.267	14710.56
614.624	14616.32
614.98	14720.73
615.337	14755.76
615.693	14655.42
616.05	14798.47
616.406	14848.41
616.762	14773.38
617.118	14856.32
617.475	14799.6
617.831	14983.09
618.187	14978.58
618.543	14928.18
618.899	15059.02
619.255	15109.87
619.611	15015.18
619.967	15112.81
620.323	15083.21
620.678	15002.76
621.034	15085.69
621.39	15122.53
621.746	15082.53
622.101	15268.74
622.457	15107.84
622.812	15111.23
623.168	15285.46
623.523	15201.62
623.879	15291.79
624.234	15116.88
624.589	15244.33
624.945	15219.47
625.3	15277.78
625.655	15261.05
626.01	15244.1
626.365	15272.58
626.72	15227.16
627.075	15205.24
627.43	15232.81
627.785	15260.6
628.14	15365.91
628.495	15288.85
628.85	15280.94
629.205	15187.84
629.559	15332.24
629.914	15232.13
630.269	15279.36
630.623	15221.96
630.978	15189.19
631.332	15246.82
631.687	15365.23
632.041	15274.16
632.396	15254.95
632.75	15188.74
633.104	15252.92
633.459	15217.21
633.813	15166.37
634.167	15163.2
634.521	15267.38
634.875	15073.49
635.229	15186.03
635.583	15031.46
635.937	15088.18
636.291	15043.21
636.645	15095.63
636.999	15053.6
637.352	15115.52
637.706	14972.25
638.06	15052.92
638.413	14915.75
638.767	15065.8
639.121	15083.43
639.474	15006.6
639.828	15022.42
640.181	15026.03
640.534	15018.12
640.888	14910.78
641.241	14873.04
641.594	14873.95
641.947	14917.79
642.301	14955.07
642.654	14905.58
643.007	14935.86
643.36	14857.45
643.713	14818.35
644.066	14919.82
644.419	14866.04
644.771	14765.93
645.124	14599.38
645.477	14571.81
645.83	14468.08
646.182	14471.92
646.535	14387.4
646.888	14385.82
647.24	14287.52
647.593	14425.82
647.945	14442.54
648.298	14403.9
648.65	14353.05
649.002	14263.79
649.355	14376.11
649.707	14412.49
650.059	14462.66
650.411	14607.51
650.763	14617.91
651.115	14853.38
651.467	14698.36
651.819	14742.88
652.171	14641.41
652.523	14726.83
652.875	14634.63
653.227	14652.26
653.578	14800.05
653.93	14698.36
654.282	14581.3
654.633	14703.33
654.985	14696.1
655.337	14646.38
655.688	14720.28
656.039	14779.03
656.391	14673.5
656.742	14669.66
657.094	14753.27
657.445	14771.8
657.796	14751.69
658.147	14714.63
658.498	14756.43
658.849	14739.71
659.2	14682.99
659.551	14630.79
659.902	14718.24
660.253	14759.37
660.604	14783.1
660.955	14697.9
661.306	14728.19
661.656	14717.34
662.007	14750.33
662.358	14793.27
662.708	14769.32
663.059	14806.83
663.409	14664.23
663.76	14769.09
664.11	14867.39
664.461	14871.01
664.811	14817.68
665.161	14813.38
665.511	14815.19
665.862	14790.78
666.212	14877.33
666.562	14855.87
666.912	14817.68
667.262	14768.41
667.612	14697.23
667.962	14831.69
668.312	14803.66
668.662	14900.84
669.011	14770.22
669.361	14814.74
669.711	14741.75
670.06	14746.72
670.41	14719.6
670.76	14698.81
671.109	14836.43
671.459	14775.87
671.808	14796.88
672.157	14736.55
672.507	14657.45
672.856	14698.13
673.205	14740.16
673.554	14694.51
673.904	14643.89
674.253	14753.5
674.602	14695.42
674.951	14459.72
675.3	14347.63
675.649	14621.07
675.998	14571.81
676.346	14599.6
676.695	14635.08
677.044	14598.25
677.393	14568.19
677.741	14575.42
678.09	14562.99
678.438	14530.68
678.787	14577
679.135	14525.93
679.484	14425.82
679.832	14476.44
680.181	14383.34
680.529	14379.04
680.877	14381.98
681.225	14370.68
681.573	14358.48
681.922	14371.36
682.27	14231.48
682.618	14224.47
682.966	14222.44
683.314	14228.54
683.661	14207.97
684.009	14099.73
684.357	14048.88
684.705	14101.54
685.053	14115.55
685.4	14102.67
685.748	14048.88
686.095	13943.12
686.443	13981.77
686.79	13939.51
687.138	13967.53
687.485	13968.21
687.832	13829.9
688.18	13748.1
688.527	13776.35
688.874	13819.74
689.221	13730.47
689.568	13583.58
689.915	13605.5
690.262	13633.75
690.609	13516.69
690.956	13450.71
691.303	13576.35
691.65	13367.54
691.997	13455.23
692.344	13315.57
692.69	13333.87
693.037	13344.27
693.383	13179.53
693.73	13315.12
694.077	13196.7
694.423	13124.61
694.769	13095.23
695.116	13080.32
695.462	13028.12
695.808	12906.54
696.155	12954
696.501	12863.6
696.847	12824.06
697.193	12741.57
697.539	12799.2
697.885	12660.9
698.231	12695.25
698.577	12598.75
698.923	12615.7
699.269	12588.58
699.614	12469.71
699.96	12470.17
700.306	12458.64
700.651	12362.82
700.997	12257.29
701.342	12356.05
701.688	12257.97
702.033	12247.57
702.379	12219.1
702.724	12075.37
703.069	12061.36
703.415	11979.11
703.76	12013.46
704.105	12076.5
704.45	11993.12
704.795	11978.88
705.14	11849.39
705.485	11926.45
705.83	11726.01
706.175	11775.72
706.52	11737.08
706.865	11687.36
707.209	11716.06
707.554	11736.63
707.899	11693.92
708.243	11539.34
708.588	11507.93
708.932	11456.86
709.277	11466.8
709.621	11413.25
709.966	11304.1
710.31	11373.25
710.654	11295.06
710.998	11258.9
711.342	11278.79
711.687	11212.12
712.031	11194.27
712.375	11196.75
712.719	11145.23
713.063	11154.27
713.407	11180.03
713.75	11163.99
714.094	11076.76
714.438	10968.96
714.782	11055.06
715.125	10984.56
715.469	11048.06
715.812	10975.52
716.156	10939.36
716.499	10853.26
716.843	10901.62
717.186	10869.08
717.53	10912.69
717.873	10886.03
718.216	10865.46
718.559	10830.89
718.902	10761.74
719.246	10794.5
719.589	10802.41
719.932	10706.82
720.275	10707.95
720.617	10694.17
720.96	10726.94
721.303	10823.88
721.646	10751.12
721.989	10630.21
722.331	10674.51
722.674	10661.4
723.016	10674.06
723.359	10623.89
723.701	10626.15
724.044	10630.21
724.386	10540.05
724.729	10577.11
725.071	10543.66
725.413	10494.4
725.755	10535.75
726.097	10544.34
726.439	10453.04
726.782	10485.59
727.124	10556.54
727.465	10514.29
727.807	10446.94
728.149	10428.41
728.491	10408.98
728.833	10433.84
729.175	10432.25
729.516	10451.69
729.858	10444.23
730.199	10420.73
730.541	10399.26
730.882	10336.89
731.224	10431.35
731.565	10386.61
731.906	10441.07
732.248	10382.31
732.589	10359.26
732.93	10292.6
733.271	10342.09
733.612	10375.53
733.953	10404.91
734.294	10298.92
734.635	10384.8
734.976	10378.24
735.317	10364.23
735.658	10293.73
735.999	10337.34
736.339	10353.61
736.68	10485.36
737.021	10397.23
737.361	10393.84
737.702	10420.73
738.042	10360.39
738.383	10435.19
738.723	10357.45
739.063	10385.7
739.404	10423.89
739.744	10423.89
740.084	10412.59
740.424	10471.35
740.764	10444.91
741.104	10491.01
741.444	10468.19
741.784	10399.94
742.124	10484.46
742.464	10521.74
742.804	10531.46
743.143	10552.7
743.483	10584.79
743.823	10520.16
744.162	10577.79
744.502	10642.64
744.841	10607.16
745.181	10749.08
745.52	10672.93
745.86	10774.17
746.199	10821.4
746.538	10774.84
746.877	10866.59
747.216	10900.04
747.556	10945.91
747.895	11034.72
748.234	11040.37
748.573	11057.55
748.911	11225
749.25	11145.23
749.589	11273.59
749.928	11316.98
750.267	11422.06
750.605	11532.34
750.944	11618.89
751.283	11575.27
751.621	11736.85
751.96	11713.58
752.298	11886.9
752.636	12017.75
752.975	12036.73
753.313	12099.78
753.651	12238.76
753.989	12306.33
754.327	12455.93
754.666	12508.13
755.004	12700.44
755.342	12853.89
755.679	12966.65
756.017	13007.1
756.355	13212.29
756.693	13289.58
757.031	13460.42
757.368	13444.83
757.706	13687.54
758.044	13765.73
758.381	13983.8
758.719	14094.53
759.056	14233.06
759.394	14373.62
759.731	14400.29
760.068	14593.73
760.405	14791.91
760.743	14848.86
761.08	15099.25
761.417	15163.2
761.754	15306.25
762.091	15410.65
762.428	15567.03
762.765	15628.28
763.102	15848.38
763.438	15964.99
763.775	16112.1
764.112	16179.67
764.449	16428.03
764.785	16600.45
765.122	16594.13
765.458	16641.13
765.795	16851.29
766.131	16983.72
766.467	17111.4
766.804	17149.59
767.14	17247.22
767.476	17329.7
767.812	17414.44
768.148	17589.81
768.485	17653.08
768.821	17705.06
769.157	17787.54
769.492	17933.07
769.828	17965.39
770.164	17936.46
770.5	18069.79
770.836	18131.71
771.171	18179.62
771.507	18263.91
771.842	18246.96
772.178	18383.01
772.513	18457.81
772.849	18512.72
773.184	18432.04
773.519	18541.87
773.855	18491.03
774.19	18547.29
774.525	18582.1
774.86	18625.94
775.195	18641.76
775.53	18733.5
775.865	18780.28
776.2	18644.02
776.535	18735.09
776.87	18756.78
777.205	18660.29
777.539	18689.44
777.874	18774.41
778.209	18675.2
778.543	18634.07
778.878	18712.49
779.212	18705.93
779.547	18637.69
779.881	18786.84
780.215	18669.78
780.55	18825.03
780.884	18725.37
781.218	18763.33
781.552	18719.95
781.886	18670.23
782.22	18607.63
782.554	18669.78
782.888	18592.49
783.222	18460.74
783.556	18400.41
783.889	18516.79
784.223	18447.41
784.557	18468.65
784.89	18452.38
785.224	18389.11
785.557	18300.97
785.891	18351.82
786.224	18263.46
786.558	18424.81
786.891	18137.81
787.224	18124.03
787.557	18101.2
787.891	18091.49
788.224	18091.26
788.557	18074.54
788.89	18082
789.223	18044.71
789.556	18053.07
789.888	17964.71
790.221	17864.37
790.554	17849.01
790.887	17807.88
791.219	17734.89
791.552	17699.63
791.884	17660.99
792.217	17635.91
792.549	17559.75
792.882	17463.03
793.214	17461.45
793.546	17453.99
793.879	17406.99
794.211	17288.8
794.543	17422.13
794.875	17330.15
795.207	17339.87
795.539	17238.18
795.871	17327.44
796.203	17103.26
796.535	17018.3
796.867	17017.17
797.198	16924.51
797.53	17011.06
797.862	16900.11
798.193	16923.38
798.525	16826.44
798.856	16795.25
799.188	16622.83
799.519	16587.57
799.85	16632.54
800.182	16586.67
800.513	16613.79
800.844	16411.31
801.175	16525.2
801.506	16392.78
801.837	16363.62
802.168	16280.69
802.499	16333.12
802.83	16255.83
803.161	16169.5
803.491	16270.52
803.822	16115.04
804.153	16106
804.483	15997.98
804.814	15896.97
805.145	15913.69
805.475	15947.36
805.805	15910.3
806.136	15833.69
806.466	15832.79
806.796	15806.35
807.126	15716.63
807.457	15688.61
807.787	15634.83
808.117	15588.05
808.447	15541.27
808.777	15626.24
809.107	15498.56
809.436	15468.51
809.766	15534.04
810.096	15485.45
810.426	15392.12
810.755	15444.33
811.085	15337.21
811.414	15399.58
811.744	15233.48
812.073	15254.05
812.403	15120.72
812.732	15173.37
813.061	15182.19
813.39	15068.52
813.719	15035.3
814.049	15186.03
814.378	15043.66
814.707	14984
815.036	14971.12
815.365	14915.07
815.693	14787.39
816.022	14777.45
816.351	14753.5
816.68	14732.25
817.008	14668.07
817.337	14617.45
817.665	14556.89
817.994	14576.1
818.322	14567.29
818.651	14506.5
818.979	14478.48
819.307	14497.68
819.636	14523.9
819.964	14386.95
820.292	14427.63
820.62	14471.7
820.948	14396.22
821.276	14423.34
821.604	14329.55
821.932	14436.89
822.259	14351.92
822.587	14391.25
822.915	14321.42
823.243	14446.39
823.57	14294.98
823.898	14340.4
824.225	14320.97
824.553	14268.09
824.88	14346.28
825.207	14407.97
825.535	14361.64
825.862	14391.7
826.189	14335.88
826.516	14401.87
826.843	14403.9
827.17	14365.94
827.497	14405.48
827.824	14357.35
828.151	14365.03
828.478	14405.71
828.805	14416.56
829.131	14307.41
829.458	14334.52
829.785	14274.64
830.111	14342.89
830.438	14390.57
830.764	14328.65
831.09	14442.09
831.417	14337.01
831.743	14351.47
832.069	14346.73
832.395	14374.52
832.722	14254.98
833.048	14184.7
833.374	14261.53
833.7	14240.97
834.026	14256.79
834.351	14198.26
834.677	14225.15
835.003	14271.25
835.329	14177.24
835.654	14210.91
835.98	14112.61
836.306	14078.03
836.631	14188.77
836.956	14165.49
837.282	14235.77
837.607	14081.42
837.932	13998.49
838.258	14047.3
838.583	14013.85
838.908	13913.52
839.233	14005.49
839.558	13926.4
839.883	13891.82
840.208	13837.14
840.533	13829.68
840.858	13928.21
841.182	13804.14
841.507	13798.04
841.832	13714.88
842.156	13738.38
842.481	13661.32
842.805	13737.25
843.13	13647.08
843.454	13712.85
843.778	13661.1
844.103	13549.91
844.427	13484.83
844.751	13465.17
845.075	13403.7
845.399	13428.33
845.723	13291.61
846.047	13318.51
846.371	13221.56
846.695	13269.47
847.019	13059.98
847.343	13110.83
847.666	13026.08
847.99	12948.57
848.313	12912.64
848.637	12840.78
848.96	12877.39
849.284	12842.36
849.607	12695.92
849.931	12718.07
850.254	12605.76
850.577	12559.2
850.9	12493.44
851.223	12444.4
851.546	12457.74
851.869	12280.11
852.192	12413.44
852.515	12308.36
852.838	12221.59
853.161	12228.59
853.483	12197.86
853.806	12092.78
854.129	12161.93
854.451	12112.66
854.774	12007.13
855.096	11965.09
855.419	12034.25
855.741	11929.62
856.063	11905.44
856.385	11780.69
856.708	11797.42
857.03	11741.82
857.352	11700.7
857.674	11626.57
857.996	11672.9
858.318	11544.99
858.64	11635.61
858.961	11516.07
859.283	11518.55
859.605	11433.13
859.926	11503.64
860.248	11360.59
860.57	11363.53
860.891	11384.55
861.212	11355.39
861.534	11354.94
861.855	11224.78
862.176	11256.41
862.498	11245.11
862.819	11203.99
863.14	11239.46
863.461	11194.72
863.782	11059.36
864.103	11122.86
864.424	11124.67
864.745	11129.64
865.065	11046.25
865.386	11001.96
865.707	10980.94
866.027	11040.15
866.348	10944.56
866.668	11020.71
866.989	10910.21
867.309	10878.57
867.63	10856.65
867.95	10891.22
868.27	10846.48
868.59	10842.19
868.91	10797.67
869.23	10824.56
869.55	10771.23
869.87	10810.1
870.19	10759.7
870.51	10808.06
870.83	10770.78
871.15	10647.39
871.469	10711.12
871.789	10705.02
872.109	10706.82
872.428	10657.11
872.748	10652.36
873.067	10625.92
873.386	10568.75
873.706	10690.78
874.025	10536.88
874.344	10506.38
874.663	10497.34
874.982	10538.92
875.301	10462.99
875.62	10541.63
875.939	10461.18
876.258	10505.7
876.577	10346.83
876.896	10399.49
877.214	10369.2
877.533	10372.37
877.852	10371.24
878.17	10386.83
878.489	10338.02
878.807	10338.47
879.125	10294.63
879.444	10287.85
879.762	10257.12
880.08	10241.98
880.398	10162.66
880.716	10191.81
881.034	10124.92
881.352	10173.28
881.67	10201.3
881.988	10150
882.306	10138.02
882.624	10052.6
882.941	10045.37
883.259	9994.53
883.577	9928.31
883.894	9920.85
884.212	9970.8
884.529	9976.9
884.846	9922.66
885.164	9928.31
885.481	9872.27
885.798	9875.21
886.115	9824.36
886.432	9800.41
886.75	9789.11
887.067	9755.89
887.383	9677.02
887.7	9662.33
888.017	9734.42
888.334	9708.88
888.651	9680.64
888.967	9571.03
889.284	9548.21
889.6	9532.39
889.917	9491.04
890.233	9548.44
890.55	9409.46
890.866	9408.33
891.182	9366.29
891.498	9367.2
891.815	9343.02
892.131	9304.15
892.447	9293.98
892.763	9257.14
893.079	9231.83
893.395	9164.94
893.71	9184.15
894.026	9162
894.342	9107.54
894.657	9076.58
894.973	9057.15
895.289	9050.37
895.604	8996.13
895.92	8993.42
896.235	8943.71
896.55	8914.55
896.865	8850.83
897.181	8916.59
897.496	8850.37
897.811	8801.56
898.126	8753.2
898.441	8697.84
898.756	8679.31
899.071	8705.97
899.386	8691.28
899.7	8515.02
900.015	8582.81
900.33	8495.81
900.644	8504.4
900.959	8454.23
901.273	8428.24
901.588	8411.06
901.902	8430.5
902.216	8332.65
902.531	8326.09
902.845	8319.32
903.159	8215.36
903.473	8293.33
903.787	8183.5
904.101	8122.71
904.415	8166.55
904.729	8079.32
905.042	8037.06
905.356	8037.06
905.67	8024.86
905.984	8032.99
906.297	7987.8
906.611	7912.77
906.924	7915.48
907.237	7852.21
907.551	7821.93
907.864	7840.46
908.177	7820.12
908.491	7793.91
908.804	7764.98
909.117	7678.2
909.43	7656.73
909.743	7594.36
910.056	7595.94
910.368	7528.6
910.681	7520.47
910.994	7477.3
911.307	7394.37
911.619	7415.61
911.932	7467.59
912.244	7341.49
912.557	7264.2
912.869	7281.6
913.181	7328.61
913.494	7248.61
913.806	7218.33
914.118	7163.64
914.43	7151.44
914.742	7125.67
915.054	7094.94
915.366	7076.41
915.678	7022.63
915.99	7022.63
916.302	6967.71
916.613	6975.85
916.925	6940.37
917.236	6918
917.548	6881.84
917.859	6845.68
918.171	6819.24
918.482	6775.85
918.794	6706.48
919.105	6778.56
919.416	6670.54
919.727	6709.64
920.038	6713.26
920.349	6599.81
920.66	6604.11
920.971	6553.94
921.282	6549.87
921.593	6529.53
921.903	6464
922.214	6450.89
922.525	6444.56
922.835	6388.52
923.146	6377.45
923.456	6367.95
923.767	6294.51
924.077	6294.96
924.387	6280.5
924.697	6231.01
925.008	6217
925.318	6191.69
925.628	6181.07
925.938	6157.56
926.248	6120.5
926.558	6140.84
926.867	6070.11
927.177	6060.62
927.487	6019.49
927.796	5963.9
928.106	5972.48
928.416	5906.27
928.725	5950.56
929.034	5906.72
929.344	5916.21
929.653	5800.51
929.962	5808.42
930.271	5799.38
930.581	5783.79
930.89	5720.74
931.199	5684.13
931.508	5700.4
931.817	5677.8
932.125	5682.77
932.434	5654.75
932.743	5572.04
933.051	5556.22
933.36	5546.51
933.669	5520.97
933.977	5497.47
934.286	5458.15
934.594	5494.08
934.902	5421.76
935.21	5445.94
935.519	5432.39
935.827	5413.85
936.135	5389.22
936.443	5300.19
936.751	5334.31
937.059	5314.42
937.367	5265.84
937.674	5274.88
937.982	5259.96
938.29	5225.39
938.597	5222.45
938.905	5146.52
939.213	5142.45
939.52	5109
939.827	5115.33
940.135	5060.87
940.442	5089.57
940.749	5040.31
941.056	5047.76
941.363	4981.32
941.67	4989.46
941.977	4930.48
942.284	4876.47
942.591	4892.29
942.898	4846.19
943.205	4904.04
943.511	4838.73
943.818	4857.49
944.125	4806.64
944.431	4782.91
944.738	4732.74
945.044	4717.83
945.35	4718.05
945.657	4668.79
945.963	4616.59
946.269	4624.05
946.575	4618.17
946.881	4609.36
947.187	4610.03
947.493	4529.58
947.799	4555.8
948.105	4500.88
948.41	4498.62
948.716	4466.08
949.022	4468.57
949.327	4477.61
949.633	4457.04
949.938	4443.26
950.244	4385.63
950.549	4380.89
950.854	4356.26
951.16	4320.55
951.465	4375.01
951.77	4304.28
952.075	4308.35
952.38	4271.74
952.685	4270.61
952.99	4217.73
953.294	4201.01
953.599	4190.61
953.904	4167.11
954.209	4155.81
954.513	4082.82
954.818	4095.47
955.122	4125.3
955.426	4089.6
955.731	4054.79
956.035	4008.69
956.339	4017.51
956.643	4017.06
956.948	3982.93
957.252	3977.96
957.556	3981.12
957.86	3897.74
958.163	3919.88
958.467	3923.05
958.771	3904.06
959.075	3871.75
959.378	3889.38
959.682	3822.48
959.985	3804.86
960.289	3805.99
960.592	3802.82
960.896	3757.63
961.199	3781.36
961.502	3749.72
961.805	3730.74
962.108	3750.4
962.411	3707.01
962.714	3660
963.017	3657.52
963.32	3665.2
963.623	3686.67
963.926	3648.93
964.228	3610.06
964.531	3579.78
964.833	3577.52
965.136	3535.49
965.438	3536.16
965.741	3521.93
966.043	3510.18
966.345	3494.36
966.648	3445.32
966.95	3505.66
967.252	3412.1
967.554	3434.7
967.856	3430.18
968.158	3402.16
968.46	3397.64
968.761	3377.75
969.063	3366.45
969.365	3322.16
969.666	3324.42
969.968	3321.71
970.269	3285.32
970.571	3277.64
970.872	3302.5
971.174	3235.83
971.475	3250.07
971.776	3179.56
972.077	3256.62
972.378	3208.49
972.679	3160.58
972.98	3163.52
973.281	3153.58
973.582	3136.63
973.883	3138.43
974.183	3139.11
974.484	3106.34
974.785	3092.79
975.085	3065.67
975.386	3056.63
975.686	3065.22
975.986	3025.44
976.287	3028.61
976.587	3014.14
976.887	2984.99
977.187	3010.3
977.487	2964.65
977.787	2969.63
978.087	2934.6
978.387	2935.95
978.687	2968.95
978.987	2914.26
979.286	2885.79
979.586	2879.01
979.885	2869.74
980.185	2870.42
980.484	2864.77
980.784	2820.7
981.083	2830.19
981.382	2811.21
981.682	2800.14
981.981	2769.18
982.28	2775.51
982.579	2712.23
982.878	2770.99
983.177	2742.96
983.475	2680.37
983.774	2684.89
984.073	2704.77
984.372	2666.13
984.67	2680.37
984.969	2700.71
985.267	2655.06
985.566	2653.02
985.864	2596.98
986.162	2612.35
986.461	2594.49
986.759	2556.75
987.057	2555.62
987.355	2559.24
987.653	2529.18
987.951	2518.56
988.249	2531.22
988.547	2525.57
988.844	2483.99
989.142	2514.04
989.44	2509.75
989.737	2458.68
990.035	2439.92
990.332	2443.54
990.63	2420.04
990.927	2445.8
991.224	2424.33
991.521	2384.56
991.819	2409.19
992.116	2372.13
992.413	2340.49
992.71	2366.7
993.006	2386.59
993.303	2338.91
993.6	2350.43
993.897	2362.41
994.193	2279.7
994.49	2336.2
994.787	2306.37
995.083	2264.33
995.379	2257.78
995.676	2228.18
995.972	2244.9
996.268	2227.27
996.565	2204.67
996.861	2191.34
997.157	2206.71
997.453	2180.72
997.749	2138.91
998.044	2138.91
998.34	2152.25
998.636	2148.4
998.932	2119.03
999.227	2158.57
999.523	2120.16
999.818	2082.42
1000.114	2102.98
1000.409	2074.73
1000.704	2055.98
1001	2032.25
1001.295	2020.27
1001.59	2025.24
1001.885	2020.5
1002.18	1998.13
1002.475	2035.19
1002.77	1994.74
1003.065	1957.45
1003.359	1974.85
1003.654	1980.72
1003.949	1958.8
1004.243	1919.48
1004.538	1944.34
1004.832	1928.52
1005.127	1907.28
1005.421	1897.34
1005.715	1848.52
1006.009	1842.88
1006.304	1866.6
1006.598	1860.73
1006.892	1827.06
1007.186	1827.51
1007.48	1828.86
1007.773	1823.44
1008.067	1784.8
1008.361	1759.94
1008.655	1749.54
1008.948	1754.06
1009.242	1767.62
1009.535	1730.11
1009.829	1711.81
1010.122	1711.58
1010.415	1702.54
1010.708	1714.97
1011.001	1708.64
1011.295	1708.42
1011.588	1679.94
1011.881	1670.45
1012.173	1659.15
1012.466	1634.97
1012.759	1635.65
1013.052	1645.14
1013.344	1614.86
1013.637	1592.94
1013.93	1592.49
1014.222	1590.45
1014.514	1597.46
1014.807	1594.75
1015.099	1598.36
1015.391	1540.28
1015.683	1562.43
1015.976	1555.2
1016.268	1516.56
1016.56	1522.21
1016.851	1510
1017.143	1489.66
1017.435	1478.14
1017.727	1464.81
1018.018	1468.65
1018.31	1486.73
1018.602	1433.62
1018.893	1454.18
1019.185	1428.65
1019.476	1426.39
1019.767	1419.84
1020.058	1420.74
1020.35	1402.21
1020.641	1388.42
1020.932	1352.27
1021.223	1377.58
1021.514	1362.44
1021.804	1319.5
1022.095	1358.82
1022.386	1326.73
1022.677	1319.5
1022.967	1344.13
1023.258	1319.27
1023.548	1314.08
1023.839	1296
1024.129	1284.92
1024.419	1275.21
1024.709	1282.66
1025	1263.68
1025.29	1233.4
1025.58	1224.59
1025.87	1228.43
1026.16	1235.66
1026.449	1213.29
1026.739	1227.3
1027.029	1204.25
1027.319	1192.5
1027.608	1184.36
1027.898	1186.17
1028.187	1157.24
1028.477	1183.46
1028.766	1171.93
1029.055	1153.85
1029.344	1152.27
1029.634	1142.33
1029.923	1103.69
1030.212	1112.95
1030.501	1111.37
1030.79	1105.95
1031.078	1098.04
1031.367	1114.08
1031.656	1068.66
1031.945	1077.7
1032.233	1066.62
1032.522	1062.56
1032.81	1063.46
1033.099	1062.78
1033.387	1062.78
1033.675	1053.52
1033.963	1036.79
1034.251	1033.63
1034.54	1029.56
1034.828	1031.82
1035.116	1014.42
1035.403	1006.74
1035.691	991.6
1035.979	1000.86
1036.267	997.02
1036.554	971.26
1036.842	954.31
1037.129	957.7
1037.417	930.58
1037.704	945.5
1037.992	938.49
1038.279	941.43
1038.566	929.68
1038.853	929.68
1039.14	929.68
