Data from hue_340_FLMS001491_83.txt Node
Date: Mon Feb 06 15:43:43 GMT 2017
User: dcchb
Spectrometer: FLMS00149
Trigger mode: 0
Integration Time (sec): 2.000000E-2
Scans to average: 10
Electric dark correction enabled: true
Nonlinearity correction enabled: false
Boxcar width: 0
XAxis mode: Wavelengths
Number of Pixels in Spectrum: 2048
>>>>>Begin Spectral Data<<<<<
341.393	-19.04
341.776	-19.04
342.16	-19.04
342.543	-46.16
342.927	-71.69
343.31	-79.83
343.693	-85.93
344.077	-67.63
344.46	-82.54
344.843	-56.78
345.226	-31.69
345.61	-30.11
345.993	-8.87
346.376	-5.93
346.759	26.16
347.142	5.82
347.525	60.51
347.908	66.83
348.291	85.59
348.674	82.2
349.057	122.2
349.44	151.13
349.823	139.83
350.206	167.85
350.588	190.67
350.971	193.38
351.354	204.68
351.737	238.36
352.119	251.69
352.502	271.12
352.884	279.26
353.267	292.59
353.65	298.01
354.032	287.85
354.414	281.52
354.797	302.31
355.179	316.09
355.562	317.45
355.944	317.68
356.326	343.44
356.709	331.46
357.091	325.81
357.473	321.07
357.855	337.11
358.238	328.3
358.62	328.52
359.002	335.98
359.384	321.52
359.766	353.61
360.148	326.04
360.53	350.22
360.912	321.29
361.294	318.81
361.676	317.45
362.057	345.47
362.439	327.17
362.821	327.39
363.203	326.49
363.584	315.19
363.966	330.1
364.348	302.31
364.729	334.17
365.111	302.31
365.493	319.03
365.874	323.78
366.256	310.22
366.637	299.37
367.019	304.79
367.4	302.53
367.781	322.65
368.163	299.37
368.544	294.63
368.925	306.6
369.306	326.04
369.688	282.87
370.069	323.32
370.45	313.83
370.831	311.57
371.212	310.9
371.593	321.74
371.974	304.34
372.355	305.92
372.736	310.22
373.117	309.54
373.498	326.04
373.879	304.57
374.26	293.72
374.641	317.45
375.021	303.89
375.402	310.44
375.783	307.28
376.163	324.23
376.544	327.17
376.925	323.32
377.305	314.74
377.686	308.18
378.066	324.91
378.447	315.42
378.827	321.74
379.208	332.36
379.588	323.32
379.968	322.42
380.349	326.71
380.729	314.51
381.109	340.05
381.489	325.58
381.87	331.91
382.25	322.87
382.63	320.84
383.01	347.96
383.39	329.2
383.77	341.18
384.15	334.17
384.53	355.64
384.91	326.71
385.29	332.36
385.67	314.06
386.049	322.19
386.429	326.94
386.809	323.32
387.189	348.41
387.568	345.92
387.948	337.79
388.328	328.3
388.707	345.02
389.087	343.21
389.466	337.56
389.846	365.81
390.225	359.93
390.605	369.2
390.984	369.88
391.363	388.86
391.743	338.47
392.122	356.54
392.501	345.92
392.881	350.44
393.26	385.47
393.639	351.57
394.018	352.48
394.397	355.64
394.776	382.76
395.155	375.75
395.534	378.69
395.913	384.11
396.292	366.94
396.671	355.87
397.05	369.2
397.429	363.78
397.808	387.05
398.186	389.54
398.565	367.39
398.944	378.69
399.323	394.06
399.701	391.8
400.08	366.94
400.458	396.54
400.837	373.27
401.215	385.7
401.594	380.5
401.972	397.9
402.351	398.8
402.729	387.73
403.107	404.45
403.486	401.51
403.864	385.92
404.242	399.93
404.62	394.74
404.999	391.57
405.377	387.28
405.755	399.03
406.133	415.75
406.511	428.41
406.889	446.94
407.267	418.24
407.645	430.21
408.023	421.18
408.401	436.09
408.779	420.95
409.156	454.62
409.534	444
409.912	438.58
410.29	457.11
410.667	447.84
411.045	455.07
411.422	458.01
411.8	455.98
412.178	465.92
412.555	479.03
412.933	484.9
413.31	439.93
413.687	482.19
414.065	477.45
414.442	472.47
414.819	477.22
415.197	485.35
415.574	478.8
415.951	501.63
416.328	494.39
416.705	529.87
417.082	513.15
417.46	506.6
417.837	510.44
418.214	539.14
418.591	538.46
418.967	509.53
419.344	533.94
419.721	544.56
420.098	540.04
420.475	564.9
420.852	564.67
421.228	553.6
421.605	552.02
421.982	561.74
422.358	556.99
422.735	556.77
423.111	559.48
423.488	579.59
423.864	560.83
424.241	602.87
424.617	601.51
424.994	569.42
425.37	608.52
425.746	616.88
426.123	614.16
426.499	625.69
426.875	621.62
427.251	635.86
427.627	618.46
428.003	624.79
428.379	659.59
428.756	628.4
429.132	647.84
429.507	658.01
429.883	652.36
430.259	660.49
430.635	669.08
431.011	688.96
431.387	673.82
431.763	698.23
432.138	698.23
432.514	699.13
432.89	703.88
433.265	711.34
433.641	723.77
434.016	728.96
434.392	738.46
434.767	745.23
435.143	734.61
435.518	748.4
435.894	761.05
436.269	765.12
436.644	764.44
437.02	787.72
437.395	775.06
437.77	775.74
438.145	822.07
438.52	833.37
438.895	799.7
439.271	820.26
439.646	816.87
440.021	828.62
440.395	827.72
440.77	821.62
441.145	830.88
441.52	819.36
441.895	825.01
442.27	848.96
442.645	843.76
443.019	867.49
443.394	855.29
443.769	866.36
444.143	844.67
444.518	859.36
444.892	859.36
445.267	862.75
445.641	878.56
446.016	880.37
446.39	887.15
446.764	899.35
447.139	910.65
447.513	924.21
447.887	935.74
448.262	890.77
448.636	902.74
449.01	906.81
449.384	926.92
449.758	943.42
450.132	928.96
450.506	921.5
450.88	961.27
451.254	956.75
451.628	927.38
452.002	941.39
452.376	974.61
452.75	978.45
453.123	975.96
453.497	1009.18
453.871	991.33
454.244	997.21
454.618	1010.09
454.992	1025
455.365	985.23
455.739	1025.45
456.112	1047.83
456.486	1033.14
456.859	1074.49
457.232	1084.66
457.606	1073.81
457.979	1062.06
458.352	1066.58
458.725	1114.04
459.099	1108.39
459.472	1109.29
459.845	1144.32
460.218	1137.99
460.591	1158.11
460.964	1117.2
461.337	1173.47
461.71	1152.23
462.083	1196.52
462.456	1170.99
462.829	1200.36
463.201	1197.43
463.574	1239.46
463.947	1257.76
464.32	1252.57
464.692	1250.53
465.065	1258.89
465.438	1302.28
465.81	1290.31
466.183	1306.35
466.555	1317.42
466.928	1317.42
467.3	1332.11
467.672	1346.12
468.045	1376.18
468.417	1342.06
468.789	1393.35
469.161	1365.78
469.534	1424.31
469.906	1446.69
470.278	1444.65
470.65	1462.73
471.022	1497.98
471.394	1512.22
471.766	1491.66
472.138	1540.69
472.51	1570.98
472.882	1593.35
473.253	1602.84
473.625	1617.98
473.997	1628.83
474.369	1683.97
474.74	1665.66
475.112	1681.26
475.484	1727.81
475.855	1761.48
476.227	1776.62
476.598	1812.33
476.97	1809.84
477.341	1832.66
477.713	1870.63
478.084	1867.01
478.455	1932.77
478.827	1941.14
479.198	1968.03
479.569	1978.87
479.94	2050.51
480.311	2053.9
480.682	2096.61
481.053	2142.71
481.424	2171.41
481.795	2215.93
482.166	2216.61
482.537	2228.81
482.908	2277.17
483.279	2297.74
483.65	2310.39
484.021	2385.87
484.391	2406.21
484.762	2406.66
485.133	2473.1
485.503	2468.13
485.874	2535.47
486.244	2556.03
486.615	2589.03
486.985	2604.62
487.356	2640.1
487.726	2667.44
488.097	2735.69
488.467	2768.68
488.837	2837.16
489.207	2847.78
489.578	2854.11
489.948	2867.66
490.318	2942.47
490.688	2937.72
491.058	2987.21
491.428	2992.18
491.798	3025.17
492.168	3092.97
492.538	3098.62
492.908	3123.48
493.278	3187.66
493.648	3185.4
494.017	3240.54
494.387	3217.26
494.757	3271.95
495.126	3293.42
495.496	3320.08
495.866	3319.86
496.235	3370.25
496.605	3378.61
496.974	3445.05
497.344	3476.01
497.713	3450.7
498.082	3497.48
498.452	3536.8
498.821	3521.66
499.19	3545.84
499.559	3514.88
499.928	3605.95
500.298	3571.38
500.667	3624.03
501.036	3622.67
501.405	3668.32
501.774	3638.72
502.143	3686.17
502.512	3739.28
502.88	3688.66
503.249	3682.56
503.618	3746.51
503.987	3780.64
504.356	3827.64
504.724	3792.61
505.093	3856.11
505.462	3863.8
505.83	3902.44
506.199	3874.19
506.567	3907.86
506.936	3887.75
507.304	3927.98
507.672	3968.43
508.041	3968.88
508.409	4038.48
508.777	4025.83
509.145	4005.71
509.514	4002.32
509.882	4028.99
510.25	4069.22
510.618	4092.94
510.986	4094.98
511.354	4153.05
511.722	4127.29
512.09	4177.23
512.458	4155.77
512.826	4231.24
513.193	4224.92
513.561	4275.09
513.929	4258.36
514.297	4279.6
514.664	4301.07
515.032	4306.95
515.4	4316.67
515.767	4308.08
516.135	4332.26
516.502	4346.27
516.869	4392.14
517.237	4404.57
517.604	4350.56
517.972	4330.68
518.339	4386.04
518.706	4439.37
519.073	4451.35
519.44	4449.32
519.808	4503.33
520.175	4458.58
520.542	4540.39
520.909	4536.32
521.276	4553.27
521.643	4564.34
522.009	4599.6
522.376	4572.93
522.743	4615.19
523.11	4638.69
523.477	4651.12
523.843	4721.85
524.21	4704
524.577	4715.07
524.943	4786.71
525.31	4758.69
525.676	4827.16
526.043	4852.7
526.409	4867.61
526.776	4931.11
527.142	4898.35
527.508	4955.75
527.874	4967.27
528.241	4986.93
528.607	5021.96
528.973	5056.08
529.339	5052.69
529.705	5098.11
530.071	5098.57
530.437	5149.41
530.803	5150.77
531.169	5202.74
531.535	5202.07
531.901	5179.92
532.267	5282.74
532.632	5205.91
532.998	5270.54
533.364	5310.99
533.73	5261.73
534.095	5345.79
534.461	5335.85
534.826	5402.29
535.192	5423.08
535.557	5401.38
535.923	5434.83
536.288	5425.34
536.653	5514.6
537.019	5477.99
537.384	5490.19
537.749	5542.17
538.114	5586.69
538.479	5590.76
538.845	5588.72
539.21	5625.78
539.575	5672.79
539.94	5680.92
540.305	5710.53
540.67	5740.13
541.034	5747.36
541.399	5729.28
541.764	5798.89
542.129	5792.11
542.494	5814.48
542.858	5847.47
543.223	5811.32
543.587	5917.98
543.952	5889.05
544.316	5931.99
544.681	5956.62
545.045	6033.46
545.41	6023.97
545.774	6054.47
546.138	6072.33
546.503	6065.09
546.867	6096.51
547.231	6152.32
547.595	6137.41
547.959	6150.29
548.324	6141.02
548.688	6199.1
549.052	6183.74
549.416	6224.64
549.779	6213.11
550.143	6232.55
550.507	6328.14
550.871	6306.9
551.235	6367.91
551.599	6416.95
551.962	6358.19
552.326	6403.84
552.689	6451.98
553.053	6453.33
553.417	6448.81
553.78	6505.31
554.143	6484.29
554.507	6515.48
554.87	6555.25
555.234	6610.39
555.597	6555.25
555.96	6571.97
556.323	6619.43
556.686	6661.24
557.05	6668.69
557.413	6647.9
557.776	6714.34
558.139	6708.92
558.502	6750.5
558.865	6763.38
559.228	6777.39
559.59	6841.12
559.953	6866.88
560.316	6870.95
560.679	6910.72
561.041	6929.25
561.404	6969.03
561.767	6964.73
562.129	6891.74
562.492	7038.18
562.854	7014.67
563.217	7004.51
563.579	7045.63
563.941	7097.61
564.304	7040.21
564.666	7178.29
565.028	7155.01
565.39	7188
565.753	7226.19
566.115	7144.61
566.477	7241.79
566.839	7235.23
567.201	7321.11
567.563	7312.52
567.925	7346.19
568.287	7335.8
568.648	7347.09
569.01	7422.57
569.372	7517.94
569.734	7439.97
570.095	7486.3
570.457	7589.35
570.819	7612.17
571.18	7607.65
571.542	7658.73
571.903	7706.63
572.265	7739.4
572.626	7712.06
572.987	7797.7
573.349	7809
573.71	7917.93
574.071	7910.24
574.432	7994.76
574.794	8078.83
575.155	8111.14
575.516	8076.34
575.877	8201.99
576.238	8244.02
576.599	8354.3
576.96	8392.94
577.32	8440.85
577.681	8507.06
578.042	8552.94
578.403	8644.24
578.763	8707.51
579.124	8804.46
579.485	8928.3
579.845	9000.38
580.206	9069.76
580.566	9140.95
580.927	9387.95
581.287	9457.32
581.648	9475.63
582.008	9680.59
582.368	9803.98
582.728	9881.72
583.089	10096.18
583.449	10191.99
583.809	10355.6
584.169	10482.83
584.529	10601.7
584.889	10841.47
585.249	10989.71
585.609	11146.32
585.969	11330.27
586.329	11525.97
586.688	11730.48
587.048	11909.46
587.408	12090.7
587.768	12297.02
588.127	12524.36
588.487	12732.94
588.846	13035.31
589.206	13149.65
589.565	13351.68
589.925	13722.29
590.284	13848.17
590.643	14092
591.003	14453.12
591.362	14723.4
591.721	14932.21
592.08	15175.36
592.44	15519.76
592.799	15757.27
593.158	15965.4
593.517	16268.89
593.876	16523.58
594.235	16838.14
594.593	17076.78
594.952	17372.37
595.311	17574.85
595.67	17907.5
596.029	18258.67
596.387	18535.5
596.746	18820.01
597.104	19057.3
597.463	19297.06
597.822	19585.42
598.18	19848.69
598.538	20240.32
598.897	20561.66
599.255	20683.02
599.613	21201.19
599.972	21311.93
600.33	21697.45
600.688	21787.62
601.046	22185.57
601.404	22527.49
601.762	22610.65
602.12	23090.41
602.478	23378.54
602.836	23533.34
603.194	23784.63
603.552	23994.34
603.91	24175.13
604.268	24559.07
604.625	24579.64
604.983	25044.26
605.341	25194.76
605.698	25527.63
606.056	25662.09
606.413	25960.39
606.771	26219.37
607.128	26494.61
607.485	26546.14
607.843	26695.29
608.2	27106.8
608.557	27452.56
608.914	27611.42
609.272	27964.63
609.629	28076.95
609.986	28347.67
610.343	28349.03
610.7	28770.03
611.057	28938.84
611.414	29183.13
611.771	29326.18
612.127	29637.81
612.484	29605.04
612.841	29879.38
613.198	30061.3
613.554	30167.06
613.911	30440.27
614.267	30640.04
614.624	30736.54
614.98	30791.45
615.337	31289.52
615.693	31296.75
616.05	31453.35
616.406	31743.52
616.762	31810.63
617.118	31904.19
617.475	31966.33
617.831	32223.28
618.187	32415.14
618.543	32541.23
618.899	32714.56
619.255	32934.44
619.611	32973.31
619.967	33244.04
620.323	33248.56
620.678	33295.79
621.034	33288.11
621.39	33350.71
621.746	33528.1
622.101	33922.44
622.457	33835.44
622.812	33872.95
623.168	34039.73
623.523	34223
623.879	34282.66
624.234	34205.82
624.589	34412.15
624.945	34421.41
625.3	34648.52
625.655	34649.88
626.01	34590.9
626.365	34813.94
626.72	34735.75
627.075	34929.19
627.43	34896.65
627.785	34782.98
628.14	35099.13
628.495	35135.06
628.85	35229.98
629.205	35043.99
629.559	35351.33
629.914	35289.64
630.269	35385.45
630.623	35251.45
630.978	35128.74
631.332	35602.85
631.687	35657.99
632.041	35503.42
632.396	35541.83
632.75	35397.88
633.104	35512
633.459	35458.9
633.813	35333.7
634.167	35610.76
634.521	35475.62
634.875	35594.71
635.229	35525.79
635.583	35599.23
635.937	35510.42
636.291	35577.09
636.645	35578.22
636.999	35499.12
637.352	35592.45
637.706	35481.5
638.06	35643.53
638.413	35544.32
638.767	35486.47
639.121	35646.92
639.474	35456.86
639.828	35397.88
640.181	35597.65
640.534	35579.35
640.888	35552.91
641.241	35352.46
641.594	35444.89
641.947	35576.64
642.301	35505
642.654	35494.38
643.007	35520.37
643.36	35544.55
643.713	35451.89
644.066	35497.54
644.419	35306.81
644.771	35108.62
645.124	34882.64
645.477	34763.32
645.83	34656.89
646.182	34509.09
646.535	34421.64
646.888	34465.7
647.24	34078.37
647.593	34424.8
647.945	34415.31
648.298	34288.76
648.65	34315.88
649.002	34283.56
649.355	34389.32
649.707	34260.06
650.059	34489.21
650.411	34782.98
650.763	34836.32
651.115	35247.6
651.467	35142.97
651.819	35120.6
652.171	35081.96
652.523	35008.97
652.875	34991.34
653.227	34818.24
653.578	35213.25
653.93	35025.24
654.282	34881.74
654.633	34878.12
654.985	34902.08
655.337	34890.33
655.688	34803.77
656.039	34950.21
656.391	34803.55
656.742	34712.93
657.094	34824.56
657.445	34900.95
657.796	34775.07
658.147	34747.5
658.498	34590.67
658.849	34741.18
659.2	34736.88
659.551	34672.93
659.902	34857.56
660.253	34656.43
660.604	34806.26
660.955	34564.23
661.306	34791.35
661.656	34648.07
662.007	34613.5
662.358	34672.25
662.708	34574.63
663.059	34723.1
663.409	34477
663.76	34754.51
664.11	34672.48
664.461	34658.02
664.811	34657.56
665.161	34693.04
665.511	34659.15
665.862	34612.59
666.212	34692.14
666.562	34679.26
666.912	34674.06
667.262	34584.34
667.612	34646.94
667.962	34612.37
668.312	34594.29
668.662	34742.53
669.011	34565.14
669.361	34525.14
669.711	34425.25
670.06	34364.46
670.41	34434.97
670.76	34401.07
671.109	34522.88
671.459	34508.87
671.808	34498.47
672.157	34399.27
672.507	34462.09
672.856	34341.87
673.205	34413.28
673.554	34399.72
673.904	34333.96
674.253	34490.56
674.602	34404.91
674.951	33958.15
675.3	33730.36
675.649	34284.47
675.998	34236.78
676.346	34427.29
676.695	34341.41
677.044	34051.03
677.393	34241.76
677.741	34290.12
678.09	34158.37
678.438	34138.48
678.787	34237.46
679.135	34055.32
679.484	33912.05
679.832	34065.71
680.181	33856
680.529	33957.24
680.877	33873.4
681.225	33835.89
681.573	34184.58
681.922	33785.72
682.27	33778.26
682.618	33672.5
682.966	33619.4
683.314	33603.81
683.661	33484.03
684.009	33444.49
684.357	33420.08
684.705	33245.17
685.053	33389.12
685.4	33272.51
685.748	33146.87
686.095	33098.51
686.443	33183.48
686.79	32939.19
687.138	33105.51
687.485	33115
687.832	33001.56
688.18	32938.29
688.527	32774.9
688.874	32779.87
689.221	32653.55
689.568	32500.33
689.915	32482.93
690.262	32448.36
690.609	32373.78
690.956	32280.22
691.303	32282.94
691.65	32145.54
691.997	32141.25
692.344	31925.66
692.69	31987.13
693.037	31910.74
693.383	31775.61
693.73	31852.67
694.077	31699.9
694.423	31652.22
694.769	31443.41
695.116	31459.23
695.462	31404.77
695.808	31346.92
696.155	31404.99
696.501	31164.55
696.847	31248.84
697.193	30967.04
697.539	31059.01
697.885	30765.24
698.231	30789.19
698.577	30791.68
698.923	30753.94
699.269	30595.3
699.614	30443.21
699.96	30391.23
700.306	30441.85
700.651	30232.82
700.997	30224.23
701.342	30101.07
701.688	30138.13
702.033	29925.03
702.379	29978.14
702.724	29922.55
703.069	29951.47
703.415	29578.15
703.76	29681.87
704.105	29713.74
704.45	29497.47
704.795	29418.38
705.14	29330.92
705.485	29324.37
705.83	29181.32
706.175	29376.12
706.52	29055
706.865	29024.27
707.209	28935.68
707.554	28831.5
707.899	28886.19
708.243	28840.54
708.588	28772.29
708.932	28667.66
709.277	28599.64
709.621	28538.85
709.966	28407.78
710.31	28361.23
710.654	28286.43
710.998	28240.56
711.342	28229.03
711.687	28200.33
712.031	28010.73
712.375	28004.63
712.719	28085.53
713.063	27886.67
713.407	27986.78
713.75	27797.63
714.094	27806.22
714.438	27624.75
714.782	27750.4
715.125	27542.95
715.469	27640.57
715.812	27424.08
716.156	27336.63
716.499	27311.99
716.843	27406.23
717.186	27296.17
717.53	27421.14
717.873	27422.27
718.216	27227.02
718.559	27116.07
718.902	26860.93
719.246	27074.71
719.589	26981.15
719.932	26872.68
720.275	26857.09
720.617	26862.29
720.96	26709.98
721.303	26736.42
721.646	26689.41
721.989	26429.08
722.331	26669.75
722.674	26547.72
723.016	26593.59
723.359	26437.67
723.701	26526.93
724.044	26334.62
724.386	26284.68
724.729	26267.95
725.071	26264.34
725.413	26251.68
725.755	26213.49
726.097	26103.21
726.439	26062.08
726.782	26025.47
727.124	26002.2
727.465	25921.97
727.807	26022.08
728.149	25872.26
728.491	25841.98
728.833	25860.05
729.175	25623
729.516	25767.63
729.858	25647.86
730.199	25744.13
730.541	25525.15
730.882	25489.22
731.224	25560.85
731.565	25426.62
731.906	25434.53
732.248	25488.99
732.589	25360.86
732.93	25281.54
733.271	25293.06
733.612	25285.38
733.953	25284.48
734.294	25157.7
734.635	25050.36
734.976	25218.26
735.317	25007.42
735.658	25034.54
735.999	25017.59
736.339	25034.99
736.68	25111.37
737.021	25056.23
737.361	24800.87
737.702	24994.09
738.042	24914.32
738.383	24803.81
738.723	24884.49
739.063	24737.37
739.404	24781.66
739.744	24619.86
740.084	24484.5
740.424	24610.6
740.764	24614.21
741.104	24582.35
741.444	24487.21
741.784	24363.82
742.124	24416.48
742.464	24377.38
742.804	24327.67
743.143	24333.77
743.483	24334.22
743.823	24294.9
744.162	24297.61
744.502	24195.69
744.841	24120.89
745.181	24313.65
745.52	24181.91
745.86	24089.03
746.199	24057.39
746.538	23948.92
746.877	24124.05
747.216	23930.84
747.556	23993.21
747.895	23945.3
748.234	23888.35
748.573	23800.67
748.911	23769.71
749.25	23688.81
749.589	23711.41
749.928	23702.82
750.267	23639.55
750.605	23601.58
750.944	23581.92
751.283	23499.21
751.621	23534.24
751.96	23347.8
752.298	23411.31
752.636	23353.23
752.975	23275.04
753.313	23176.96
753.651	23249.05
753.989	23240.69
754.327	23018.77
754.666	22964.31
755.004	23022.61
755.342	22953.24
755.679	22935.84
756.017	22843.18
756.355	22938.78
756.693	22766.58
757.031	22821.72
757.368	22609.97
757.706	22637.09
758.044	22480.26
758.381	22595.28
758.719	22383.76
759.056	22544.89
759.394	22384.89
759.731	22294.27
760.068	22304.22
760.405	22145.35
760.743	22151.45
761.08	22153.71
761.417	21972.7
761.754	21990.33
762.091	21957.78
762.428	21878.01
762.765	21739.48
763.102	21762.54
763.438	21581.75
763.775	21499.94
764.112	21560.73
764.449	21492.94
764.785	21442.77
765.122	21344.69
765.458	21259.72
765.795	21117.81
766.131	21146.73
766.467	21043.46
766.804	20979.96
767.14	20849.11
767.476	20876.46
767.812	20736.57
768.148	20806.63
768.485	20720.75
768.821	20499.29
769.157	20523.92
769.492	20550.14
769.828	20430.82
770.164	20344.27
770.5	20217.72
770.836	20211.16
771.171	20140.43
771.507	19979.76
771.842	19918.29
772.178	20001.45
772.513	19877.84
772.849	19799.65
773.184	19733.21
773.519	19674.45
773.855	19633.55
774.19	19562.82
774.525	19487.11
774.86	19378.19
775.195	19371.41
775.53	19323.28
775.865	19237.63
776.2	19116.28
776.535	18932.55
776.87	19008.48
777.205	18910.41
777.539	18806.45
777.874	18809.62
778.209	18700.02
778.543	18551.77
778.878	18507.25
779.212	18518.78
779.547	18444.88
779.881	18519.46
780.215	18300.25
780.55	18321.5
780.884	18163.08
781.218	18140.26
781.552	18057.32
781.886	18020.94
782.22	17902.3
782.554	17862.3
782.888	17833.82
783.222	17705.24
783.556	17518.35
783.889	17621.4
784.223	17461.63
784.557	17384.12
784.89	17485.13
785.224	17282.2
785.557	17316.32
785.891	17192.03
786.224	17213.95
786.558	17226.61
786.891	16996.78
787.224	16940.52
787.557	16813.74
787.891	16856.45
788.224	16835.89
788.557	16861.87
788.89	16770.35
789.223	16719.73
789.556	16660.97
789.888	16574.2
790.221	16460.53
790.554	16347.99
790.887	16329.91
791.219	16331.27
791.552	16228.22
791.884	16217.37
792.217	16118.16
792.549	16070.03
792.882	15924.95
793.214	15893.08
793.546	15846.31
793.879	15877.72
794.211	15732.41
794.543	15822.35
794.875	15706.88
795.207	15746.65
795.539	15614.67
795.871	15592.98
796.203	15475.02
796.535	15270.95
796.867	15348.47
797.198	15289.03
797.53	15317.73
797.862	15197.96
798.193	15252.65
798.525	15074.35
798.856	15162.48
799.188	14984.41
799.519	14901.02
799.85	14874.58
800.182	14885.88
800.513	14799.1
800.844	14720.46
801.175	14773.11
801.506	14750.52
801.837	14637.75
802.168	14607.47
802.499	14498.32
802.83	14546.23
803.161	14487.7
803.491	14439.34
803.822	14419.23
804.153	14388.27
804.483	14303.97
804.814	14164.32
805.145	14359.79
805.475	14173.36
805.805	14194.15
806.136	14133.13
806.466	14173.81
806.796	14150.76
807.126	13995.51
807.457	13936.3
807.787	13904.89
808.117	13871.22
808.447	13805.46
808.777	13751.22
809.107	13862.18
809.436	13786.02
809.766	13754.61
810.096	13646.36
810.426	13618.57
810.755	13547.84
811.085	13590.55
811.414	13543.09
811.744	13462.41
812.073	13368.18
812.403	13363.66
812.732	13285.92
813.061	13354.62
813.39	13176.32
813.719	13199.6
814.049	13300.84
814.378	13171.35
814.707	13091.35
815.036	13138.13
815.365	13030.56
815.693	12991.01
816.022	12917.57
816.351	12921.64
816.68	12846.61
817.008	12887.97
817.337	12751.47
817.665	12778.59
817.994	12838.7
818.322	12741.08
818.651	12732.72
818.979	12734.98
819.307	12704.69
819.636	12679.84
819.964	12568.43
820.292	12643.68
820.62	12635.32
820.948	12596.67
821.276	12554.19
821.604	12596.22
821.932	12647.07
822.259	12558.71
822.587	12594.19
822.915	12508.09
823.243	12563.23
823.57	12447.98
823.898	12504.7
824.225	12484.36
824.553	12536.79
824.88	12488.88
825.207	12509.45
825.535	12498.15
825.862	12533.63
826.189	12428.77
826.516	12513.29
826.843	12572.72
827.17	12479.39
827.497	12544.7
827.824	12489.78
828.151	12491.14
828.478	12493.63
828.805	12416.57
829.131	12377.7
829.458	12396.91
829.785	12421.54
830.111	12417.92
830.438	12475.55
830.764	12478.49
831.09	12478.94
831.417	12392.61
831.743	12437.36
832.069	12492.27
832.395	12398.94
832.722	12423.8
833.048	12325.95
833.374	12308.09
833.7	12282.78
834.026	12294.54
834.351	12337.7
834.677	12259.28
835.003	12360.97
835.329	12252.73
835.654	12279.39
835.98	12242.79
836.306	12235.55
836.631	12190.36
836.956	12166.86
837.282	12267.19
837.607	12148.78
837.932	12136.12
838.258	12049.34
838.583	12128.21
838.908	12019.97
839.233	12090.25
839.558	12018.61
839.883	12016.8
840.208	11905.62
840.533	11968.89
840.858	11892.51
841.182	11942.91
841.507	11855.23
841.832	11829.24
842.156	11888.9
842.481	11883.92
842.805	11875.11
843.13	11775.68
843.454	11700.43
843.778	11642.58
844.103	11606.42
844.427	11631.28
844.751	11707.21
845.075	11651.16
845.399	11539.53
845.723	11499.53
846.047	11580.2
846.371	11427.67
846.695	11461.56
847.019	11315.8
847.343	11278.52
847.666	11221.34
847.99	11245.75
848.313	11250.04
848.637	11096.37
848.96	11060.9
849.284	11106.32
849.607	11005.08
849.931	10961.24
850.254	10955.81
850.577	10876.49
850.9	10753.33
851.223	10706.78
851.546	10693.9
851.869	10665.43
852.192	10706.55
852.515	10613.45
852.838	10522.83
853.161	10528.03
853.483	10534.13
853.806	10471.98
854.129	10425.88
854.451	10407.35
854.774	10349.73
855.096	10289.39
855.419	10277.19
855.741	10220.92
856.063	10209.84
856.385	10225.21
856.708	10217.08
857.03	10070.87
857.352	10097.31
857.674	10018.44
857.996	9987.93
858.318	9993.35
858.64	9963.07
858.961	9946.12
859.283	9926.24
859.605	9818.44
859.926	9815.5
860.248	9856.86
860.57	9764.43
860.891	9831.32
861.212	9774.6
861.534	9707.03
861.855	9721.95
862.176	9714.94
862.498	9715.85
862.819	9678.33
863.14	9662.06
863.461	9650.31
863.782	9590.88
864.103	9581.39
864.424	9589.3
864.745	9548.84
865.065	9521.73
865.386	9481.28
865.707	9453.48
866.027	9510.43
866.348	9493.71
866.668	9382.3
866.989	9351.56
867.309	9320.15
867.63	9411.45
867.95	9336.65
868.27	9368.74
868.59	9369.19
868.91	9319.92
869.23	9315.4
869.55	9241.96
869.87	9293.03
870.19	9224.56
870.51	9235.86
870.83	9228.4
871.15	9194.5
871.469	9193.83
871.789	9250.77
872.109	9182.98
872.428	9156.76
872.748	9131.91
873.067	9215.52
873.386	9124.45
873.706	9148.4
874.025	9055.75
874.344	9105.24
874.663	9085.58
874.982	9014.4
875.301	8986.6
875.62	9011.91
875.939	9012.14
876.258	8988.63
876.577	8940.95
876.896	8995.64
877.214	8919.93
877.533	8910.22
877.852	8930.33
878.17	8922.42
878.489	8907.73
878.807	8869.09
879.125	8799.49
879.444	8906.83
879.762	8889.2
880.08	8796.1
880.398	8815.76
880.716	8843.33
881.034	8749.32
881.352	8728.53
881.67	8668.64
881.988	8699.15
882.306	8679.26
882.624	8694.86
882.941	8663.67
883.259	8604.24
883.577	8531.24
883.894	8601.98
884.212	8507.29
884.529	8565.14
884.846	8502.54
885.164	8474.07
885.481	8479.95
885.798	8508.42
886.115	8380.74
886.432	8426.39
886.75	8422.09
887.067	8358.37
887.383	8376.9
887.7	8383.23
888.017	8389.1
888.334	8312.04
888.651	8299.61
888.967	8310.23
889.284	8193.63
889.6	8232.95
889.917	8121.99
890.233	8207.64
890.55	8147.07
890.866	8132.39
891.182	8142.78
891.498	8129
891.815	8064.36
892.131	8010.81
892.447	7994.99
892.763	8054.87
893.079	7978.26
893.395	7940.3
893.71	7896.69
894.026	7902.33
894.342	7900.98
894.657	7782.79
894.973	7845.61
895.289	7814.2
895.604	7728.55
895.92	7741.43
896.235	7672.06
896.55	7682.68
896.865	7684.49
897.181	7595.68
897.496	7613.75
897.811	7589.8
898.126	7578.28
898.441	7548.22
898.756	7493.31
899.071	7460.99
899.386	7511.84
899.7	7408.11
900.015	7368.34
900.33	7370.6
900.644	7388.68
900.959	7374.21
901.273	7359.3
901.588	7287.89
901.902	7220.77
902.216	7185.29
902.531	7225.52
902.845	7176.48
903.159	7133.99
903.473	7097.38
903.787	7119.3
904.101	7018.52
904.415	7046.31
904.729	6996.6
905.042	7054.9
905.356	6927.67
905.67	6948.24
905.984	6925.19
906.297	6925.64
906.611	6889.03
906.924	6891.51
907.237	6824.85
907.551	6808.8
907.864	6819.2
908.177	6754.12
908.491	6751.86
908.804	6687.45
909.117	6667.34
909.43	6595.02
909.743	6628.47
910.056	6607.91
910.368	6540.11
910.681	6530.62
910.994	6456.04
911.307	6470.28
911.619	6431.19
911.932	6447.01
912.244	6396.39
912.557	6347.35
912.869	6377.18
913.181	6392.32
913.494	6272.77
913.806	6290.63
914.118	6251.53
914.43	6217.41
914.742	6242.04
915.054	6135.6
915.366	6181.93
915.678	6141.48
915.99	6089.27
916.302	6040.01
916.613	6058.32
916.925	6007.24
917.236	5996.85
917.548	5933.57
917.859	5909.39
918.171	5944.87
918.482	5923.4
918.794	5883.63
919.105	5914.59
919.416	5846.34
919.727	5850.86
920.038	5845.67
920.349	5803.63
920.66	5725.22
920.971	5747.36
921.282	5629.85
921.593	5671.88
921.903	5647.93
922.214	5585.56
922.525	5597.31
922.835	5561.15
923.146	5519.8
923.456	5497.2
923.767	5514.15
924.077	5506.47
924.387	5442.06
924.697	5426.47
925.008	5446.13
925.318	5353.25
925.628	5424.43
925.938	5365.68
926.248	5324.32
926.558	5293.59
926.867	5254.27
927.177	5281.84
927.487	5200.26
927.796	5177.89
928.106	5171.11
928.416	5177.66
928.725	5169.53
929.034	5114.84
929.344	5144.22
929.653	5074.16
929.962	5084.33
930.271	4999.81
930.581	4983.77
930.89	5021.96
931.199	4966.14
931.508	4910.1
931.817	4950.55
932.125	4916.65
932.434	4908.06
932.743	4884.33
933.051	4879.82
933.36	4818.12
933.669	4786.94
933.977	4765.92
934.286	4806.37
934.594	4740.16
934.902	4716.66
935.21	4662.42
935.519	4688.86
935.827	4640.5
936.135	4671.01
936.443	4579.26
936.751	4557.34
937.059	4582.65
937.367	4559.82
937.674	4518.24
937.982	4518.92
938.29	4539.03
938.597	4486.61
938.905	4424.01
939.213	4499.94
939.52	4418.13
939.827	4417.68
940.135	4412.93
940.442	4368.42
940.749	4366.38
941.056	4372.71
941.363	4313.28
941.67	4294.07
941.977	4258.59
942.284	4229.66
942.591	4274.41
942.898	4207.74
943.205	4263.56
943.511	4194.64
943.818	4187.18
944.125	4173.39
944.431	4155.54
944.738	4112.83
945.044	4137.24
945.35	4137.69
945.657	4091.14
945.963	4059.27
946.269	4061.08
946.575	4057.24
946.881	3974.3
947.187	4003.91
947.493	3949.9
947.799	3954.19
948.105	3940.63
948.41	3903.12
948.716	3897.02
949.022	3866.96
949.327	3879.84
949.633	3851.82
949.938	3837.58
950.244	3859.5
950.549	3778.6
950.854	3812.95
951.16	3751.48
951.465	3778.15
951.77	3756.23
952.075	3720.3
952.38	3713.74
952.685	3694.08
952.99	3646.63
953.294	3640.53
953.599	3673.97
953.904	3647.98
954.209	3616.35
954.513	3610.47
954.818	3605.72
955.122	3574.76
955.426	3525.5
955.731	3525.27
956.035	3537.7
956.339	3541.09
956.643	3483.69
956.948	3446.63
957.252	3459.74
957.556	3434.66
957.86	3457.48
958.163	3421.77
958.467	3415.67
958.771	3410.93
959.075	3370.93
959.378	3387.2
959.682	3379.74
959.985	3333.64
960.289	3318.05
960.592	3318.27
960.896	3296.35
961.199	3257.94
961.502	3247.99
961.805	3270.82
962.108	3187.2
962.411	3205.28
962.714	3184.94
963.017	3170.71
963.32	3198.5
963.623	3176.58
963.926	3150.14
964.228	3143.59
964.531	3137.49
964.833	3117.6
965.136	3103.14
965.438	3086.42
965.741	3059.52
966.043	3062.46
966.345	3049.35
966.648	3025.17
966.95	3076.47
967.252	3003.71
967.554	2969.13
967.856	2962.13
968.158	2942.92
968.46	2916.7
968.761	2939.75
969.063	2942.01
969.365	2890.71
969.666	2962.35
969.968	2892.07
970.269	2875.12
970.571	2878.29
970.872	2871.96
971.174	2822.24
971.475	2835.12
971.776	2843.94
972.077	2793.99
972.378	2774.33
972.679	2751.96
972.98	2773.2
973.281	2748.8
973.582	2778.63
973.883	2744.73
974.183	2746.99
974.484	2684.17
974.785	2715.13
975.085	2688.69
975.386	2688.46
975.686	2652.98
975.986	2659.99
976.287	2632.19
976.587	2613.89
976.887	2612.98
977.187	2632.64
977.487	2638.74
977.787	2572.98
978.087	2607.11
978.387	2552.64
978.687	2547.45
978.987	2562.81
979.286	2546.09
979.586	2502.93
979.885	2499.09
980.185	2505.64
980.484	2461.8
980.784	2450.95
981.083	2485.3
981.382	2431.29
981.682	2443.72
981.981	2451.63
982.28	2417.28
982.579	2423.61
982.878	2407.34
983.177	2417.73
983.475	2357.4
983.774	2382.71
984.073	2353.33
984.372	2310.17
984.67	2391.97
984.969	2337.28
985.267	2308.81
985.566	2279.66
985.864	2342.25
986.162	2311.97
986.461	2285.08
986.759	2296.15
987.057	2253.44
987.355	2245.08
987.653	2244.4
987.951	2197.17
988.249	2219.55
988.547	2230.17
988.844	2220
989.142	2204.86
989.44	2186.1
989.737	2103.84
990.035	2162.82
990.332	2167.8
990.63	2131.64
990.927	2117.18
991.224	2137.06
991.521	2088.25
991.819	2102.04
992.116	2113.11
992.413	2111.53
992.71	2068.14
993.006	2053.67
993.303	2038.31
993.6	2075.14
993.897	2028.59
994.193	2033.11
994.49	1994.24
994.787	2035.37
995.083	2012.77
995.379	1970.74
995.676	2004.64
995.972	1947.69
996.268	1995.82
996.565	1969.16
996.861	1941.81
997.157	1951.76
997.453	1915.37
997.749	1901.81
998.044	1941.59
998.34	1897.97
998.636	1886.9
998.932	1879.89
999.227	1882.83
999.523	1878.09
999.818	1851.19
1000.114	1849.16
1000.409	1839.22
1000.704	1805.32
1001	1825.88
1001.295	1786.56
1001.59	1839.9
1001.885	1801.93
1002.18	1775.72
1002.475	1779.33
1002.77	1772.78
1003.065	1747.02
1003.359	1761.71
1003.654	1738.88
1003.949	1749.05
1004.243	1719.45
1004.538	1695.04
1004.832	1734.81
1005.127	1682.61
1005.421	1677.87
1005.715	1676.06
1006.009	1641.71
1006.304	1660.24
1006.598	1639.9
1006.892	1665.89
1007.186	1614.59
1007.48	1615.49
1007.773	1601.48
1008.067	1578.43
1008.361	1594.03
1008.655	1569.17
1008.948	1585.89
1009.242	1590.18
1009.535	1543.18
1009.829	1547.93
1010.122	1553.35
1010.415	1544.08
1010.708	1529.17
1011.001	1490.98
1011.295	1499.79
1011.588	1500.24
1011.881	1507.7
1012.173	1485.1
1012.466	1462.73
1012.759	1488.27
1013.052	1445.78
1013.344	1466.8
1013.637	1443.97
1013.93	1447.59
1014.222	1442.84
1014.514	1430.87
1014.807	1427.93
1015.099	1382.73
1015.391	1398.55
1015.683	1403.07
1015.976	1379.12
1016.268	1382.96
1016.56	1377.76
1016.851	1341.38
1017.143	1353.81
1017.435	1329.17
1017.727	1323.75
1018.018	1288.95
1018.31	1301.15
1018.602	1295.05
1018.893	1295.28
1019.185	1322.85
1019.476	1296.18
1019.767	1301.15
1020.058	1254.15
1020.35	1259.57
1020.641	1262.74
1020.932	1250.08
1021.223	1220.93
1021.514	1221.15
1021.804	1230.87
1022.095	1217.09
1022.386	1205.34
1022.677	1189.74
1022.967	1182.29
1023.258	1194.26
1023.548	1206.01
1023.839	1156.3
1024.129	1164.21
1024.419	1141.83
1024.709	1150.65
1025	1152.23
1025.29	1159.69
1025.58	1123.08
1025.87	1106.58
1026.16	1096.86
1026.449	1096.41
1026.739	1076.98
1027.029	1081.5
1027.319	1101.84
1027.608	1090.76
1027.898	1076.53
1028.187	1049.18
1028.477	1089.41
1028.766	1071.55
1029.055	1051.67
1029.344	1046.24
1029.634	1043.31
1029.923	1021.84
1030.212	1045.11
1030.501	1010.31
1030.79	1005.57
1031.078	994.49
1031.367	978.67
1031.656	988.17
1031.945	999.24
1032.233	992.46
1032.522	979.35
1032.81	996.53
1033.099	948.85
1033.387	958.56
1033.675	981.61
1033.963	955.17
1034.251	953.14
1034.54	931.22
1034.828	944.1
1035.116	909.3
1035.403	932.57
1035.691	914.95
1035.979	873.82
1036.267	885.34
1036.554	881.05
1036.842	890.77
1037.129	869.98
1037.417	897.1
1037.704	852.35
1037.992	896.87
1038.279	852.12
1038.566	850.77
1038.853	850.77
1039.14	850.77
