Data from hue_350_FLMS001491_63.txt Node
Date: Mon Feb 06 15:38:21 GMT 2017
User: dcchb
Spectrometer: FLMS00149
Trigger mode: 0
Integration Time (sec): 2.000000E-2
Scans to average: 10
Electric dark correction enabled: true
Nonlinearity correction enabled: false
Boxcar width: 0
XAxis mode: Wavelengths
Number of Pixels in Spectrum: 2048
>>>>>Begin Spectral Data<<<<<
341.393	-20.9
341.776	-20.9
342.16	-20.9
342.543	-76.27
342.927	-62.71
343.31	-55.48
343.693	-84.4
344.077	-71.98
344.46	-53.44
344.843	-47.57
345.226	-55.25
345.61	-28.81
345.993	-8.93
346.376	-5.76
346.759	11.64
347.142	12.77
347.525	36.04
347.908	57.51
348.291	96.61
348.674	86.44
349.057	110.62
349.44	132.99
349.823	156.95
350.206	141.13
350.588	193.55
350.971	206.89
351.354	215.02
351.737	226.32
352.119	232.42
352.502	233.55
352.884	271.97
353.267	283.72
353.65	285.3
354.032	286.43
354.414	315.36
354.797	309.03
355.179	317.62
355.562	307.45
355.944	318.97
356.326	321.23
356.709	344.28
357.091	330.27
357.473	326.66
357.855	328.01
358.238	322.36
358.62	346.09
359.002	341.8
359.384	347.9
359.766	339.31
360.148	330.73
360.53	325.3
360.912	319.65
361.294	330.5
361.676	335.25
362.057	325.75
362.439	326.88
362.821	325.08
363.203	317.62
363.584	317.84
363.966	310.39
364.348	318.3
364.729	320.1
365.111	325.3
365.493	308.81
365.874	312.42
366.256	311.52
366.637	305.42
367.019	311.07
367.4	314.46
367.781	306.32
368.163	302.93
368.544	310.84
368.925	303.38
369.306	311.29
369.688	304.96
370.069	295.25
370.45	300.44
370.831	302.03
371.212	304.51
371.593	314.68
371.974	301.12
372.355	309.48
372.736	302.25
373.117	314.23
373.498	297.96
373.879	313.78
374.26	307.9
374.641	295.47
375.021	303.16
375.402	325.53
375.783	337.96
376.163	305.64
376.544	307.9
376.925	316.04
377.305	316.26
377.686	309.48
378.066	321.01
378.447	308.35
378.827	321.46
379.208	301.35
379.588	306.32
379.968	320.33
380.349	316.49
380.729	316.04
381.109	298.18
381.489	318.3
381.87	322.59
382.25	326.66
382.63	334.12
383.01	328.92
383.39	333.44
383.77	326.88
384.15	336.38
384.53	325.75
384.91	326.43
385.29	356.49
385.67	335.7
386.049	352.87
386.429	325.98
386.809	346.09
387.189	339.77
387.568	343.38
387.948	342.48
388.328	361.46
388.707	339.77
389.087	324.85
389.466	359.43
389.846	337.73
390.225	338.41
390.605	335.47
390.984	359.88
391.363	343.61
391.743	354.45
392.122	347.22
392.501	350.61
392.881	371.63
393.26	368.92
393.639	358.3
394.018	361.69
394.397	359.2
394.776	357.84
395.155	345.87
395.534	362.14
395.913	364.17
396.292	387.45
396.671	366.66
397.05	361.23
397.429	384.74
397.808	382.25
398.186	381.8
398.565	396.94
398.944	363.04
399.323	356.71
399.701	372.76
400.08	366.21
400.458	396.49
400.837	381.35
401.215	368.92
401.594	392.42
401.972	368.01
402.351	388.35
402.729	384.51
403.107	392.87
403.486	382.93
403.864	402.59
404.242	401.01
404.62	389.71
404.999	394.23
405.377	403.49
405.755	401.01
406.133	391.74
406.511	416.15
406.889	416.37
407.267	394.9
407.645	400.78
408.023	423.83
408.401	405.07
408.779	431.74
409.156	434.9
409.534	406.88
409.912	418.63
410.29	403.04
410.667	413.21
411.045	436.94
411.422	427.67
411.8	436.71
412.178	445.75
412.555	436.71
412.933	428.12
413.31	445.98
413.687	446.43
414.065	443.94
414.442	458.63
414.819	466.54
415.197	460.67
415.574	453.89
415.951	475.13
416.328	492.53
416.705	467.22
417.082	497.5
417.46	493.43
417.837	493.21
418.214	486.43
418.591	497.05
418.967	503.15
419.344	499.76
419.721	509.25
420.098	513.55
420.475	507.44
420.852	508.57
421.228	499.99
421.605	521.46
421.982	509.25
422.358	522.13
422.735	534.79
423.111	532.3
423.488	525.3
423.864	531.85
424.241	541.12
424.617	548.57
424.994	554
425.37	540.89
425.746	548.8
426.123	541.34
426.499	551.28
426.875	554.67
427.251	558.74
427.627	568.46
428.003	580.89
428.379	577.27
428.756	577.72
429.132	582.02
429.507	598.06
429.883	593.54
430.259	612.75
430.635	611.17
431.011	636.25
431.387	604.39
431.763	611.62
432.138	621.34
432.514	644.84
432.89	633.99
433.265	646.88
433.641	633.99
434.016	653.88
434.392	670.38
434.767	676.25
435.143	663.15
435.518	664.73
435.894	696.14
436.269	669.47
436.644	687.55
437.02	702.69
437.395	685.52
437.77	697.5
438.145	689.81
438.52	716.03
438.895	705.63
439.271	695.46
439.646	715.35
440.021	744.95
440.395	710.6
440.77	750.15
441.145	735.23
441.52	733.43
441.895	765.29
442.27	753.54
442.645	743.14
443.019	781.79
443.394	771.84
443.769	764.16
444.143	777.95
444.518	779.75
444.892	756.03
445.267	780.88
445.641	781.79
446.016	783.82
446.39	792.18
446.764	789.47
447.139	787.44
447.513	798.06
447.887	802.13
448.262	808.23
448.636	804.84
449.01	803.26
449.384	793.09
449.758	794.44
450.132	832.41
450.506	851.39
450.88	842.8
451.254	827.89
451.628	858.17
452.002	852.29
452.376	857.72
452.75	854.55
453.123	864.27
453.497	863.14
453.871	885.74
454.244	897.04
454.618	899.07
454.992	916.7
455.365	920.31
455.739	917.6
456.112	934.78
456.486	936.59
456.859	956.02
457.232	970.71
457.606	961.22
457.979	947.43
458.352	944.49
458.725	988.11
459.099	987.66
459.472	976.81
459.845	1001.22
460.218	996.7
460.591	1026.98
460.964	1027.43
461.337	1038.5
461.71	1049.12
462.083	1069.92
462.456	1076.47
462.829	1090.03
463.201	1080.54
463.574	1089.12
463.947	1111.04
464.32	1124.15
464.692	1145.85
465.065	1151.27
465.438	1150.59
465.81	1140.65
466.183	1167.09
466.555	1201.44
466.928	1212.06
467.3	1188.33
467.672	1219.29
468.045	1248.44
468.417	1249.8
468.789	1252.06
469.161	1284.6
469.534	1287.99
469.906	1306.29
470.278	1336.12
470.65	1330.25
471.022	1346.29
471.394	1351.72
471.766	1399.4
472.138	1392.84
472.51	1419.96
472.882	1445.27
473.253	1457.7
473.625	1472.84
473.997	1499.06
474.369	1496.12
474.74	1509
475.112	1539.06
475.484	1568.89
475.855	1604.82
476.227	1613.4
476.598	1657.47
476.97	1652.72
477.341	1736.11
477.713	1712.84
478.084	1751.93
478.455	1779.05
478.827	1792.83
479.198	1847.07
479.569	1854.3
479.94	1906.05
480.311	1915.99
480.682	1958.03
481.053	2017.91
481.424	2047.74
481.795	2088.65
482.166	2088.19
482.537	2086.84
482.908	2174.97
483.279	2204.57
483.65	2224.69
484.021	2259.04
484.391	2294.06
484.762	2296.1
485.133	2335.87
485.503	2382.2
485.874	2405.25
486.244	2440.05
486.615	2500.39
486.985	2544.23
487.356	2547.16
487.726	2584.23
488.097	2655.18
488.467	2655.18
488.837	2697.67
489.207	2766.37
489.578	2751.91
489.948	2792.81
490.318	2834.61
490.688	2857.66
491.058	2951
491.428	2946.7
491.798	2949.64
492.168	3006.14
492.538	3054.5
492.908	3090.65
493.278	3146.24
493.648	3110.09
494.017	3152.8
494.387	3192.57
494.757	3231.44
495.126	3252.68
495.496	3261.95
495.866	3312.34
496.235	3338.1
496.605	3360.02
496.974	3371.32
497.344	3449.06
497.713	3435.5
498.082	3444.77
498.452	3497.42
498.821	3518.66
499.19	3513.69
499.559	3539.91
499.928	3564.09
500.298	3577.87
500.667	3615.16
501.036	3620.81
501.405	3660.13
501.774	3684.08
502.143	3670.3
502.512	3688.83
502.88	3753.46
503.249	3734.25
503.618	3750.3
503.987	3775.38
504.356	3845.44
504.724	3818.32
505.093	3835.27
505.462	3878.2
505.83	3883.85
506.199	3856.96
506.567	3955.72
506.936	3942.61
507.304	3977.18
507.672	3962.04
508.041	4013.34
508.409	4004.53
508.777	4053.11
509.145	4063.06
509.514	4061.48
509.882	4083.4
510.25	4105.54
510.618	4153.45
510.986	4149.83
511.354	4156.16
511.722	4176.73
512.09	4190.06
512.458	4201.58
512.826	4225.31
513.193	4258.76
513.561	4235.26
513.929	4286.1
514.297	4288.81
514.664	4390.28
515.032	4347.12
515.4	4382.37
515.767	4335.37
516.135	4374.46
516.502	4343.28
516.869	4455.36
517.237	4413.56
517.604	4404.97
517.972	4444.29
518.339	4473.67
518.706	4486.55
519.073	4494.01
519.44	4496.72
519.808	4527.23
520.175	4570.84
520.542	4589.6
520.909	4623.04
521.276	4606.55
521.643	4661.01
522.009	4651.06
522.376	4606.32
522.743	4736.71
523.11	4774.68
523.477	4771.96
523.843	4730.16
524.21	4794.34
524.577	4814.68
524.943	4887.89
525.31	4864.39
525.676	4925.41
526.043	4920.44
526.409	4926.54
526.776	4982.35
527.142	5015.12
527.508	5008.34
527.874	5040.43
528.241	5091.05
528.607	5049.7
528.973	5119.98
529.339	5140.77
529.705	5121.79
530.071	5191.84
530.437	5231.39
530.803	5286.98
531.169	5238.17
531.535	5251.73
531.901	5271.16
532.267	5338.96
532.632	5371.05
532.998	5342.8
533.364	5376.69
533.73	5374.43
534.095	5477.03
534.461	5437.48
534.826	5424.6
535.192	5467.31
535.557	5536.69
535.923	5533.75
536.288	5549.35
536.653	5559.97
537.019	5592.28
537.384	5586.86
537.749	5636.8
538.114	5646.97
538.479	5708.21
538.845	5713.18
539.21	5721.77
539.575	5715.22
539.94	5763.58
540.305	5802.9
540.67	5807.87
541.034	5816.68
541.399	5873.63
541.764	5812.62
542.129	5906.4
542.494	5942.78
542.858	5978.26
543.223	5974.42
543.587	5994.76
543.952	6010.12
544.316	6033.17
544.681	6001.54
545.045	6105.04
545.41	6128.77
545.774	6158.6
546.138	6115.21
546.503	6155.21
546.867	6175.32
547.231	6241.98
547.595	6276.78
547.959	6275.43
548.324	6281.3
548.688	6308.2
549.052	6346.39
549.416	6327.86
549.779	6376.22
550.143	6397.46
550.507	6420.74
550.871	6391.13
551.235	6422.32
551.599	6462.77
551.962	6484.69
552.326	6518.36
552.689	6606.94
553.053	6495.31
553.417	6549.32
553.78	6663.67
554.143	6606.27
554.507	6623.44
554.87	6606.49
555.234	6722.42
555.597	6741.63
555.96	6769.88
556.323	6687.85
556.686	6735.98
557.05	6773.72
557.413	6776.88
557.776	6763.55
558.139	6834.74
558.502	6909.99
558.865	6884.9
559.228	6870.89
559.59	6932.36
559.953	6955.41
560.316	7001.28
560.679	7008.74
561.041	7075.41
561.404	7088.51
561.767	7093.94
562.129	7091.23
562.492	7191.79
562.854	7163.99
563.217	7137.55
563.579	7205.57
563.941	7215.52
564.304	7266.14
564.666	7245.8
565.028	7281.05
565.39	7326.02
565.753	7291.22
566.115	7332.8
566.477	7401.73
566.839	7444.21
567.201	7520.82
567.563	7473.59
567.925	7542.51
568.287	7547.26
568.648	7558.78
569.01	7607.82
569.372	7619.8
569.734	7649.4
570.095	7722.85
570.457	7679.69
570.819	7741.83
571.18	7808.5
571.542	7772.34
571.903	7837.65
572.265	7864.54
572.626	7927.14
572.987	8015.72
573.349	7986.57
573.71	8092.33
574.071	8057.98
574.432	8156.51
574.794	8288.48
575.155	8307.69
575.516	8257.97
575.877	8321.48
576.238	8379.33
576.599	8467.91
576.96	8549.27
577.32	8598.98
577.681	8733.67
578.042	8813.21
578.403	8837.17
578.763	8835.36
579.124	9007.56
579.485	9038.07
579.845	9182.7
580.206	9207.55
580.566	9278.29
580.927	9413.65
581.287	9550.6
581.648	9739.29
582.008	9775.9
582.368	9855.22
582.728	10042.33
583.089	10130.69
583.449	10323.23
583.809	10466.73
584.169	10681.64
584.529	10828.08
584.889	11043.89
585.249	11080.5
585.609	11263.09
585.969	11521.62
586.329	11699.24
586.688	11864.66
587.048	12080.25
587.408	12311.88
587.768	12413.57
588.127	12705.09
588.487	12877.74
588.846	13195.7
589.206	13308.69
589.565	13567.67
589.925	13868.9
590.284	14163.81
590.643	14377.81
591.003	14680.4
591.362	14936.44
591.721	15144.12
592.08	15416.66
592.44	15711.34
592.799	15922.41
593.158	16173.47
593.517	16469.96
593.876	16809.16
594.235	17024.75
594.593	17320.79
594.952	17626.32
595.311	17876.93
595.67	18173.42
596.029	18534.54
596.387	18811.37
596.746	19182.21
597.104	19301.53
597.463	19616.55
597.822	19925.24
598.18	20114.39
598.538	20402.51
598.897	20730.64
599.255	20981.93
599.613	21435.71
599.972	21597.74
600.33	21962.7
600.688	22091.74
601.046	22544.83
601.404	22852.17
601.762	23161.09
602.12	23484.92
602.478	23704.57
602.836	23933.95
603.194	24077.45
603.552	24479.24
603.91	24639.69
604.268	25043.3
604.625	25210.75
604.983	25455.71
605.341	25663.84
605.698	25999.88
606.056	26388.35
606.413	26492.98
606.771	26875.79
607.128	27029.23
607.485	27223.8
607.843	27444.59
608.2	27832.15
608.557	28112.59
608.914	28275.3
609.272	28582.41
609.629	28817.89
609.986	29128.39
610.343	29275.73
610.7	29517.08
611.057	29651.76
611.414	29859.67
611.771	30024.86
612.127	30305.3
612.484	30433.44
612.841	30765.18
613.198	30702.58
613.554	31107.09
613.911	31308.89
614.267	31461.66
614.624	31568.1
614.98	31791.82
615.337	32085.6
615.693	32112.49
616.05	32348.41
616.406	32617.79
616.762	32564.23
617.118	32709.76
617.475	33028.17
617.831	33260.03
618.187	33110.65
618.543	33346.58
618.899	33692.79
619.255	33805.33
619.611	33820.47
619.967	34069.73
620.323	34147.69
620.678	34162.38
621.034	34134.81
621.39	34293.22
621.746	34470.17
622.101	34985.63
622.457	34659.99
622.812	34836.03
623.168	35043.49
623.523	35167.32
623.879	35341.78
624.234	35171.39
624.589	35377.94
624.945	35487.32
625.3	35584.71
625.655	35603.02
626.01	35749.23
626.365	35809.57
626.72	35926.63
627.075	35991.48
627.43	36083.46
627.785	36042.1
628.14	36004.36
628.495	36150.8
628.85	36202.1
629.205	36090.46
629.559	36352.15
629.914	36346.05
630.269	36414.3
630.623	36275.09
630.978	36343.56
631.332	36504.69
631.687	36557.34
632.041	36436.67
632.396	36544.69
632.75	36444.35
633.104	36677.79
633.459	36486.39
633.813	36517.34
634.167	36547.17
634.521	36665.82
634.875	36593.05
635.229	36577.23
635.583	36531.81
635.937	36467.18
636.291	36523.45
636.645	36509.89
636.999	36525.93
637.352	36615.87
637.706	36461.75
638.06	36731.12
638.413	36563.45
638.767	36411.58
639.121	36545.14
639.474	36432.83
639.828	36531.58
640.181	36617.68
640.534	36548.76
640.888	36576.55
641.241	36366.61
641.594	36504.24
641.947	36549.21
642.301	36513.5
642.654	36669.66
643.007	36476.67
643.36	36508.31
643.713	36470.79
644.066	36566.84
644.419	36388.53
644.771	36091.82
645.124	35811.83
645.477	35892.73
645.83	35659.74
646.182	35502
646.535	35377.26
646.888	35465.17
647.24	35348.79
647.593	35514.43
647.945	35306.98
648.298	35264.95
648.65	35174.1
649.002	35254.55
649.355	35277.15
649.707	35188.11
650.059	35433.76
650.411	35775.9
650.763	35744.03
651.115	36228.99
651.467	36047.07
651.819	36073.06
652.171	36042.56
652.523	36014.31
652.875	36061.31
653.227	35799.4
653.578	36131.14
653.93	35931.6
654.282	35894.54
654.633	35909.9
654.985	35840.53
655.337	35937.02
655.688	35904.25
656.039	35992.61
656.391	35726.18
656.742	35773.18
657.094	35827.87
657.445	35912.39
657.796	35754.88
658.147	35716.46
658.498	35707.65
658.849	35763.92
659.2	35765.05
659.551	35687.76
659.902	35953.74
660.253	35773.86
660.604	35839.62
660.955	35658.38
661.306	35723.69
661.656	35795.78
662.007	35763.92
662.358	35712.85
662.708	35695.67
663.059	35798.04
663.409	35400.54
663.76	35779.29
664.11	35672.62
664.461	35839.17
664.811	35650.02
665.161	35560.31
665.511	35611.15
665.862	35572.74
666.212	35749.23
666.562	35745.16
666.912	35683.92
667.262	35652.51
667.612	35629.01
667.962	35661.32
668.312	35595.56
668.662	35903.58
669.011	35657.48
669.361	35667.88
669.711	35504.49
670.06	35570.7
670.41	35455.68
670.76	35453.87
671.109	35575.67
671.459	35518.28
671.808	35402.8
672.157	35412.29
672.507	35205.97
672.856	35226.08
673.205	35311.5
673.554	35479.86
673.904	35394.44
674.253	35552.4
674.602	35396.24
674.951	34764.4
675.3	34782.93
675.649	35206.87
675.998	35075.35
676.346	35284.38
676.695	35288
677.044	35064.95
677.393	35177.95
677.741	35183.82
678.09	35163.26
678.438	35097.95
678.787	35057.27
679.135	35198.96
679.484	34837.16
679.832	35097.72
680.181	34909.93
680.529	34988.12
680.877	34845.75
681.225	34854.79
681.573	34946.31
681.922	34841.68
682.27	34537.51
682.618	34627.9
682.966	34630.84
683.314	34710.61
683.661	34575.93
684.009	34389.04
684.357	34403.05
684.705	34251.42
685.053	34370.06
685.4	34339.32
685.748	34131.42
686.095	34099.56
686.443	33972.55
686.79	33977.07
687.138	34032.66
687.485	33965.1
687.832	33796.51
688.18	33903.4
688.527	33739.56
688.874	33676.97
689.221	33612.56
689.568	33502.51
689.915	33340.71
690.262	33344.55
690.609	33259.58
690.956	33258.45
691.303	33275.17
691.65	33045.57
691.997	33028.62
692.344	32924.45
692.69	32780.27
693.037	32830.44
693.383	32608.75
693.73	32804.45
694.077	32531.91
694.423	32459.6
694.769	32496.89
695.116	32358.81
695.462	32244.46
695.808	32208.98
696.155	32321.07
696.501	32038.82
696.847	32008.54
697.193	31737.36
697.539	32000.18
697.885	31679.73
698.231	31638.38
698.577	31549.11
698.923	31512.28
699.269	31306.18
699.614	31291.27
699.96	31176.24
700.306	31295.56
700.651	31084.27
700.997	30954.1
701.342	31131.27
701.688	30898.06
702.033	30768.12
702.379	30789.59
702.724	30676.37
703.069	30891.96
703.415	30376.72
703.76	30385.98
704.105	30436.37
704.45	30432.53
704.795	30146.44
705.14	30118.42
705.485	29985.99
705.83	29940.57
706.175	30050.85
706.52	29772.21
706.865	29776.51
707.209	29834.58
707.554	29482.05
707.899	29688.15
708.243	29602.95
708.588	29407.48
708.932	29214.94
709.277	29239.57
709.621	29301.26
709.966	29086.81
710.31	29134.94
710.654	28921.84
710.998	28899.47
711.342	28913.03
711.687	28795.29
712.031	28848.85
712.375	28609.98
712.719	28763.88
713.063	28604.56
713.407	28687.49
713.75	28583.54
714.094	28575.18
714.438	28350.1
714.782	28491.79
715.125	28239.82
715.469	28415.41
715.812	28145.14
716.156	28174.74
716.499	28101.97
716.843	28285.02
717.186	27959.6
717.53	28113.05
717.873	28141.52
718.216	27961.19
718.559	27882.54
718.902	27648.65
719.246	27776.56
719.589	27619.27
719.932	27570.69
720.275	27460.41
720.617	27568.88
720.96	27459.96
721.303	27359.39
721.646	27381.54
721.989	27238.94
722.331	27363.91
722.674	27223.35
723.016	27191.49
723.359	27150.13
723.701	27262.22
724.044	26994.88
724.386	26851.16
724.729	27054.77
725.071	26874.66
725.413	26965.51
725.755	26882.8
726.097	26703.59
726.439	26611.16
726.782	26589.92
727.124	26754.89
727.465	26490.94
727.807	26586.76
728.149	26393.77
728.491	26536.82
728.833	26593.54
729.175	26470.15
729.516	26356.93
729.858	26385.41
730.199	26439.64
730.541	26196.03
730.882	26136.37
731.224	26304.05
731.565	26152.65
731.906	26120.78
732.248	26074.46
732.589	26039.65
732.93	26060.44
733.271	25912.43
733.612	25870.39
733.953	25946.55
734.294	25911.3
734.635	25756.5
734.976	25844.41
735.317	25761.24
735.658	25651.42
735.999	25596.05
736.339	25499.56
736.68	25645.09
737.021	25475.15
737.361	25372.78
737.702	25490.74
738.042	25439.9
738.383	25498.2
738.723	25469.27
739.063	25363.51
739.404	25451.87
739.744	25290.75
740.084	25217.98
740.424	25292.78
740.764	25158.55
741.104	25274.7
741.444	25080.58
741.784	25047.82
742.124	24966.24
742.464	25094.59
742.804	24907.93
743.143	24939.8
743.483	24949.29
743.823	24731.67
744.162	24791.33
744.502	24876.07
744.841	24642.4
745.181	24799.69
745.52	24639.92
745.86	24722.4
746.199	24607.15
746.538	24681.5
746.877	24623.42
747.216	24589.3
747.556	24494.38
747.895	24549.07
748.234	24361.73
748.573	24374.84
748.911	24332.35
749.25	24310.43
749.589	24174.62
749.928	24179.82
750.267	24227.5
750.605	24157.9
750.944	24065.24
751.283	24033.38
751.621	24141.63
751.96	23938.47
752.298	23920.16
752.636	24006.49
752.975	23904.8
753.313	23690.79
753.651	23926.26
753.989	23678.59
754.327	23685.82
754.666	23670.23
755.004	23634.29
755.342	23700.51
755.679	23568.08
756.017	23474.98
756.355	23568.53
756.693	23372.38
757.031	23360.85
757.368	23170.35
757.706	23221.42
758.044	23167.41
758.381	23235.43
758.719	23137.81
759.056	23081.99
759.394	22974.2
759.731	22872.96
760.068	22825.73
760.405	22783.92
760.743	22704.83
761.08	22878.83
761.417	22639.74
761.754	22545.06
762.091	22420.54
762.428	22552.74
762.765	22232.97
763.102	22309.58
763.438	22236.14
763.775	22050.61
764.112	22215.57
764.449	22209.92
764.785	22044.28
765.122	21978.74
765.458	21754.57
765.795	21824.62
766.131	21726.55
766.467	21684.97
766.804	21567.91
767.14	21514.12
767.476	21446.33
767.812	21320.23
768.148	21427.8
768.485	21249.95
768.821	21214.02
769.157	21247.69
769.492	21099.22
769.828	21138.77
770.164	20777.19
770.5	20859.9
770.836	20760.02
771.171	20683.18
771.507	20649.97
771.842	20552.79
772.178	20493.13
772.513	20304.21
772.849	20335.17
773.184	20258.11
773.519	20346.7
773.855	20101.28
774.19	20122.52
774.525	20010.89
774.86	19990.55
775.195	19950.77
775.53	19821.06
775.865	19798.69
776.2	19696.32
776.535	19579.49
776.87	19545.14
777.205	19381.98
777.539	19260.62
777.874	19419.04
778.209	19324.35
778.543	19217.23
778.878	19078.71
779.212	19044.36
779.547	18984.25
779.881	18974.53
780.215	18796.68
780.55	18903.57
780.884	18740.86
781.218	18632.62
781.552	18564.6
781.886	18541.55
782.22	18534.31
782.554	18476.01
782.888	18317.37
783.222	18128.22
783.556	18053.42
783.889	18156.7
784.223	17864.05
784.557	18008.91
784.89	17849.81
785.224	17894.78
785.557	17747.22
785.891	17686.43
786.224	17645.75
786.558	17659.99
786.891	17467.9
787.224	17497.28
787.557	17337.51
787.891	17432.65
788.224	17321.69
788.557	17295.48
788.89	17189.27
789.223	17147.68
789.556	17016.84
789.888	17031.53
790.221	16963.73
790.554	16836.96
790.887	16797.41
791.219	16773.68
791.552	16749.28
791.884	16605.55
792.217	16594.93
792.549	16586.34
792.882	16472
793.214	16385.44
793.546	16319.23
793.879	16241.04
794.211	16257.99
794.543	16275.17
794.875	16195.17
795.207	16135.28
795.539	16063.19
795.871	16037.21
796.203	15926.7
796.535	15834.27
796.867	15855.29
797.198	15749.76
797.53	15779.13
797.862	15640.83
798.193	15638.12
798.525	15614.39
798.856	15601.96
799.188	15436.77
799.519	15425.02
799.85	15325.13
800.182	15362.19
800.513	15356.77
800.844	15172.6
801.175	15268.86
801.506	15198.36
801.837	15101.86
802.168	15045.37
802.499	15062.99
802.83	14896.9
803.161	14844.69
803.491	14835.66
803.822	14827.97
804.153	14827.52
804.483	14689.22
804.814	14614.87
805.145	14524.7
805.475	14614.42
805.805	14451.94
806.136	14447.64
806.466	14500.75
806.796	14485.61
807.126	14376.01
807.457	14301.66
807.787	14251.49
808.117	14247.2
808.447	14184.82
808.777	14166.75
809.107	14087.2
809.436	14115.67
809.766	14064.6
810.096	14057.37
810.426	14022.34
810.755	13939.63
811.085	14018.95
811.414	13900.31
811.744	13725.85
812.073	13726.08
812.403	13798.17
812.732	13745.51
813.061	13673.65
813.39	13551.17
813.719	13531.73
814.049	13590.94
814.378	13546.65
814.707	13533.54
815.036	13476.82
815.365	13327.67
815.693	13329.25
816.022	13394.79
816.351	13278.41
816.68	13174.91
817.008	13274.79
817.337	13070.05
817.665	13064.4
817.994	13209.48
818.322	13089.49
818.651	13009.04
818.979	13047.91
819.307	13039.77
819.636	13023.5
819.964	12986.21
820.292	12976.95
820.62	12936.95
820.948	12831.87
821.276	12901.47
821.604	12934.46
821.932	12896.5
822.259	12907.57
822.587	12886.78
822.915	12811.53
823.243	12851.98
823.57	12849.49
823.898	12851.07
824.225	12873.67
824.553	12837.74
824.88	12806.33
825.207	12875.93
825.535	12860.79
825.862	12920.68
826.189	12874.58
826.516	12885.2
826.843	12854.01
827.17	12824.41
827.497	12788.93
827.824	12847.91
828.151	12916.16
828.478	12887.01
828.805	12865.99
829.131	12752.32
829.458	12767.01
829.785	12835.71
830.111	12774.47
830.438	12859.89
830.764	12737.18
831.09	12814.92
831.417	12705.32
831.743	12834.13
832.069	12703.06
832.395	12683.62
832.722	12751.42
833.048	12682.27
833.374	12716.16
833.7	12716.61
834.026	12684.75
834.351	12717.97
834.677	12645.66
835.003	12653.57
835.329	12707.12
835.654	12574.25
835.98	12592.32
836.306	12597.07
836.631	12521.14
836.956	12552.1
837.282	12583.74
837.607	12527.47
837.932	12517.3
838.258	12474.59
838.583	12494.7
838.908	12439.79
839.233	12433.46
839.558	12314.82
839.883	12345.55
840.208	12288.6
840.533	12358.21
840.858	12336.06
841.182	12242.28
841.507	12286.34
841.832	12224.88
842.156	12139.91
842.481	12187.82
842.805	12096.07
843.13	12093.13
843.454	12110.76
843.778	12064.2
844.103	11982.17
844.427	12019.01
844.751	12021.04
845.075	11867.82
845.399	11858.11
845.723	11786.7
846.047	11815.17
846.371	11774.72
846.695	11765.68
847.019	11624.89
847.343	11626.7
847.666	11496.31
847.99	11539.7
848.313	11495.18
848.637	11454.28
848.96	11418.12
849.284	11383.54
849.607	11296.54
849.931	11235.07
850.254	11210.89
850.577	11167.95
850.9	11109.2
851.223	11081.18
851.546	10989.65
851.869	10986.26
852.192	10998.69
852.515	10889.32
852.838	10886.83
853.161	10889.09
853.483	10817.68
853.806	10761.64
854.129	10645.71
854.451	10718.25
854.774	10671.92
855.096	10589.89
855.419	10581.53
855.741	10561.19
856.063	10433.28
856.385	10351.03
856.708	10379.05
857.03	10370.46
857.352	10471.7
857.674	10391.03
857.996	10306.51
858.318	10246.62
858.64	10313.29
858.961	10263.35
859.283	10236.91
859.605	10145.38
859.926	10134.99
860.248	10114.42
860.57	10043.01
860.891	10114.2
861.212	10092.28
861.534	10034.2
861.855	9989.23
862.176	9998.72
862.498	10009.57
862.819	9949.23
863.14	9929.12
863.461	9821.78
863.782	9824.04
864.103	9912.62
864.424	9844.37
864.745	9826.97
865.065	9794.88
865.386	9727.77
865.707	9788.78
866.027	9798.95
866.348	9763.7
866.668	9712.17
866.989	9708.33
867.309	9631.05
867.63	9679.18
867.95	9666.3
868.27	9590.82
868.59	9584.72
868.91	9684.6
869.23	9653.64
869.55	9529.58
869.87	9526.42
870.19	9497.72
870.51	9516.47
870.83	9462.01
871.15	9510.6
871.469	9461.56
871.789	9479.86
872.109	9417.04
872.428	9481.45
872.748	9446.42
873.067	9460.66
873.386	9396.7
873.706	9383.14
874.025	9350.15
874.344	9322.58
874.663	9374.33
874.982	9299.76
875.301	9294.33
875.62	9269.02
875.939	9203.71
876.258	9212.53
876.577	9173.66
876.896	9197.61
877.214	9177.72
877.533	9099.99
877.852	9139.53
878.17	9100.66
878.489	9195.13
878.807	9116.94
879.125	9076.94
879.444	9048.91
879.762	9082.81
880.08	9101.12
880.398	9032.87
880.716	9012.76
881.034	9017.05
881.352	9013.21
881.67	8931.63
881.988	8936.15
882.306	8994
882.624	8936.83
882.941	8862.93
883.259	8837.85
883.577	8850.5
883.894	8850.73
884.212	8829.71
884.529	8777.74
884.846	8694.8
885.164	8760.33
885.481	8717.85
885.798	8742.48
886.115	8688.47
886.432	8630.62
886.75	8646.44
887.067	8558.76
887.383	8602.15
887.7	8592.43
888.017	8527.8
888.334	8505.43
888.651	8540.68
888.967	8495.26
889.284	8476.05
889.6	8366.22
889.917	8322.61
890.233	8386.11
890.55	8347.01
890.866	8310.4
891.182	8353.79
891.498	8276.51
891.815	8244.87
892.131	8261.82
892.447	8256.85
892.763	8172.78
893.079	8157.19
893.395	8117.41
893.71	8122.61
894.026	8083.97
894.342	8062.73
894.657	8057.98
894.973	8048.04
895.289	8008.04
895.604	7981.6
895.92	7892.79
896.235	7979.56
896.55	7872
896.865	7912.22
897.181	7881.04
897.496	7911.54
897.811	7794.71
898.126	7805.78
898.441	7766.69
898.756	7746.8
899.071	7679.69
899.386	7695.96
899.7	7646.69
900.015	7601.95
900.33	7534.15
900.644	7570.99
900.959	7537.54
901.273	7471.55
901.588	7506.81
901.902	7446.92
902.216	7433.59
902.531	7425
902.845	7391.78
903.159	7359.02
903.473	7312.69
903.787	7273.14
904.101	7239.24
904.415	7263.88
904.729	7210.77
905.042	7128.29
905.356	7106.14
905.67	7115.41
905.984	7136.65
906.297	7127.84
906.611	7039.25
906.924	7034.5
907.237	6999.25
907.551	6980.95
907.864	6963.32
908.177	6971.91
908.491	6863.21
908.804	6855.3
909.117	6820.27
909.43	6784.57
909.743	6738.92
910.056	6773.72
910.368	6664.57
910.681	6677.68
910.994	6669.32
911.307	6659.37
911.619	6612.82
911.932	6613.05
912.244	6553.16
912.557	6565.36
912.869	6522.2
913.181	6494.41
913.494	6471.58
913.806	6402.2
914.118	6408.76
914.43	6343.9
914.742	6350.45
915.054	6367.63
915.366	6309.33
915.678	6240.4
915.99	6211.25
916.302	6222.77
916.613	6224.81
916.925	6208.31
917.236	6165.15
917.548	6133.96
917.859	6172.15
918.171	6068.43
918.482	6054.42
918.794	6035.43
919.105	5987.75
919.416	5964.7
919.727	5943.01
920.038	5966.06
920.349	5852.39
920.66	5838.83
920.971	5878.15
921.282	5900.3
921.593	5767.42
921.903	5758.15
922.214	5722.22
922.525	5728.1
922.835	5731.49
923.146	5640.42
923.456	5647.2
923.767	5649.91
924.077	5662.56
924.387	5627.08
924.697	5570.14
925.008	5566.52
925.318	5512.74
925.628	5543.7
925.938	5495.79
926.248	5459.18
926.558	5369.24
926.867	5415.56
927.177	5408.56
927.487	5365.17
927.796	5269.35
928.106	5293.99
928.416	5312.97
928.725	5262.57
929.034	5301.67
929.344	5256.92
929.653	5208.11
929.962	5196.81
930.271	5148.45
930.581	5131.5
930.89	5134.44
931.199	5051.51
931.508	5074.1
931.817	5072.3
932.125	5039.08
932.434	5021.22
932.743	4977.38
933.051	4961.11
933.36	4910.72
933.669	4924.5
933.977	4923.37
934.286	4862.36
934.594	4892.87
934.902	4817.84
935.21	4842.7
935.519	4831.17
935.827	4784.17
936.135	4734.9
936.443	4734.68
936.751	4701.91
937.059	4699.65
937.367	4600.9
937.674	4689.71
937.982	4606.77
938.29	4615.58
938.597	4619.88
938.905	4549.82
939.213	4519.32
939.52	4531.52
939.827	4553.44
940.135	4542.14
940.442	4476.83
940.749	4484.29
941.056	4437.06
941.363	4381.01
941.67	4396.61
941.977	4378.53
942.284	4308.02
942.591	4337.85
942.898	4322.49
943.205	4313.9
943.511	4290.62
943.818	4279.32
944.125	4252.66
944.431	4245.88
944.738	4233.9
945.044	4216.73
945.35	4184.64
945.657	4160.46
945.963	4122.49
946.269	4116.39
946.575	4145.54
946.881	4086.11
947.187	4088.14
947.493	4064.64
947.799	4041.81
948.105	4042.94
948.41	3998.65
948.716	3984.42
949.022	3976.73
949.327	3971.99
949.633	3945.77
949.938	3912.33
950.244	3950.97
950.549	3884.08
950.854	3860.58
951.16	3849.05
951.465	3873.23
951.77	3871.42
952.075	3829.84
952.38	3788.26
952.685	3805.89
952.99	3771.31
953.294	3710.3
953.599	3727.25
953.904	3710.98
954.209	3696.29
954.513	3672.78
954.818	3674.14
955.122	3647.02
955.426	3662.39
955.731	3642.73
956.035	3600.47
956.339	3604.76
956.643	3584.43
956.948	3556.86
957.252	3571.77
957.556	3554.14
957.86	3486.35
958.163	3525.9
958.467	3518.66
958.771	3458.33
959.075	3502.39
959.378	3432.34
959.682	3433.92
959.985	3445.22
960.289	3371.32
960.592	3372.45
960.896	3363.19
961.199	3347.6
961.502	3308.73
961.805	3317.54
962.108	3302.63
962.411	3306.01
962.714	3276.41
963.017	3286.13
963.32	3306.24
963.623	3265.34
963.926	3217.66
964.228	3228.95
964.531	3190.54
964.833	3182.18
965.136	3114.83
965.438	3152.12
965.741	3151.67
966.043	3103.76
966.345	3104.21
966.648	3127.94
966.95	3080.26
967.252	3051.78
967.554	3055.17
967.856	3000.03
968.158	3025.57
968.46	3044.1
968.761	3024.89
969.063	2985.35
969.365	3004.33
969.666	2991.45
969.968	2940.37
970.269	2978.79
970.571	2971.56
970.872	2961.84
971.174	2915.97
971.475	2906.48
971.776	2897.89
972.077	2848.85
972.378	2859.02
972.679	2896.53
972.98	2809.08
973.281	2828.29
973.582	2833.94
973.883	2778.35
974.183	2791.9
974.484	2750.55
974.785	2755.75
975.085	2729.31
975.386	2739.48
975.686	2727.27
975.986	2703.77
976.287	2714.62
976.587	2673.72
976.887	2671
977.187	2687.5
977.487	2658.8
977.787	2617.45
978.087	2641.85
978.387	2624.45
978.687	2636.65
978.987	2590.33
979.286	2572.7
979.586	2622.42
979.885	2553.27
980.185	2531.35
980.484	2541.52
980.784	2531.35
981.083	2536.32
981.382	2487.73
981.682	2478.92
981.981	2467.62
982.28	2472.82
982.579	2464.91
982.878	2458.81
983.177	2469.88
983.475	2415.19
983.774	2422.65
984.073	2402.76
984.372	2400.73
984.67	2367.06
984.969	2391.91
985.267	2394.85
985.566	2349.88
985.864	2316.21
986.162	2341.97
986.461	2325.02
986.759	2317.57
987.057	2291.58
987.355	2275.53
987.653	2288.87
987.951	2284.8
988.249	2286.61
988.547	2260.39
988.844	2231.01
989.142	2234.63
989.44	2247.51
989.737	2231.24
990.035	2197.57
990.332	2222.43
990.63	2200.96
990.927	2198.93
991.224	2178.13
991.521	2138.36
991.819	2155.08
992.116	2171.81
992.413	2162.09
992.71	2101.3
993.006	2104.46
993.303	2085.93
993.6	2097.01
993.897	2058.59
994.193	2080.74
994.49	2054.3
994.787	2043.68
995.083	2017.24
995.379	2028.99
995.676	2066.95
995.972	2012.49
996.268	2012.04
996.565	1967.07
996.861	1978.14
997.157	1967.07
997.453	1987.86
997.749	1978.37
998.044	1951.47
998.34	1975.2
998.636	1921.87
998.932	1913.06
999.227	1931.36
999.523	1887.07
999.818	1892.27
1000.114	1873.74
1000.409	1878.26
1000.704	1847.52
1001	1879.61
1001.295	1837.8
1001.59	1824.02
1001.885	1812.04
1002.18	1779.28
1002.475	1783.79
1002.77	1808.65
1003.065	1792.16
1003.359	1803.91
1003.654	1790.57
1003.949	1777.69
1004.243	1724.59
1004.538	1734.08
1004.832	1723.91
1005.127	1730.24
1005.421	1722.1
1005.715	1699.05
1006.009	1707.19
1006.304	1713.97
1006.598	1639.62
1006.892	1682.55
1007.186	1644.36
1007.48	1634.42
1007.773	1651.37
1008.067	1663.35
1008.361	1652.27
1008.655	1640.52
1008.948	1602.33
1009.242	1635.55
1009.535	1578.15
1009.829	1564.14
1010.122	1562.56
1010.415	1553.07
1010.708	1566.4
1011.001	1529.11
1011.295	1527.76
1011.588	1534.76
1011.881	1511.71
1012.173	1518.72
1012.466	1549.9
1012.759	1488.44
1013.052	1496.34
1013.344	1487.31
1013.637	1465.39
1013.93	1456.57
1014.222	1451.37
1014.514	1431.94
1014.807	1430.36
1015.099	1429.68
1015.391	1412.51
1015.683	1406.63
1015.976	1393.07
1016.268	1371.6
1016.56	1391.94
1016.851	1372.51
1017.143	1390.36
1017.435	1360.98
1017.727	1340.64
1018.018	1354.65
1018.31	1355.33
1018.602	1303.58
1018.893	1305.62
1019.185	1307.88
1019.476	1314.2
1019.767	1305.16
1020.058	1287.76
1020.35	1287.31
1020.641	1274.43
1020.932	1283.7
1021.223	1271.04
1021.514	1203.7
1021.804	1254.32
1022.095	1249.12
1022.386	1219.97
1022.677	1247.31
1022.967	1212.06
1023.258	1214.77
1023.548	1196.69
1023.839	1184.94
1024.129	1170.48
1024.419	1192.85
1024.709	1166.86
1025	1159.86
1025.29	1168.22
1025.58	1172.96
1025.87	1150.59
1026.16	1122.8
1026.449	1108.56
1026.739	1137.03
1027.029	1098.84
1027.319	1120.54
1027.608	1104.26
1027.898	1085.06
1028.187	1072.18
1028.477	1069.24
1028.766	1082.57
1029.055	1056.13
1029.344	1062.23
1029.634	1053.42
1029.923	1061.33
1030.212	1022.01
1030.501	1003.93
1030.79	1029.92
1031.078	1033.76
1031.367	1031.27
1031.656	1012.74
1031.945	1022.23
1032.233	1007.32
1032.522	985.17
1032.81	974.32
1033.099	973.65
1033.387	981.33
1033.675	966.64
1033.963	964.83
1034.251	942.24
1034.54	963.7
1034.828	940.43
1035.116	938.62
1035.403	908.79
1035.691	921.9
1035.979	944.95
1036.267	906.53
1036.554	916.7
1036.842	890.26
1037.129	907.43
1037.417	899.98
1037.704	872.63
1037.992	874.67
1038.279	859.53
1038.566	876.02
1038.853	876.02
1039.14	876.02
