Data from hue_110_FLMS001491_00092.txt Node
Date: Tue Feb 07 17:02:04 GMT 2017
User: dcchb
Spectrometer: FLMS00149
Trigger mode: 0
Integration Time (sec): 2.000000E-2
Scans to average: 10
Electric dark correction enabled: true
Nonlinearity correction enabled: false
Boxcar width: 0
XAxis mode: Wavelengths
Number of Pixels in Spectrum: 2048
>>>>>Begin Spectral Data<<<<<
341.393	-24.75
341.776	-24.75
342.16	-24.75
342.543	-53.44
342.927	-55.7
343.31	-69.04
343.693	-75.59
344.077	-72.2
344.46	-48.7
344.843	-47.8
345.226	-33.33
345.61	-42.82
345.993	-21.81
346.376	-12.77
346.759	-2.15
347.142	36.5
347.525	52.54
347.908	71.52
348.291	77.85
348.674	88.92
349.057	98.87
349.44	86.21
349.823	158.07
350.206	163.95
350.588	193.1
350.971	226.55
351.354	232.42
351.737	213.21
352.119	250.73
352.502	275.81
352.884	290.05
353.267	277.17
353.65	300.44
354.032	299.54
354.414	311.97
354.797	317.84
355.179	328.01
355.562	322.59
355.944	316.04
356.326	341.57
356.709	338.64
357.091	351.29
357.473	354
357.855	336.83
358.238	341.12
358.62	370.95
359.002	326.43
359.384	327.34
359.766	341.8
360.148	316.49
360.53	336.38
360.912	339.31
361.294	355.58
361.676	313.78
362.057	339.54
362.439	341.12
362.821	330.27
363.203	326.88
363.584	324.4
363.966	327.79
364.348	337.51
364.729	326.21
365.111	330.95
365.493	318.97
365.874	331.4
366.256	328.47
366.637	324.17
367.019	327.79
367.4	349.26
367.781	311.07
368.163	322.36
368.544	320.33
368.925	329.37
369.306	327.79
369.688	317.39
370.069	322.59
370.45	316.04
370.831	313.55
371.212	323.27
371.593	283.27
371.974	322.59
372.355	320.56
372.736	297.51
373.117	314.46
373.498	328.01
373.879	322.59
374.26	315.58
374.641	309.71
375.021	300.22
375.402	323.49
375.783	310.84
376.163	318.07
376.544	319.88
376.925	356.49
377.305	336.83
377.686	339.77
378.066	321.46
378.447	313.1
378.827	341.12
379.208	339.99
379.588	343.15
379.968	329.14
380.349	338.41
380.729	348.8
381.109	325.53
381.489	342.93
381.87	336.38
382.25	326.88
382.63	325.98
383.01	356.71
383.39	351.74
383.77	336.38
384.15	342.25
384.53	372.08
384.91	355.13
385.29	361.01
385.67	345.87
386.049	340.67
386.429	343.61
386.809	340.89
387.189	379.99
387.568	388.13
387.948	357.17
388.328	372.98
388.707	368.92
389.087	374.79
389.466	373.21
389.846	371.4
390.225	361.69
390.605	352.42
390.984	368.01
391.363	361.46
391.743	346.54
392.122	391.74
392.501	404.4
392.881	398.07
393.26	404.62
393.639	380.22
394.018	373.21
394.397	379.54
394.776	396.49
395.155	390.84
395.534	373.21
395.913	414.11
396.292	392.19
396.671	391.06
397.05	394.23
397.429	385.41
397.808	407.33
398.186	390.61
398.565	403.49
398.944	397.16
399.323	403.27
399.701	411.85
400.08	389.93
400.458	399.65
400.837	436.49
401.215	427.45
401.594	421.8
401.972	405.07
402.351	424.73
402.729	436.26
403.107	433.32
403.486	432.87
403.864	422.02
404.242	434.68
404.62	451.4
404.999	456.6
405.377	435.13
405.755	446.88
406.133	443.27
406.511	453.66
406.889	457.28
407.267	440.33
407.645	467.67
408.023	457.5
408.401	456.37
408.779	461.34
409.156	461.12
409.534	465.86
409.912	452.3
410.29	452.53
410.667	469.03
411.045	471.74
411.422	485.98
411.8	485.75
412.178	478.29
412.555	508.8
412.933	500.66
413.31	499.53
413.687	519.2
414.065	511.96
414.442	512.19
414.819	513.77
415.197	516.48
415.574	514
415.951	509.7
416.328	521.68
416.705	495.02
417.082	526.88
417.46	523.26
417.837	542.7
418.214	551.28
418.591	558.97
418.967	536.37
419.344	546.31
419.721	558.52
420.098	564.84
420.475	561
420.852	576.37
421.228	564.84
421.605	580.66
421.982	581.11
422.358	570.72
422.735	568.01
423.111	593.77
423.488	577.05
423.864	582.02
424.241	597.39
424.617	611.17
424.994	610.04
425.37	591.06
425.746	598.97
426.123	616.14
426.499	613.66
426.875	638.97
427.251	619.53
427.627	634.9
428.003	657.04
428.379	642.13
428.756	634.67
429.132	688.46
429.507	665.18
429.883	680.77
430.259	685.29
430.635	681.45
431.011	688.23
431.387	690.04
431.763	689.13
432.138	694.11
432.514	715.8
432.89	711.96
433.265	713.99
433.641	727.55
434.016	746.99
434.392	734.1
434.767	750.15
435.143	766.65
435.518	748.12
435.894	779.53
436.269	768.23
436.644	785.4
437.02	779.75
437.395	804.16
437.77	788.57
438.145	821.11
438.52	832.41
438.895	803.48
439.271	809.58
439.646	844.38
440.021	824.72
440.395	825.63
440.77	835.57
441.145	849.81
441.52	856.81
441.895	831.96
442.27	884.16
442.645	860.2
443.019	887.55
443.394	873.76
443.769	895.23
444.143	897.04
444.518	906.3
444.892	898.17
445.267	888.68
445.641	911.73
446.016	902.91
446.39	935.23
446.764	949.69
447.139	944.04
447.513	946.08
447.887	932.97
448.262	958.51
448.636	977.71
449.01	980.88
449.384	961.9
449.758	962.57
450.132	1000.99
450.506	988.34
450.88	1014.32
451.254	1052.06
451.628	1019.07
452.002	1058.62
452.376	1041.22
452.75	1066.07
453.123	1027.43
453.497	1042.35
453.871	1085.51
454.244	1087.54
454.618	1123.93
454.992	1109.46
455.365	1118.05
455.739	1128.9
456.112	1150.14
456.486	1154.21
456.859	1142.46
457.232	1207.09
457.606	1161.21
457.979	1205.05
458.352	1234.43
458.725	1237.59
459.099	1233.07
459.472	1269.01
459.845	1279.85
460.218	1286.18
460.591	1316.46
460.964	1299.74
461.337	1351.72
461.71	1361.43
462.083	1388.33
462.456	1389.23
462.829	1386.74
463.201	1423.58
463.574	1413.41
463.947	1447.08
464.32	1467.87
464.692	1511.26
465.065	1489.11
465.438	1538.38
465.81	1547.64
466.183	1543.58
466.555	1610.47
466.928	1599.39
467.3	1638.71
467.672	1639.39
468.045	1720.29
468.417	1707.19
468.789	1758.03
469.161	1782.89
469.534	1782.89
469.906	1853.17
470.278	1890.46
470.65	1892.27
471.022	1919.38
471.394	1979.95
471.766	1998.7
472.138	1995.54
472.51	2069.44
472.882	2137.91
473.253	2158.93
473.625	2233.05
473.997	2246.83
474.369	2313.27
474.74	2325.48
475.112	2376.55
475.484	2412.7
475.855	2470.78
476.227	2547.84
476.598	2653.15
476.97	2670.78
477.341	2771.11
477.713	2777.89
478.084	2853.37
478.455	2962.52
478.827	3012.24
479.198	3124.55
479.569	3137.88
479.94	3302.63
480.311	3341.95
480.682	3443.41
481.053	3530.19
481.424	3616.74
481.795	3714.14
482.166	3832.1
482.537	3869.39
482.908	4009.5
483.279	4105.54
483.65	4212.66
484.021	4327.68
484.391	4469.37
484.762	4562.03
485.133	4625.53
485.503	4751.4
485.874	4889.25
486.244	4982.35
486.615	5161.11
486.985	5247.43
487.356	5434.32
487.726	5513.87
488.097	5679.51
488.467	5728.1
488.837	5930.13
489.207	6006.28
489.578	6248.76
489.948	6349.55
490.318	6486.95
490.688	6574.18
491.058	6707.28
491.428	6834.51
491.798	7025.92
492.168	7200.6
492.538	7332.58
492.908	7488.05
493.278	7596.07
493.648	7705.9
494.017	7857.76
494.387	8011.65
494.757	8187.47
495.126	8341.59
495.496	8313.34
495.866	8463.17
496.235	8617.51
496.605	8805.08
496.974	8820.45
497.344	8990.84
497.713	9152.19
498.082	9233.09
498.452	9437.15
498.821	9519.18
499.19	9585.85
499.559	9705.39
499.928	9858.38
500.298	9900.42
500.667	10131.15
501.036	10033.3
501.405	10230.58
501.774	10276.23
502.143	10468.76
502.512	10548.08
502.88	10659.72
503.249	10720.74
503.618	10845.48
503.987	10938.81
504.356	10948.07
504.724	11073.95
505.093	11135.64
505.462	11238.01
505.83	11321.17
506.199	11454.05
506.567	11588.96
506.936	11556.65
507.304	11736.75
507.672	11804.1
508.041	11852
508.409	11971.55
508.777	12030.31
509.145	12135.16
509.514	12136.29
509.882	12235.5
510.25	12326.57
510.618	12434.14
510.986	12374.48
511.354	12501.03
511.722	12577.18
512.09	12642.49
512.458	12701.02
512.826	12788.93
513.193	12838.65
513.561	12858.08
513.929	12978.53
514.297	13086.77
514.664	13155.47
515.032	13221.69
515.4	13268.01
515.767	13279.54
516.135	13386.88
516.502	13247.22
516.869	13477.72
517.237	13498.06
517.604	13360.67
517.972	13571.06
518.339	13646.31
518.706	13599.53
519.073	13627.33
519.44	13675.91
519.808	13781.45
520.175	13813.76
520.542	13929.24
520.909	13988.45
521.276	13895.11
521.643	14059.86
522.009	14044.49
522.376	14108.89
522.743	14056.01
523.11	14258.5
523.477	14294.65
523.843	14308.44
524.21	14475.21
524.577	14581.2
524.943	14404.71
525.31	14491.26
525.676	14628.2
526.043	14733.28
526.409	14696
526.776	14794.3
527.142	14769.89
527.508	14793.4
527.874	14814.19
528.241	14886.05
528.607	14904.13
528.973	15025.93
529.339	14886.28
529.705	14993.39
530.071	15040.85
530.437	15097.34
530.803	15022.09
531.169	15061.86
531.535	15034.07
531.901	15038.81
532.267	15072.26
532.632	15037.68
532.998	15148.42
533.364	15141.86
533.73	15198.13
534.095	15229.77
534.461	15230.22
534.826	15176.21
535.192	15087.4
535.557	15192.93
535.923	15154.29
536.288	15137.12
536.653	15122.65
537.019	15055.99
537.384	15072.71
537.749	15046.95
538.114	15039.94
538.479	15044.92
538.845	15023.45
539.21	15037.46
539.575	15013.28
539.94	14928.76
540.305	15005.59
540.67	14908.87
541.034	14894.18
541.399	14865.48
541.764	14909.78
542.129	14829.33
542.494	14866.16
542.858	14827.75
543.223	14770.57
543.587	14872.94
543.952	14728.31
544.316	14730.35
544.681	14697.13
545.045	14714.3
545.41	14734.64
545.774	14724.25
546.138	14699.39
546.503	14717.47
546.867	14603.8
547.231	14611.71
547.595	14598.37
547.959	14476.57
548.324	14545.27
548.688	14512.05
549.052	14486.96
549.416	14431.15
549.779	14432.5
550.143	14349.57
550.507	14470.24
550.871	14442.67
551.235	14346.63
551.599	14396.8
551.962	14310.47
552.326	14323.58
552.689	14410.36
553.053	14274.77
553.417	14241.55
553.78	14414.88
554.143	14297.36
554.507	14225.95
554.87	14223.92
555.234	14376.91
555.597	14219.85
555.96	14238.38
556.323	14272.51
556.686	14152.74
557.05	14248.55
557.413	14261.88
557.776	14244.94
558.139	14253.52
558.502	14239.74
558.865	14210.81
559.228	14267.31
559.59	14257.37
559.953	14284.48
560.316	14395.89
560.679	14301.43
561.041	14314.54
561.404	14273.18
561.767	14376.91
562.129	14270.25
562.492	14372.16
562.854	14431.37
563.217	14345.72
563.579	14434.08
563.941	14449.22
564.304	14357.93
564.666	14492.39
565.028	14442.67
565.39	14467.08
565.753	14507.08
566.115	14558.6
566.477	14517.47
566.839	14647.41
567.201	14679.05
567.563	14591.14
567.925	14595.66
568.287	14620.75
568.648	14601.31
569.01	14731.48
569.372	14744.58
569.734	14644.02
570.095	14770.12
570.457	14777.8
570.819	14743.23
571.18	14787.75
571.542	14705.04
571.903	14738.71
572.265	14817.58
572.626	14897.57
572.987	14773.96
573.349	14855.32
573.71	14964.69
574.071	14916.78
574.432	14895.54
574.794	15004.92
575.155	14967.4
575.516	14849.21
575.877	15069.55
576.238	14979.38
576.599	15015.76
576.96	15022.09
577.32	15037.68
577.681	15111.13
578.042	15013.5
578.403	15055.99
578.763	15079.49
579.124	15091.92
579.485	15089.21
579.845	15092.37
580.206	15101.86
580.566	15040.85
580.927	15063.45
581.287	15194.74
581.648	15111.58
582.008	15077.91
582.368	15005.59
582.728	15093.73
583.089	15160.17
583.449	15027.06
583.809	15063.45
584.169	15115.65
584.529	15028.87
584.889	15108.19
585.249	15057.57
585.609	14982.09
585.969	15040.85
586.329	14944.35
586.688	15057.12
587.048	14973.73
587.408	14898.25
587.768	14921.3
588.127	14955.88
588.487	14926.05
588.846	14973.05
589.206	14881.53
589.565	14863
589.925	14966.27
590.284	14877.91
590.643	14825.03
591.003	14983
591.362	14910.46
591.721	14880.4
592.08	14890.57
592.44	14939.61
592.799	14903
593.158	14919.04
593.517	14886.5
593.876	14871.81
594.235	14780.29
594.593	14834.75
594.952	14832.72
595.311	14800.4
595.67	14799.27
596.029	14957.46
596.387	14914.52
596.746	14874.3
597.104	14786.16
597.463	14787.52
597.822	14776
598.18	14788.65
598.538	14753.85
598.897	14887.18
599.255	14717.24
599.613	14985.03
599.972	14845.82
600.33	14881.53
600.688	14670.69
601.046	14845.6
601.404	14858.48
601.762	14812.6
602.12	15023.67
602.478	14961.53
602.836	14806.5
603.194	14785.71
603.552	14917.23
603.91	14700.07
604.268	14835.43
604.625	14817.58
604.983	14855.09
605.341	14836.11
605.698	14807.41
606.056	14917.23
606.413	14913.62
606.771	14894.41
607.128	14842.43
607.485	14872.49
607.843	14908.2
608.2	14868.87
608.557	14993.62
608.914	14927.63
609.272	14931.02
609.629	14970.34
609.986	14958.14
610.343	14961.75
610.7	15022.09
611.057	15005.37
611.414	14931.02
611.771	15004.01
612.127	15074.74
612.484	15079.49
612.841	15067.06
613.198	15084.91
613.554	15075.87
613.911	15089.43
614.267	15148.64
614.624	15101.64
614.98	15154.52
615.337	15193.16
615.693	15116.55
616.05	15165.36
616.406	15232.48
616.762	15157.45
617.118	15169.88
617.475	15156.78
617.831	15206.49
618.187	15182.31
618.543	15252.59
618.899	15307.28
619.255	15314.29
619.611	15215.31
619.967	15373.27
620.323	15378.24
620.678	15345.25
621.034	15287.39
621.39	15292.59
621.746	15212.37
622.101	15367.62
622.457	15300.28
622.812	15334.17
623.168	15448.29
623.523	15333.72
623.879	15385.25
624.234	15260.5
624.589	15418.46
624.945	15391.57
625.3	15374.17
625.655	15400.84
626.01	15346.15
626.365	15396.54
626.72	15353.16
627.075	15406.04
627.43	15335.75
627.785	15293.95
628.14	15302.76
628.495	15320.84
628.85	15402.87
629.205	15278.81
629.559	15397
629.914	15239.03
630.269	15256.44
630.623	15289.2
630.978	15252.14
631.332	15250.56
631.687	15243.33
632.041	15202.43
632.396	15185.7
632.75	15124.91
633.104	15111.58
633.459	15092.82
633.813	15078.13
634.167	15132.37
634.521	15013.96
634.875	15061.86
635.229	15022.09
635.583	14959.95
635.937	14947.97
636.291	15024.58
636.645	14961.75
636.999	14968.98
637.352	14986.39
637.706	14889.66
638.06	14965.6
638.413	14866.61
638.767	14847.41
639.121	14933.73
639.474	14805.15
639.828	14799.5
640.181	14825.03
640.534	14903.45
640.888	14777.35
641.241	14730.12
641.594	14796.11
641.947	14837.91
642.301	14774.41
642.654	14689.22
643.007	14806.73
643.36	14711.14
643.713	14697.35
644.066	14729.67
644.419	14625.94
644.771	14525.83
645.124	14407.87
645.477	14481.09
645.83	14392.5
646.182	14263.92
646.535	14226.18
646.888	14230.25
647.24	14153.64
647.593	14296.91
647.945	14283.58
648.298	14153.87
648.65	14228.21
649.002	14153.19
649.355	14176.46
649.707	14164.94
650.059	14222.79
650.411	14419.62
650.763	14401.32
651.115	14525.15
651.467	14475.89
651.819	14577.81
652.171	14467.08
652.523	14463.91
652.875	14431.15
653.227	14427.76
653.578	14496.68
653.93	14496.91
654.282	14412.62
654.633	14342.11
654.985	14437.47
655.337	14456.68
655.688	14472.27
656.039	14473.86
656.391	14471.37
656.742	14487.42
657.094	14451.48
657.445	14531.48
657.796	14443.35
658.147	14522.44
658.498	14526.06
658.849	14525.61
659.2	14408.32
659.551	14503.23
659.902	14438.15
660.253	14504.14
660.604	14392.05
660.955	14433.86
661.306	14455.78
661.656	14504.59
662.007	14563.8
662.358	14497.13
662.708	14567.41
663.059	14458.04
663.409	14460.98
663.76	14501.43
664.11	14493.74
664.461	14575.55
664.811	14537.13
665.161	14543.69
665.511	14497.81
665.862	14535.55
666.212	14597.02
666.562	14607.86
666.912	14567.41
667.262	14571.03
667.612	14594.08
667.962	14621.42
668.312	14566.74
668.662	14652.38
669.011	14608.32
669.361	14498.04
669.711	14533.97
670.06	14531.26
670.41	14538.26
670.76	14479.51
671.109	14564.93
671.459	14441.09
671.808	14499.84
672.157	14448.55
672.507	14386.4
672.856	14401.99
673.205	14332.62
673.554	14448.09
673.904	14446.51
674.253	14366.29
674.602	14384.82
674.951	14182.79
675.3	14125.84
675.649	14352.28
675.998	14284.48
676.346	14368.77
676.695	14364.26
677.044	14262.11
677.393	14269.79
677.741	14352.28
678.09	14251.26
678.438	14222.56
678.787	14306.63
679.135	14275.67
679.484	14143.7
679.832	14172.4
680.181	14145.96
680.529	14145.73
680.877	14013.76
681.225	14059.4
681.573	14088.33
681.922	14031.38
682.27	13971.05
682.618	13958.62
682.966	13995
683.314	13983.25
683.661	13913.65
684.009	13838.39
684.357	13908.45
684.705	13773.76
685.053	13764.04
685.4	13694.67
685.748	13681.34
686.095	13717.72
686.443	13619.42
686.79	13646.53
687.138	13644.5
687.485	13632.07
687.832	13501.9
688.18	13623.71
688.527	13469.36
688.874	13494.45
689.221	13471.62
689.568	13431.4
689.915	13418.07
690.262	13393.43
690.609	13263.49
690.956	13214
691.303	13206.55
691.65	13233.21
691.997	13117.06
692.344	13079.54
692.69	13071.86
693.037	13093.33
693.383	12934.46
693.73	13013.1
694.077	12972.43
694.423	12852.88
694.769	12851.07
695.116	12780.57
695.462	12730.4
695.808	12695.15
696.155	12739.44
696.501	12673.23
696.847	12596.84
697.193	12520.69
697.539	12572.66
697.885	12475.94
698.231	12403.85
698.577	12337.87
698.923	12320.69
699.269	12324.53
699.614	12291.32
699.96	12166.35
700.306	12259.9
700.651	12055.84
700.997	12080.47
701.342	12076.41
701.688	12008.84
702.033	11929.29
702.379	11884.55
702.724	11907.6
703.069	11901.49
703.415	11717.55
703.76	11783.08
704.105	11746.24
704.45	11718.67
704.795	11588.28
705.14	11589.41
705.485	11563.2
705.83	11525.69
706.175	11504.9
706.52	11455.63
706.865	11436.2
707.209	11395.29
707.554	11375.63
707.899	11404.33
708.243	11319.82
708.588	11329.31
708.932	11183.32
709.277	11172.02
709.621	11242.76
709.966	11116.66
710.31	11138.58
710.654	10957.11
710.998	11095.41
711.342	11090.44
711.687	10995.98
712.031	11079.6
712.375	10892.26
712.719	10971.8
713.063	10927.96
713.407	10927.28
713.75	10852.03
714.094	10874.63
714.438	10819.94
714.782	10799.38
715.125	10799.15
715.469	10754.63
715.812	10770.23
716.156	10661.98
716.499	10670.79
716.843	10645.03
717.186	10638.48
717.53	10657.01
717.873	10591.25
718.216	10575.43
718.559	10532.04
718.902	10591.02
719.246	10539.27
719.589	10558.25
719.932	10489.33
720.275	10537.24
720.617	10522.32
720.96	10464.92
721.303	10435.77
721.646	10480.52
721.989	10417.47
722.331	10462.66
722.674	10400.07
723.016	10423.79
723.359	10405.26
723.701	10343.34
724.044	10353.29
724.386	10314.19
724.729	10350.35
725.071	10371.82
725.413	10356.22
725.755	10263.8
726.097	10291.82
726.439	10168.89
726.782	10264.93
727.124	10332.72
727.465	10239.62
727.807	10240.75
728.149	10197.36
728.491	10221.09
728.833	10153.07
729.175	10146.74
729.516	10166.85
729.858	10217.7
730.199	10192.16
730.541	10247.3
730.882	10169.56
731.224	10206.85
731.565	10125.72
731.906	10157.59
732.248	10168.89
732.589	10119.85
732.93	10080.07
733.271	10184.7
733.612	10173.18
733.953	10225.83
734.294	10202.78
734.635	10079.85
734.976	10100.19
735.317	10082.56
735.658	10048.66
735.999	10112.16
736.339	10095.89
736.68	10221.09
737.021	10150.13
737.361	10114.88
737.702	10103.8
738.042	10091.83
738.383	10128.21
738.723	10200.07
739.063	10190.81
739.404	10176.57
739.744	10182.67
740.084	10143.35
740.424	10191.48
740.764	10211.14
741.104	10188.09
741.444	10156.23
741.784	10166.85
742.124	10295.89
742.464	10225.61
742.804	10260.41
743.143	10225.15
743.483	10320.75
743.823	10290.92
744.162	10311.25
744.502	10420.4
744.841	10374.3
745.181	10449.56
745.52	10418.14
745.86	10448.65
746.199	10525.26
746.538	10610.68
746.877	10614.75
747.216	10712.15
747.556	10670.34
747.895	10796.89
748.234	10692.49
748.573	10786.5
748.911	10832.14
749.25	10998.92
749.589	11010.9
749.928	11027.17
750.267	11154.85
750.605	11270.33
750.944	11314.62
751.283	11388.74
751.621	11442.98
751.96	11495.86
752.298	11653.59
752.636	11698.11
752.975	11748.73
753.313	11777.43
753.651	11926.58
753.989	11987.82
754.327	12136.29
754.666	12230.75
755.004	12374.25
755.342	12497.64
755.679	12646.11
756.017	12742.15
756.355	12856.95
756.693	12840.68
757.031	13082.25
757.368	13168.58
757.706	13278.63
758.044	13379.87
758.381	13578.29
758.719	13718.17
759.056	13905.51
759.394	14037.48
759.731	14111.15
760.068	14374.88
760.405	14410.13
760.743	14620.97
761.08	14770.35
761.417	14823
761.754	14997.01
762.091	15188.64
762.428	15315.19
762.765	15522.42
763.102	15657.78
763.438	15702.07
763.775	15944.33
764.112	16063.42
764.449	16252.34
764.785	16343.64
765.122	16426.12
765.458	16479.23
765.795	16678.09
766.131	16905.88
766.467	16959.89
766.804	16950.4
767.14	17088.48
767.476	17307.23
767.812	17389.94
768.148	17498.64
768.485	17636.49
768.821	17748.8
769.157	17781.57
769.492	17906.99
769.828	18090.71
770.164	17939.98
770.5	18144.04
770.836	18212.74
771.171	18215.68
771.507	18346.75
771.842	18319.63
772.178	18449.35
772.513	18541.09
772.849	18641.66
773.184	18657.48
773.519	18760.3
773.855	18819.96
774.19	18726.4
774.525	18823.35
774.86	18852.05
775.195	18981.31
775.53	18937.02
775.865	18941.08
776.2	18889.33
776.535	18943.12
776.87	18913.97
777.205	19012.95
777.539	18939.73
777.874	19120.51
778.209	19028.09
778.543	19103.57
778.878	19012.04
779.212	19128.65
779.547	19043.91
779.881	19207.52
780.215	19082.1
780.55	19202.77
780.884	19163.68
781.218	19044.13
781.552	19156.67
781.886	19119.16
782.22	19141.98
782.554	19038.03
782.888	18930.24
783.222	18844.59
783.556	18990.8
783.889	18923.91
784.223	18807.98
784.557	18859.28
784.89	18941.08
785.224	18811.14
785.557	18841.65
785.891	18805.95
786.224	18792.16
786.558	18777.02
786.891	18715.78
787.224	18672.62
787.557	18623.58
787.891	18610.7
788.224	18685.95
788.557	18661.54
788.89	18582
789.223	18542.9
789.556	18499.51
789.888	18428.1
790.221	18360.08
790.554	18299.52
790.887	18283.93
791.219	18209.13
791.552	18197.37
791.884	18162.12
792.217	18190.6
792.549	18078.51
792.882	17991.73
793.214	17984.05
793.546	18036.93
793.879	17930.26
794.211	17827.44
794.543	17907.89
794.875	17847.33
795.207	17970.71
795.539	17709.93
795.871	17795.13
796.203	17619.99
796.535	17687.33
796.867	17639.42
797.198	17473.55
797.53	17553.1
797.862	17510.16
798.193	17437.62
798.525	17381.58
798.856	17471.52
799.188	17157.63
799.519	17111.3
799.85	17133.45
800.182	17182.71
800.513	17187.23
800.844	17052.55
801.175	17121.7
801.506	17127.35
801.837	17040.12
802.168	16862.49
802.499	16935.94
802.83	16864.08
803.161	16813.23
803.491	16733.91
803.822	16837.86
804.153	16658.66
804.483	16552.22
804.814	16485.33
805.145	16490.3
805.475	16494.59
805.805	16415.5
806.136	16415.5
806.466	16423.18
806.796	16446.46
807.126	16353.36
807.457	16198.11
807.787	16230.87
808.117	16248.5
808.447	16198.78
808.777	16135.28
809.107	16046.24
809.436	16161.04
809.766	16084.66
810.096	16015.51
810.426	15935.29
810.755	15896.87
811.085	15834.5
811.414	15900.49
811.744	15735.52
812.073	15699.36
812.403	15743.88
812.732	15634.96
813.061	15575.75
813.39	15584.79
813.719	15514.06
814.049	15630.44
814.378	15530.1
814.707	15554.28
815.036	15497.33
815.365	15440.84
815.693	15249.88
816.022	15266.15
816.351	15315.87
816.68	15218.7
817.008	15302.54
817.337	15071.13
817.665	15033.39
817.994	15179.83
818.322	15102.54
818.651	15088.3
818.979	14970.34
819.307	15119.94
819.636	15060.96
819.964	14881.98
820.292	14944.8
820.62	14958.14
820.948	14892.38
821.276	14945.48
821.604	14796.79
821.932	14950.45
822.259	14985.48
822.587	14887.86
822.915	14867.52
823.243	14968.76
823.57	14829.55
823.898	14893.96
824.225	14779.84
824.553	14886.95
824.88	14847.41
825.207	14874.75
825.535	14854.41
825.862	14876.56
826.189	14841.3
826.516	14961.98
826.843	14893.28
827.17	14899.61
827.497	14909.55
827.824	14930.79
828.151	14951.81
828.478	14892.83
828.805	15004.24
829.131	14939.83
829.458	14842.66
829.785	14820.97
830.111	14938.93
830.438	15048.08
830.764	14908.42
831.09	15021.64
831.417	14911.59
831.743	14921.98
832.069	14896.22
832.395	14817.58
832.722	14921.98
833.048	14766.28
833.374	14862.32
833.7	14753.85
834.026	14865.48
834.351	14815.77
834.677	14841.08
835.003	14779.16
835.329	14845.37
835.654	14730.35
835.98	14756.34
836.306	14767.18
836.631	14652.16
836.956	14685.38
837.282	14691.03
837.607	14659.16
837.932	14558.83
838.258	14567.64
838.583	14545.49
838.908	14441.09
839.233	14529
839.558	14437.93
839.883	14345.27
840.208	14352.73
840.533	14380.07
840.858	14318.15
841.182	14384.37
841.507	14334.88
841.832	14263.01
842.156	14269.79
842.481	14201.77
842.805	14157.25
843.13	14169.23
843.454	14141.89
843.778	14094.43
844.103	14089.01
844.427	14044.94
844.751	14073.87
845.075	13944.83
845.399	13897.83
845.723	13862.8
846.047	13850.14
846.371	13757.49
846.695	13761.33
847.019	13575.12
847.343	13628.91
847.666	13505.97
847.99	13502.36
848.313	13499.19
848.637	13425.07
848.96	13436.82
849.284	13291.51
849.607	13260.33
849.931	13312.08
850.254	13192.08
850.577	13123.84
850.9	13037.74
851.223	13073.22
851.546	12990.51
851.869	12825.99
852.192	12893.11
852.515	12786.67
852.838	12733.11
853.161	12721.59
853.483	12704.86
853.806	12647.01
854.129	12614.47
854.451	12469.84
854.774	12556.39
855.096	12476.85
855.419	12379.67
855.741	12399.11
856.063	12324.99
856.385	12313.01
856.708	12359.11
857.03	12154.14
857.352	12164.99
857.674	12160.02
857.996	12113.01
858.318	12033.47
858.64	12064.2
858.961	11972.68
859.283	11908.05
859.605	11894.26
859.926	11876.41
860.248	11853.81
860.57	11858.56
860.891	11861.04
861.212	11819.24
861.534	11711.67
861.855	11758
862.176	11708.28
862.498	11693.82
862.819	11717.55
863.14	11628.96
863.461	11573.59
863.782	11607.49
864.103	11561.62
864.424	11549.64
864.745	11499.92
865.065	11539.92
865.386	11471.68
865.707	11473.03
866.027	11433.03
866.348	11475.52
866.668	11428.74
866.989	11383.99
867.309	11300.83
867.63	11317.56
867.95	11299.48
868.27	11278.91
868.59	11237.56
868.91	11283.21
869.23	11225.13
869.55	11146.03
869.87	11192.59
870.19	11202.98
870.51	11172.47
870.83	11208.86
871.15	11138.13
871.469	11145.36
871.789	11230.78
872.109	11111.01
872.428	11033.95
872.748	11085.47
873.067	11036.66
873.386	11021.74
873.706	11027.39
874.025	10984.23
874.344	10941.29
874.663	10930.67
874.982	10957.79
875.301	10969.77
875.62	10880.96
875.939	10813.61
876.258	10827.62
876.577	10806.61
876.896	10825.59
877.214	10746.27
877.533	10773.62
877.852	10752.6
878.17	10811.13
878.489	10736.33
878.807	10711.7
879.125	10778.81
879.444	10748.76
879.762	10653.39
880.08	10699.04
880.398	10654.97
880.716	10631.25
881.034	10582.21
881.352	10534.3
881.67	10485.94
881.988	10587.41
882.306	10447.97
882.624	10492.27
882.941	10416.79
883.259	10365.49
883.577	10438.71
883.894	10301.76
884.212	10329.11
884.529	10323.68
884.846	10289.11
885.164	10311.71
885.481	10202.33
885.798	10240.3
886.115	10113.75
886.432	10195.55
886.75	10148.77
887.067	10188.77
887.383	10080.3
887.7	10112.62
888.017	10092.95
888.334	10019.51
888.651	10005.27
888.967	9968.21
889.284	9961.66
889.6	9909.23
889.917	9788.78
890.233	9798.73
890.55	9841.21
890.866	9812.74
891.182	9796.92
891.498	9743.59
891.815	9620.88
892.131	9662.68
892.447	9642.8
892.763	9588.34
893.079	9626.3
893.395	9600.54
893.71	9560.99
894.026	9551.27
894.342	9553.99
894.657	9423.37
894.973	9395.35
895.289	9366.65
895.604	9346.76
895.92	9338.4
896.235	9233.54
896.55	9300.66
896.865	9253.43
897.181	9264.5
897.496	9211.17
897.811	9162.58
898.126	9145.41
898.441	9060.89
898.756	9071.06
899.071	8998.07
899.386	9022.02
899.7	8926.66
900.015	8930.5
900.33	8840.56
900.644	8842.82
900.959	8830.39
901.273	8823.61
901.588	8812.08
901.902	8718.75
902.216	8704.97
902.531	8693.67
902.845	8617.06
903.159	8549.04
903.473	8574.58
903.787	8551.98
904.101	8500.68
904.415	8524.41
904.729	8456.16
905.042	8380.01
905.356	8414.81
905.67	8365.99
905.984	8418.65
906.297	8319.22
906.611	8297.75
906.924	8244.42
907.237	8229.95
907.551	8241.7
907.864	8200.12
908.177	8187.92
908.491	8174.14
908.804	8015.95
909.117	8032.9
909.43	7926.91
909.743	7945.44
910.056	7959.9
910.368	7870.19
910.681	7832
910.994	7793.58
911.307	7780.93
911.619	7771.89
911.932	7763.75
912.244	7696.63
912.557	7711.1
912.869	7624.77
913.181	7557.88
913.494	7569.86
913.806	7531.21
914.118	7467.49
914.43	7446.92
914.742	7351.56
915.054	7325.8
915.366	7348.62
915.678	7367.15
915.99	7285.57
916.302	7272.46
916.613	7216.42
916.925	7155.18
917.236	7205.8
917.548	7148.63
917.859	7083.99
918.171	7086.93
918.482	7021.17
918.794	7017.1
919.105	7041.28
919.416	6934.17
919.727	6967.61
920.038	6882.42
920.349	6889.88
920.66	6918.58
920.971	6837.67
921.282	6843.55
921.593	6803.55
921.903	6807.17
922.214	6707.73
922.525	6764.23
922.835	6654.63
923.146	6655.31
923.456	6643.1
923.767	6607.4
924.077	6625.93
924.387	6520.39
924.697	6524.24
925.008	6426.84
925.318	6508.19
925.628	6425.93
925.938	6415.09
926.248	6319.49
926.558	6333.51
926.867	6303.68
927.177	6317.01
927.487	6230.46
927.796	6238.82
928.106	6253.51
928.416	6220.97
928.725	6187.52
929.034	6155.88
929.344	6189.55
929.653	6156.34
929.962	6018.26
930.271	5987.07
930.581	6062.33
930.89	5989.79
931.199	5980.97
931.508	5967.64
931.817	5947.98
932.125	5903.01
932.434	5877.02
932.743	5824.82
933.051	5810.13
933.36	5764.03
933.669	5766.29
933.977	5704.82
934.286	5686.07
934.594	5720.64
934.902	5635.22
935.21	5657.14
935.519	5651.49
935.827	5606.07
936.135	5567.42
936.443	5541.89
936.751	5534.43
937.059	5518.84
937.367	5491.72
937.674	5451.95
937.982	5407.43
938.29	5457.14
938.597	5441.78
938.905	5343.25
939.213	5400.2
939.52	5316.58
939.827	5273.19
940.135	5274.78
940.442	5278.17
940.749	5209.69
941.056	5241.56
941.363	5205.63
941.67	5157.72
941.977	5188
942.284	5112.97
942.591	5085.18
942.898	5104.61
943.205	5045.86
943.511	5038.17
943.818	5059.87
944.125	4963.82
944.431	4996.59
944.738	4997.5
945.044	4891.28
945.35	4929.7
945.657	4947.1
945.963	4842.7
946.269	4822.36
946.575	4861.68
946.881	4791.85
947.187	4767.22
947.493	4756.15
947.799	4760.21
948.105	4692.42
948.41	4712.98
948.716	4718.63
949.022	4685.87
949.327	4663.49
949.633	4650.84
949.938	4581.69
950.244	4629.82
950.549	4543.04
950.854	4529.71
951.16	4519.54
951.465	4501.01
951.77	4494.91
952.075	4479.32
952.38	4512.99
952.685	4442.48
952.99	4397.74
953.294	4371.3
953.599	4353.9
953.904	4350.06
954.209	4328.59
954.513	4316.16
954.818	4306.89
955.122	4238.19
955.426	4235.71
955.731	4257.63
956.035	4163.17
956.339	4161.13
956.643	4195.26
956.948	4180.34
957.252	4141.92
957.556	4147.12
957.86	4100.12
958.163	4102.83
958.467	4063.96
958.771	4056.73
959.075	4072.77
959.378	4011.08
959.682	4011.76
959.985	3991.87
960.289	4003.85
960.592	3960.23
960.896	3952.55
961.199	3920.46
961.502	3923.17
961.805	3913
962.108	3891.76
962.411	3878.2
962.714	3847.47
963.017	3817.19
963.32	3860.12
963.623	3808.15
963.926	3783.06
964.228	3761.82
964.531	3693.12
964.833	3728.38
965.136	3703.29
965.438	3670.75
965.741	3664.65
966.043	3631.88
966.345	3650.64
966.648	3627.36
966.95	3614.71
967.252	3566.8
967.554	3578.1
967.856	3553.01
968.158	3561.83
968.46	3544.88
968.761	3522.73
969.063	3526.35
969.365	3516.63
969.666	3513.47
969.968	3467.37
970.269	3483.64
970.571	3439.57
970.872	3433.7
971.174	3418.33
971.475	3400.93
971.776	3348.27
972.077	3359.12
972.378	3333.13
972.679	3316.41
972.98	3335.62
973.281	3291.78
973.582	3278.9
973.883	3273.7
974.183	3258.11
974.484	3248.39
974.785	3230.99
975.085	3221.72
975.386	3231.89
975.686	3185.11
975.986	3187.37
976.287	3204.1
976.587	3148.5
976.887	3134.27
977.187	3158.9
977.487	3115.51
977.787	3067.15
978.087	3093.82
978.387	3055.63
978.687	3051.11
978.987	3039.81
979.286	3021.95
979.586	3021.73
979.885	2998.9
980.185	2969.75
980.484	2989.64
980.784	2979.92
981.083	2944.22
981.382	2889.08
981.682	2933.82
981.981	2894.95
982.28	2885.91
982.579	2878.46
982.878	2880.49
983.177	2877.55
983.475	2846.59
983.774	2817.89
984.073	2800.72
984.372	2820.38
984.67	2793.03
984.969	2803.2
985.267	2730.44
985.566	2744.45
985.864	2768.85
986.162	2717.56
986.461	2745.35
986.759	2701.96
987.057	2680.95
987.355	2670.1
987.653	2661.74
987.951	2649.99
988.249	2648.4
988.547	2619.03
988.844	2599.14
989.142	2605.24
989.44	2609.54
989.737	2599.82
990.035	2537.9
990.332	2575.86
990.63	2551.23
990.927	2559.82
991.224	2504.68
991.521	2485.92
991.819	2522.76
992.116	2499.03
992.413	2494.28
992.71	2464.68
993.006	2443.21
993.303	2463.55
993.6	2429.2
993.897	2442.53
994.193	2430.11
994.49	2418.13
994.787	2391.69
995.083	2376.1
995.379	2382.88
995.676	2334.06
995.972	2327.06
996.268	2318.24
996.565	2320.28
996.861	2334.97
997.157	2312.37
997.453	2255.87
997.749	2277.57
998.044	2258.58
998.34	2255.19
998.636	2205.7
998.932	2206.16
999.227	2223.33
999.523	2210.68
999.818	2175.65
1000.114	2162.77
1000.409	2188.53
1000.704	2195.99
1001	2174.52
1001.295	2157.8
1001.59	2118.48
1001.885	2098.81
1002.18	2108.08
1002.475	2084.13
1002.77	2088.42
1003.065	2052.04
1003.359	2047.97
1003.654	2043.22
1003.949	2012.26
1004.243	2026.5
1004.538	2015.2
1004.832	2009.55
1005.127	1977.69
1005.421	1973.62
1005.715	1980.17
1006.009	1975.88
1006.304	1951.25
1006.598	1934.75
1006.892	1929.33
1007.186	1912.15
1007.48	1881.42
1007.773	1876.9
1008.067	1878.03
1008.361	1855.88
1008.655	1866.05
1008.948	1861.53
1009.242	1818.6
1009.535	1830.35
1009.829	1816.79
1010.122	1810.01
1010.415	1802.78
1010.708	1790.35
1011.001	1761.65
1011.295	1783.79
1011.588	1720.97
1011.881	1768.88
1012.173	1691.14
1012.466	1734.53
1012.759	1681.42
1013.052	1690.01
1013.344	1694.31
1013.637	1682.33
1013.93	1647.75
1014.222	1686.62
1014.514	1640.75
1014.807	1658.83
1015.099	1623.35
1015.391	1642.1
1015.683	1584.25
1015.976	1632.84
1016.268	1593.52
1016.56	1581.77
1016.851	1587.64
1017.143	1550.81
1017.435	1566.4
1017.727	1539.28
1018.018	1539.96
1018.31	1526.17
1018.602	1489.11
1018.893	1503.12
1019.185	1478.49
1019.476	1507.42
1019.767	1483.69
1020.058	1462.9
1020.35	1472.62
1020.641	1445.27
1020.932	1417.25
1021.223	1438.72
1021.514	1422.22
1021.804	1424.48
1022.095	1427.19
1022.386	1413.18
1022.677	1368.66
1022.967	1376.8
1023.258	1364.82
1023.548	1363.24
1023.839	1355.78
1024.129	1327.76
1024.419	1344.48
1024.709	1332.28
1025	1306.07
1025.29	1333.86
1025.58	1310.81
1025.87	1291.38
1026.16	1294.77
1026.449	1269.68
1026.739	1275.33
1027.029	1250.93
1027.319	1230.14
1027.608	1222.91
1027.898	1236.01
1028.187	1234.2
1028.477	1212.74
1028.766	1207.54
1029.055	1205.05
1029.344	1178.39
1029.634	1177.71
1029.923	1155.56
1030.212	1158.05
1030.501	1160.99
1030.79	1155.79
1031.078	1155.11
1031.367	1156.92
1031.656	1130.48
1031.945	1148.56
1032.233	1128.67
1032.522	1101.1
1032.81	1111.27
1033.099	1107.88
1033.387	1101.78
1033.675	1072.18
1033.963	1083.7
1034.251	1074.66
1034.54	1054.32
1034.828	1058.62
1035.116	1063.36
1035.403	1066.3
1035.691	1052.51
1035.979	1024.49
1036.267	1020.65
1036.554	1028.56
1036.842	1003.7
1037.129	984.49
1037.417	1000.31
1037.704	977.49
1037.992	1007.32
1038.279	988.11
1038.566	966.42
1038.853	966.42
1039.14	966.42
