Data from hue_160_FLMS001491_00036.txt Node
Date: Tue Feb 07 16:51:06 GMT 2017
User: dcchb
Spectrometer: FLMS00149
Trigger mode: 0
Integration Time (sec): 2.000000E-2
Scans to average: 10
Electric dark correction enabled: true
Nonlinearity correction enabled: false
Boxcar width: 0
XAxis mode: Wavelengths
Number of Pixels in Spectrum: 2048
>>>>>Begin Spectral Data<<<<<
341.393	-14.72
341.776	-14.72
342.16	-14.72
342.543	-41.84
342.927	-59.69
343.31	-68.95
343.693	-72.12
344.077	-64.66
344.46	-53.36
344.843	-62.17
345.226	-50.87
345.61	-51.33
345.993	-21.27
346.376	-1.61
346.759	2.91
347.142	31.16
347.525	27.54
347.908	60.76
348.291	97.37
348.674	109.57
349.057	117.03
349.44	136.92
349.823	145.73
350.206	149.12
350.588	185.5
350.971	229.57
351.354	212.62
351.737	223.92
352.119	266.18
352.502	258.5
352.884	272.28
353.267	281.55
353.65	288.55
354.032	305.73
354.414	304.37
354.797	313.18
355.179	310.92
355.562	328.55
355.944	326.97
356.326	325.84
356.709	346.4
357.091	345.05
357.473	341.43
357.855	328.32
358.238	324.93
358.62	339.85
359.002	349.57
359.384	343.69
359.766	347.31
360.148	338.04
360.53	329.45
360.912	342.79
361.294	349.34
361.676	316.8
362.057	320.64
362.439	316.35
362.821	329.68
363.203	347.31
363.584	317.48
363.966	313.41
364.348	327.42
364.729	336.23
365.111	326.97
365.493	307.76
365.874	307.53
366.256	328.55
366.637	325.16
367.019	320.19
367.4	309.12
367.781	314.31
368.163	317.03
368.544	308.89
368.925	300.75
369.306	327.65
369.688	296.91
370.069	300.98
370.45	305.95
370.831	320.87
371.212	317.48
371.593	312.73
371.974	310.25
372.355	329.91
372.736	316.35
373.117	334.2
373.498	312.73
373.879	323.35
374.26	306.18
374.641	307.53
375.021	317.48
375.402	312.73
375.783	306.86
376.163	328.1
376.544	319.96
376.925	343.69
377.305	310.92
377.686	308.44
378.066	340.53
378.447	321.09
378.827	319.96
379.208	327.65
379.588	334.2
379.968	320.42
380.349	319.74
380.729	308.44
381.109	350.25
381.489	312.73
381.87	328.1
382.25	345.95
382.63	335.33
383.01	317.03
383.39	342.11
383.77	332.39
384.15	332.84
384.53	338.72
384.91	333.07
385.29	342.34
385.67	340.3
386.049	350.02
386.429	333.52
386.809	350.47
387.189	366.74
387.568	376.69
387.948	349.79
388.328	338.04
388.707	359.06
389.087	366.52
389.466	345.73
389.846	364.48
390.225	352.73
390.605	368.1
390.984	350.7
391.363	379.85
391.743	372.62
392.122	342.34
392.501	340.75
392.881	360.87
393.26	384.37
393.639	370.13
394.018	364.48
394.397	372.17
394.776	352.73
395.155	369.91
395.534	354.31
395.913	371.71
396.292	389.79
396.671	365.84
397.05	367.87
397.429	393.63
397.808	377.81
398.186	367.87
398.565	378.49
398.944	367.65
399.323	366.74
399.701	379.17
400.08	385.5
400.458	409.68
400.837	387.53
401.215	398.61
401.594	398.61
401.972	373.3
402.351	382.79
402.729	393.63
403.107	402.9
403.486	399.06
403.864	418.27
404.242	401.32
404.62	393.18
404.999	411.49
405.377	402
405.755	411.03
406.133	415.55
406.511	402.67
406.889	419.62
407.267	419.62
407.645	417.81
408.023	414.65
408.401	428.21
408.779	424.37
409.156	433.63
409.534	417.14
409.912	442.22
410.29	455.33
410.667	448.32
411.045	445.16
411.422	438.15
411.8	462.33
412.178	463.91
412.555	458.49
412.933	462.78
413.31	477.25
413.687	484.25
414.065	462.56
414.442	465.5
414.819	456.68
415.197	474.08
415.574	473.63
415.951	465.27
416.328	490.81
416.705	486.74
417.082	480.64
417.46	479.96
417.837	500.98
418.214	492.39
418.591	476.8
418.967	468.21
419.344	531.71
419.721	522.9
420.098	506.17
420.475	511.37
420.852	527.42
421.228	521.09
421.605	505.04
421.982	529.22
422.358	517.25
422.735	536.45
423.111	524.25
423.488	548.43
423.864	526.06
424.241	545.49
424.617	547.75
424.994	549.56
425.37	549.11
425.746	567.19
426.123	559.28
426.499	560.41
426.875	570.35
427.251	558.38
427.627	608.32
428.003	596.57
428.379	592.95
428.756	603.35
429.132	590.69
429.507	599.28
429.883	617.36
430.259	592.5
430.635	639.73
431.011	616.23
431.387	624.59
431.763	644.02
432.138	642.21
432.514	645.38
432.89	647.86
433.265	651.71
433.641	659.84
434.016	679.73
434.392	671.82
434.767	675.21
435.143	691.93
435.518	720.86
435.894	703.68
436.269	701.87
436.644	693.96
437.02	718.6
437.395	712.27
437.77	726.73
438.145	744.81
438.52	752.49
438.895	751.36
439.271	747.3
439.646	757.92
440.021	737.35
440.395	763.12
440.77	776.9
441.145	766.73
441.52	766.51
441.895	780.97
442.27	801.53
442.645	789.33
443.019	805.37
443.394	799.95
443.769	808.76
444.143	818.03
444.518	816.22
444.892	832.27
445.267	826.16
445.641	822.1
446.016	850.34
446.39	863.68
446.764	861.87
447.139	858.48
447.513	864.36
447.887	869.55
448.262	861.87
448.636	887.18
449.01	887.18
449.384	883.11
449.758	921.76
450.132	938.25
450.506	894.41
450.88	936.22
451.254	915.2
451.628	920.85
452.002	943.68
452.376	928.76
452.75	977.57
453.123	970.34
453.497	966.27
453.871	968.53
454.244	982.09
454.618	999.27
454.992	1031.81
455.365	1035.88
455.739	1039.27
456.112	1077.46
456.486	1055.54
456.859	1052.37
457.232	1067.97
457.606	1093.28
457.979	1102.99
458.352	1120.85
458.725	1114.97
459.099	1130.34
459.472	1147.96
459.845	1156.78
460.218	1149.09
460.591	1201.3
460.964	1207.4
461.337	1223.89
461.71	1235.19
462.083	1269.99
462.456	1253.72
462.829	1254.18
463.201	1305.25
463.574	1302.08
463.947	1286.94
464.32	1333.27
464.692	1370.11
465.065	1364.46
465.438	1389.31
465.81	1425.25
466.183	1433.15
466.555	1467.96
466.928	1436.32
467.3	1486.26
467.672	1519.03
468.045	1529.2
468.417	1587.95
468.789	1559.25
469.161	1587.73
469.534	1634.96
469.906	1684.9
470.278	1688.29
470.65	1707.5
471.022	1740.49
471.394	1780.72
471.766	1810.55
472.138	1827.95
472.51	1892.35
472.882	1923.31
473.253	1940.03
473.625	2001.28
473.997	2059.58
474.369	2075.85
474.74	2113.36
475.112	2140.25
475.484	2210.31
475.855	2280.14
476.227	2312.91
476.598	2361.49
476.97	2413.47
477.341	2499.57
477.713	2572.11
478.084	2569.4
478.455	2678.55
478.827	2749.05
479.198	2797.64
479.569	2880.57
479.94	2998.31
480.311	3036.5
480.682	3109.95
481.053	3229.49
481.424	3293.44
481.795	3392.42
482.166	3435.59
482.537	3525.08
482.908	3587.22
483.279	3686.88
483.65	3788.57
484.021	3917.61
484.391	4020.21
484.762	4063.82
485.133	4209.58
485.503	4298.16
485.874	4397.14
486.244	4510.14
486.615	4608.21
486.985	4703.8
487.356	4845.04
487.726	4913.74
488.097	5133.17
488.467	5182.43
488.837	5339.27
489.207	5437.79
489.578	5519.6
489.948	5607.96
490.318	5804.56
490.688	5850.44
491.058	6040.94
491.428	6134.5
491.798	6303.53
492.168	6407.94
492.538	6426.7
492.908	6633.92
493.278	6772.22
493.648	6783.52
494.017	6999.79
494.387	7050.18
494.757	7210.18
495.126	7288.59
495.496	7399.1
495.866	7513.45
496.235	7551.41
496.605	7756.38
496.974	7824.17
497.344	7948.69
497.713	8028.69
498.082	8090.83
498.452	8218.29
498.821	8316.59
499.19	8390.26
499.559	8484.27
499.928	8582.12
500.298	8608.11
500.667	8745.73
501.036	8818.72
501.405	8915.44
501.774	8927.42
502.143	9092.39
502.512	9087.64
502.88	9224.59
503.249	9233.63
503.618	9328.99
503.987	9450.57
504.356	9476.11
504.724	9557.01
505.093	9607.18
505.462	9686.5
505.83	9731.02
506.199	9836.55
506.567	9945.7
506.936	9928.3
507.304	10040.61
507.672	10078.12
508.041	10098.92
508.409	10178.24
508.777	10214.17
509.145	10356.99
509.514	10309.76
509.882	10432.69
510.25	10417.55
510.618	10458.45
510.986	10496.19
511.354	10659.8
511.722	10677.66
512.09	10769.86
512.458	10758.33
512.826	10835.17
513.193	10797.65
513.561	10841.04
513.929	10919.91
514.297	10991.55
514.664	10992
515.032	11057.53
515.4	11025.9
515.767	11090.75
516.135	11137.98
516.502	11064.77
516.869	11179.79
517.237	11245.78
517.604	11145.44
517.972	11222.05
518.339	11339.33
518.706	11287.36
519.073	11257.3
519.44	11331.65
519.808	11417.07
520.175	11393.8
520.542	11510.18
520.909	11591.31
521.276	11424.53
521.643	11541.36
522.009	11533
522.376	11572.1
522.743	11586.11
523.11	11624.3
523.477	11714.47
523.843	11740.91
524.21	11794.46
524.577	11847.8
524.943	11842.37
525.31	11865.2
525.676	11936.61
526.043	11884.18
526.409	11817.97
526.776	11973.44
527.142	11992.88
527.508	11991.52
527.874	12010.96
528.241	11958.98
528.607	11949.49
528.973	12035.14
529.339	11968.02
529.705	11933.67
530.071	12003.27
530.437	11944.74
530.803	11988.81
531.169	11964.4
531.535	11936.83
531.901	11954.23
532.267	11999.43
532.632	11960.79
532.998	11982.71
533.364	11965.98
533.73	11971.41
534.095	11977.28
534.461	11873.33
534.826	11941.58
535.192	11844.41
535.557	11995.14
535.923	11815.71
536.288	11879.89
536.653	11839.66
537.019	11803.73
537.384	11760.11
537.749	11752.88
538.114	11702.04
538.479	11693.45
538.845	11624.52
539.21	11642.15
539.575	11631.98
539.94	11549.72
540.305	11498.65
540.67	11505.21
541.034	11504.3
541.399	11448.26
541.764	11405.55
542.129	11465.43
542.494	11398.09
542.858	11400.35
543.223	11325.78
543.587	11269.51
543.952	11326.45
544.316	11293.46
544.681	11196.51
545.045	11192.22
545.41	11188.83
545.774	11148.15
546.138	11101.6
546.503	11049.85
546.867	11022.96
547.231	11061.6
547.595	11060.47
547.959	10955.39
548.324	10933.7
548.688	10907.03
549.052	10866.8
549.416	10877.65
549.779	10821.16
550.143	10834.04
550.507	10757.2
550.871	10746.58
551.235	10660.48
551.599	10760.59
551.962	10679.24
552.326	10630.88
552.689	10669.75
553.053	10557.89
553.417	10565.8
553.78	10639.69
554.143	10558.11
554.507	10531.9
554.87	10530.77
555.234	10648.05
555.597	10476.31
555.96	10430.21
556.323	10561.05
556.686	10480.83
557.05	10446.25
557.413	10493.26
557.776	10402.86
558.139	10480.37
558.502	10401.28
558.865	10336.88
559.228	10326.03
559.59	10351.11
559.953	10380.26
560.316	10447.83
560.679	10346.37
561.041	10389.08
561.404	10399.7
561.767	10457.78
562.129	10342.98
562.492	10415.07
562.854	10354.5
563.217	10360.38
563.579	10392.01
563.941	10413.48
564.304	10433.82
564.666	10479.24
565.028	10424.78
565.39	10416.87
565.753	10415.29
566.115	10457.78
566.477	10471.33
566.839	10461.62
567.201	10484.89
567.563	10472.01
567.925	10508.17
568.287	10506.14
568.648	10507.04
569.01	10533.25
569.372	10497.55
569.734	10486.25
570.095	10535.74
570.457	10599.02
570.819	10569.41
571.18	10533.71
571.542	10649.18
571.903	10579.81
572.265	10677.43
572.626	10631.1
572.987	10617.55
573.349	10619.58
573.71	10667.94
574.071	10664.1
574.432	10618.68
574.794	10722.18
575.155	10629.3
575.516	10632.23
575.877	10696.64
576.238	10656.41
576.599	10693.25
576.96	10633.14
577.32	10703.42
577.681	10766.69
578.042	10728.96
578.403	10663.42
578.763	10685.34
579.124	10679.69
579.485	10770.76
579.845	10792.91
580.206	10712.01
580.566	10742.74
580.927	10779.58
581.287	10757.2
581.648	10682.85
582.008	10733.7
582.368	10690.76
582.728	10748.62
583.089	10654.15
583.449	10695.28
583.809	10766.47
584.169	10707.94
584.529	10657.77
584.889	10707.26
585.249	10638.34
585.609	10598.79
585.969	10653.7
586.329	10690.09
586.688	10677.66
587.048	10652.8
587.408	10591.11
587.768	10619.81
588.127	10606.92
588.487	10485.12
588.846	10618.68
589.206	10557.43
589.565	10562.63
589.925	10615.51
590.284	10522.63
590.643	10524.21
591.003	10582.29
591.362	10568.28
591.721	10513.82
592.08	10510.88
592.44	10532.12
592.799	10527.6
593.158	10533.48
593.517	10543.2
593.876	10532.8
594.235	10441.05
594.593	10441.96
594.952	10482.41
595.311	10451.22
595.67	10472.92
596.029	10521.05
596.387	10488.51
596.746	10512.46
597.104	10432.92
597.463	10530.09
597.822	10526.7
598.18	10458
598.538	10462.97
598.897	10505.68
599.255	10373.03
599.613	10474.27
599.972	10394.73
600.33	10468.85
600.688	10466.36
601.046	10482.86
601.404	10495.29
601.762	10409.42
602.12	10487.61
602.478	10504.1
602.836	10516.98
603.194	10399.92
603.552	10422.52
603.91	10407.61
604.268	10461.84
604.625	10484.89
604.983	10482.41
605.341	10426.36
605.698	10488.96
606.056	10506.14
606.413	10418
606.771	10521.95
607.128	10548.85
607.485	10442.18
607.843	10406.7
608.2	10552.01
608.557	10523.31
608.914	10508.62
609.272	10566.7
609.629	10533.03
609.986	10588.85
610.343	10579.81
610.7	10590.88
611.057	10534.84
611.414	10571.67
611.771	10540.71
612.127	10604.44
612.484	10589.52
612.841	10573.48
613.198	10459.13
613.554	10555.63
613.911	10650.31
614.267	10627.26
614.624	10666.81
614.98	10649.41
615.337	10645.79
615.693	10593.59
616.05	10710.65
616.406	10748.84
616.762	10661.61
617.118	10690.09
617.475	10730.31
617.831	10728.96
618.187	10702.06
618.543	10666.81
618.899	10748.39
619.255	10712.46
619.611	10757.2
619.967	10758.56
620.323	10809.41
620.678	10766.47
621.034	10699.13
621.39	10740.93
621.746	10737.32
622.101	10748.16
622.457	10702.52
622.812	10693.93
623.168	10752.68
623.523	10750.42
623.879	10744.32
624.234	10768.5
624.589	10709.52
624.945	10787.26
625.3	10721.95
625.655	10766.69
626.01	10820.25
626.365	10747.94
626.72	10743.64
627.075	10731.44
627.43	10765.79
627.785	10789.97
628.14	10684.21
628.495	10742.51
628.85	10691.89
629.205	10662.97
629.559	10809.41
629.914	10684.66
630.269	10599.02
630.623	10632.91
630.978	10568.28
631.332	10678.11
631.687	10718.11
632.041	10602.18
632.396	10612.8
632.75	10630.2
633.104	10457.55
633.459	10579.35
633.813	10520.83
634.167	10563.99
634.521	10583.2
634.875	10587.49
635.229	10548.62
635.583	10528.28
635.937	10561.73
636.291	10563.99
636.645	10509.98
636.999	10461.17
637.352	10539.36
637.706	10394.73
638.06	10479.02
638.413	10450.09
638.767	10415.29
639.121	10384.33
639.474	10328.51
639.828	10378
640.181	10356.08
640.534	10389.08
640.888	10328.74
641.241	10269.08
641.594	10266.82
641.947	10298.68
642.301	10290.1
642.654	10296.88
643.007	10294.84
643.36	10249.42
643.713	10250.55
644.066	10311.11
644.419	10225.01
644.771	10209.65
645.124	10104.79
645.477	10113.6
645.83	10013.49
646.182	9993.16
646.535	9999.48
646.888	9947.96
647.24	10028.18
647.593	10018.01
647.945	9979.6
648.298	9912.93
648.65	9940.5
649.002	9900.05
649.355	9970.11
649.707	9934.4
650.059	9967.39
650.411	10105.69
650.763	10127.84
651.115	10279.02
651.467	10122.42
651.819	10091.91
652.171	10160.16
652.523	10156.77
652.875	10164.45
653.227	10098.92
653.578	10224.79
653.93	10195.41
654.282	10106.15
654.633	10052.59
654.985	10173.49
655.337	10148.41
655.688	10137.56
656.039	10182.75
656.391	10111.12
656.742	10154.73
657.094	10131.91
657.445	10186.14
657.796	10145.24
658.147	10113.15
658.498	10080.16
658.849	10131.46
659.2	10225.69
659.551	10079.03
659.902	10244.22
660.253	10166.94
660.604	10223.21
660.955	10121.97
661.306	10202.42
661.656	10195.64
662.007	10154.73
662.358	10153.38
662.708	10233.15
663.059	10195.64
663.409	10138.01
663.76	10215.97
664.11	10149.99
664.461	10169.2
664.811	10249.42
665.161	10261.85
665.511	10269.98
665.862	10115.19
666.212	10181.17
666.562	10251.23
666.912	10194.05
667.262	10202.42
667.612	10209.19
667.962	10183.66
668.312	10218.91
668.662	10261.17
669.011	10195.64
669.361	10209.87
669.711	10179.37
670.06	10159.48
670.41	10135.75
670.76	10167.16
671.109	10177.78
671.459	10221.17
671.808	10188.63
672.157	10162.42
672.507	10057.11
672.856	10136.88
673.205	10187.73
673.554	10124.45
673.904	10101.18
674.253	10164.9
674.602	10048.3
674.951	9987.96
675.3	9907.06
675.649	10015.08
675.998	10127.84
676.346	10095.07
676.695	10092.14
677.044	9988.41
677.393	9977.11
677.741	10079.25
678.09	9960.39
678.438	10039.48
678.787	9947.51
679.135	10047.17
679.484	9911.35
679.832	9954.06
680.181	9959.48
680.529	9938.02
680.877	9900.73
681.225	9909.77
681.573	9920.16
681.922	9837.68
682.27	9818.7
682.618	9801.07
682.966	9834.52
683.314	9810.56
683.661	9733.28
684.009	9742.09
684.357	9757.68
684.705	9716.1
685.053	9697.8
685.4	9711.13
685.748	9584.35
686.095	9592.04
686.443	9565.14
686.79	9587.06
687.138	9585.48
687.485	9558.82
687.832	9632.26
688.18	9577.57
688.527	9426.62
688.874	9496.22
689.221	9521.3
689.568	9482.89
689.915	9393.85
690.262	9439.05
690.609	9370.12
690.956	9376.9
691.303	9324.92
691.65	9277.24
691.997	9274.3
692.344	9205.61
692.69	9141.43
693.037	9162.67
693.383	9005.61
693.73	9117.92
694.077	9018.49
694.423	8990.92
694.769	9041.77
695.116	9010.36
695.462	8974.65
695.808	8915.67
696.155	8912.05
696.501	8844.03
696.847	8809.01
697.193	8811.27
697.539	8806.29
697.885	8778.5
698.231	8697.37
698.577	8644.04
698.923	8709.57
699.269	8639.07
699.614	8514.1
699.96	8562.01
700.306	8571.72
700.651	8512.74
700.997	8469.13
701.342	8539.86
701.688	8390.71
702.033	8431.16
702.379	8338.06
702.724	8347.77
703.069	8336.02
703.415	8300.77
703.76	8262.58
704.105	8240.66
704.45	8256.48
704.795	8176.48
705.14	8194.78
705.485	8189.81
705.83	8129.48
706.175	8091.96
706.52	8052.42
706.865	8081.57
707.209	8097.61
707.554	7957.5
707.899	8036.37
708.243	7934.68
708.588	7956.15
708.932	7876.15
709.277	7878.63
709.621	7906.66
709.966	7854.45
710.31	7851.97
710.654	7826.43
710.998	7780.33
711.342	7886.09
711.687	7729.49
712.031	7663.05
712.375	7758.19
712.719	7712.09
713.063	7694.01
713.407	7698.75
713.75	7656.95
714.094	7669.83
714.438	7573.56
714.782	7615.36
715.125	7535.14
715.469	7503.96
715.812	7596.83
716.156	7511.19
716.499	7536.27
716.843	7560
717.186	7457.18
717.53	7472.32
717.873	7472.32
718.216	7477.06
718.559	7381.02
718.902	7408.36
719.246	7471.19
719.589	7465.76
719.932	7336.28
720.275	7368.59
720.617	7411.08
720.96	7364.98
721.303	7373.79
721.646	7407.91
721.989	7259.89
722.331	7252.21
722.674	7290.18
723.016	7326.78
723.359	7310.51
723.701	7319.1
724.044	7209.5
724.386	7243.4
724.729	7254.24
725.071	7270.97
725.413	7276.16
725.755	7201.14
726.097	7218.76
726.439	7209.05
726.782	7256.73
727.124	7235.26
727.465	7190.52
727.807	7149.16
728.149	7207.47
728.491	7145.77
728.833	7230.29
729.175	7176.28
729.516	7181.03
729.858	7126.56
730.199	7214.47
730.541	7181.7
730.882	7217.86
731.224	7202.49
731.565	7120.46
731.906	7102.38
732.248	7161.14
732.589	7154.59
732.93	7059
733.271	7130.86
733.612	7149.39
733.953	7139.45
734.294	7169.05
734.635	7132.21
734.976	7118.88
735.317	7133.8
735.658	7129.5
735.999	7148.26
736.339	7117.3
736.68	7230.06
737.021	7160.01
737.361	7162.5
737.702	7186
738.042	7193.23
738.383	7161.37
738.723	7198.65
739.063	7202.27
739.404	7236.17
739.744	7253.79
740.084	7222.15
740.424	7253.57
740.764	7270.29
741.104	7240.69
741.444	7298.31
741.784	7287.24
742.124	7244.98
742.464	7326.56
742.804	7289.27
743.143	7347.58
743.483	7373.34
743.823	7340.12
744.162	7425.54
744.502	7396.39
744.841	7389.16
745.181	7465.76
745.52	7491.53
745.86	7561.13
746.199	7545.99
746.538	7580.79
746.877	7664.63
747.216	7588.02
747.556	7701.92
747.895	7707.57
748.234	7776.72
748.573	7823.04
748.911	7834.79
749.25	7924.96
749.589	7951.18
749.928	7999.08
750.267	8143.71
750.605	8157.95
750.944	8197.95
751.283	8165.41
751.621	8328.11
751.96	8401.11
752.298	8476.36
752.636	8575.11
752.975	8558.62
753.313	8726.3
753.651	8872.73
753.989	8846.97
754.327	8984.14
754.666	9096.68
755.004	9174.87
755.342	9314.98
755.679	9477.46
756.017	9522.89
756.355	9645.14
756.693	9734.41
757.031	9890.11
757.368	9979.6
757.706	10173.26
758.044	10269.31
758.381	10392.47
758.719	10580.03
759.056	10803.53
759.394	10871.78
759.731	10965.11
760.068	11079.68
760.405	11241.03
760.743	11361.93
761.08	11603.96
761.417	11698.65
761.754	11870.62
762.091	11998.98
762.428	12113.33
762.765	12284.39
763.102	12535.91
763.438	12621.56
763.775	12738.85
764.112	12920.99
764.449	13146.97
764.785	13188.33
765.122	13384.48
765.458	13426.06
765.795	13577.24
766.131	13742.44
766.467	13880.28
766.804	13931.13
767.14	14085.03
767.476	14185.81
767.812	14414.96
768.148	14509.42
768.485	14656.31
768.821	14728.4
769.157	14862.63
769.492	14949.18
769.828	15148.27
770.164	15126.58
770.5	15191.44
770.836	15370.64
771.171	15323.18
771.507	15543.52
771.842	15551.88
772.178	15694.25
772.513	15810.4
772.849	15818.99
773.184	15926.56
773.519	16002.26
773.855	16050.17
774.19	16105.76
774.525	16094.92
774.86	16233.67
775.195	16331.97
775.53	16366.55
775.865	16352.54
776.2	16334.68
776.535	16296.72
776.87	16446.09
777.205	16445.19
777.539	16531.97
777.874	16597.95
778.209	16557.73
778.543	16601.57
778.878	16559.08
779.212	16610.61
779.547	16625.98
779.881	16643.38
780.215	16656.71
780.55	16757.05
780.884	16646.54
781.218	16695.8
781.552	16808.34
781.886	16724.05
782.22	16733.09
782.554	16688.12
782.888	16607.9
783.222	16597.05
783.556	16611.51
783.889	16610.38
784.223	16581.23
784.557	16656.03
784.89	16637.5
785.224	16630.95
785.557	16576.71
785.891	16581.23
786.224	16557.28
786.558	16610.61
786.891	16474.11
787.224	16474.34
787.557	16428.47
787.891	16451.97
788.224	16516.15
788.557	16469.82
788.89	16462.59
789.223	16497.84
789.556	16406.09
789.888	16324.97
790.221	16318.64
790.554	16213.33
790.887	16347.34
791.219	16175.14
791.552	16235.03
791.884	16121.81
792.217	16144.63
792.549	16150.06
792.882	16036.39
793.214	16001.13
793.546	16058.76
793.879	16028.02
794.211	15874.36
794.543	15945.99
794.875	15854.02
795.207	16009.04
795.539	15834.81
795.871	15893.57
796.203	15695.15
796.535	15652.22
796.867	15711.2
797.198	15678.43
797.53	15611.09
797.862	15583.97
798.193	15644.98
798.525	15512.11
798.856	15549.39
799.188	15389.4
799.519	15373.35
799.85	15303.52
800.182	15363.64
800.513	15414.48
800.844	15250.64
801.175	15309.17
801.506	15253.58
801.837	15090.87
802.168	15122.29
802.499	15099.24
802.83	15093.36
803.161	14985.11
803.491	15055.62
803.822	15035.06
804.153	14962.97
804.483	14801.39
804.814	14847.49
805.145	14910.54
805.475	14851.56
805.805	14788.74
806.136	14743.31
806.466	14798
806.796	14687.95
807.126	14645.91
807.457	14661.73
807.787	14655.86
808.117	14493.15
808.447	14488.4
808.777	14578.12
809.107	14474.85
809.436	14423.32
809.766	14365.02
810.096	14324.79
810.426	14259.26
810.755	14344.23
811.085	14246.38
811.414	14212.93
811.744	14221.29
812.073	14198.02
812.403	14177.68
812.732	14038.02
813.061	14141.07
813.39	14020.39
813.719	13989.89
814.049	14040.73
814.378	14005.25
814.707	13931.58
815.036	14004.12
815.365	13904.69
815.693	13771.14
816.022	13797.12
816.351	13808.65
816.68	13731.14
817.008	13728.65
817.337	13610.01
817.665	13618.14
817.994	13666.51
818.322	13584.02
818.651	13555.1
818.979	13541.31
819.307	13589.22
819.636	13525.04
819.964	13486.4
820.292	13608.2
820.62	13469.9
820.948	13518.03
821.276	13536.34
821.604	13472.39
821.932	13548.99
822.259	13504.7
822.587	13455.66
822.915	13452.27
823.243	13539.05
823.57	13407.3
823.898	13536.56
824.225	13453.86
824.553	13450.24
824.88	13423.8
825.207	13498.15
825.535	13385.16
825.862	13447.08
826.189	13439.62
826.516	13574.53
826.843	13513.51
827.17	13532.05
827.497	13563.46
827.824	13455.44
828.151	13479.39
828.478	13497.47
828.805	13532.05
829.131	13490.01
829.458	13494.31
829.785	13425.16
830.111	13407.98
830.438	13504.7
830.764	13522.33
831.09	13503.12
831.417	13452.05
831.743	13431.93
832.069	13405.95
832.395	13353.29
832.722	13492.5
833.048	13414.99
833.374	13381.54
833.7	13449.56
834.026	13464.02
834.351	13379.73
834.677	13375.67
835.003	13297.48
835.329	13372.05
835.654	13313.97
835.98	13305.16
836.306	13367.08
836.631	13299.51
836.956	13271.71
837.282	13372.5
837.607	13209.57
837.932	13172.96
838.258	13187.65
838.583	13124.37
838.908	13125.5
839.233	13164.82
839.558	13136.58
839.883	13071.27
840.208	13022.45
840.533	13011.83
840.858	13020.19
841.182	13007.31
841.507	13038.27
841.832	12886.19
842.156	12924.6
842.481	12978.16
842.805	12857.71
843.13	12841.67
843.454	12835.79
843.778	12781.56
844.103	12805.51
844.427	12736.36
844.751	12731.84
845.075	12741.11
845.399	12672.18
845.723	12650.71
846.047	12655.46
846.371	12415.24
846.695	12509.02
847.019	12365.3
847.343	12462.02
847.666	12350.83
847.99	12228.8
848.313	12267.45
848.637	12172.99
848.96	12147.67
849.284	12116.72
849.607	12001.46
849.931	12005.08
850.254	11938.41
850.577	11905.65
850.9	11800.57
851.223	11760.57
851.546	11710.85
851.869	11690.06
852.192	11700.68
852.515	11545.88
852.838	11496.84
853.161	11596.28
853.483	11500.46
853.806	11491.42
854.129	11451.87
854.451	11358.09
854.774	11320.35
855.096	11247.13
855.419	11252.33
855.741	11218.43
856.063	11162.39
856.385	11132.56
856.708	11100.47
857.03	11046.69
857.352	11044.88
857.674	10968.72
857.996	10930.98
858.318	10915.62
858.64	10956.52
858.961	10930.53
859.283	10850.08
859.605	10823.19
859.926	10866.35
860.248	10786.13
860.57	10682.4
860.891	10756.3
861.212	10643.08
861.534	10666.81
861.855	10629.52
862.176	10647.83
862.498	10552.91
862.819	10624.55
863.14	10549.52
863.461	10468.4
863.782	10519.47
864.103	10613.93
864.424	10465.23
864.745	10496.19
865.065	10429.08
865.386	10426.82
865.707	10402.86
866.027	10434.5
866.348	10384.78
866.668	10462.52
866.989	10322.41
867.309	10225.92
867.63	10314.95
867.95	10263.88
868.27	10229.53
868.59	10232.25
868.91	10254.39
869.23	10178.91
869.55	10174.17
869.87	10271.34
870.19	10158.12
870.51	10211.68
870.83	10192.47
871.15	10086.71
871.469	10146.6
871.789	10150.44
872.109	10147.05
872.428	10031.35
872.748	10095.3
873.067	10075.19
873.386	10015.08
873.706	10040.39
874.025	9904.8
874.344	9913.16
874.663	9919.94
874.982	9933.04
875.301	9879.94
875.62	9909.32
875.939	9847.4
876.258	9904.34
876.577	9820.96
876.896	9825.48
877.214	9808.98
877.533	9734.41
877.852	9740.51
878.17	9772.37
878.489	9793.16
878.807	9757.91
879.125	9763.56
879.444	9691.47
879.762	9652.15
880.08	9667.06
880.398	9661.19
880.716	9655.99
881.034	9583
881.352	9642.88
881.67	9610.34
881.988	9608.98
882.306	9526.27
882.624	9468.88
882.941	9477.01
883.259	9526.95
883.577	9400.18
883.894	9390.23
884.212	9429.78
884.529	9416.9
884.846	9414.41
885.164	9326.73
885.481	9319.05
885.798	9336.45
886.115	9249.67
886.432	9237.69
886.75	9166.28
887.067	9236.57
887.383	9191.14
887.7	9219.84
888.017	9150.01
888.334	9180.07
888.651	9081.31
888.967	9053.52
889.284	9023.01
889.6	9058.72
889.917	8976.01
890.233	8918.83
890.55	8996.35
890.866	8890.13
891.182	8925.84
891.498	8926.29
891.815	8846.07
892.131	8820.98
892.447	8796.8
892.763	8724.49
893.079	8748.44
893.395	8750.48
893.71	8700.53
894.026	8610.37
894.342	8633.42
894.657	8599.29
894.973	8596.13
895.289	8583.02
895.604	8539.63
895.92	8476.36
896.235	8430.26
896.55	8460.77
896.865	8387.32
897.181	8387.77
897.496	8350.94
897.811	8340.09
898.126	8234.56
898.441	8266.42
898.756	8235.91
899.071	8209.47
899.386	8204.73
899.7	8090.61
900.015	8079.99
900.33	8046.99
900.644	8048.12
900.959	8064.62
901.273	8055.35
901.588	7983.49
901.902	7849.03
902.216	7900.55
902.531	7895.81
902.845	7903.04
903.159	7813.55
903.473	7819.65
903.787	7771.07
904.101	7733.1
904.415	7752.54
904.729	7669.6
905.042	7687.91
905.356	7626.44
905.67	7593.22
905.984	7529.94
906.297	7492.43
906.611	7466.67
906.924	7542.15
907.237	7442.04
907.551	7376.95
907.864	7415.37
908.177	7339.67
908.491	7337.18
908.804	7310.51
909.117	7187.35
909.43	7174.47
909.743	7247.46
910.056	7180.57
910.368	7138.09
910.681	7094.47
910.994	7046.11
911.307	7061.26
911.619	6998.43
911.932	7056.51
912.244	6962.95
912.557	6899.68
912.869	6927.02
913.181	6857.87
913.494	6882.05
913.806	6826.46
914.118	6776.97
914.43	6722.28
914.742	6728.16
915.054	6690.64
915.366	6683.19
915.678	6601.38
915.99	6664.66
916.302	6556.64
916.613	6497.65
916.925	6534.04
917.236	6524.32
917.548	6520.25
917.859	6502.63
918.171	6452.68
918.482	6415.4
918.794	6410.65
919.105	6366.58
919.416	6347.6
919.727	6317.32
920.038	6282.07
920.349	6290.43
920.66	6225.57
920.971	6234.84
921.282	6235.97
921.593	6204.78
921.903	6073.03
922.214	6111.68
922.525	6108.51
922.835	6114.39
923.146	6017.44
923.456	5989.64
923.767	5914.39
924.077	5978.35
924.387	5953.26
924.697	5861.29
925.008	5852.25
925.318	5880.95
925.628	5834.17
925.938	5813.38
926.248	5819.03
926.558	5777.22
926.867	5729.09
927.177	5718.92
927.487	5684.79
927.796	5626.72
928.106	5606.38
928.416	5615.64
928.725	5708.75
929.034	5541.97
929.344	5612.48
929.653	5590.11
929.962	5493.84
930.271	5507.17
930.581	5435.08
930.89	5452.71
931.199	5399.38
931.508	5425.14
931.817	5417.68
932.125	5359.83
932.434	5344.46
932.743	5336.78
933.051	5324.13
933.36	5314.18
933.669	5303.11
933.977	5226.28
934.286	5205.94
934.594	5250.68
934.902	5212.94
935.21	5165.49
935.519	5115.09
935.827	5109.22
936.135	5089.56
936.443	5066.73
936.751	5018.82
937.059	5012.72
937.367	5014.53
937.674	5016.34
937.982	4986.73
938.29	4923.68
938.597	4974.08
938.905	4853.86
939.213	4859.28
939.52	4821.54
939.827	4879.84
940.135	4847.75
940.442	4798.26
940.749	4750.36
941.056	4811.82
941.363	4709.45
941.67	4715.55
941.977	4675.78
942.284	4650.24
942.591	4579.51
942.898	4629
943.205	4633.52
943.511	4572.51
943.818	4569.34
944.125	4516.69
944.431	4552.39
944.738	4534.77
945.044	4473.98
945.35	4473.75
945.657	4465.39
945.963	4400.99
946.269	4412.29
946.575	4423.13
946.881	4392.85
947.187	4300.65
947.493	4394.66
947.799	4331.84
948.105	4330.93
948.41	4323.02
948.716	4283.7
949.022	4246.64
949.327	4232.18
949.633	4191.27
949.938	4219.52
950.244	4227.88
950.549	4146.76
950.854	4180.88
951.16	4161.44
951.465	4075.12
951.77	4151.05
952.075	4057.72
952.38	4079.19
952.685	4062.46
952.99	4036.02
953.294	3992.41
953.599	3996.25
953.904	3987.66
954.209	3929.36
954.513	3950.6
954.818	3929.81
955.122	3885.75
955.426	3940.89
955.731	3907.89
956.035	3915.35
956.339	3861.79
956.643	3875.58
956.948	3814.33
957.252	3791.74
957.556	3794.9
957.86	3773.88
958.163	3758.74
958.467	3712.87
958.771	3728.91
959.075	3737.27
959.378	3740.89
959.682	3706.09
959.985	3677.16
960.289	3605.07
960.592	3619.31
960.896	3562.59
961.199	3607.11
961.502	3594
961.805	3568.92
962.108	3540.9
962.411	3495.25
962.714	3501.12
963.017	3462.03
963.32	3525.98
963.623	3454.12
963.926	3431.75
964.228	3418.86
964.531	3405.76
964.833	3448.92
965.136	3366.44
965.438	3361.01
965.741	3351.52
966.043	3386.55
966.345	3319.43
966.648	3311.52
966.95	3309.49
967.252	3271.75
967.554	3280.56
967.856	3267.46
968.158	3244.18
968.46	3234.24
968.761	3224.52
969.063	3233.11
969.365	3215.71
969.666	3190.62
969.968	3154.69
970.269	3157.4
970.571	3144.3
970.872	3144.75
971.174	3137.97
971.475	3070.17
971.776	3109.04
972.077	3055.71
972.378	3054.13
972.679	3065.88
972.98	3026.78
973.281	3011.19
973.582	2978.65
973.883	3003.51
974.183	3008.93
974.484	2970.29
974.785	2944.98
975.085	2966.45
975.386	2960.35
975.686	2972.32
975.986	2918.77
976.287	2881.25
976.587	2938.43
976.887	2852.33
977.187	2871.08
977.487	2844.64
977.787	2808.03
978.087	2832.44
978.387	2823.4
978.687	2784.98
978.987	2792.89
979.286	2769.39
979.586	2773.68
979.885	2745.21
980.185	2737.98
980.484	2712.44
980.784	2708.6
981.083	2728.26
981.382	2704.31
981.682	2666.12
981.981	2666.57
982.28	2630.19
982.579	2608.04
982.878	2626.8
983.177	2586.12
983.475	2629.51
983.774	2524.88
984.073	2554.71
984.372	2573.01
984.67	2597.64
984.969	2557.19
985.267	2579.34
985.566	2519.45
985.864	2518.1
986.162	2493.92
986.461	2480.13
986.759	2468.38
987.057	2451.21
987.355	2494.37
987.653	2422.73
987.951	2431.09
988.249	2380.02
988.547	2414.6
988.844	2398.1
989.142	2372.56
989.44	2392.68
989.737	2381.15
990.035	2372.11
990.332	2349.51
990.63	2336.86
990.927	2321.72
991.224	2302.28
991.521	2294.83
991.819	2304.54
992.116	2319.01
992.413	2279.91
992.71	2297.31
993.006	2257.09
993.303	2262.06
993.6	2222.06
993.897	2245.11
994.193	2202.85
994.49	2218.44
994.787	2204.21
995.083	2170.76
995.379	2145.9
995.676	2175.96
995.972	2173.25
996.268	2138.45
996.565	2136.86
996.861	2119.92
997.157	2113.36
997.453	2117.2
997.749	2082.85
998.044	2054.16
998.34	2059.58
998.636	2056.41
998.932	2054.16
999.227	2054.61
999.523	2030.2
999.818	2058
1000.114	2006.47
1000.409	1988.85
1000.704	2017.09
1001	1990.43
1001.295	1946.81
1001.59	1952.91
1001.885	1939.13
1002.18	1945.91
1002.475	1913.82
1002.77	1916.98
1003.065	1921.96
1003.359	1901.39
1003.654	1874.5
1003.949	1841.05
1004.243	1880.6
1004.538	1867.04
1004.832	1811.68
1005.127	1847.38
1005.421	1805.57
1005.715	1809.64
1006.009	1809.64
1006.304	1779.13
1006.598	1800.38
1006.892	1785.01
1007.186	1775.07
1007.48	1765.12
1007.773	1752.69
1008.067	1703.43
1008.361	1729.87
1008.655	1721.51
1008.948	1702.75
1009.242	1716.08
1009.535	1660.95
1009.829	1676.54
1010.122	1654.17
1010.415	1660.95
1010.708	1646.93
1011.001	1616.88
1011.295	1607.16
1011.588	1619.59
1011.881	1605.35
1012.173	1587.5
1012.466	1574.85
1012.759	1571.68
1013.052	1578.46
1013.344	1555.86
1013.637	1537.56
1013.93	1542.08
1014.222	1556.77
1014.514	1537.33
1014.807	1529.42
1015.099	1521.74
1015.391	1535.52
1015.683	1470.44
1015.976	1503.66
1016.268	1491.91
1016.56	1469.31
1016.851	1433.61
1017.143	1427.96
1017.435	1439.71
1017.727	1430.44
1018.018	1446.04
1018.31	1404.91
1018.602	1405.81
1018.893	1370.33
1019.185	1394.06
1019.476	1367.17
1019.767	1376.21
1020.058	1386.38
1020.35	1361.97
1020.641	1347.28
1020.932	1320.39
1021.223	1330.56
1021.514	1350.22
1021.804	1308.86
1022.095	1296.89
1022.386	1280.84
1022.677	1295.08
1022.967	1268.41
1023.258	1291.69
1023.548	1263.44
1023.839	1245.36
1024.129	1231.58
1024.419	1238.81
1024.709	1236.55
1025	1218.24
1025.29	1207.85
1025.58	1193.61
1025.87	1215.08
1026.16	1194.06
1026.449	1192.71
1026.739	1154.07
1027.029	1164.69
1027.319	1159.26
1027.608	1171.69
1027.898	1159.04
1028.187	1141.41
1028.477	1113.39
1028.766	1124.69
1029.055	1125.14
1029.344	1128.53
1029.634	1121.75
1029.923	1106.38
1030.212	1073.39
1030.501	1083.79
1030.79	1082.66
1031.078	1065.93
1031.367	1055.09
1031.656	1070
1031.945	1058.47
1032.233	1045.82
1032.522	1038.81
1032.81	1047.63
1033.099	1062.54
1033.387	999.72
1033.675	1001.98
1033.963	1015.09
1034.251	1015.31
1034.54	1003.11
1034.828	1009.66
1035.116	981.64
1035.403	981.64
1035.691	968.31
1035.979	972.38
1036.267	947.52
1036.554	955.43
1036.842	941.87
1037.129	932.15
1037.417	932.15
1037.704	924.02
1037.992	924.69
1038.279	923.56
1038.566	911.36
1038.853	911.36
1039.14	911.36
