Data from hue_28_FLMS001491_00044.txt Node
Date: Tue Feb 07 17:17:20 GMT 2017
User: dcchb
Spectrometer: FLMS00149
Trigger mode: 0
Integration Time (sec): 2.000000E-2
Scans to average: 10
Electric dark correction enabled: true
Nonlinearity correction enabled: false
Boxcar width: 0
XAxis mode: Wavelengths
Number of Pixels in Spectrum: 2048
>>>>>Begin Spectral Data<<<<<
341.393	12.29
341.776	12.29
342.16	12.29
342.543	-55.06
342.927	-48.05
343.31	-52.34
343.693	-61.16
344.077	-54.6
344.46	-64.32
344.843	-79.46
345.226	-39.01
345.61	-35.39
345.993	-24.77
346.376	3.93
346.759	1.67
347.142	20.42
347.525	22.23
347.908	71.04
348.291	84.83
348.674	112.85
349.057	94.09
349.44	140.65
349.823	123.92
350.206	168.67
350.588	201.66
350.971	215.45
351.354	221.55
351.737	247.08
352.119	269.46
352.502	270.36
352.884	262.22
353.267	276.69
353.65	311.49
354.032	304.03
354.414	283.69
354.797	333.41
355.179	318.49
355.562	330.7
355.944	352.62
356.326	317.82
356.709	343.13
357.091	342.67
357.473	337.48
357.855	344.03
358.238	346.29
358.62	326.63
359.002	320.3
359.384	334.54
359.766	361.88
360.148	350.81
360.53	333.18
360.912	342.9
361.294	348.1
361.676	336.57
362.057	340.19
362.439	343.13
362.821	314.65
363.203	331.83
363.584	338.83
363.966	332.51
364.348	347.65
364.729	332.73
365.111	310.13
365.493	315.78
365.874	308.78
366.256	325.27
366.637	312.62
367.019	315.33
367.4	333.18
367.781	309.46
368.163	310.36
368.544	307.87
368.925	311.71
369.306	344.26
369.688	324.82
370.069	319.17
370.45	321.66
370.831	330.25
371.212	316.91
371.593	335.9
371.974	332.73
372.355	327.31
372.736	313.97
373.117	320.08
373.498	316.01
373.879	315.1
374.26	331.15
374.641	307.42
375.021	330.7
375.402	326.86
375.783	325.5
376.163	319.4
376.544	314.88
376.925	329.34
377.305	323.92
377.686	334.31
378.066	342.67
378.447	360.3
378.827	321.21
379.208	325.27
379.588	334.77
379.968	346.74
380.349	334.09
380.729	328.44
381.109	358.04
381.489	348.32
381.87	330.7
382.25	324.6
382.63	342.22
383.01	330.7
383.39	343.13
383.77	349.91
384.15	352.39
384.53	351.04
384.91	349.91
385.29	346.29
385.67	354.65
386.049	358.27
386.429	357.59
386.809	349.91
387.189	372.73
387.568	372.5
387.948	351.26
388.328	370.24
388.707	361.21
389.087	370.47
389.466	350.58
389.846	385.61
390.225	378.61
390.605	381.32
390.984	368.89
391.363	378.61
391.743	356.01
392.122	379.96
392.501	372.28
392.881	382.9
393.26	364.14
393.639	361.21
394.018	375.44
394.397	377.93
394.776	388.55
395.155	372.5
395.534	377.7
395.913	382.22
396.292	404.82
396.671	401.88
397.05	382.67
397.429	368.89
397.808	389.68
398.186	387.65
398.565	398.94
398.944	424.25
399.323	399.85
399.701	395.33
400.08	387.65
400.458	386.97
400.837	426.97
401.215	416.34
401.594	417.93
401.972	403.24
402.351	393.75
402.729	397.36
403.107	407.76
403.486	414.99
403.864	435.78
404.242	415.22
404.62	419.06
404.999	411.37
405.377	445.5
405.755	425.38
406.133	428.77
406.511	421.54
406.889	434.88
407.267	449.34
407.645	436.91
408.023	459.06
408.401	438.27
408.779	447.53
409.156	454.08
409.534	455.67
409.912	472.84
410.29	450.24
410.667	435.1
411.045	471.94
411.422	459.06
411.8	466.29
412.178	481.65
412.555	483.69
412.933	496.57
413.31	471.26
413.687	465.84
414.065	479.39
414.442	504.03
414.819	478.94
415.197	469.45
415.574	491.37
415.951	493.86
416.328	502.22
416.705	499.96
417.082	528.43
417.46	509.22
417.837	470.58
418.214	514.65
418.591	480.07
418.967	509.45
419.344	508.32
419.721	513.97
420.098	525.49
420.475	529.79
420.852	522.56
421.228	541.77
421.605	549.9
421.982	516.23
422.358	536.79
422.735	546.51
423.111	544.48
423.488	569.34
423.864	551.71
424.241	565.27
424.617	554.19
424.994	556.68
425.37	575.89
425.746	562.33
426.123	580.63
426.499	585.83
426.875	570.01
427.251	582.44
427.627	584.25
428.003	593.74
428.379	596.23
428.756	605.27
429.132	604.14
429.507	630.35
429.883	612.05
430.259	654.3
430.635	589.67
431.011	618.83
431.387	600.29
431.763	614.98
432.138	649.56
432.514	627.19
432.89	643.68
433.265	670.12
433.641	672.61
434.016	647.53
434.392	688.2
434.767	673.74
435.143	670.12
435.518	674.64
435.894	706.05
436.269	722.33
436.644	703.34
437.02	706.05
437.395	727.07
437.77	698.82
438.145	725.26
438.52	730.69
438.895	721.2
439.271	738.37
439.646	748.54
440.021	735.21
440.395	721.65
440.77	769.78
441.145	763.45
441.52	753.06
441.895	752.16
442.27	756.22
442.645	770.46
443.019	771.14
443.394	774.98
443.769	778.6
444.143	783.34
444.518	784.7
444.892	786.05
445.267	798.48
445.641	801.87
446.016	793.96
446.39	819.95
446.764	811.59
447.139	821.76
447.513	838.25
447.887	806.39
448.262	834.19
448.636	817.46
449.01	831.48
449.384	850.23
449.758	829.89
450.132	872.6
450.506	841.42
450.88	874.64
451.254	884.81
451.628	862.43
452.002	920.06
452.376	883
452.75	893.62
453.123	895.43
453.497	918.93
453.871	898.37
454.244	953.73
454.618	960.96
454.992	947.86
455.365	937.46
455.739	955.99
456.112	981.75
456.486	983.56
456.859	970.68
457.232	990.34
457.606	1011.13
457.979	1007.97
458.352	1015.43
458.725	1019.72
459.099	1050.23
459.472	1060.17
459.845	1052.26
460.218	1029.21
460.591	1077.34
460.964	1085.48
461.337	1110.56
461.71	1113.73
462.083	1130.9
462.456	1127.96
462.829	1152.37
463.201	1168.42
463.574	1147.4
463.947	1170.45
464.32	1166.38
464.692	1188.98
465.065	1200.05
465.438	1221.52
465.81	1235.98
466.183	1246.61
466.555	1281.41
466.928	1285.25
467.3	1274.18
467.672	1297.45
468.045	1341.74
468.417	1349.65
468.789	1353.5
469.161	1388.07
469.534	1374.74
469.906	1435.98
470.278	1450.89
470.65	1430.1
471.022	1472.14
471.394	1465.13
471.766	1510.78
472.138	1532.02
472.51	1556.2
472.882	1588.97
473.253	1624.45
473.625	1639.59
473.997	1662.19
474.369	1682.53
474.74	1699.48
475.112	1736.31
475.484	1737.67
475.855	1757.33
476.227	1796.87
476.598	1841.62
476.97	1852.92
477.341	1899.7
477.713	1941.28
478.084	1963.42
478.455	2029.64
478.827	2039.35
479.198	2074.83
479.569	2120.71
479.94	2181.27
480.311	2221.95
480.682	2242.29
481.053	2336.07
481.424	2373.36
481.795	2380.59
482.166	2430.08
482.537	2505.33
482.908	2555.05
483.279	2565.67
483.65	2583.29
484.021	2674.14
484.391	2694.93
484.762	2737.41
485.133	2807.69
485.503	2862.38
485.874	2924.75
486.244	2983.96
486.615	3054.92
486.985	3085.88
487.356	3146.67
487.726	3173.79
488.097	3243.16
488.467	3297.63
488.837	3359.32
489.207	3402.93
489.578	3466.89
489.948	3520.67
490.318	3541.46
490.688	3610.61
491.058	3686.99
491.428	3721.34
491.798	3772.19
492.168	3872.98
492.538	3897.61
492.908	3931.51
493.278	3963.82
493.648	4028
494.017	4060.54
494.387	4123.14
494.757	4204.95
495.126	4245.85
495.496	4290.82
495.866	4334.66
496.235	4389.35
496.605	4404.71
496.974	4423.47
497.344	4484.94
497.713	4513.41
498.082	4571.04
498.452	4644.48
498.821	4637.93
499.19	4656.46
499.559	4735.55
499.928	4752.5
500.298	4781.88
500.667	4824.14
501.036	4859.62
501.405	4971.48
501.774	4909.33
502.143	4957.24
502.512	4984.36
502.88	5049.9
503.249	5091.25
503.618	5107.07
503.987	5148.2
504.356	5175.54
504.724	5208.31
505.093	5195.43
505.462	5227.52
505.83	5263.68
506.199	5288.08
506.567	5370.57
506.936	5391.13
507.304	5443.78
507.672	5471.58
508.041	5562.42
508.409	5570.11
508.777	5557.23
509.145	5635.42
509.514	5646.94
509.882	5674.51
510.25	5646.26
510.618	5706.15
510.986	5729.88
511.354	5736.88
511.722	5814.62
512.09	5898.23
512.458	5865.69
512.826	5912.47
513.193	5963.32
513.561	5916.54
513.929	5964.67
514.297	6067.95
514.664	6074.95
515.032	6039.93
515.4	6083.99
515.767	6152.24
516.135	6185.46
516.502	6155.86
516.869	6263.87
517.237	6277.43
517.604	6257.77
517.972	6287.38
518.339	6361.27
518.706	6320.14
519.073	6304.1
519.44	6367.83
519.808	6457.99
520.175	6455.96
520.542	6523.53
520.909	6549.52
521.276	6550.2
521.643	6571.66
522.009	6667.03
522.376	6637.2
522.743	6721.72
523.11	6766.46
523.477	6841.49
523.843	6854.82
524.21	6897.3
524.577	6937.53
524.943	6913.12
525.31	7002.84
525.676	7024.53
526.043	7116.51
526.409	7074.25
526.776	7180.69
527.142	7176.17
527.508	7192.21
527.874	7272.44
528.241	7289.61
528.607	7311.53
528.973	7380.23
529.339	7423.17
529.705	7452.09
530.071	7495.71
530.437	7569.6
530.803	7577.06
531.169	7562.6
531.535	7568.47
531.901	7627.45
532.267	7708.81
532.632	7709.26
532.998	7715.81
533.364	7886.88
533.73	7859.31
534.095	7868.58
534.461	7949.03
534.826	7989.03
535.192	8015.92
535.557	8076.48
535.923	8112.19
536.288	8052.08
536.653	8129.36
537.019	8124.16
537.384	8160.32
537.749	8189.93
538.114	8216.37
538.479	8236.48
538.845	8293.2
539.21	8260.88
539.575	8339.3
539.94	8390.37
540.305	8403.03
540.67	8433.31
541.034	8502.91
541.399	8537.49
541.764	8568.22
542.129	8556.92
542.494	8646.19
542.858	8619.75
543.223	8682.12
543.587	8751.72
543.952	8724.83
544.316	8811.38
544.681	8832.62
545.045	8906.97
545.41	8899.74
545.774	8903.13
546.138	8918.95
546.503	8915.56
546.867	8965.72
547.231	9019.96
547.595	9133.4
547.959	9105.16
548.324	9129.79
548.688	9179.28
549.052	9210.46
549.416	9239.62
549.779	9283
550.143	9291.14
550.507	9347.64
550.871	9323.91
551.235	9349.22
551.599	9461.98
551.962	9452.49
552.326	9532.72
552.689	9536.78
553.053	9543.56
553.417	9618.36
553.78	9663.79
554.143	9648.19
554.507	9746.04
554.87	9697
555.234	9771.58
555.597	9805.7
555.96	9827.62
556.323	9832.82
556.686	9806.83
557.05	9905.14
557.413	9931.35
557.776	9911.24
558.139	10042.31
558.502	10002.76
558.865	9987.62
559.228	10110.1
559.59	10153.26
559.953	10176.09
560.316	10204.34
560.679	10253.37
561.041	10372.24
561.404	10344.22
561.767	10388.74
562.129	10422.86
562.492	10398
562.854	10482.97
563.217	10436.19
563.579	10562.29
563.941	10529.3
564.304	10639.35
564.666	10650.65
565.028	10707.6
565.39	10725
565.753	10797.77
566.115	10765.9
566.477	10875.05
566.839	10919.8
567.201	10959.12
567.563	10946.01
567.925	11074.37
568.287	11075.5
568.648	11052
569.01	11132.22
569.372	11146.01
569.734	11172.22
570.095	11313.46
570.457	11355.94
570.819	11337.19
571.18	11288.38
571.542	11479.56
571.903	11436.17
572.265	11538.76
572.626	11583.96
572.987	11635.94
573.349	11749.38
573.71	11756.61
574.071	11879.77
574.432	11914.57
574.794	12046.1
575.155	12091.97
575.516	12004.06
575.877	12192.98
576.238	12259.2
576.599	12407.89
576.96	12340.78
577.32	12415.35
577.681	12612.41
578.042	12654.89
578.403	12752.74
578.763	12757.04
579.124	12900.99
579.485	13080.42
579.845	13242.9
580.206	13273.18
580.566	13453.06
580.927	13472.95
581.287	13750.01
581.648	13786.61
582.008	13980.28
582.368	14114.52
582.728	14173.72
583.089	14338.69
583.449	14561.74
583.809	14720.38
584.169	14939.58
584.529	15004.44
584.889	15307.93
585.249	15517.87
585.609	15564.42
585.969	15914.02
586.329	16061.58
586.688	16344.29
587.048	16478.3
587.408	16757.38
587.768	16835.12
588.127	17163.93
588.487	17370.02
588.846	17837.58
589.206	17861.54
589.565	18147.18
589.925	18559.6
590.284	18703.77
590.643	18938.34
591.003	19315.96
591.362	19638.89
591.721	19910.07
592.08	20079.56
592.44	20393.22
592.799	20694.46
593.158	20992.53
593.517	21237.72
593.876	21582.12
594.235	21738.5
594.593	22177.13
594.952	22425.71
595.311	22612.37
595.67	22989.99
596.029	23400.83
596.387	23688.5
596.746	24050.3
597.104	24209.17
597.463	24571.19
597.822	24982.93
598.18	25072.87
598.538	25266.31
598.897	25766.64
599.255	25861.78
599.613	26634.19
599.972	26588.76
600.33	27035.08
600.688	27256.32
601.046	27525.91
601.404	27816.75
601.762	28013.59
602.12	28539.45
602.478	28787.58
602.836	29013.11
603.194	29174.91
603.552	29451.97
603.91	29653.99
604.268	30050.59
604.625	30099.86
604.983	30524.48
605.341	30655.78
605.698	31121.98
606.056	31403.33
606.413	31595.41
606.771	31973.26
607.128	32182.29
607.485	32222.51
607.843	32382.74
608.2	32895.72
608.557	33133.22
608.914	33263.84
609.272	33525.08
609.629	33909.25
609.986	34064.27
610.343	34178.4
610.7	34572.74
611.057	34691.83
611.414	34808.44
611.771	35083.23
612.127	35345.6
612.484	35465.82
612.841	35799.6
613.198	35794.62
613.554	35932.25
613.911	36264.44
614.267	36550.31
614.624	36543.3
614.98	36817.65
615.337	37093.8
615.693	37222.83
616.05	37260.12
616.406	37510.28
616.762	37693.1
617.118	37692.65
617.475	37949.6
617.831	38139.87
618.187	38246.31
618.543	38399.75
618.899	38710.03
619.255	38682.68
619.611	38862.34
619.967	39071.15
620.323	39180.52
620.678	39159.96
621.034	39188.21
621.39	39255.32
621.746	39345.49
622.101	39890.79
622.457	39608.31
622.812	39756.55
623.168	39996.32
623.523	39961.97
623.879	40131.23
624.234	40000.39
624.589	40277.44
624.945	40361.28
625.3	40344.56
625.655	40425.24
626.01	40517.21
626.365	40742.74
626.72	40742.97
627.075	40689.18
627.43	40688.28
627.785	40843.53
628.14	40949.06
628.495	41060.7
628.85	41122.39
629.205	40961.72
629.559	41283.97
629.914	41105.9
630.269	41184.76
630.623	41200.81
630.978	41133.01
631.332	41357.19
631.687	41422.95
632.041	41234.03
632.396	41423.4
632.75	41286.91
633.104	41567.81
633.459	41267.47
633.813	41408.04
634.167	41294.59
634.521	41311.77
634.875	41429.96
635.229	41298.89
635.583	41142.05
635.937	41353.35
636.291	41422.95
636.645	41439.67
636.999	41235.84
637.352	41554.47
637.706	41296.17
638.06	41464.76
638.413	41377.75
638.767	41313.12
639.121	41459.79
639.474	41221.6
639.828	41194.48
640.181	41300.69
640.534	41267.02
640.888	41283.97
641.241	40988.16
641.594	41155.84
641.947	41229.28
642.301	41280.58
642.654	41190.41
643.007	41337.3
643.36	41167.36
643.713	41135.73
644.066	41365.32
644.419	41016.41
644.771	40863.42
645.124	40597.66
645.477	40443.77
645.83	40178.46
646.182	40127.17
646.535	39981.41
646.888	40122.19
647.24	39841.75
647.593	40043.33
647.945	40070.67
648.298	39895.53
648.65	39888.98
649.002	39830.45
649.355	39961.29
649.707	39893.05
650.059	40005.59
650.411	40474.95
650.763	40644.21
651.115	40833.36
651.467	40808.73
651.819	40710.2
652.171	40628.85
652.523	40632.24
652.875	40545.01
653.227	40456.65
653.578	40869.52
653.93	40544.78
654.282	40457.1
654.633	40423.43
654.985	40404.9
655.337	40502.75
655.688	40598.57
656.039	40662.74
656.391	40442.86
656.742	40451
657.094	40439.25
657.445	40716.98
657.796	40477.21
658.147	40457.78
658.498	40428.63
658.849	40523.31
659.2	40412.58
659.551	40377.55
659.902	40488.06
660.253	40349.76
660.604	40502.07
660.955	40297.1
661.306	40447.16
661.656	40346.59
662.007	40490.55
662.358	40448.06
662.708	40408.97
663.059	40442.64
663.409	40198.35
663.76	40518.34
664.11	40394.95
664.461	40424.33
664.811	40516.53
665.161	40356.54
665.511	40292.58
665.862	40377.1
666.212	40474.73
666.562	40396.08
666.912	40437.67
667.262	40349.08
667.612	40314.73
667.962	40359.02
668.312	40230.44
668.662	40474.05
669.011	40166.71
669.361	40339.14
669.711	40192.25
670.06	40204
670.41	40115.87
670.76	40045.81
671.109	40200.61
671.459	40066.15
671.808	40067.28
672.157	40037.68
672.507	39859.15
672.856	39901.18
673.205	40012.14
673.554	40089.43
673.904	39926.27
674.253	40166.94
674.602	39983.89
674.951	39400.86
675.3	39215.1
675.649	39917.45
675.998	39656.9
676.346	39869.77
676.695	39870.67
677.044	39768.08
677.393	39763.56
677.741	39812.82
678.09	39688.76
678.438	39672.49
678.787	39830.9
679.135	39937.34
679.484	39507.29
679.832	39718.81
680.181	39408.99
680.529	39569.67
680.877	39462.1
681.225	39572.83
681.573	39787.97
681.922	39264.59
682.27	39298.49
682.618	39430.91
682.966	39163.57
683.314	39284.7
683.661	39215.32
684.009	38919.29
684.357	38898.95
684.705	38848.1
685.053	39047.42
685.4	38921.77
685.748	38697.37
686.095	38658.5
686.443	38416.93
686.79	38423.26
687.138	38550.94
687.485	38479.3
687.832	38467.1
688.18	38370.83
688.527	38127.22
688.874	38136.94
689.221	38129.48
689.568	37910.73
689.915	37973.55
690.262	37850.61
690.609	37827.34
690.956	37708.47
691.303	37698.3
691.65	37566.55
691.997	37359.1
692.344	37223.06
692.69	37263.29
693.037	37238.88
693.383	37025.55
693.73	37235.26
694.077	36936.29
694.423	36964.08
694.769	36857.19
695.116	36816.97
695.462	36685.9
695.808	36652.23
696.155	36607.26
696.501	36301.05
696.847	36426.92
697.193	36111.45
697.539	36261.73
697.885	35984.45
698.231	35912.81
698.577	35859.93
698.923	35844.79
699.269	35658.58
699.614	35511.69
699.96	35418.36
700.306	35474.63
700.651	35324.58
700.997	35234.19
701.342	35233.73
701.688	35033.74
702.033	35052.5
702.379	34978.15
702.724	34854.54
703.069	34912.16
703.415	34647.76
703.76	34607.76
704.105	34685.73
704.45	34444.38
704.795	34272.86
705.14	34198.28
705.485	34233.53
705.83	33947.21
706.175	34013.88
706.52	33975.46
706.865	33969.36
707.209	33774.56
707.554	33764.17
707.899	33776.6
708.243	33555.13
708.588	33633.1
708.932	33405.99
709.277	33270.17
709.621	33225.65
709.966	33139.55
710.31	33229.49
710.654	32852.55
710.998	32983.85
711.342	32958.99
711.687	32892.55
712.031	32817.98
712.375	32815.72
712.719	32744.53
713.063	32622.05
713.407	32644.2
713.75	32498.44
714.094	32454.15
714.438	32197.88
714.782	32435.39
715.125	32159.24
715.469	32308.39
715.812	32138
716.156	32071.33
716.499	31949.3
716.843	32047.15
717.186	31819.36
717.53	32067.94
717.873	31890.09
718.216	31766.48
718.559	31647.16
718.902	31558.58
719.246	31675.18
719.589	31512.25
719.932	31433.61
720.275	31368.75
720.617	31314.97
720.96	31177.12
721.303	31171.24
721.646	31184.8
721.989	30957.01
722.331	31097.57
722.674	30988.65
723.016	30948.88
723.359	30910.68
723.701	30964.24
724.044	30746.39
724.386	30664.82
724.729	30879.27
725.071	30855.32
725.413	30702.55
725.755	30566.74
726.097	30600.18
726.439	30443.13
726.782	30409.45
727.124	30601.31
727.465	30393.41
727.807	30352.06
728.149	30282.68
728.491	30081.1
728.833	30241.78
729.175	30150.48
729.516	29985.06
729.858	30028.45
730.199	30081.78
730.541	30069.12
730.882	29970.37
731.224	29923.14
731.565	29751.84
731.906	29804.27
732.248	29956.13
732.589	29696.71
732.93	29555.01
733.271	29630.49
733.612	29619.64
733.953	29598.18
734.294	29483.83
734.635	29456.49
734.976	29425.98
735.317	29311.18
735.658	29366.77
735.999	29387.11
736.339	29310.27
736.68	29245.87
737.021	29146.44
737.361	29124.06
737.702	29284.51
738.042	29045.42
738.383	28948.93
738.723	29113.22
739.063	28924.3
739.404	29013.11
739.744	28921.58
740.084	28820.34
740.424	28877.97
740.764	28802.04
741.104	28915.93
741.444	28672.78
741.784	28684.98
742.124	28777.86
742.464	28661.7
742.804	28652.66
743.143	28538.09
743.483	28531.99
743.823	28382.84
744.162	28257.87
744.502	28320.24
744.841	28320.92
745.181	28453.12
745.52	28238.44
745.86	28201.83
746.199	28132
746.538	28120.7
746.877	28207.03
747.216	28192.11
747.556	28033.02
747.895	28140.14
748.234	27922.51
748.573	27896.3
748.911	27845.91
749.25	27760.48
749.589	27646.82
749.928	27621.05
750.267	27785.12
750.605	27658.11
750.944	27538.12
751.283	27490.66
751.621	27629.87
751.96	27381.51
752.298	27542.64
752.636	27466.26
752.975	27332.02
753.313	27149.65
753.651	27309.2
753.989	27113.5
754.327	27132.48
754.666	27029.2
755.004	27118.24
755.342	27027.4
755.679	27055.19
756.017	26715.77
756.355	26795.09
756.693	26772.26
757.031	26777.01
757.368	26691.36
757.706	26574.3
758.044	26529.33
758.381	26555.77
758.719	26398.03
759.056	26478.94
759.394	26450.01
759.731	26160.98
760.068	26094.99
760.405	26000.76
760.743	26012.96
761.08	26129.12
761.417	25784.27
761.754	25775
762.091	25810.93
762.428	25635.12
762.765	25594.89
763.102	25632.86
763.438	25505.85
763.775	25374.56
764.112	25267.44
764.449	25473.77
764.785	25259.53
765.122	25131.4
765.458	24943.84
765.795	25014.79
766.131	24971.41
766.467	24873.1
766.804	24791.07
767.14	24656.16
767.476	24601.92
767.812	24358.09
768.148	24563.51
768.485	24365.09
768.821	24326
769.157	24294.59
769.492	24231.54
769.828	24038.55
770.164	23909.06
770.5	23787.71
770.836	23787.71
771.171	23701.61
771.507	23715.62
771.842	23516.98
772.178	23476.98
772.513	23475.85
772.849	23404.22
773.184	23205.8
773.519	23265.24
773.855	23131.23
774.19	22937.11
774.525	22922.87
774.86	22852.59
775.195	22839.48
775.53	22836.32
775.865	22665.48
776.2	22463
776.535	22366.73
776.87	22386.39
777.205	22217.13
777.539	22116.34
777.874	22272.72
778.209	22109.56
778.543	21974.42
778.878	21796.12
779.212	21832.05
779.547	21751.6
779.881	21675
780.215	21563.36
780.55	21738.5
780.884	21426.19
781.218	21451.5
781.552	21400.2
781.886	21355.46
782.22	21150.72
782.554	21119.3
782.888	20875.02
783.222	20919.53
783.556	20766.77
783.889	20693.55
784.223	20550.05
784.557	20466.21
784.89	20591.41
785.224	20400.45
785.557	20335.14
785.891	20269.61
786.224	20236.84
786.558	20198.65
786.891	20032.33
787.224	19963.63
787.557	19846.34
787.891	19882.73
788.224	19821.03
788.557	19823.74
788.89	19746.91
789.223	19661.94
789.556	19624.43
789.888	19550.31
790.221	19379.24
790.554	19220.82
790.887	19233.7
791.219	19123.2
791.552	19220.37
791.884	19017.66
792.217	18997.33
792.549	18972.92
792.882	18908.29
793.214	18825.58
793.546	18856.76
793.879	18651.12
794.211	18631.69
794.543	18655.87
794.875	18568.64
795.207	18640.72
795.539	18408.64
795.871	18437.79
796.203	18383.78
796.535	18181.98
796.867	18218.14
797.198	18095.2
797.53	18104.02
797.862	17947.86
798.193	17976.56
798.525	17878.48
798.856	17883.68
799.188	17712.84
799.519	17673.29
799.85	17565.72
800.182	17600.3
800.513	17562.79
800.844	17436.24
801.175	17552.84
801.506	17471.49
801.837	17381.32
802.168	17282.79
802.499	17288.44
802.83	17155.57
803.161	17219.52
803.491	17018.85
803.822	17120.99
804.153	17009.13
804.483	16826.76
804.814	16805.97
805.145	16759.64
805.475	16849.81
805.805	16722.58
806.136	16615.47
806.466	16633.77
806.796	16599.2
807.126	16435.81
807.457	16435.13
807.787	16450.27
808.117	16349.03
808.447	16349.26
808.777	16293.22
809.107	16250.05
809.436	16168.25
809.766	16131.86
810.096	16184.52
810.426	16048.25
810.755	16108.14
811.085	16037.63
811.414	15920.12
811.744	15950.63
812.073	15825.43
812.403	15820.91
812.732	15736.85
813.061	15781.82
813.39	15759.9
813.719	15686.23
814.049	15653.23
814.378	15647.13
814.707	15521.03
815.036	15531.43
815.365	15462.5
815.693	15297.54
816.022	15341.15
816.351	15219.35
816.68	15122.4
817.008	15167.82
817.337	15057.09
817.665	15080.82
817.994	15095.73
818.322	15069.29
818.651	15017.99
818.979	14945.68
819.307	15007.15
819.636	14978.22
819.964	14870.88
820.292	14953.36
820.62	14878.56
820.948	14894.83
821.276	14851.22
821.604	14820.49
821.932	14795.18
822.259	14802.86
822.587	14805.12
822.915	14791.56
823.243	14818.45
823.57	14748.4
823.898	14768.51
824.225	14758.57
824.553	14710.88
824.88	14731.22
825.207	14765.8
825.535	14775.97
825.862	14732.13
826.189	14672.02
826.516	14820.03
826.843	14789.07
827.17	14771.22
827.497	14827.04
827.824	14700.72
828.151	14756.53
828.478	14667.95
828.805	14784.78
829.131	14756.76
829.458	14745.23
829.785	14623.2
830.111	14645.35
830.438	14725.57
830.764	14669.08
831.09	14697.78
831.417	14576.42
831.743	14670.21
832.069	14673.15
832.395	14616.88
832.722	14692.81
833.048	14568.97
833.374	14629.76
833.7	14478.8
834.026	14572.58
834.351	14612.58
834.677	14493.26
835.003	14530.78
835.329	14479.25
835.654	14458.69
835.98	14444.22
836.306	14517.67
836.631	14422.98
836.956	14423.66
837.282	14461.63
837.607	14381.18
837.932	14368.07
838.258	14297.79
838.583	14271.12
838.908	14185.47
839.233	14192.71
839.558	14236.55
839.883	14120.17
840.208	14099.6
840.533	14110.9
840.858	14057.57
841.182	14061.41
841.507	14047.4
841.832	14037
842.156	13982.99
842.481	13957.91
842.805	13934.63
843.13	13881.3
843.454	13896.89
843.778	13811.47
844.103	13727.18
844.427	13783.45
844.751	13794.98
845.075	13774.41
845.399	13707.75
845.723	13635.88
846.047	13619.84
846.371	13572.16
846.695	13502.55
847.019	13353.86
847.343	13316.12
847.666	13312.96
847.99	13194.31
848.313	13220.53
848.637	13159.06
848.96	13150.93
849.284	13042.91
849.607	12992.96
849.931	12949.8
850.254	12930.59
850.577	12772.86
850.9	12645.63
851.223	12709.58
851.546	12574.9
851.869	12537.61
852.192	12638.4
852.515	12471.17
852.838	12465.97
853.161	12454.67
853.483	12404.96
853.806	12385.52
854.129	12350.95
854.451	12317.05
854.774	12250.16
855.096	12153.66
855.419	12132.2
855.741	12147.11
856.063	12115.25
856.385	12013.55
856.708	11966.78
857.03	11915.48
857.352	11894.46
857.674	11887
857.996	11808.36
858.318	11779.44
858.64	11827.34
858.961	11681.81
859.283	11705.09
859.605	11678.42
859.926	11613.79
860.248	11521.59
860.57	11601.14
860.891	11585.54
861.212	11438.43
861.534	11540.12
861.855	11481.82
862.176	11440.24
862.498	11427.35
862.819	11368.15
863.14	11390.75
863.461	11354.36
863.782	11303.52
864.103	11345.1
864.424	11275.27
864.745	11256.74
865.065	11232.11
865.386	11212.45
865.707	11212.67
866.027	11227.13
866.348	11141.03
866.668	11151.88
866.989	11126.57
867.309	11106.91
867.63	11099.23
867.95	11159.11
868.27	11011.55
868.59	11061.26
868.91	10921.38
869.23	11016.07
869.55	10895.62
869.87	11004.09
870.19	10981.49
870.51	10977.42
870.83	10950.08
871.15	10918.89
871.469	10794.15
871.789	10827.37
872.109	10842.06
872.428	10758.9
872.748	10776.75
873.067	10776.98
873.386	10815.39
873.706	10748.28
874.025	10684.1
874.344	10742.4
874.663	10696.3
874.982	10628.28
875.301	10647.71
875.62	10607.04
875.939	10578.56
876.258	10569.07
876.577	10532.69
876.896	10545.57
877.214	10468.96
877.533	10541.5
877.852	10574.72
878.17	10410.66
878.489	10469.87
878.807	10518.23
879.125	10441.17
879.444	10470.09
879.762	10418.57
880.08	10387.38
880.398	10336.76
880.716	10420.38
881.034	10283.2
881.352	10318.91
881.67	10254.05
881.988	10344.67
882.306	10249.76
882.624	10222.19
882.941	10144.22
883.259	10166.37
883.577	10117.78
883.894	10147.39
884.212	10011.57
884.529	10076.2
884.846	10014.74
885.164	9949.43
885.481	9961.4
885.798	10019.03
886.115	9979.94
886.432	9991.69
886.75	9836.66
887.067	9882.54
887.383	9874.4
887.7	9880.28
888.017	9791.47
888.334	9822.2
888.651	9818.81
888.967	9757.34
889.284	9701.75
889.6	9715.54
889.917	9665.82
890.233	9634.63
890.55	9576.1
890.866	9606.39
891.182	9596.22
891.498	9538.59
891.815	9502.66
892.131	9470.12
892.447	9420.63
892.763	9424.47
893.079	9392.83
893.395	9356
893.71	9345.83
894.026	9306.05
894.342	9328.2
894.657	9267.64
894.973	9262.67
895.289	9233.29
895.604	9234.87
895.92	9122.1
896.235	9074.65
896.55	9085.5
896.865	9102.22
897.181	9046.17
897.496	9011.37
897.811	8926.86
898.126	8962.33
898.441	8884.6
898.756	8833.75
899.071	8763.92
899.386	8824.94
899.7	8722.79
900.015	8692.06
900.33	8669.91
900.644	8651.38
900.959	8615.68
901.273	8670.59
901.588	8565.96
901.902	8560.09
902.216	8480.09
902.531	8488.9
902.845	8395.57
903.159	8375.68
903.473	8376.36
903.787	8341.33
904.101	8309.24
904.415	8280.77
904.729	8311.96
905.042	8174.33
905.356	8166.65
905.67	8182.24
905.984	8173.66
906.297	8132.98
906.611	8040.1
906.924	8094.11
907.237	7984.28
907.551	7995.13
907.864	7960.78
908.177	7944.73
908.491	7906.09
908.804	7864.51
909.117	7859.77
909.43	7787.9
909.743	7731.63
910.056	7695.93
910.368	7717.62
910.681	7667.45
910.994	7620
911.307	7595.37
911.619	7523.73
911.932	7508.14
912.244	7529.38
912.557	7477.18
912.869	7438.53
913.181	7366.67
913.494	7446.67
913.806	7352.89
914.118	7387.24
914.43	7324.19
914.742	7269.27
915.054	7247.35
915.366	7297.75
915.678	7189.27
915.99	7206.9
916.302	7168.71
916.613	7066.34
916.925	7058.43
917.236	7002.39
917.548	7033.8
917.859	6995.38
918.171	7014.59
918.482	6877.42
918.794	6880.81
919.105	6903.63
919.416	6849.4
919.727	6815.05
920.038	6837.19
920.349	6730.76
920.66	6690.53
920.971	6660.25
921.282	6646.92
921.593	6636.97
921.903	6626.35
922.214	6573.47
922.525	6566.92
922.835	6540.03
923.146	6447.82
923.456	6461.61
923.767	6439.24
924.077	6476.52
924.387	6427.71
924.697	6347.04
925.008	6323.76
925.318	6297.55
925.628	6318.56
925.938	6251.67
926.248	6252.35
926.558	6278.34
926.867	6194.5
927.177	6117.44
927.487	6154.05
927.796	6047.38
928.106	6045.58
928.416	6019.36
928.725	6015.07
929.034	5963.77
929.344	5972.58
929.653	5984.79
929.962	5919.25
930.271	5899.36
930.581	5845.13
930.89	5801.51
931.199	5779.14
931.508	5774.17
931.817	5808.52
932.125	5764.68
932.434	5711.35
932.743	5680.84
933.051	5672.48
933.36	5663.44
933.669	5637.45
933.977	5614.85
934.286	5599.26
934.594	5584.57
934.902	5545.93
935.21	5542.76
935.519	5475.2
935.827	5469.55
936.135	5451.24
936.443	5408.08
936.751	5432.71
937.059	5371.47
937.367	5319.04
937.674	5344.13
937.982	5287.86
938.29	5277.91
938.597	5276.33
938.905	5211.93
939.213	5188.87
939.52	5176.45
939.827	5192.94
940.135	5127.86
940.442	5172.15
940.749	5121.76
941.056	5099.39
941.363	5045.15
941.67	5049.44
941.977	5012.16
942.284	4927.19
942.591	4987.3
942.898	4951.82
943.205	4970.35
943.511	4921.54
943.818	4897.58
944.125	4865.72
944.431	4865.27
944.738	4876.57
945.044	4785.72
945.35	4802.44
945.657	4763.12
945.963	4723.8
946.269	4703.01
946.575	4707.53
946.881	4684.03
947.187	4643.13
947.493	4654.43
947.799	4607.65
948.105	4598.16
948.41	4547.99
948.716	4615.78
949.022	4512.73
949.327	4535.11
949.633	4438.84
949.938	4497.59
950.244	4471.38
950.549	4420.08
950.854	4386.86
951.16	4479.06
951.465	4380.99
951.77	4384.38
952.075	4377.14
952.38	4313.87
952.685	4353.64
952.99	4290.82
953.294	4312.97
953.599	4243.36
953.904	4227.77
954.209	4258.96
954.513	4200.43
954.818	4202.91
955.122	4166.75
955.426	4187.32
955.731	4095.12
956.035	4112.97
956.339	4115.68
956.643	4087.66
956.948	4008.79
957.252	4040.2
957.556	4035.01
957.86	4007.44
958.163	3992.75
958.467	3952.52
958.771	3964.73
959.075	3928.57
959.378	3928.8
959.682	3925.18
959.985	3893.99
960.289	3850.15
960.592	3858.97
960.896	3846.76
961.199	3838.85
961.502	3790.95
961.805	3762.92
962.108	3777.39
962.411	3744.17
962.714	3711.85
963.017	3722.92
963.32	3702.59
963.623	3715.24
963.926	3663.04
964.228	3624.4
964.531	3651.29
964.833	3623.72
965.136	3649.71
965.438	3566.09
965.741	3574.91
966.043	3588.24
966.345	3583.72
966.648	3524.51
966.95	3530.61
967.252	3507.79
967.554	3467.56
967.856	3459.2
968.158	3429.6
968.46	3437.28
968.761	3399.09
969.063	3440.9
969.365	3404.97
969.666	3378.08
969.968	3371.97
970.269	3333.78
970.571	3335.59
970.872	3324.52
971.174	3308.92
971.475	3254.91
971.776	3291.98
972.077	3289.94
972.378	3279.77
972.679	3255.82
972.98	3205.2
973.281	3230.28
973.582	3220.79
973.883	3193
974.183	3194.8
974.484	3144.18
974.785	3151.41
975.085	3159.1
975.386	3105.77
975.686	3091.75
975.986	3095.6
976.287	3052.66
976.587	3064.86
976.887	3040
977.187	3050.17
977.487	3044.3
977.787	3006.33
978.087	2976.73
978.387	2953.91
978.687	2934.47
978.987	2944.87
979.286	2911.87
979.586	2932.89
979.885	2877.75
980.185	2926.56
980.484	2855.83
980.784	2874.59
981.083	2844.3
981.382	2840.46
981.682	2846.34
981.981	2835.49
982.28	2826.45
982.579	2776.96
982.878	2785.55
983.177	2738.09
983.475	2781.25
983.774	2766.57
984.073	2788.26
984.372	2682.95
984.67	2724.53
984.969	2709.84
985.267	2705.78
985.566	2676.17
985.864	2688.6
986.162	2617.87
986.461	2645.89
986.759	2620.13
987.057	2611.09
987.355	2618.55
987.653	2604.08
987.951	2601.37
988.249	2555.5
988.547	2550.07
988.844	2558.44
989.142	2550.07
989.44	2485.44
989.737	2481.38
990.035	2517.98
990.332	2468.04
990.63	2464.43
990.927	2459.23
991.224	2442.28
991.521	2414.94
991.819	2421.26
992.116	2419.68
992.413	2415.61
992.71	2395.05
993.006	2400.7
993.303	2366.12
993.6	2387.14
993.897	2368.38
994.193	2358.44
994.49	2329.97
994.787	2327.26
995.083	2324.09
995.379	2281.83
995.676	2326.13
995.972	2291.32
996.268	2246.81
996.565	2257.88
996.861	2249.07
997.157	2203.42
997.453	2213.59
997.749	2197.32
998.044	2201.61
998.34	2181.5
998.636	2193.25
998.932	2168.62
999.227	2146.69
999.523	2155.28
999.818	2159.58
1000.114	2127.94
1000.409	2124.77
1000.704	2110.99
1001	2101.72
1001.295	2061.73
1001.59	2087.94
1001.885	2067.83
1002.18	2052.91
1002.475	2048.84
1002.77	2020.82
1003.065	2036.87
1003.359	2024.89
1003.654	2017.43
1003.949	1960.49
1004.243	1974.27
1004.538	1950.54
1004.832	1933.37
1005.127	1965.91
1005.421	1947.38
1005.715	1916.19
1006.009	1944.21
1006.304	1904.44
1006.598	1915.51
1006.892	1885.23
1007.186	1870.32
1007.48	1849.3
1007.773	1820.6
1008.067	1880.94
1008.361	1778.34
1008.655	1821.96
1008.948	1793.94
1009.242	1809.08
1009.535	1779.02
1009.829	1762.98
1010.122	1773.15
1010.415	1770.21
1010.708	1742.19
1011.001	1742.19
1011.295	1732.69
1011.588	1696.31
1011.881	1720.49
1012.173	1705.58
1012.466	1688.85
1012.759	1699.25
1013.052	1680.49
1013.344	1654.73
1013.637	1651.57
1013.93	1634.39
1014.222	1610.66
1014.514	1611.79
1014.807	1602.98
1015.099	1571.79
1015.391	1594.17
1015.683	1603.43
1015.976	1568.18
1016.268	1547.61
1016.56	1526.82
1016.851	1530.44
1017.143	1511.68
1017.435	1536.32
1017.727	1502.19
1018.018	1523.21
1018.31	1477.79
1018.602	1486.83
1018.893	1442.31
1019.185	1506.71
1019.476	1470.78
1019.767	1456.77
1020.058	1431.46
1020.35	1419.48
1020.641	1383.1
1020.932	1422.19
1021.223	1436.43
1021.514	1376.55
1021.804	1375.19
1022.095	1350.33
1022.386	1386.04
1022.677	1363.89
1022.967	1320.28
1023.258	1336.09
1023.548	1353.72
1023.839	1300.16
1024.129	1295.87
1024.419	1307.62
1024.709	1292.25
1025	1285.7
1025.29	1300.16
1025.58	1280.73
1025.87	1265.59
1026.16	1226.04
1026.449	1280.05
1026.739	1284.12
1027.029	1234.18
1027.319	1244.8
1027.608	1224.91
1027.898	1199.15
1028.187	1185.36
1028.477	1198.25
1028.766	1157.79
1029.055	1198.92
1029.344	1177.45
1029.634	1195.08
1029.923	1157.12
1030.212	1163.9
1030.501	1153.27
1030.79	1129.77
1031.078	1130.45
1031.367	1115.08
1031.656	1119.6
1031.945	1111.02
1032.233	1091.58
1032.522	1076.44
1032.81	1091.13
1033.099	1075.54
1033.387	1053.84
1033.675	1075.99
1033.963	1080.96
1034.251	1063.56
1034.54	1040.96
1034.828	1033.96
1035.116	1042.32
1035.403	1035.31
1035.691	1031.24
1035.979	999.38
1036.267	1018.82
1036.554	1000.51
1036.842	993.05
1037.129	971.36
1037.417	976.56
1037.704	1002.54
1037.992	961.87
1038.279	981.53
1038.566	968.87
1038.853	968.87
1039.14	968.87
