Data from hue_70_FLMS001491_65.txt Node
Date: Mon Feb 06 15:21:16 GMT 2017
User: dcchb
Spectrometer: FLMS00149
Trigger mode: 0
Integration Time (sec): 2.000000E-2
Scans to average: 10
Electric dark correction enabled: true
Nonlinearity correction enabled: false
Boxcar width: 0
XAxis mode: Wavelengths
Number of Pixels in Spectrum: 2048
>>>>>Begin Spectral Data<<<<<
341.393	-33.43
341.776	-33.43
342.16	-33.43
342.543	-66.65
342.927	-76.82
343.31	-74.79
343.693	-59.42
344.077	-70.72
344.46	-83.15
344.843	-51.28
345.226	-40.89
345.61	-26.43
345.993	-17.16
346.376	-3.38
346.759	21.93
347.142	33.46
347.525	44.98
347.908	46.11
348.291	83.18
348.674	94.47
349.057	103.06
349.44	147.13
349.823	138.54
350.206	167.24
350.588	207.69
350.971	182.38
351.354	225.54
351.737	215.6
352.119	231.87
352.502	257.86
352.884	281.81
353.267	266.67
353.65	280.68
354.032	293.11
354.414	305.32
354.797	308.25
355.179	321.81
355.562	328.14
355.944	323.17
356.326	356.39
356.709	346.67
357.091	334.24
357.473	354.36
357.855	344.64
358.238	332.89
358.62	349.84
359.002	338.54
359.384	340.8
359.766	336.73
360.148	336.95
360.53	334.69
360.912	344.64
361.294	335.15
361.676	354.81
362.057	326.56
362.439	348.93
362.821	319.78
363.203	338.08
363.584	330.17
363.966	303.51
364.348	308.25
364.729	321.59
365.111	328.14
365.493	309.38
365.874	305.32
366.256	305.77
366.637	328.59
367.019	324.07
367.4	316.62
367.781	321.59
368.163	308.25
368.544	308.48
368.925	298.54
369.306	320.68
369.688	317.75
370.069	311.19
370.45	306.9
370.831	325.66
371.212	338.76
371.593	306.67
371.974	310.74
372.355	322.27
372.736	325.88
373.117	294.24
373.498	307.58
373.879	315.71
374.26	305.09
374.641	307.12
375.021	315.26
375.402	312.1
375.783	331.76
376.163	332.43
376.544	315.94
376.925	305.99
377.305	314.13
377.686	325.2
378.066	328.82
378.447	332.66
378.827	341.93
379.208	321.59
379.588	306.45
379.968	328.37
380.349	333.11
380.729	332.43
381.109	331.08
381.489	323.4
381.87	353.23
382.25	333.79
382.63	350.74
383.01	315.94
383.39	341.25
383.77	348.25
384.15	359.1
384.53	338.99
384.91	361.36
385.29	352.1
385.67	351.87
386.049	350.06
386.429	358.2
386.809	345.77
387.189	353.45
387.568	354.36
387.948	349.38
388.328	367.91
388.707	354.58
389.087	359.55
389.466	369.27
389.846	382.6
390.225	351.64
390.605	350.29
390.984	355.03
391.363	353.23
391.743	369.5
392.122	354.58
392.501	353.23
392.881	376.05
393.26	369.72
393.639	362.72
394.018	374.02
394.397	370.17
394.776	390.74
395.155	391.64
395.534	389.38
395.913	383.51
396.292	382.83
396.671	393.68
397.05	397.52
397.429	356.39
397.808	384.64
398.186	375.15
398.565	390.29
398.944	387.8
399.323	398.2
399.701	410.62
400.08	388.93
400.458	367.01
400.837	390.06
401.215	396.16
401.594	402.49
401.972	413.11
402.351	399.78
402.729	400
403.107	391.42
403.486	409.95
403.864	406.11
404.242	403.62
404.62	383.51
404.999	412.43
405.377	404.98
405.755	409.27
406.133	414.01
406.511	406.56
406.889	409.04
407.267	413.11
407.645	414.47
408.023	411.75
408.401	430.06
408.779	404.07
409.156	426.44
409.534	397.74
409.912	422.38
410.29	441.13
410.667	442.94
411.045	429.16
411.422	433.45
411.8	455.37
412.178	467.57
412.555	434.8
412.933	474.8
413.31	439.32
413.687	451.08
414.065	451.53
414.442	457.18
414.819	464.41
415.197	499.66
415.574	468.7
415.951	482.94
416.328	487.68
416.705	476.16
417.082	460.57
417.46	473.45
417.837	474.35
418.214	481.58
418.591	497.4
418.967	490.85
419.344	485.88
419.721	498.08
420.098	492.88
420.475	512.99
420.852	504.41
421.228	509.38
421.605	518.64
421.982	520.68
422.358	515.93
422.735	511.41
423.111	518.19
423.488	540.79
423.864	530.85
424.241	520.68
424.617	518.64
424.994	540.34
425.37	533.56
425.746	545.31
426.123	535.14
426.499	553.9
426.875	554.58
427.251	561.13
427.627	579.21
428.003	552.09
428.379	582.37
428.756	569.04
429.132	588.02
429.507	588.25
429.883	578.3
430.259	588.02
430.635	600.45
431.011	595.7
431.387	615.37
431.763	628.25
432.138	620.11
432.514	642.48
432.89	611.52
433.265	622.82
433.641	647.45
434.016	645.42
434.392	640.22
434.767	649.04
435.143	650.62
435.518	671.41
435.894	675.25
436.269	666.44
436.644	678.87
437.02	679.54
437.395	674.12
437.77	699.2
438.145	672.76
438.52	691.07
438.895	710.05
439.271	704.4
439.646	715.25
440.021	722.48
440.395	718.19
440.77	720
441.145	731.75
441.52	725.87
441.895	719.54
442.27	746.66
442.645	740.11
443.019	735.14
443.394	749.15
443.769	754.8
444.143	764.74
444.518	771.97
444.892	756.83
445.267	763.16
445.641	763.38
446.016	768.81
446.39	783.27
446.764	785.76
447.139	769.26
447.513	778.3
447.887	787.56
448.262	812.87
448.636	803.38
449.01	797.51
449.384	831.4
449.758	841.57
450.132	812.2
450.506	842.93
450.88	832.31
451.254	831.4
451.628	859.88
452.002	857.17
452.376	825.98
452.75	863.95
453.123	863.04
453.497	895.13
453.871	890.39
454.244	908.24
454.618	909.14
454.992	941.23
455.365	930.16
455.739	943.27
456.112	945.53
456.486	938.97
456.859	962.47
457.232	972.64
457.606	969.93
457.979	996.37
458.352	992.3
458.725	1030.27
459.099	1003.15
459.472	1052.87
459.845	1052.42
460.218	1026.88
460.591	1062.59
460.964	1064.84
461.337	1099.65
461.71	1081.12
462.083	1100.78
462.456	1118.63
462.829	1119.08
463.201	1144.16
463.574	1144.16
463.947	1153.2
464.32	1180.77
464.692	1186.2
465.065	1227.78
465.438	1220.77
465.81	1256.25
466.183	1270.49
466.555	1294.67
466.928	1302.8
467.3	1315.23
467.672	1316.59
468.045	1373.09
468.417	1406.3
468.789	1411.28
469.161	1397.72
469.534	1430.94
469.906	1479.75
470.278	1486.75
470.65	1504.16
471.022	1557.04
471.394	1567.88
471.766	1573.98
472.138	1634.1
472.51	1666.86
472.882	1731.49
473.253	1697.6
473.625	1752.96
473.997	1785.73
474.369	1817.14
474.74	1894.88
475.112	1913.64
475.484	1947.53
475.855	2006.06
476.227	2017.81
476.598	2080.19
476.97	2163.8
477.341	2184.14
477.713	2254.64
478.084	2266.4
478.455	2400.4
478.827	2419.39
479.198	2514.3
479.569	2538.48
479.94	2659.61
480.311	2701.64
480.682	2768.3
481.053	2865.7
481.424	2947.96
481.795	3037.9
482.166	3079.71
482.537	3153.6
482.908	3239.25
483.279	3355.41
483.65	3437.44
484.021	3542.52
484.391	3601.5
484.762	3729.41
485.133	3805.56
485.503	3928.5
485.874	4032.45
486.244	4147.25
486.615	4244.2
486.985	4364.87
487.356	4576.39
487.726	4613.45
488.097	4819.55
488.467	4844.86
488.837	5011.63
489.207	5109.94
489.578	5262.7
489.948	5361.91
490.318	5543.6
490.688	5626.08
491.058	5759.64
491.428	5954.21
491.798	6027.88
492.168	6252.51
492.538	6325.5
492.908	6447.3
493.278	6592.84
493.648	6725.94
494.017	6851.59
494.387	7004.58
494.757	7128.64
495.126	7282.31
495.496	7360.5
495.866	7508.07
496.235	7726.36
496.605	7841.62
496.974	7998
497.344	8108.95
497.713	8181.72
498.082	8385.33
498.452	8517.53
498.821	8641.59
499.19	8722.5
499.559	8872.32
499.928	9043.84
500.298	9118.19
500.667	9299.88
501.036	9324.51
501.405	9599.76
501.774	9612.87
502.143	9717.5
502.512	9875.91
502.88	9985.29
503.249	10072.97
503.618	10206.98
503.987	10253.08
504.356	10430.7
504.724	10534.2
505.093	10581.43
505.462	10680.19
505.83	10877.24
506.199	11013.06
506.567	11160.4
506.936	11237.46
507.304	11381.41
507.672	11475.42
508.041	11606.49
508.409	11746.82
508.777	11820.72
509.145	11950.43
509.514	12011.22
509.882	12110.66
510.25	12191.11
510.618	12286.7
510.986	12396.52
511.354	12610.98
511.722	12692.34
512.09	12822.05
512.458	12784.08
512.826	12965.1
513.193	13177.75
513.561	13174.36
513.929	13256.16
514.297	13360.11
514.664	13488.25
515.032	13581.13
515.4	13712.65
515.767	13654.34
516.135	13840.78
516.502	13771.18
516.869	14014.56
517.237	14088.68
517.604	14094.56
517.972	14270.15
518.339	14375
518.706	14405.29
519.073	14520.99
519.44	14560.54
519.808	14752.39
520.175	14750.59
520.542	14981.32
520.909	15020.86
521.276	14987.19
521.643	15174.53
522.009	15300.85
522.376	15382.43
522.743	15354.86
523.11	15646.61
523.477	15715.76
523.843	15781.07
524.21	16017.9
524.577	16107.39
524.943	16006.37
525.31	16156.2
525.676	16258.8
526.043	16372.24
526.409	16455.4
526.776	16626.7
527.142	16637.32
527.508	16697.2
527.874	16822.62
528.241	16913.47
528.607	16925.67
528.973	17030.07
529.339	17044.31
529.705	17207.47
530.071	17309.16
530.437	17329.5
530.803	17496.96
531.169	17512.77
531.535	17484.07
531.901	17547.58
532.267	17641.81
532.632	17684.29
532.998	17657.63
533.364	17827.34
533.73	17799.32
534.095	17893.1
534.461	18028.01
534.826	18068.69
535.192	18157.5
535.557	18122.93
535.923	18085.64
536.288	18209.7
536.653	18262.36
537.019	18211.96
537.384	18341.9
537.749	18382.58
538.114	18284.51
538.479	18285.18
538.845	18384.84
539.21	18395.24
539.575	18496.7
539.94	18520.66
540.305	18519.08
540.67	18460.55
541.034	18523.59
541.399	18615.8
541.764	18652.41
542.129	18630.48
542.494	18738.5
542.858	18623.71
543.223	18766.53
543.587	18786.41
543.952	18849.01
544.316	18828.67
544.681	18735.11
545.045	18874.77
545.41	18947.09
545.774	18865.51
546.138	18923.13
546.503	18875.22
546.867	18953.64
547.231	19100.08
547.595	18971.72
547.959	19102.11
548.324	19018.27
548.688	18973.53
549.052	19065.5
549.416	18970.81
549.779	19048.78
550.143	19113.41
550.507	19110.7
550.871	19146.4
551.235	19317.47
551.599	19355.89
551.962	19222.79
552.326	19284.7
552.689	19406.28
553.053	19447.64
553.417	19365.83
553.78	19627.75
554.143	19433.18
554.507	19571.93
554.87	19556.11
555.234	19696.9
555.597	19586.17
555.96	19640.85
556.323	19692.6
556.686	19720.17
557.05	19854.41
557.413	19749.55
557.776	19829.78
558.139	19996.78
558.502	19970.79
558.865	19978.25
559.228	20044.01
559.59	20106.38
559.953	20220.05
560.316	20351.8
560.679	20349.99
561.041	20458.01
561.404	20425.92
561.767	20472.24
562.129	20364.68
562.492	20672.01
562.854	20619.81
563.217	20527.16
563.579	20667.72
563.941	20774.84
564.304	20737.77
564.666	20897.32
565.028	20917.66
565.39	21002.4
565.753	21062.74
566.115	21172.34
566.477	21172.11
566.839	21293.24
567.201	21333.01
567.563	21249.17
567.925	21426.34
568.287	21455.72
568.648	21501.37
569.01	21641.25
569.372	21709.27
569.734	21596.96
570.095	21758.76
570.457	21854.58
570.819	21719.9
571.18	21885.77
571.542	21942.26
571.903	22062.26
572.265	22022.94
572.626	22084.86
572.987	22008.02
573.349	22208.02
573.71	22353.78
574.071	22253.21
574.432	22375.25
574.794	22532.75
575.155	22350.84
575.516	22403.72
575.877	22532.53
576.238	22489.59
576.599	22525.07
576.96	22557.84
577.32	22516.03
577.681	22645.52
578.042	22728.91
578.403	22690.26
578.763	22773.65
579.124	22740.66
579.485	22728.46
579.845	22812.75
580.206	22764.39
580.566	22733.2
580.927	22848.23
581.287	22937.94
581.648	22732.52
582.008	22951.5
582.368	22922.8
582.728	22928.22
583.089	22924.61
583.449	22952.63
583.809	22947.43
584.169	22906.53
584.529	22918.96
584.889	23127.09
585.249	22866.08
585.609	22938.39
585.969	22963.25
586.329	22887.32
586.688	23010.26
587.048	22929.13
587.408	22898.17
587.768	22915.34
588.127	22902.69
588.487	22810.94
588.846	23074.89
589.206	22867.21
589.565	22767.55
589.925	22986.75
590.284	22894.55
590.643	22999.64
591.003	22958.28
591.362	22978.84
591.721	22955.12
592.08	22974.78
592.44	23035.11
592.799	22948.79
593.158	22858.4
593.517	22925.06
593.876	23006.64
594.235	22927.77
594.593	22968.45
594.952	22978.17
595.311	22917.38
595.67	23002.8
596.029	23184.26
596.387	23119.86
596.746	23153.76
597.104	22972.74
597.463	23058.84
597.822	23136.58
598.18	22914.89
598.538	22993.53
598.897	23197.6
599.255	23050.48
599.613	23281.89
599.972	23139.97
600.33	23139.52
600.688	23047.09
601.046	23204.15
601.404	23335.67
601.762	23278.95
602.12	23342
602.478	23333.19
602.836	23358.95
603.194	23201.66
603.552	23279.4
603.91	23213.42
604.268	23347.65
604.625	23255
604.983	23329.12
605.341	23198.05
605.698	23339.51
606.056	23296.12
606.413	23374.54
606.771	23469.68
607.128	23457.48
607.485	23324.6
607.843	23508.32
608.2	23481.88
608.557	23590.58
608.914	23530.24
609.272	23735.44
609.629	23694.31
609.986	23700.63
610.343	23564.37
610.7	23915.32
611.057	23721.65
611.414	23758.94
611.771	23761.65
612.127	23840.29
612.484	23815.43
612.841	23967.29
613.198	23876
613.554	23829.44
613.911	23992.6
614.267	23870.8
614.624	24035.99
614.98	24111.92
615.337	24061.08
615.693	24018.14
616.05	24155.76
616.406	24248.64
616.762	24156.44
617.118	24055.43
617.475	24235.08
617.831	24287.74
618.187	24310.11
618.543	24318.47
618.899	24422.65
619.255	24417.23
619.611	24345.59
619.967	24422.65
620.323	24464
620.678	24425.59
621.034	24384.46
621.39	24351.46
621.746	24350.56
622.101	24696.99
622.457	24384.91
622.812	24582.87
623.168	24515.53
623.523	24533.83
623.879	24625.36
624.234	24493.38
624.589	24568.41
624.945	24652.02
625.3	24684.56
625.655	24635.52
626.01	24682.98
626.365	24572.25
626.72	24539.26
627.075	24589.65
627.43	24591.91
627.785	24497.9
628.14	24485.47
628.495	24619.93
628.85	24678.91
629.205	24479.82
629.559	24536.77
629.914	24586.71
630.269	24558.46
630.623	24581.97
630.978	24430.78
631.332	24564.57
631.687	24633.04
632.041	24616.77
632.396	24598.92
632.75	24463.55
633.104	24506.49
633.459	24338.13
633.813	24410.45
634.167	24378.81
634.521	24346.94
634.875	24359.83
635.229	24326.38
635.583	24320.96
635.937	24318.7
636.291	24175.65
636.645	24161.41
636.999	24216.55
637.352	24331.58
637.706	24136.78
638.06	24289.09
638.413	24047.74
638.767	24077.57
639.121	24118.02
639.474	24049.1
639.828	24051.59
640.181	24055.88
640.534	24142.66
640.888	23962.77
641.241	23968.2
641.594	23955.32
641.947	24042.55
642.301	24077.8
642.654	23859.73
643.007	23904.47
643.36	23856.34
643.713	23855.21
644.066	23887.07
644.419	23789.67
644.771	23716.9
645.124	23437.14
645.477	23370.02
645.83	23371.38
646.182	23192.17
646.535	23130.25
646.888	23115.11
647.24	22949.47
647.593	23118.28
647.945	22977.26
648.298	22990.14
648.65	22937.94
649.002	22932.74
649.355	22929.35
649.707	22949.69
650.059	23092.97
650.411	23429.68
650.763	23369.57
651.115	23636.45
651.467	23583.57
651.819	23552.62
652.171	23567.53
652.523	23586.74
652.875	23460.87
653.227	23380.42
653.578	23572.5
653.93	23539.28
654.282	23474.43
654.633	23335.9
654.985	23488.21
655.337	23372.73
655.688	23400.53
656.039	23384.71
656.391	23365.73
656.742	23371.83
657.094	23335.67
657.445	23376.57
657.796	23395.78
658.147	23340.42
658.498	23284.83
658.849	23389
659.2	23416.57
659.551	23321.43
659.902	23486.18
660.253	23385.61
660.604	23467.87
660.955	23293.41
661.306	23436.01
661.656	23339.29
662.007	23397.82
662.358	23404.37
662.708	23354.88
663.059	23417.25
663.409	23332.28
663.76	23389.68
664.11	23386.74
664.461	23357.82
664.811	23402.56
665.161	23366.63
665.511	23344.94
665.862	23379.06
666.212	23428.1
666.562	23323.69
666.912	23373.64
667.262	23348.1
667.612	23390.59
667.962	23404.37
668.312	23211.61
668.662	23401.21
669.011	23313.53
669.361	23319.4
669.711	23279.4
670.06	23325.95
670.41	23231.72
670.76	23280.31
671.109	23302.68
671.459	23174.55
671.808	23184.26
672.157	23271.49
672.507	23106.53
672.856	23155.79
673.205	23240.76
673.554	23276.24
673.904	23145.17
674.253	23246.86
674.602	23142.91
674.951	22819.75
675.3	22681.45
675.649	23109.01
675.998	22953.08
676.346	22986.3
676.695	23151.5
677.044	22880.54
677.393	22994.89
677.741	23011.16
678.09	22963.48
678.438	22921.9
678.787	22898.62
679.135	22932.97
679.484	22693.88
679.832	22759.19
680.181	22654.56
680.529	22692.75
680.877	22630.83
681.225	22606.65
681.573	22701.56
681.922	22522.59
682.27	22638.97
682.618	22464.96
682.966	22485.3
683.314	22525.07
683.661	22394.45
684.009	22390.16
684.357	22249.37
684.705	22267.23
685.053	22243.95
685.4	22244.63
685.748	22139.32
686.095	22127.12
686.443	22092.09
686.79	22031.3
687.138	22098.19
687.485	22034.46
687.832	21901.36
688.18	21907.91
688.527	21835.37
688.874	21889.16
689.221	21750.63
689.568	21673.79
689.915	21632.21
690.262	21624.98
690.609	21559.45
690.956	21543.4
691.303	21567.81
691.65	21332.56
691.997	21220.25
692.344	21173.02
692.69	21168.95
693.037	21199.23
693.383	20951.33
693.73	21174.37
694.077	20996.3
694.423	20955.85
694.769	20818
695.116	20716.98
695.462	20757.21
695.808	20742.07
696.155	20703.42
696.501	20598.34
696.847	20473.6
697.193	20390.66
697.539	20503.66
697.885	20294.62
698.231	20227.28
698.577	20185.92
698.923	20182.76
699.269	20082.2
699.614	19938.02
699.96	19832.94
700.306	19864.8
700.651	19713.62
700.997	19713.62
701.342	19729.21
701.688	19592.72
702.033	19469.78
702.379	19510.24
702.724	19454.42
703.069	19473.63
703.415	19222.56
703.76	19274.08
704.105	19284.25
704.45	19149.79
704.795	19128.1
705.14	19078.16
705.485	19043.13
705.83	18916.8
706.175	18961.78
706.52	18922.23
706.865	18718.62
707.209	18833.64
707.554	18752.97
707.899	18726.3
708.243	18644.72
708.588	18628.68
708.932	18525.63
709.277	18411.96
709.621	18518.17
709.966	18392.98
710.31	18398.17
710.654	18282.7
710.998	18294
711.342	18236.37
711.687	18261.68
712.031	18164.06
712.375	18049.26
712.719	18040.22
713.063	17996.38
713.407	18093.78
713.75	18011.07
714.094	17917.06
714.438	17869.6
714.782	17911.18
715.125	17768.81
715.469	17760
715.812	17689.94
716.156	17666.44
716.499	17725.2
716.843	17671.41
717.186	17500.34
717.53	17620.12
717.873	17537.86
718.216	17488.82
718.559	17495.15
718.902	17336.96
719.246	17402.72
719.589	17368.82
719.932	17282.27
720.275	17284.98
720.617	17270.07
720.96	17205.21
721.303	17153.24
721.646	17173.12
721.989	17153.46
722.331	17173.35
722.674	17137.64
723.016	17179
723.359	17045.67
723.701	17086.8
724.044	17120.92
724.386	16933.81
724.729	17017.19
725.071	16978.32
725.413	16976.97
725.755	16992.34
726.097	16911.43
726.439	16891.55
726.782	16775.84
727.124	16897.87
727.465	16793.24
727.807	16814.26
728.149	16812
728.491	16775.39
728.833	16774.94
729.175	16746.92
729.516	16608.17
729.858	16707.6
730.199	16701.27
730.541	16691.78
730.882	16647.49
731.224	16675.96
731.565	16558.9
731.906	16628.96
732.248	16568.62
732.589	16531.33
732.93	16416.53
733.271	16507.6
733.612	16500.37
733.953	16536.98
734.294	16519.35
734.635	16395.52
734.976	16516.42
735.317	16450.66
735.658	16472.8
735.999	16398.9
736.339	16433.48
736.68	16401.39
737.021	16362.07
737.361	16329.98
737.702	16433.03
738.042	16387.83
738.383	16295.63
738.723	16388.28
739.063	16358.45
739.404	16443.42
739.744	16307.16
740.084	16212.47
740.424	16358
740.764	16358.45
741.104	16333.82
741.444	16336.08
741.784	16226.03
742.124	16358
742.464	16298.12
742.804	16336.76
743.143	16239.14
743.483	16351.67
743.823	16258.12
744.162	16366.59
744.502	16421.5
744.841	16402.29
745.181	16408.62
745.52	16379.24
745.86	16463.31
746.199	16433.03
746.538	16485.46
746.877	16546.47
747.216	16549.86
747.556	16494.04
747.895	16578.11
748.234	16570.2
748.573	16561.16
748.911	16654.72
749.25	16627.37
749.589	16572.01
749.928	16698.33
750.267	16738.56
750.605	16663.08
750.944	16753.7
751.283	16748.05
751.621	16889.06
751.96	16854.03
752.298	16946.46
752.636	17017.42
752.975	16943.52
753.313	17075.27
753.651	17192.33
753.989	17200.47
754.327	17324.3
754.666	17210.64
755.004	17330.18
755.342	17504.64
755.679	17492.44
756.017	17502.15
756.355	17611.98
756.693	17646.33
757.031	17712.09
757.368	17781.47
757.706	17872.99
758.044	17955.93
758.381	17929.71
758.719	18084.06
759.056	18037.05
759.394	18051.06
759.731	18117.5
760.068	18192.98
760.405	18257.61
760.743	18304.17
761.08	18393.2
761.417	18348.23
761.754	18392.75
762.091	18437.27
762.428	18466.42
762.765	18564.95
763.102	18582.35
763.438	18582.8
763.775	18612.18
764.112	18673.65
764.449	18793.87
764.785	18806.3
765.122	18789.8
765.458	18683.59
765.795	18826.64
766.131	18892.62
766.467	18778.05
766.804	18779.41
767.14	18927.43
767.476	18825.28
767.812	18814.43
768.148	18954.09
768.485	18779.63
768.821	18816.92
769.157	18794.1
769.492	18848.11
769.828	18781.22
770.164	18804.94
770.5	18810.82
770.836	18863.47
771.171	18742.8
771.507	18853.76
771.842	18781.89
772.178	18717.49
772.513	18677.94
772.849	18687.88
773.184	18668
773.519	18661.9
773.855	18587.1
774.19	18612.18
774.525	18528.34
774.86	18527.21
775.195	18609.92
775.53	18431.62
775.865	18461.9
776.2	18380.32
776.535	18201.57
776.87	18304.39
777.205	18144.17
777.539	18216.48
777.874	18230.27
778.209	18128.8
778.543	18083.38
778.878	18054.23
779.212	17980.78
779.547	17934.46
779.881	17941.24
780.215	17826.89
780.55	17923.84
780.884	17691.07
781.218	17742.82
781.552	17788.25
781.886	17740.34
782.22	17582.15
782.554	17607.69
782.888	17363.63
783.222	17373.34
783.556	17356.85
783.889	17325.66
784.223	17215.61
784.557	17209.28
784.89	17218.09
785.224	17060.81
785.557	16969.06
785.891	16975.61
786.224	16950.3
786.558	17009.06
786.891	16812
787.224	16763.87
787.557	16761.83
787.891	16673.7
788.224	16668.28
788.557	16698.33
788.89	16590.76
789.223	16614.72
789.556	16496.98
789.888	16412.01
790.221	16328.85
790.554	16262.64
790.887	16300.6
791.219	16228.29
791.552	16231.9
791.884	16167.5
792.217	16118.01
792.549	16000.72
792.882	15951.01
793.214	15789.2
793.546	15949.65
793.879	15830.78
794.211	15702.65
794.543	15697
794.875	15731.13
795.207	15792.14
795.539	15689.77
795.871	15598.02
796.203	15502.21
796.535	15394.64
796.867	15437.57
797.198	15325.49
797.53	15322.78
797.862	15233.29
798.193	15393.73
798.525	15140.63
798.856	15183.8
799.188	15005.5
799.519	15049.11
799.85	14966.17
800.182	14956.46
800.513	14958.04
800.844	14806.4
801.175	14892.73
801.506	14778.61
801.837	14711.49
802.168	14710.81
802.499	14712.85
802.83	14568.22
803.161	14575.22
803.491	14607.77
803.822	14603.92
804.153	14451.61
804.483	14288.9
804.814	14367.55
805.145	14321.45
805.475	14268.57
805.805	14266.76
806.136	14251.16
806.466	14181.34
806.796	14140.89
807.126	14064.5
807.457	14026.09
807.787	14030.61
808.117	13860.67
808.447	13892.53
808.777	14012.3
809.107	13798.07
809.436	13815.47
809.766	13785.19
810.096	13735.7
810.426	13752.42
810.755	13731.86
811.085	13719.88
811.414	13707
811.744	13559.21
812.073	13525.53
812.403	13519.21
812.732	13437.4
813.061	13409.38
813.39	13367.57
813.719	13329.38
814.049	13374.35
814.378	13316.73
814.707	13257.29
815.036	13319.89
815.365	13206.9
815.693	13169.61
816.022	13137.07
816.351	13125.32
816.68	13011.88
817.008	13101.36
817.337	12943.4
817.665	12931.88
817.994	12984.98
818.322	12935.72
818.651	12898.43
818.979	12799.23
819.307	12874.25
819.636	12863.63
819.964	12728.49
820.292	12912.22
820.62	12771.88
820.948	12771.2
821.276	12687.82
821.604	12704.99
821.932	12761.49
822.259	12713.58
822.587	12711.09
822.915	12617.99
823.243	12736.18
823.57	12667.03
823.898	12705.67
824.225	12621.15
824.553	12620.47
824.88	12655.5
825.207	12667.48
825.535	12656.86
825.862	12611.66
826.189	12631.09
826.516	12712.45
826.843	12735.5
827.17	12706.8
827.497	12704.31
827.824	12645.11
828.151	12682.84
828.478	12612.34
828.805	12716.52
829.131	12641.72
829.458	12622.96
829.785	12615.05
830.111	12580.7
830.438	12693.47
830.764	12626.8
831.09	12659.57
831.417	12548.61
831.743	12632.9
832.069	12603.52
832.395	12587.48
832.722	12592.45
833.048	12613.02
833.374	12579.8
833.7	12529.85
834.026	12563.75
834.351	12572.56
834.677	12541.61
835.003	12610.3
835.329	12524.88
835.654	12446.01
835.98	12435.85
836.306	12481.04
836.631	12460.03
836.956	12458.67
837.282	12495.05
837.607	12343.64
837.932	12324.21
838.258	12343.87
838.583	12352.46
838.908	12263.42
839.233	12321.95
839.558	12169.19
839.883	12158.11
840.208	12153.37
840.533	12223.87
840.858	12203.31
841.182	12147.49
841.507	12168.28
841.832	12040.38
842.156	12082.41
842.481	12024.78
842.805	11989.08
843.13	11954.5
843.454	11879.02
843.778	11899.36
844.103	11864.79
844.427	11963.54
844.751	11879.25
845.075	11849.87
845.399	11774.85
845.723	11720.16
846.047	11723.32
846.371	11660.5
846.695	11617.56
847.019	11596.55
847.343	11499.82
847.666	11368.3
847.99	11400.84
848.313	11404.91
848.637	11309.1
848.96	11363.11
849.284	11285.14
849.607	11216.22
849.931	11208.98
850.254	11101.19
850.577	11071.59
850.9	10955.43
851.223	10975.32
851.546	10919.95
851.869	10766.06
852.192	10834.98
852.515	10729.45
852.838	10738.71
853.161	10718.83
853.483	10735.55
853.806	10612.16
854.129	10650.36
854.451	10562.22
854.774	10565.39
855.096	10516.35
855.419	10551.15
855.741	10455.78
856.063	10350.7
856.385	10342.79
856.708	10296.01
857.03	10300.31
857.352	10326.52
857.674	10245.62
857.996	10271.83
858.318	10130.6
858.64	10201.1
858.961	10104.16
859.283	10043.37
859.605	10100.77
859.926	10064.16
860.248	10067.09
860.57	9938.06
860.891	9986.64
861.212	9910.49
861.534	9957.94
861.855	9830.04
862.176	9892.86
862.498	9863.48
862.819	9900.09
863.14	9785.75
863.461	9796.37
863.782	9764.96
864.103	9755.01
864.424	9703.26
864.745	9720.21
865.065	9669.36
865.386	9631.63
865.707	9668.23
866.027	9566.32
866.348	9614.68
866.668	9631.85
866.989	9572.87
867.309	9588.69
867.63	9536.49
867.95	9547.11
868.27	9434.12
868.59	9514.34
868.91	9505.98
869.23	9510.72
869.55	9405.42
869.87	9469.14
870.19	9412.2
870.51	9451.74
870.83	9470.95
871.15	9333.55
871.469	9398.64
871.789	9418.98
872.109	9391.63
872.428	9315.25
872.748	9350.73
873.067	9343.5
873.386	9387.11
873.706	9304.4
874.025	9212.2
874.344	9247.91
874.663	9230.51
874.982	9236.38
875.301	9227.34
875.62	9174.01
875.939	9212.43
876.258	9120
876.577	9125.2
876.896	9074.35
877.214	9071.41
877.533	9095.59
877.852	9084.07
878.17	9094.01
878.489	9044.97
878.807	9001.36
879.125	8957.29
879.444	8965.43
879.762	8947.12
880.08	8917.07
880.398	8906.9
880.716	8903.51
881.034	8875.94
881.352	8908.71
881.67	8906.22
881.988	8849.27
882.306	8861.93
882.624	8837.3
882.941	8788.48
883.259	8743.51
883.577	8745.55
883.894	8716.85
884.212	8673.91
884.529	8672.1
884.846	8694.25
885.164	8710.75
885.481	8626.23
885.798	8611.77
886.115	8546.91
886.432	8566.57
886.75	8609.05
887.067	8524.99
887.383	8464.65
887.7	8563.18
888.017	8453.13
888.334	8470.75
888.651	8403.41
888.967	8408.83
889.284	8371.09
889.6	8355.73
889.917	8266.69
890.233	8266.92
890.55	8333.81
890.866	8281.6
891.182	8258.78
891.498	8238.22
891.815	8177.43
892.131	8194.83
892.447	8190.76
892.763	8127.94
893.079	8049.29
893.395	8067.6
893.71	8068.95
894.026	8047.49
894.342	8028.96
894.657	8001.84
894.973	7984.44
895.289	7919.13
895.604	7975.17
895.92	7919.35
896.235	7856.3
896.55	7858.11
896.865	7819.24
897.181	7783.09
897.496	7777.21
897.811	7696.53
898.126	7698.79
898.441	7723.88
898.756	7683.65
899.071	7586.03
899.386	7573.15
899.7	7613.6
900.015	7585.8
900.33	7492.92
900.644	7457.67
900.959	7436.2
901.273	7435.98
901.588	7398.01
901.902	7341.97
902.216	7320.5
902.531	7325.47
902.845	7356.2
903.159	7198.47
903.473	7240.95
903.787	7182.42
904.101	7192.59
904.415	7157.34
904.729	7175.19
905.042	7073.5
905.356	7082.31
905.67	7055.42
905.984	7037.34
906.297	7020.62
906.611	6990.11
906.924	7025.14
907.237	6932.94
907.551	6877.57
907.864	6856.78
908.177	6906.95
908.491	6840.06
908.804	6800.97
909.117	6770.23
909.43	6732.27
909.743	6766.16
910.056	6706.73
910.368	6640.74
910.681	6636
910.994	6591.93
911.307	6570.69
911.619	6478.94
911.932	6573.17
912.244	6488.43
912.557	6417.92
912.869	6457.25
913.181	6468.77
913.494	6464.25
913.806	6337.02
914.118	6344.71
914.43	6283.24
914.742	6297.93
915.054	6265.84
915.366	6248.44
915.678	6238.27
915.99	6212.05
916.302	6157.82
916.613	6149
916.925	6130.25
917.236	6096.8
917.548	6064.04
917.859	6074.43
918.171	6040.99
918.482	5986.07
918.794	5977.48
919.105	5993.53
919.416	5907.66
919.727	5909.24
920.038	5849.58
920.349	5850.48
920.66	5828.56
920.971	5836.02
921.282	5773.65
921.593	5746.98
921.903	5729.81
922.214	5652.75
922.525	5637.38
922.835	5666.31
923.146	5600.54
923.456	5619.53
923.767	5588.57
924.077	5589.02
924.387	5518.06
924.697	5503.37
925.008	5517.38
925.318	5492.07
925.628	5523.26
925.938	5457.05
926.248	5362.81
926.558	5358.07
926.867	5352.87
927.177	5353.32
927.487	5308.58
927.796	5278.97
928.106	5304.28
928.416	5289.14
928.725	5274.45
929.034	5246.66
929.344	5219.99
929.653	5198.3
929.962	5162.14
930.271	5124.17
930.581	5097.73
930.89	5053.21
931.199	4995.36
931.508	5007.11
931.817	5042.37
932.125	4970.96
932.434	4987.91
932.743	4925.31
933.051	4942.71
933.36	4910.39
933.669	4893.22
933.977	4845.08
934.286	4814.12
934.594	4824.07
934.902	4757.63
935.21	4752.88
935.519	4753.79
935.827	4756.73
936.135	4755.14
936.443	4700.68
936.751	4683.73
937.059	4656.16
937.367	4604.86
937.674	4619.1
937.982	4627.69
938.29	4597.18
938.597	4548.6
938.905	4534.13
939.213	4533
939.52	4465.89
939.827	4495.04
940.135	4518.54
940.442	4394.93
940.749	4405.77
941.056	4414.36
941.363	4402.61
941.67	4382.5
941.977	4390.18
942.284	4387.47
942.591	4323.97
942.898	4296.85
943.205	4296.17
943.511	4236.06
943.818	4227.7
944.125	4284.65
944.431	4194.71
944.738	4209.17
945.044	4177.98
945.35	4160.81
945.657	4120.58
945.963	4110.64
946.269	4097.53
946.575	4078.32
946.881	4057.76
947.187	4044.2
947.493	4026.35
947.799	4035.39
948.105	3975.05
948.41	3998.78
948.716	3942.74
949.022	3957.65
949.327	3954.94
949.633	3896.63
949.938	3860.25
950.244	3901.61
950.549	3886.47
950.854	3826.58
951.16	3807.15
951.465	3793.36
951.77	3810.99
952.075	3787.03
952.38	3756.3
952.685	3783.87
952.99	3768.05
953.294	3731.22
953.599	3665
953.904	3674.04
954.209	3668.62
954.513	3656.19
954.818	3678.11
955.122	3612.57
955.426	3588.17
955.731	3601.95
956.035	3550.2
956.339	3566.02
956.643	3549.07
956.948	3530.77
957.252	3503.88
957.556	3532.35
957.86	3498.68
958.163	3445.35
958.467	3477.21
958.771	3479.92
959.075	3411
959.378	3371.68
959.682	3428.17
959.985	3381.39
960.289	3373.94
960.592	3348.63
960.896	3320.83
961.199	3342.07
961.502	3311.11
961.805	3290.32
962.108	3256.2
962.411	3278.35
962.714	3257.33
963.017	3234.73
963.32	3227.95
963.623	3214.39
963.926	3190.66
964.228	3164.22
964.531	3150.67
964.833	3183.43
965.136	3152.47
965.438	3141.4
965.741	3106.37
966.043	3115.19
966.345	3070.44
966.648	3099.37
966.95	3081.97
967.252	3066.6
967.554	3025.02
967.856	3058.24
968.158	3034.96
968.46	2975.98
968.761	3004.23
969.063	3003.55
969.365	2996.09
969.666	2976.89
969.968	2911.35
970.269	2930.11
970.571	2900.95
970.872	2915.19
971.174	2896.21
971.475	2877.68
971.776	2889.43
972.077	2839.49
972.378	2876.1
972.679	2821.86
972.98	2850.56
973.281	2807.85
973.582	2801.07
973.883	2794.74
974.183	2805.14
974.484	2787.96
974.785	2781.86
975.085	2767.62
975.386	2738.7
975.686	2709.32
975.986	2686.72
976.287	2679.94
976.587	2664.35
976.887	2666.16
977.187	2646.72
977.487	2665.93
977.787	2632.71
978.087	2626.61
978.387	2599.27
978.687	2595.43
978.987	2612.15
979.286	2566.5
979.586	2545.71
979.885	2562.21
980.185	2530.57
980.484	2534.41
980.784	2524.24
981.083	2472.27
981.382	2504.13
981.682	2511.13
981.981	2481.76
982.28	2453.96
982.579	2438.82
982.878	2435.2
983.177	2470.68
983.475	2419.61
983.774	2385.26
984.073	2401.08
984.372	2371.48
984.67	2375.77
984.969	2380.74
985.267	2363.57
985.566	2328.99
985.864	2330.57
986.162	2348.43
986.461	2322.44
986.759	2300.29
987.057	2317.69
987.355	2259.84
987.653	2275.21
987.951	2254.42
988.249	2241.76
988.547	2265.72
988.844	2230.46
989.142	2256.23
989.44	2226.4
989.737	2216
990.035	2184.59
990.332	2199.96
990.63	2188.43
990.927	2166.51
991.224	2170.8
991.521	2126.96
991.819	2152.95
992.116	2112.73
992.413	2091.26
992.71	2114.53
993.006	2082.45
993.303	2115.21
993.6	2108.43
993.897	2101.43
994.193	2089.22
994.49	2054.65
994.787	2085.83
995.083	2027.08
995.379	2032.05
995.676	2031.6
995.972	2031.6
996.268	1998.15
996.565	1997.02
996.861	1954.54
997.157	1977.36
997.453	1966.97
997.749	1929.23
998.044	1943.92
998.34	1955.22
998.636	1928.33
998.932	1903.69
999.227	1923.58
999.523	1901.89
999.818	1929.45
1000.114	1894.88
1000.409	1850.36
1000.704	1860.98
1001	1832.28
1001.295	1875.9
1001.59	1830.25
1001.885	1820.08
1002.18	1791.15
1002.475	1807.42
1002.77	1784.83
1003.065	1793.19
1003.359	1770.59
1003.654	1778.95
1003.949	1738.5
1004.243	1739.18
1004.538	1743.7
1004.832	1750.48
1005.127	1709.8
1005.421	1728.78
1005.715	1735.11
1006.009	1714.55
1006.304	1700.31
1006.598	1673.42
1006.892	1661.89
1007.186	1662.57
1007.48	1638.16
1007.773	1639.52
1008.067	1621.21
1008.361	1639.29
1008.655	1612.4
1008.948	1573.98
1009.242	1613.53
1009.535	1601.55
1009.829	1555
1010.122	1558.39
1010.415	1530.82
1010.708	1551.39
1011.001	1541.22
1011.295	1501.67
1011.588	1511.39
1011.881	1498.28
1012.173	1499.18
1012.466	1485.4
1012.759	1465.74
1013.052	1484.49
1013.344	1458.28
1013.637	1479.07
1013.93	1437.26
1014.222	1433.87
1014.514	1407.66
1014.807	1431.61
1015.099	1429.13
1015.391	1409.92
1015.683	1406.98
1015.976	1409.69
1016.268	1387.1
1016.56	1375.35
1016.851	1369.24
1017.143	1380.77
1017.435	1367.66
1017.727	1385.06
1018.018	1333.99
1018.31	1329.7
1018.602	1320.43
1018.893	1329.47
1019.185	1302.58
1019.476	1305.52
1019.767	1276.82
1020.058	1272.98
1020.35	1294.22
1020.641	1265.97
1020.932	1262.81
1021.223	1254.44
1021.514	1231.85
1021.804	1227.55
1022.095	1238.17
1022.386	1227.55
1022.677	1216.03
1022.967	1211.28
1023.258	1211.96
1023.548	1216.25
1023.839	1173.32
1024.129	1180.55
1024.419	1164.05
1024.709	1154.33
1025	1172.86
1025.29	1142.58
1025.58	1161.11
1025.87	1132.64
1026.16	1109.36
1026.449	1119.31
1026.739	1101.91
1027.029	1123.15
1027.319	1078.63
1027.608	1103.71
1027.898	1092.64
1028.187	1072.98
1028.477	1068.01
1028.766	1076.37
1029.055	1040.21
1029.344	1075.92
1029.634	1052.42
1029.923	1038.86
1030.212	1047.22
1030.501	1013.55
1030.79	1017.16
1031.078	1001.12
1031.367	1022.36
1031.656	1026.65
1031.945	965.41
1032.233	1001.12
1032.522	976.49
1032.81	987.78
1033.099	968.58
1033.387	939.88
1033.675	961.34
1033.963	953.21
1034.251	956.15
1034.54	932.19
1034.828	928.8
1035.116	933.32
1035.403	923.61
1035.691	923.61
1035.979	905.3
1036.267	934.68
1036.554	930.84
1036.842	912.08
1037.129	877.28
1037.417	878.18
1037.704	881.12
1037.992	894.91
1038.279	865.08
1038.566	857.84
1038.853	857.84
1039.14	857.84
