Data from hue_70_FLMS001491_28.txt Node
Date: Mon Feb 06 15:20:21 GMT 2017
User: dcchb
Spectrometer: FLMS00149
Trigger mode: 0
Integration Time (sec): 2.000000E-2
Scans to average: 10
Electric dark correction enabled: true
Nonlinearity correction enabled: false
Boxcar width: 0
XAxis mode: Wavelengths
Number of Pixels in Spectrum: 2048
>>>>>Begin Spectral Data<<<<<
341.393	-9.84
341.776	-9.84
342.16	-9.84
342.543	-40.13
342.927	-65.89
343.31	-65.89
343.693	-69.05
344.077	-62.72
344.46	-49.62
344.843	-68.6
345.226	-49.84
345.61	-36.74
345.993	-33.35
346.376	3.71
346.759	5.3
347.142	31.28
347.525	48.69
347.908	50.49
348.291	88.01
348.674	86.42
349.057	121.9
349.44	104.28
349.823	156.25
350.206	165.74
350.588	182.01
350.971	209.36
351.354	223.37
351.737	236.48
352.119	264.95
352.502	267.21
352.884	259.98
353.267	272.63
353.65	291.84
354.032	309.02
354.414	310.6
354.797	294.55
355.179	320.54
355.562	340.88
355.944	318.06
356.326	350.82
356.709	342.91
357.091	326.64
357.473	341.33
357.855	325.51
358.238	334.33
358.62	317.38
359.002	329.58
359.384	328.9
359.766	342.91
360.148	329.81
360.53	334.55
360.912	342.24
361.294	323.71
361.676	349.47
362.057	336.59
362.439	320.77
362.821	347.66
363.203	318.73
363.584	323.48
363.966	315.57
364.348	320.99
364.729	347.21
365.111	308.57
365.493	315.12
365.874	335.91
366.256	323.03
366.637	320.09
367.019	324.16
367.4	316.47
367.781	325.97
368.163	328.45
368.544	295.46
368.925	304.05
369.306	309.02
369.688	308.57
370.069	325.06
370.45	299.07
370.831	305.85
371.212	325.97
371.593	315.8
371.974	321.45
372.355	297.04
372.736	296.59
373.117	304.95
373.498	312.63
373.879	324.16
374.26	320.54
374.641	303.82
375.021	303.37
375.402	321.45
375.783	328
376.163	287.1
376.544	292.75
376.925	315.8
377.305	356.02
377.686	317.38
378.066	320.09
378.447	326.19
378.827	342.24
379.208	319.64
379.588	322.8
379.968	331.39
380.349	323.48
380.729	350.82
381.109	346.53
381.489	338.85
381.87	337.94
382.25	335.46
382.63	330.71
383.01	342.91
383.39	347.21
383.77	330.94
384.15	322.58
384.53	313.31
384.91	314.89
385.29	325.06
385.67	335.68
386.049	346.53
386.429	344.72
386.809	345.85
387.189	350.37
387.568	353.08
387.948	366.42
388.328	360.77
388.707	361.45
389.087	341.33
389.466	353.31
389.846	346.76
390.225	356.02
390.605	369.13
390.984	356.7
391.363	363.48
391.743	371.16
392.122	340.2
392.501	377.49
392.881	371.16
393.26	375.91
393.639	366.87
394.018	360.99
394.397	373.87
394.776	371.39
395.155	357.83
395.534	378.17
395.913	359.64
396.292	371.39
396.671	374.33
397.05	387.66
397.429	403.03
397.808	373.2
398.186	396.7
398.565	392.63
398.944	402.8
399.323	390.15
399.701	408
400.08	383.59
400.458	398.51
400.837	406.87
401.215	386.53
401.594	381.56
401.972	371.84
402.351	389.92
402.729	378.17
403.107	388.34
403.486	394.21
403.864	408.9
404.242	409.58
404.62	398.73
404.999	390.37
405.377	411.84
405.755	402.8
406.133	429.24
406.511	403.7
406.889	405.06
407.267	420.2
407.645	426.08
408.023	414.1
408.401	426.08
408.779	416.13
409.156	414.33
409.534	426.98
409.912	437.83
410.29	417.94
410.667	433.76
411.045	427.88
411.422	426.53
411.8	436.02
412.178	438.96
412.555	456.13
412.933	448
413.31	443.03
413.687	433.99
414.065	458.84
414.442	463.82
414.819	457.04
415.197	463.36
415.574	457.49
415.951	465.85
416.328	483.25
416.705	467.43
417.082	460.65
417.46	479.41
417.837	484.15
418.214	485.51
418.591	474.66
418.967	504.04
419.344	471.95
419.721	489.58
420.098	498.62
420.475	519.18
420.852	506.07
421.228	498.84
421.605	497.71
421.982	508.11
422.358	514.89
422.735	493.19
423.111	507.66
423.488	509.01
423.864	521.22
424.241	541.78
424.617	518.96
424.994	534.32
425.37	539.97
425.746	527.77
426.123	533.42
426.499	520.76
426.875	546.75
427.251	554.66
427.627	542.91
428.003	553.3
428.379	584.49
428.756	563.93
429.132	551.72
429.507	583.81
429.883	560.31
430.259	594.66
430.635	573.87
431.011	594.89
431.387	579.52
431.763	580.87
432.138	575.45
432.514	624.49
432.89	609.35
433.265	632.85
433.641	628.33
434.016	610.93
434.392	636.01
434.767	630.36
435.143	652.29
435.518	618.84
435.894	639.18
436.269	640.76
436.644	645.96
437.02	683.7
437.395	649.8
437.77	670.59
438.145	674.43
438.52	669.01
438.895	684.83
439.271	689.57
439.646	673.75
440.021	699.97
440.395	697.93
440.77	699.06
441.145	711.04
441.52	713.75
441.895	709.91
442.27	729.8
442.645	712.85
443.019	742.9
443.394	720.76
443.769	750.36
444.143	742.9
444.518	735.22
444.892	753.98
445.267	730.25
445.641	744.49
446.016	727.99
446.39	758.72
446.764	764.15
447.139	770.93
447.513	780.42
447.887	766.41
448.262	761.89
448.636	769.57
449.01	780.64
449.384	796.69
449.758	789.68
450.132	814.54
450.506	813.41
450.88	797.82
451.254	817.7
451.628	839.85
452.002	857.48
452.376	858.83
452.75	838.95
453.123	858.83
453.497	888.21
453.871	879.4
454.244	911.94
454.618	902.22
454.992	902.45
455.365	880.98
455.739	897.7
456.112	923.46
456.486	927.53
456.859	918.49
457.232	952.62
457.606	954.2
457.979	947.19
458.352	968.21
458.725	965.5
459.099	1001.2
459.472	1003.91
459.845	1016.8
460.218	1004.37
460.591	1035.1
460.964	1029.22
461.337	1079.84
461.71	1050.01
462.083	1111.71
462.456	1114.87
462.829	1109.67
463.201	1123.69
463.574	1136.11
463.947	1117.81
464.32	1137.02
464.692	1186.51
465.065	1209.56
465.438	1208.43
465.81	1205.94
466.183	1198.94
466.555	1256.79
466.928	1238.94
467.3	1288.43
467.672	1304.47
468.045	1333.62
468.417	1358.26
468.789	1332.04
469.161	1380.63
469.534	1426.95
469.906	1415.2
470.278	1438.93
470.65	1483.22
471.022	1506.05
471.394	1532.94
471.766	1553.5
472.138	1580.17
472.51	1613.39
472.882	1671.69
473.253	1684.57
473.625	1706.27
473.997	1760.96
474.369	1757.11
474.74	1829.66
475.112	1862.2
475.484	1885.7
475.855	1935.19
476.227	1993.04
476.598	2088.41
476.97	2079.14
477.341	2138.35
477.713	2196.2
478.084	2245.01
478.455	2323.65
478.827	2351.45
479.198	2437.55
479.569	2483.2
479.94	2566.59
480.311	2632.35
480.682	2718.22
481.053	2814.26
481.424	2857.42
481.795	2932.23
482.166	3022.62
482.537	3112.56
482.908	3207.25
483.279	3286.34
483.65	3386.45
484.021	3488.14
484.391	3545.54
484.762	3654.92
485.133	3769.27
485.503	3859.21
485.874	4007.9
486.244	4075.02
486.615	4219.65
486.985	4329.7
487.356	4442.92
487.726	4523.82
488.097	4744.83
488.467	4752.97
488.837	4933.75
489.207	5050.81
489.578	5173.3
489.948	5290.13
490.318	5476.11
490.688	5535.55
491.058	5666.16
491.428	5851.92
491.798	5990.9
492.168	6177.79
492.538	6286.26
492.908	6399.48
493.278	6600.6
493.648	6613.26
494.017	6787.72
494.387	6958.79
494.757	7075.39
495.126	7240.59
495.496	7312
495.866	7471.99
496.235	7635.38
496.605	7800.12
496.974	7955.6
497.344	8058.19
497.713	8223.61
498.082	8275.36
498.452	8468.58
498.821	8604.84
499.19	8677.84
499.559	8853.43
499.928	8956.02
500.298	9055.23
500.667	9249.12
501.036	9279.85
501.405	9434.65
501.774	9576.57
502.143	9716.91
502.512	9771.37
502.88	9897.92
503.249	10003
503.618	10135.65
503.987	10138.82
504.356	10445.25
504.724	10467.17
505.093	10561.63
505.462	10670.78
505.83	10932.69
506.199	10983.54
506.567	11159.58
506.936	11127.72
507.304	11285.9
507.672	11492.45
508.041	11501.72
508.409	11610.64
508.777	11760.47
509.145	11864.87
509.514	11922.72
509.882	12128.37
510.25	12127.69
510.618	12258.76
510.986	12335.59
511.354	12455.82
511.722	12620.78
512.09	12704.85
512.458	12766.09
512.826	12917.05
513.193	13077.04
513.561	13099.42
513.929	13249.92
514.297	13315.23
514.664	13361.78
515.032	13470.25
515.4	13640.42
515.767	13709.79
516.135	13830.02
516.502	13736.01
516.869	13944.14
517.237	14079.95
517.604	14020.3
517.972	14203.12
518.339	14308.65
518.706	14413.51
519.073	14423.45
519.44	14490.11
519.808	14627.06
520.175	14614.86
520.542	14960.84
520.909	14941.85
521.276	14928.75
521.643	15038.57
522.009	15173.71
522.376	15220.04
522.743	15338.68
523.11	15495.96
523.477	15685.34
523.843	15667.48
524.21	15751.55
524.577	15936.18
524.943	16023.86
525.31	15923.3
525.676	16218.88
526.043	16363.96
526.409	16358.99
526.776	16477.86
527.142	16484.41
527.508	16611.87
527.874	16704.07
528.241	16845.08
528.607	16801.24
528.973	16908.81
529.339	16831.52
529.705	17166.65
530.071	17236.71
530.437	17255.46
530.803	17212.3
531.169	17324.84
531.535	17383.37
531.901	17458.85
532.267	17382.01
532.632	17594.66
532.998	17537.04
533.364	17669.69
533.73	17709.69
534.095	17735
534.461	17821.55
534.826	17886.18
535.192	17933.86
535.557	18099.74
535.923	17964.15
536.288	18050.7
536.653	18146.06
537.019	18027.65
537.384	18096.8
537.749	18196.91
538.114	18136.35
538.479	18119.4
538.845	18319.62
539.21	18245.95
539.575	18228.32
539.94	18274.65
540.305	18299.96
540.67	18331.14
541.034	18405.49
541.399	18442.78
541.764	18445.49
542.129	18357.13
542.494	18428.99
542.858	18545.37
543.223	18524.36
543.587	18563
543.952	18534.07
544.316	18620.4
544.681	18556.67
545.045	18566.16
545.41	18709.21
545.774	18733.39
546.138	18635.32
546.503	18716.44
546.867	18679.61
547.231	18770.9
547.595	18814.97
547.959	18904.69
548.324	18718.48
548.688	18819.72
549.052	18872.6
549.416	18877.34
549.779	18908.98
550.143	18897.23
550.507	18912.37
550.871	18973.16
551.235	18893.61
551.599	19085.47
551.962	18978.13
552.326	19108.97
552.689	19113.27
553.053	19088.86
553.417	19063.33
553.78	19246.15
554.143	19148.07
554.507	19292.25
554.87	19241.17
555.234	19364.56
555.597	19208.18
555.96	19304.9
556.323	19369.99
556.686	19333.6
557.05	19493.82
557.413	19494.95
557.776	19464.22
558.139	19646.36
558.502	19552.35
558.865	19606.81
559.228	19666.93
559.59	19796.19
559.953	19744.21
560.316	19954.6
560.679	20002.06
561.041	20094.94
561.404	20170.87
561.767	20192.56
562.129	20055.62
562.492	20233.47
562.854	20225.56
563.217	20192.56
563.579	20305.1
563.941	20315.95
564.304	20391.43
564.666	20534.93
565.028	20527.02
565.39	20613.12
565.753	20650.4
566.115	20698.09
566.477	20865.54
566.839	20718.88
567.201	21007.23
567.563	20941.7
567.925	20894.92
568.287	21121.13
568.648	21053.33
569.01	21109.15
569.372	21263.49
569.734	21165.42
570.095	21382.59
570.457	21317.73
570.819	21385.3
571.18	21479.31
571.542	21589.81
571.903	21512.75
572.265	21607.67
572.626	21564.96
572.987	21595.01
573.349	21709.58
573.71	21837.04
574.071	21849.24
574.432	21924.27
574.794	21990.26
575.155	21916.81
575.516	21945.06
575.877	22030.03
576.238	22097.14
576.599	22122.91
576.96	22072.74
577.32	22114.77
577.681	22188.89
578.042	22199.74
578.403	22233.19
578.763	22190.02
579.124	22189.35
579.485	22343.47
579.845	22439.28
580.206	22312.28
580.566	22304.15
580.927	22268.89
581.287	22416.01
581.648	22305.95
582.008	22506.85
582.368	22439.73
582.728	22390.92
583.089	22406.06
583.449	22458.72
583.809	22402.67
584.169	22453.29
584.529	22285.84
584.889	22576.45
585.249	22422.11
585.609	22328.1
585.969	22483.12
586.329	22380.08
586.688	22382.56
587.048	22406.74
587.408	22355.22
587.768	22279.97
588.127	22329.46
588.487	22363.35
588.846	22546.4
589.206	22269.57
589.565	22370.58
589.925	22513.18
590.284	22369
590.643	22499.85
591.003	22500.3
591.362	22586.62
591.721	22533.74
592.08	22482.9
592.44	22537.13
592.799	22436.8
593.158	22457.81
593.517	22487.87
593.876	22552.5
594.235	22447.42
594.593	22453.07
594.952	22428.89
595.311	22291.94
595.67	22563.57
596.029	22524.7
596.387	22527.87
596.746	22705.26
597.104	22577.81
597.463	22418.04
597.822	22546.17
598.18	22488.55
598.538	22471.82
598.897	22649.67
599.255	22531.26
599.613	22837.46
599.972	22571.48
600.33	22650.58
600.688	22564.7
601.046	22670.92
601.404	22679.28
601.762	22738.03
602.12	22731.7
602.478	22793.17
602.836	22662.33
603.194	22625.49
603.552	22762.66
603.91	22624.14
604.268	22694.19
604.625	22590.92
604.983	22776.22
605.341	22742.1
605.698	22859.61
606.056	22809.22
606.413	22840.18
606.771	22822.1
607.128	22907.75
607.485	22757.92
607.843	22869.1
608.2	22952.72
608.557	23083.11
608.914	22898.93
609.272	23166.27
609.629	23130.11
609.986	23106.61
610.343	23086.95
610.7	23250.79
611.057	23252.82
611.414	23230
611.771	23201.52
612.127	23340.5
612.484	23338.24
612.841	23411.23
613.198	23269.54
613.554	23416.21
613.911	23472.93
614.267	23452.59
614.624	23447.62
614.98	23483.78
615.337	23623.88
615.693	23632.92
616.05	23484.91
616.406	23729.87
616.762	23536.66
617.118	23642.64
617.475	23664.11
617.831	23708.18
618.187	23663.43
618.543	23755.41
618.899	23834.27
619.255	23754.28
619.611	23754.5
619.967	23795.18
620.323	23852.35
620.678	23895.06
621.034	23749.98
621.39	23764.22
621.746	23848.29
622.101	24064.1
622.457	23809.42
622.812	23926.7
623.168	23966.93
623.523	24058.22
623.879	23994.27
624.234	24045.79
624.589	23951.11
624.945	24022.07
625.3	24056.64
625.655	24109.97
626.01	24031.11
626.365	24065
626.72	24082.18
627.075	24000.82
627.43	24056.87
627.785	24029.52
628.14	24066.81
628.495	24055.51
628.85	23947.94
629.205	24036.08
629.559	24071.1
629.914	23988.17
630.269	24013.93
630.623	23907.94
630.978	23903.65
631.332	23996.08
631.687	24015.96
632.041	23937.32
632.396	23972.35
632.75	23939.13
633.104	23931.22
633.459	23838.79
633.813	23835.86
634.167	23859.13
634.521	23870.43
634.875	23815.07
635.229	23889.64
635.583	23671.11
635.937	23702.98
636.291	23714.73
636.645	23646.26
636.999	23624.79
637.352	23708.63
637.706	23470.22
638.06	23685.8
638.413	23668.63
638.767	23539.37
639.121	23636.77
639.474	23467.5
639.828	23543.66
640.181	23512.93
640.534	23651
640.888	23486.71
641.241	23362.87
641.594	23406.26
641.947	23439.26
642.301	23328.75
642.654	23447.62
643.007	23512.47
643.36	23349.54
643.713	23237.91
644.066	23415.98
644.419	23199.94
644.771	23077.91
645.124	22874.3
645.477	22851.7
645.83	22685.6
646.182	22575.1
646.535	22605.15
646.888	22659.16
647.24	22393.18
647.593	22598.6
647.945	22529.22
648.298	22480.86
648.65	22423.92
649.002	22372.39
649.355	22434.99
649.707	22366.97
650.059	22534.87
650.411	22785.71
650.763	22849.67
651.115	23072.49
651.467	23048.53
651.819	23028.42
652.171	22888.08
652.523	22862.32
652.875	22947.97
653.227	22790.23
653.578	22989.32
653.93	22885.82
654.282	22864.36
654.633	22732.38
654.985	22790.23
655.337	22851.25
655.688	22878.37
656.039	22991.58
656.391	22745.94
656.742	22891.7
657.094	22864.81
657.445	22988.42
657.796	22804.25
658.147	22854.64
658.498	22846.96
658.849	22954.75
659.2	22878.82
659.551	22749.56
659.902	22855.09
660.253	22810.35
660.604	22875.43
660.955	22751.82
661.306	22870.01
661.656	22840.85
662.007	22851.02
662.358	22892.38
662.708	22759.5
663.059	22780.06
663.409	22794.98
663.76	22864.81
664.11	22858.25
664.461	22843.57
664.811	22910.46
665.161	22906.39
665.511	22886.95
665.862	22877.46
666.212	22853.28
666.562	22906.16
666.912	22859.84
667.262	22792.04
667.612	22774.87
667.962	22868.42
668.312	22786.62
668.662	22937.57
669.011	22673.85
669.361	22711.59
669.711	22712.5
670.06	22768.09
670.41	22680.63
670.76	22696.45
671.109	22698.94
671.459	22740.74
671.808	22717.24
672.157	22784.36
672.507	22504.37
672.856	22567.42
673.205	22583.01
673.554	22749.33
673.904	22518.15
674.253	22613.52
674.602	22676.11
674.951	22366.74
675.3	22289.46
675.649	22547.3
675.998	22438.83
676.346	22471.82
676.695	22739.61
677.044	22421.2
677.393	22457.36
677.741	22418.72
678.09	22319.74
678.438	22351.38
678.787	22385.95
679.135	22439.28
679.484	22206.97
679.832	22279.29
680.181	22273.41
680.529	22234.77
680.877	22180.98
681.225	22163.13
681.573	22266.63
681.922	22083.36
682.27	22032.51
682.618	22046.07
682.966	22023.47
683.314	22037.03
683.661	21955
684.009	21848.79
684.357	21785.97
684.705	21638.85
685.053	21828.68
685.4	21722.47
685.748	21619.64
686.095	21626.87
686.443	21545.97
686.79	21495.8
687.138	21410.84
687.485	21580.1
687.832	21419.65
688.18	21418.97
688.527	21404.51
688.874	21250.16
689.221	21316.83
689.568	21215.36
689.915	21077.96
690.262	21136.27
690.609	21117.96
690.956	20959.1
691.303	20962.03
691.65	20786.67
691.997	20950.28
692.344	20751.42
692.69	20719.33
693.037	20648.82
693.383	20557.07
693.73	20623.06
694.077	20481.59
694.423	20478.66
694.769	20245.44
695.116	20255.61
695.462	20237.98
695.808	20168.16
696.155	20245.67
696.501	20089.06
696.847	20037.09
697.193	19955.51
697.539	19894.72
697.885	19796.41
698.231	19670.32
698.577	19738.79
698.923	19687.49
699.269	19505.12
699.614	19447.95
699.96	19483.88
700.306	19388.52
700.651	19350.55
700.997	19302.19
701.342	19297.67
701.688	19176.09
702.033	19194.4
702.379	19040.73
702.724	19041.86
703.069	19060.61
703.415	18763.9
703.76	18941.52
704.105	18835.99
704.45	18779.27
704.795	18738.59
705.14	18537.46
705.485	18602.32
705.83	18501.76
706.175	18504.92
706.52	18405.04
706.865	18336.57
707.209	18337.47
707.554	18239.39
707.899	18244.59
708.243	18162.11
708.588	18155.1
708.932	18009.12
709.277	18035.33
709.621	18012.05
709.966	17896.8
710.31	17978.38
710.654	17763.7
710.998	17809.57
711.342	17807.99
711.687	17719.41
712.031	17681.89
712.375	17564.83
712.719	17580.43
713.063	17562.8
713.407	17583.37
713.75	17595.57
714.094	17462.92
714.438	17448.45
714.782	17418.17
715.125	17309.7
715.469	17297.5
715.812	17235.35
716.156	17210.72
716.499	17172.98
716.843	17121.68
717.186	17093.21
717.53	17208.01
717.873	17224.96
718.216	17109.48
718.559	17039.2
718.902	16942.03
719.246	16997.62
719.589	16928.24
719.932	16795.14
720.275	16935.47
720.617	16890.28
720.96	16848.47
721.303	16880.78
721.646	16851.18
721.989	16676.95
722.331	16798.53
722.674	16730.51
723.016	16725.53
723.359	16695.93
723.701	16720.11
724.044	16570.28
724.386	16504.3
724.729	16625.2
725.071	16601.47
725.413	16566.67
725.755	16580.45
726.097	16534.13
726.439	16400.12
726.782	16474.47
727.124	16415.71
727.465	16463.39
727.807	16328.48
728.149	16376.62
728.491	16315.15
728.833	16387.01
729.175	16286.45
729.516	16175.72
729.858	16195.38
730.199	16236.06
730.541	16242.16
730.882	16219.33
731.224	16320.57
731.565	16245.32
731.906	16137.98
732.248	16170.07
732.589	16130.3
732.93	16118.09
733.271	16140.69
733.612	16068.38
733.953	16211.88
734.294	16085.78
734.635	16113.12
734.976	16095.49
735.317	16068.38
735.658	16032.45
735.999	15975.72
736.339	16023.41
736.68	16062.28
737.021	15956.52
737.361	15979.34
737.702	16117.87
738.042	16042.16
738.383	16030.41
738.723	16088.26
739.063	16018.21
739.404	16003.29
739.744	15997.87
740.084	15956.06
740.424	15994.25
740.764	15873.58
741.104	15954.03
741.444	15862.51
741.784	15900.47
742.124	15928.27
742.464	15966.01
742.804	15917.19
743.143	16005.78
743.483	15947.25
743.823	15962.39
744.162	15955.39
744.502	16014.82
744.841	15919.45
745.181	16041.71
745.52	15958.32
745.86	16185.89
746.199	16107.92
746.538	16140.24
746.877	16137.98
747.216	16155.61
747.556	16141.82
747.895	16176.85
748.234	16208.94
748.573	16248.94
748.911	16327.58
749.25	16286
749.589	16344.53
749.928	16355.38
750.267	16523.51
750.605	16481.7
750.944	16482.15
751.283	16505.88
751.621	16638.53
751.96	16557.63
752.298	16625.65
752.636	16652.32
752.975	16774.35
753.313	16777.74
753.651	16929.15
753.989	16994.23
754.327	16932.54
754.666	17035.81
755.004	17201.68
755.342	17192.87
755.679	17248.01
756.017	17226.76
756.355	17400.09
756.693	17386.99
757.031	17472.41
757.368	17447.1
757.706	17509.02
758.044	17704.27
758.381	17831.27
758.719	17693.19
759.056	17911.49
759.394	17878.95
759.731	17907.88
760.068	18024.71
760.405	18093.41
760.743	18158.04
761.08	18154.88
761.417	18186.51
761.754	18252.05
762.091	18292.5
762.428	18315.55
762.765	18344.48
763.102	18473.06
763.438	18511.93
763.775	18409.78
764.112	18622.21
764.449	18701.75
764.785	18643.68
765.122	18685.26
765.458	18614.3
765.795	18735.43
766.131	18846.38
766.467	18746.05
766.804	18697.69
767.14	18800.96
767.476	18786.27
767.812	18774.97
768.148	18794.86
768.485	18800.96
768.821	18844.35
769.157	18842.99
769.492	18812.94
769.828	18867.17
770.164	18756.89
770.5	18655.65
770.836	18761.87
771.171	18697.23
771.507	18763.45
771.842	18696.56
772.178	18594.19
772.513	18717.12
772.849	18641.19
773.184	18545.15
773.519	18659.27
773.855	18630.34
774.19	18598.71
774.525	18485.26
774.86	18564.58
775.195	18513.51
775.53	18459.05
775.865	18434.19
776.2	18342.44
776.535	18262.9
776.87	18376.34
777.205	18225.38
777.539	18145.38
777.874	18306.51
778.209	18141.09
778.543	18111.26
778.878	17935.22
779.212	18025.61
779.547	17931.83
779.881	18019.74
780.215	17891.38
780.55	17987.65
780.884	17785.85
781.218	17842.34
781.552	17830.82
781.886	17673.76
782.22	17656.81
782.554	17531.16
782.888	17413.88
783.222	17445.74
783.556	17364.84
783.889	17404.84
784.223	17173.88
784.557	17154
784.89	17248.01
785.224	17151.96
785.557	17050.72
785.891	17056.15
786.224	17053.44
786.558	16963.04
786.891	16923.04
787.224	16747.23
787.557	16739.09
787.891	16787.23
788.224	16743.84
788.557	16746.1
788.89	16723.73
789.223	16631.53
789.556	16394.47
789.888	16524.41
790.221	16484.19
790.554	16336.39
790.887	16410.97
791.219	16289.39
791.552	16245.32
791.884	16167.58
792.217	16109.51
792.549	16049.62
792.882	15978.21
793.214	15969.17
793.546	15888.04
793.879	15860.02
794.211	15776.63
794.543	15803.3
794.875	15688.5
795.207	15712.91
795.539	15698.9
795.871	15710.65
796.203	15500.48
796.535	15382.97
796.867	15398.11
797.198	15368.73
797.53	15439.24
797.862	15283.99
798.193	15358.34
798.525	15218.68
798.856	15213.48
799.188	15046.26
799.519	15027.05
799.85	14883.32
800.182	15053.26
800.513	14967.16
800.844	14840.16
801.175	14947.73
801.506	14881.06
801.837	14753.38
802.168	14741.63
802.499	14669.54
802.83	14679.03
803.161	14684.46
803.491	14570.56
803.822	14528.53
804.153	14475.88
804.483	14393.62
804.814	14319.95
805.145	14370.12
805.475	14391.58
805.805	14298.48
806.136	14362.66
806.466	14156.79
806.796	14205.38
807.126	14084.47
807.457	14069.56
807.787	14042.89
808.117	14092.61
808.447	13951.14
808.777	14058.26
809.107	14001.09
809.436	13856.46
809.766	13857.36
810.096	13838.61
810.426	13730.13
810.755	13752.51
811.085	13753.41
811.414	13722.45
811.744	13628.44
812.073	13539.86
812.403	13576.24
812.732	13451.72
813.061	13500.99
813.39	13500.53
813.719	13364.95
814.049	13540.99
814.378	13345.96
814.707	13295.57
815.036	13331.95
815.365	13282.46
815.693	13146.42
816.022	13208.79
816.351	13099.64
816.68	13035.01
817.008	13096.48
817.337	13014.22
817.665	13002.47
817.994	13086.76
818.322	12996.14
818.651	12927.22
818.979	12867.33
819.307	12950.04
819.636	12822.13
819.964	12749.59
820.292	12863.94
820.62	12831.17
820.948	12822.36
821.276	12795.47
821.604	12762.25
821.932	12757.96
822.259	12757.5
822.587	12735.81
822.915	12728.35
823.243	12786.43
823.57	12710.5
823.898	12697.39
824.225	12670.73
824.553	12694.91
824.88	12664.62
825.207	12695.58
825.535	12711.18
825.862	12735.81
826.189	12710.95
826.516	12754.57
826.843	12717.28
827.17	12719.99
827.497	12725.41
827.824	12778.52
828.151	12703.04
828.478	12654.46
828.805	12798.18
829.131	12710.05
829.458	12691.29
829.785	12642.25
830.111	12702.36
830.438	12790.27
830.764	12682.7
831.09	12695.13
831.417	12588.24
831.743	12713.21
832.069	12661.69
832.395	12540.33
832.722	12673.21
833.048	12580.33
833.374	12555.7
833.7	12520.45
834.026	12522.71
834.351	12555.25
834.677	12553.67
835.003	12569.94
835.329	12560.9
835.654	12541.69
835.98	12485.87
836.306	12442.94
836.631	12394.58
836.956	12403.84
837.282	12446.78
837.607	12484.74
837.932	12366.1
838.258	12409.72
838.583	12436.38
838.908	12327.23
839.233	12342.83
839.558	12385.76
839.883	12258.53
840.208	12255.6
840.533	12243.84
840.858	12241.13
841.182	12226.9
841.507	12155.26
841.832	12144.64
842.156	12005.88
842.481	12099.89
842.805	12031.65
843.13	12070.74
843.454	12032.78
843.778	11944.87
844.103	11879.33
844.427	11909.16
844.751	11909.16
845.075	11863.52
845.399	11871.88
845.723	11702.39
846.047	11776.06
846.371	11674.37
846.695	11663.97
847.019	11581.26
847.343	11552.79
847.666	11503.98
847.99	11458.1
848.313	11425.11
848.637	11354.38
848.96	11400.7
849.284	11295.17
849.607	11191.89
849.931	11144.66
850.254	11102.41
850.577	11103.31
850.9	10944.9
851.223	10973.14
851.546	10959.58
851.869	10851.34
852.192	10900.6
852.515	10836.65
852.838	10710.55
853.161	10748.06
853.483	10690.89
853.806	10671.46
854.129	10647.05
854.451	10589.2
854.774	10528.18
855.096	10494.51
855.419	10465.13
855.741	10446.83
856.063	10432.37
856.385	10391.01
856.708	10403.67
857.03	10277.12
857.352	10359.83
857.674	10337
857.996	10249.77
858.318	10251.13
858.64	10143.56
858.961	10116.44
859.283	10123.45
859.605	10109.66
859.926	10090.46
860.248	10049.78
860.57	10059.72
860.891	10066.5
861.212	9953.51
861.534	9956
861.855	9824.93
862.176	9955.32
862.498	9919.16
862.819	9974.53
863.14	9864.02
863.461	9870.12
863.782	9778.15
864.103	9772.72
864.424	9846.62
864.745	9820.63
865.065	9678.26
865.386	9723.46
865.707	9691.6
866.027	9660.86
866.348	9707.19
866.668	9748.09
866.989	9654.31
867.309	9558.27
867.63	9563.92
867.95	9556.91
868.27	9513.97
868.59	9549
868.91	9477.59
869.23	9547.87
869.55	9467.19
869.87	9537.02
870.19	9447.99
870.51	9467.19
870.83	9448.66
871.15	9354.88
871.469	9361.21
871.789	9388.78
872.109	9440.75
872.428	9343.36
872.748	9324.37
873.067	9363.69
873.386	9336.8
873.706	9324.6
874.025	9337.48
874.344	9215.45
874.663	9304.49
874.982	9247.54
875.301	9243.25
875.62	9133.87
875.939	9173.87
876.258	9224.72
876.577	9181.33
876.896	9167.99
877.214	9085.96
877.533	9143.36
877.852	9188.33
878.17	9084.61
878.489	9095.23
878.807	9097.03
879.125	8988.79
879.444	9011.16
879.762	8989.02
880.08	9073.98
880.398	8921.22
880.716	8977.72
881.034	8998.73
881.352	8931.62
881.67	8917.6
881.988	8914.21
882.306	8861.11
882.624	8866.98
882.941	8831.05
883.259	8763.26
883.577	8810.26
883.894	8818.85
884.212	8712.19
884.529	8751.96
884.846	8707.21
885.164	8716.71
885.481	8680.77
885.798	8644.84
886.115	8617.27
886.432	8595.58
886.75	8619.53
887.067	8589.03
887.383	8535.92
887.7	8489.37
888.017	8555.13
888.334	8497.95
888.651	8465.86
888.967	8457.73
889.284	8425.19
889.6	8431.52
889.917	8333.89
890.233	8313.78
890.55	8289.37
890.866	8345.19
891.182	8239.43
891.498	8256.15
891.815	8224.52
892.131	8218.64
892.447	8198.08
892.763	8100.22
893.079	8109.72
893.395	8115.82
893.71	8106.1
894.026	8000.11
894.342	8003.96
894.657	7961.47
894.973	7961.92
895.289	8023.84
895.604	7934.81
895.92	7867.69
896.235	7821.36
896.55	7844.86
896.865	7845.77
897.181	7785.88
897.496	7784.98
897.811	7793.79
898.126	7705.43
898.441	7696.85
898.756	7688.03
899.071	7596.28
899.386	7671.54
899.7	7578.66
900.015	7539.79
900.33	7509.96
900.644	7500.92
900.959	7481.26
901.273	7430.19
901.588	7392.9
901.902	7330.3
902.216	7362.62
902.531	7322.84
902.845	7276.52
903.159	7232.9
903.473	7323.75
903.787	7180.7
904.101	7172.11
904.415	7164.88
904.729	7152.45
905.042	7076.97
905.356	7015.06
905.67	7088.27
905.984	7136.86
906.297	7042.63
906.611	7023.64
906.924	6974.83
907.237	6956.98
907.551	6921.05
907.864	6856.64
908.177	6888.28
908.491	6900.26
908.804	6843.76
909.117	6772.12
909.43	6743.88
909.743	6754.27
910.056	6672.47
910.368	6629.08
910.681	6663.43
910.994	6589.98
911.307	6602.19
911.619	6540.27
911.932	6556.54
912.244	6473.83
912.557	6485.35
912.869	6467.95
913.181	6418.46
913.494	6451.91
913.806	6331.01
914.118	6333.72
914.43	6278.35
914.742	6274.96
915.054	6267.05
915.366	6274.74
915.678	6201.74
915.99	6244.45
916.302	6155.87
916.613	6143.67
916.925	6135.76
917.236	6087.17
917.548	6058.7
917.859	6058.02
918.171	6046.72
918.482	5967.63
918.794	5987.74
919.105	5933.5
919.416	5951.35
919.727	5913.62
920.038	5874.52
920.349	5837.69
920.66	5842.66
920.971	5822.09
921.282	5791.59
921.593	5744.58
921.903	5743
922.214	5705.26
922.525	5663.23
922.835	5680.85
923.146	5617.13
923.456	5614.19
923.767	5564.02
924.077	5606.73
924.387	5633.4
924.697	5559.27
925.008	5467.75
925.318	5494.42
925.628	5482.67
925.938	5474.98
926.248	5419.62
926.558	5390.69
926.867	5340.75
927.177	5364.25
927.487	5324.25
927.796	5309.34
928.106	5261.88
928.416	5272.73
928.725	5250.58
929.034	5179.17
929.344	5241.99
929.653	5173.07
929.962	5154.77
930.271	5104.37
930.581	5092.62
930.89	5091.04
931.199	5099.4
931.508	5063.69
931.817	5063.69
932.125	5018.5
932.434	4987.76
932.743	4961.32
933.051	4947.99
933.36	4926.75
933.669	4920.2
933.977	4880.2
934.286	4883.59
934.594	4834.55
934.902	4791.61
935.21	4744.83
935.519	4790.93
935.827	4741.67
936.135	4746.19
936.443	4693.99
936.751	4712.29
937.059	4689.02
937.367	4616.47
937.674	4639.52
937.982	4602.46
938.29	4622.8
938.597	4581
938.905	4555.01
939.213	4550.04
939.52	4482.47
939.827	4509.36
940.135	4475.91
940.442	4492.64
940.749	4471.85
941.056	4467.55
941.363	4372.64
941.67	4361.57
941.977	4339.42
942.284	4364.05
942.591	4341.45
942.898	4268.91
943.205	4330.15
943.511	4310.04
943.818	4268.69
944.125	4205.41
944.431	4244.51
944.738	4187.33
945.044	4212.87
945.35	4116.83
945.657	4146.88
945.963	4136.04
946.269	4113.44
946.575	4104.85
946.881	4030.73
947.187	4074.34
947.493	4020.33
947.799	4043.16
948.105	4011.07
948.41	3990.95
948.716	3991.63
949.022	3915.93
949.327	3955.02
949.633	3944.85
949.938	3918.19
950.244	3879.09
950.549	3875.03
950.854	3846.33
951.16	3873.9
951.465	3802.94
951.77	3811.75
952.075	3821.69
952.38	3780.11
952.685	3764.97
952.99	3740.79
953.294	3768.59
953.599	3708.93
953.904	3659.44
954.209	3654.24
954.513	3680.68
954.818	3665.99
955.122	3647.46
955.426	3598.65
955.731	3629.16
956.035	3586.67
956.339	3558.65
956.643	3566.11
956.948	3546.22
957.252	3508.93
957.556	3553.9
957.86	3461.93
958.163	3437.97
958.467	3450.18
958.771	3446.56
959.075	3457.41
959.378	3401.82
959.682	3402.04
959.985	3402.72
960.289	3367.24
960.592	3364.98
960.896	3351.88
961.199	3315.49
961.502	3344.87
961.805	3300.8
962.108	3294.25
962.411	3307.36
962.714	3282.05
963.017	3264.42
963.32	3229.17
963.623	3239.56
963.926	3248.83
964.228	3204.99
964.531	3233.23
964.833	3146.68
965.136	3151.88
965.438	3158.89
965.741	3160.69
966.043	3137.19
966.345	3126.57
966.648	3112.33
966.95	3078.66
967.252	3076.18
967.554	3045.67
967.856	3024.43
968.158	3004.54
968.46	2996.18
968.761	2983.98
969.063	2982.17
969.365	2962.51
969.666	2954.15
969.968	2919.8
970.269	2902.62
970.571	2979.23
970.872	2900.59
971.174	2880.02
971.475	2886.35
971.776	2898.33
972.077	2845.9
972.378	2851.55
972.679	2840.93
972.98	2827.82
973.281	2818.56
973.582	2800.7
973.883	2813.36
974.183	2807.48
974.484	2772.46
974.785	2745.11
975.085	2748.73
975.386	2712.57
975.686	2725.68
975.986	2697.66
976.287	2694.27
976.587	2686.13
976.887	2652.91
977.187	2683.19
977.487	2639.8
977.787	2612.91
978.087	2663.31
978.387	2607.04
978.687	2611.33
978.987	2563.65
979.286	2588.96
979.586	2577.66
979.885	2553.25
980.185	2554.61
980.484	2511.22
980.784	2529.07
981.083	2522.29
981.382	2498.56
981.682	2490.88
981.981	2478.9
982.28	2466.47
982.579	2475.06
982.878	2475.29
983.177	2426.48
983.475	2455.63
983.774	2418.34
984.073	2428.28
984.372	2405.69
984.67	2376.99
984.969	2410.2
985.267	2350.55
985.566	2376.76
985.864	2331.79
986.162	2344.22
986.461	2338.12
986.759	2303.77
987.057	2325.01
987.355	2296.31
987.653	2306.25
987.951	2272.13
988.249	2261.51
988.547	2263.09
988.844	2243.2
989.142	2230.1
989.44	2211.11
989.737	2169.76
990.035	2194.39
990.332	2218.35
990.63	2180.38
990.927	2187.39
991.224	2185.13
991.521	2165.01
991.819	2154.62
992.116	2144.9
992.413	2146.71
992.71	2105.81
993.006	2094.73
993.303	2120.27
993.6	2073.04
993.897	2065.36
994.193	2068.07
994.49	2061.97
994.787	2045.69
995.083	2024.68
995.379	2077.33
995.676	2048.18
995.972	1988.75
996.268	2002.08
996.565	1995.98
996.861	1991.91
997.157	1982.65
997.453	1954.17
997.749	1954.62
998.044	1950.78
998.34	1946.04
998.636	1929.54
998.932	1931.57
999.227	1889.31
999.523	1873.95
999.818	1906.72
1000.114	1901.29
1000.409	1882.54
1000.704	1864.68
1001	1873.72
1001.295	1846.6
1001.59	1846.83
1001.885	1821.52
1002.18	1806.38
1002.475	1797.79
1002.77	1778.36
1003.065	1770.67
1003.359	1776.32
1003.654	1748.75
1003.949	1744.01
1004.243	1737.23
1004.538	1725.03
1004.832	1731.58
1005.127	1716.89
1005.421	1728.19
1005.715	1685.7
1006.009	1689.09
1006.304	1680.51
1006.598	1662.2
1006.892	1688.64
1007.186	1651.13
1007.48	1655.65
1007.773	1616.55
1008.067	1630.11
1008.361	1603.9
1008.655	1624.46
1008.948	1612.49
1009.242	1590.79
1009.535	1607.74
1009.829	1573.62
1010.122	1573.16
1010.415	1572.94
1010.708	1546.5
1011.001	1541.53
1011.295	1537.91
1011.588	1530.91
1011.881	1515.09
1012.173	1517.12
1012.466	1479.16
1012.759	1491.81
1013.052	1497.01
1013.344	1470.79
1013.637	1461.76
1013.93	1428.08
1014.222	1468.31
1014.514	1450.23
1014.807	1440.74
1015.099	1395.54
1015.391	1428.31
1015.683	1442.77
1015.976	1413.85
1016.268	1401.64
1016.56	1371.81
1016.851	1384.92
1017.143	1358.71
1017.435	1351.93
1017.727	1353.06
1018.018	1353.96
1018.31	1340.4
1018.602	1337.01
1018.893	1321.87
1019.185	1305.6
1019.476	1290.69
1019.767	1307.41
1020.058	1312.83
1020.35	1284.36
1020.641	1262.21
1020.932	1266.28
1021.223	1261.99
1021.514	1247.98
1021.804	1239.61
1022.095	1245.94
1022.386	1240.07
1022.677	1204.14
1022.967	1200.07
1023.258	1204.59
1023.548	1196
1023.839	1194.64
1024.129	1181.31
1024.419	1175.89
1024.709	1184.47
1025	1166.85
1025.29	1149.45
1025.58	1139.5
1025.87	1153.29
1026.16	1138.6
1026.449	1135.89
1026.739	1105.15
1027.029	1101.09
1027.319	1116.91
1027.608	1120.3
1027.898	1091.37
1028.187	1070.35
1028.477	1084.59
1028.766	1074.19
1029.055	1070.13
1029.344	1059.28
1029.634	1053.86
1029.923	1048.66
1030.212	1036.91
1030.501	1012.73
1030.79	1007.76
1031.078	1019.06
1031.367	995.78
1031.656	980.64
1031.945	997.81
1032.233	972.73
1032.522	993.07
1032.81	992.16
1033.099	953.52
1033.387	972.73
1033.675	986.74
1033.963	937.25
1034.251	941.77
1034.54	929.34
1034.828	926.63
1035.116	917.14
1035.403	916.91
1035.691	921.66
1035.979	942
1036.267	927.31
1036.554	905.61
1036.842	908.1
1037.129	897.02
1037.417	865.39
1037.704	874.88
1037.992	901.77
1038.279	876.01
1038.566	875.1
1038.853	875.1
1039.14	875.1
