Data from hue_320_FLMS001491_8.txt Node
Date: Mon Feb 06 15:46:37 GMT 2017
User: dcchb
Spectrometer: FLMS00149
Trigger mode: 0
Integration Time (sec): 2.000000E-2
Scans to average: 10
Electric dark correction enabled: true
Nonlinearity correction enabled: false
Boxcar width: 0
XAxis mode: Wavelengths
Number of Pixels in Spectrum: 2048
>>>>>Begin Spectral Data<<<<<
341.393	-22.87
341.776	-22.87
342.16	-22.87
342.543	-74.16
342.927	-67.84
343.31	-46.37
343.693	-82.75
344.077	-89.76
344.46	-62.19
344.843	-55.18
345.226	-38.01
345.61	-26.26
345.993	-17.22
346.376	8.09
346.759	23.01
347.142	36.79
347.525	25.95
347.908	58.71
348.291	64.36
348.674	91.25
349.057	109.56
349.44	119.73
349.823	133.97
350.206	154.76
350.588	199.95
350.971	195.66
351.354	213.29
351.737	226.17
352.119	256.9
352.502	260.29
352.884	280.4
353.267	282.66
353.65	275.66
354.032	284.24
354.414	286.73
354.797	317.01
355.179	312.94
355.562	316.79
355.944	313.17
356.326	326.05
356.709	335.54
357.091	329.44
357.473	342.1
357.855	321.76
358.238	338.03
358.62	329.21
359.002	336.67
359.384	328.08
359.766	330.34
360.148	339.61
360.53	340.74
360.912	350
361.294	346.84
361.676	345.94
362.057	335.54
362.439	331.25
362.821	331.02
363.203	333.96
363.584	323.11
363.966	319.5
364.348	317.24
364.729	317.46
365.111	336.67
365.493	325.15
365.874	316.79
366.256	303.23
366.637	338.71
367.019	305.03
367.4	320.18
367.781	307.07
368.163	310.46
368.544	295.54
368.925	317.46
369.306	321.31
369.688	311.14
370.069	310.01
370.45	307.07
370.831	330.8
371.212	311.59
371.593	320.4
371.974	292.61
372.355	314.98
372.736	335.09
373.117	326.28
373.498	304.36
373.879	293.74
374.26	324.47
374.641	291.7
375.021	307.07
375.402	326.95
375.783	330.34
376.163	309.78
376.544	316.11
376.925	310.46
377.305	333.73
377.686	333.28
378.066	332.6
378.447	339.84
378.827	325.82
379.208	317.69
379.588	325.82
379.968	338.93
380.349	334.86
380.729	335.77
381.109	326.73
381.489	335.77
381.87	334.41
382.25	337.12
382.63	340.06
383.01	334.64
383.39	329.44
383.77	334.86
384.15	344.36
384.53	325.15
384.91	336.9
385.29	364.47
385.67	340.97
386.049	359.95
386.429	342.32
386.809	354.3
387.189	357.01
387.568	333.28
387.948	337.35
388.328	340.97
388.707	350
389.087	341.87
389.466	332.83
389.846	359.04
390.225	373.96
390.605	347.75
390.984	362.89
391.363	366.95
391.743	361.3
392.122	361.98
392.501	380.06
392.881	371.02
393.26	367.41
393.639	366.05
394.018	373.51
394.397	369.44
394.776	371.25
395.155	369.21
395.534	388.65
395.913	391.13
396.292	385.03
396.671	391.36
397.05	391.13
397.429	380.74
397.808	384.35
398.186	395.2
398.565	389.78
398.944	409.21
399.323	399.04
399.701	410.79
400.08	401.08
400.458	408.76
400.837	399.72
401.215	392.26
401.594	395.2
401.972	413.73
402.351	424.35
402.729	434.75
403.107	408.08
403.486	402.21
403.864	408.53
404.242	421.87
404.62	439.49
404.999	418.7
405.377	437.69
405.755	437.01
406.133	447.86
406.511	443.56
406.889	443.11
407.267	458.93
407.645	459.61
408.023	458.25
408.401	455.76
408.779	474.52
409.156	469.55
409.534	482.66
409.912	469.78
410.29	467.52
410.667	480.62
411.045	507.06
411.422	502.54
411.8	503.22
412.178	511.36
412.555	512.03
412.933	511.13
413.31	541.86
413.687	525.37
414.065	564.91
414.442	543.22
414.819	559.26
415.197	556.78
415.574	563.11
415.951	607.85
416.328	586.16
416.705	590.45
417.082	588.19
417.46	616.21
417.837	622.31
418.214	626.83
418.591	637.23
418.967	625.03
419.344	625.93
419.721	644.91
420.098	657.79
420.475	631.35
420.852	661.86
421.228	677.91
421.605	662.09
421.982	678.81
422.358	698.47
422.735	691.24
423.111	682.2
423.488	687.62
423.864	740.96
424.241	724.91
424.617	721.97
424.994	719.03
425.37	725.36
425.746	767.4
426.123	773.72
426.499	769.2
426.875	778.24
427.251	767.62
427.627	798.81
428.003	815.08
428.379	808.07
428.756	814.63
429.132	838.81
429.507	832.48
429.883	834.96
430.259	843.33
430.635	854.62
431.011	839.26
431.387	876.77
431.763	886.04
432.138	925.81
432.514	906.15
432.89	935.75
433.265	944.57
433.641	951.12
434.016	954.96
434.392	957.45
434.767	966.49
435.143	977.79
435.518	1004.68
435.894	982.08
436.269	971.23
436.644	997.45
437.02	1055.52
437.395	1029.54
437.77	1056.88
438.145	1055.98
438.52	1053.72
438.895	1046.94
439.271	1059.82
439.646	1102.98
440.021	1109.98
440.395	1094.62
440.77	1088.52
441.145	1110.66
441.52	1118.12
441.895	1122.64
442.27	1120.83
442.645	1134.39
443.019	1147.72
443.394	1142.98
443.769	1168.74
444.143	1142.53
444.518	1184.56
444.892	1171.23
445.267	1195.86
445.641	1197.89
446.016	1225.24
446.39	1216.42
446.764	1210.77
447.139	1200.15
447.513	1209.42
447.887	1211
448.262	1204.45
448.636	1198.8
449.01	1217.78
449.384	1248.74
449.758	1234.5
450.132	1236.99
450.506	1269.53
450.88	1252.58
451.254	1255.52
451.628	1278.34
452.002	1269.75
452.376	1276.31
452.75	1303.2
453.123	1290.77
453.497	1322.63
453.871	1309.75
454.244	1334.16
454.618	1327.83
454.992	1339.13
455.365	1321.05
455.739	1375.74
456.112	1350.43
456.486	1384.33
456.859	1364.44
457.232	1425.23
457.606	1413.93
457.979	1401.28
458.352	1431.33
458.725	1483.99
459.099	1454.16
459.472	1480.82
459.845	1505
460.218	1502.52
460.591	1512.91
460.964	1470.88
461.337	1530.76
461.71	1553.82
462.083	1602.18
462.456	1573.93
462.829	1552.91
463.201	1596.53
463.574	1595.17
463.947	1616.86
464.32	1616.41
464.692	1635.85
465.065	1654.83
465.438	1682.63
465.81	1692.12
466.183	1702.06
466.555	1702.96
466.928	1712.68
467.3	1724.88
467.672	1719.23
468.045	1771.21
468.417	1791.32
468.789	1770.08
469.161	1806.46
469.534	1843.07
469.906	1824.09
470.278	1866.12
470.65	1830.87
471.022	1913.35
471.394	1943.41
471.766	1921.49
472.138	1949.74
472.51	2002.39
472.882	2012.79
473.253	1992
473.625	2027.93
473.997	2057.76
474.369	2074.93
474.74	2098.21
475.112	2108.38
475.484	2153.57
475.855	2170.52
476.227	2198.77
476.598	2227.02
476.97	2246.23
477.341	2273.12
477.713	2303.17
478.084	2328.48
478.455	2406
478.827	2410.97
479.198	2413
479.569	2404.19
479.94	2452.32
480.311	2469.95
480.682	2500.68
481.053	2606.22
481.424	2591.08
481.795	2628.14
482.166	2648.02
482.537	2686.44
482.908	2704.52
483.279	2689.38
483.65	2782.94
484.021	2791.97
484.391	2820.45
484.762	2861.8
485.133	2864.06
485.503	2888.47
485.874	2954.46
486.244	2993.55
486.615	3011.63
486.985	2998.3
487.356	3091.63
487.726	3097.96
488.097	3121.68
488.467	3144.96
488.837	3203.49
489.207	3284.84
489.578	3297.72
489.948	3322.13
490.318	3325.07
490.688	3365.07
491.058	3352.86
491.428	3399.19
491.798	3427.21
492.168	3490.94
492.538	3511.05
492.908	3526.19
493.278	3546.53
493.648	3591.73
494.017	3587.89
494.387	3617.94
494.757	3660.88
495.126	3705.4
495.496	3723.48
495.866	3714.89
496.235	3768.67
496.605	3798.95
496.974	3756.7
497.344	3841.44
497.713	3792.17
498.082	3841.21
498.452	3856.35
498.821	3881.21
499.19	3913.3
499.559	3902.45
499.928	3969.57
500.298	3951.49
500.667	3970.47
501.036	3977.03
501.405	4023.58
501.774	4065.39
502.143	4060.42
502.512	4056.12
502.88	4064.26
503.249	4118.04
503.618	4115.1
503.987	4104.26
504.356	4162.79
504.724	4131.15
505.093	4165.72
505.462	4175.44
505.83	4183.12
506.199	4239.17
506.567	4266.74
506.936	4260.41
507.304	4272.84
507.672	4283.46
508.041	4331.14
508.409	4345.61
508.777	4374.08
509.145	4387.19
509.514	4362.33
509.882	4371.14
510.25	4417.92
510.618	4396
510.986	4434.19
511.354	4459.05
511.722	4467.18
512.09	4515.09
512.458	4511.7
512.826	4535.88
513.193	4487.75
513.561	4545.15
513.929	4561.42
514.297	4542.66
514.664	4603
515.032	4589.89
515.4	4653.85
515.767	4598.93
516.135	4663.79
516.502	4610.23
516.869	4696.78
517.237	4681.19
517.604	4692.04
517.972	4706.73
518.339	4695.2
518.706	4733.84
519.073	4731.13
519.44	4708.31
519.808	4782.66
520.175	4800.06
520.542	4783.11
520.909	4810.45
521.276	4783.11
521.643	4850.68
522.009	4878.47
522.376	4895.65
522.743	4957.34
523.11	4930.22
523.477	5026.94
523.843	4986.72
524.21	5034.4
524.577	5069.2
524.943	5080.05
525.31	5105.81
525.676	5109.65
526.043	5141.29
526.409	5208.63
526.776	5252.7
527.142	5236.66
527.508	5260.16
527.874	5309.87
528.241	5280.72
528.607	5314.17
528.973	5346.71
529.339	5391.45
529.705	5397.78
530.071	5404.11
530.437	5489.3
530.803	5459.48
531.169	5461.51
531.535	5462.41
531.901	5506.93
532.267	5584.9
532.632	5579.92
532.998	5561.39
533.364	5636.65
533.73	5635.06
534.095	5692.01
534.461	5713.71
534.826	5769.3
535.192	5761.84
535.557	5784.44
535.923	5762.52
536.288	5834.38
536.653	5783.76
537.019	5814.95
537.384	5887.49
537.749	5881.61
538.114	5864.89
538.479	5935.62
538.845	5944.21
539.21	6000.48
539.575	5975.85
539.94	6009.97
540.305	6067.82
540.67	6062.4
541.034	6133.13
541.399	6120.47
541.764	6164.09
542.129	6173.13
542.494	6180.59
542.858	6240.47
543.223	6237.99
543.587	6242.05
543.952	6274.82
544.316	6268.72
544.681	6321.15
545.045	6330.41
545.41	6344.65
545.774	6411.09
546.138	6418.32
546.503	6422.39
546.867	6451.31
547.231	6529.73
547.595	6466
547.959	6556.62
548.324	6537.41
548.688	6571.08
549.052	6591.42
549.416	6623.51
549.779	6645.88
550.143	6684.08
550.507	6717.3
550.871	6769.27
551.235	6740.57
551.599	6789.61
551.962	6795.94
552.326	6788.25
552.689	6848.82
553.053	6869.16
553.417	6820.34
553.78	6941.47
554.143	6908.7
554.507	6965.42
554.87	6920.68
555.234	6998.19
555.597	6943.05
555.96	6969.94
556.323	7002.03
556.686	7083.61
557.05	7088.36
557.413	7122.48
557.776	7065.53
558.139	7161.13
558.502	7166.77
558.865	7183.27
559.228	7199.09
559.59	7244.29
559.953	7261.91
560.316	7291.07
560.679	7280.9
561.041	7300.78
561.404	7378.07
561.767	7457.16
562.129	7375.58
562.492	7532.19
562.854	7508.69
563.217	7440.89
563.579	7490.83
563.941	7533.54
564.304	7571.74
564.666	7564.28
565.028	7608.12
565.39	7576.26
565.753	7657.38
566.115	7647.44
566.477	7731.51
566.839	7709.59
567.201	7855.8
567.563	7812.63
567.925	7799.75
568.287	7865.51
568.648	7888.34
569.01	7889.24
569.372	7932.86
569.734	7883.82
570.095	7948.68
570.457	8079.52
570.819	8043.81
571.18	8112.74
571.542	8164.71
571.903	8222.34
572.265	8251.04
572.626	8281.77
572.987	8389.57
573.349	8372.39
573.71	8418.49
574.071	8453.75
574.432	8531.71
574.794	8616.23
575.155	8620.97
575.516	8626.62
575.877	8683.12
576.238	8819.61
576.599	8896.9
576.96	8964.47
577.32	9021.42
577.681	9058.93
578.042	9201.98
578.403	9204.24
578.763	9273.61
579.124	9414.17
579.485	9531.91
579.845	9701.62
580.206	9703.88
580.566	9876.53
580.927	9991.33
581.287	10138
581.648	10323.75
582.008	10389.97
582.368	10558.78
582.728	10720.13
583.089	10868.6
583.449	11003.28
583.809	11203.05
584.169	11376.83
584.529	11506.77
584.889	11738.86
585.249	11941.34
585.609	12095.01
585.969	12350.37
586.329	12587.2
586.688	12812.05
587.048	12979.5
587.408	13231.93
587.768	13504.01
588.127	13790.1
588.487	14019.93
588.846	14296.76
589.206	14465.57
589.565	14774.26
589.925	15199.78
590.284	15427.12
590.643	15745.31
591.003	15959.54
591.362	16254.45
591.721	16575.79
592.08	16818.05
592.44	17273.85
592.799	17556.11
593.158	17813.95
593.517	18241.29
593.876	18408.74
594.235	18650.99
594.593	19077.87
594.952	19387.7
595.311	19680.8
595.67	20005.99
596.029	20535.01
596.387	20780.43
596.746	21213.64
597.104	21213.41
597.463	21761.87
597.822	22133.39
598.18	22268.3
598.538	22689.53
598.897	23128.16
599.255	23360.7
599.613	23823.51
599.972	23945.09
600.33	24405.19
600.688	24584.4
601.046	24962.92
601.404	25366.97
601.762	25521.55
602.12	26114.3
602.478	26277.91
602.836	26641.74
603.194	26810.55
603.552	27099.36
603.91	27202.86
604.268	27754.93
604.625	27886.46
604.983	28272.43
605.341	28445.31
605.698	28764.63
606.056	29120.77
606.413	29422.46
606.771	29777.48
607.128	29945.61
607.485	30124.59
607.843	30395.54
608.2	30708.08
608.557	31191.91
608.914	31415.85
609.272	31537.89
609.629	31775.85
609.986	32138.32
610.343	32241.82
610.7	32657.18
611.057	32865.53
611.414	32865.99
611.771	33246.09
612.127	33471.62
612.484	33675.91
612.841	33905.05
613.198	34060.53
613.554	34204.48
613.911	34543
614.267	34776.67
614.624	34838.14
614.98	35060.5
615.337	35458.91
615.693	35431.79
616.05	35552.24
616.406	36068.16
616.762	35901.84
617.118	36072.91
617.475	36319.23
617.831	36449.62
618.187	36714.02
618.543	36886.45
618.899	37085.31
619.255	37088.02
619.611	37276.49
619.967	37604.62
620.323	37622.25
620.678	37609.14
621.034	37685.97
621.39	37913.09
621.746	37853.88
622.101	38356.46
622.457	38315.11
622.812	38339.51
623.168	38613.18
623.523	38556.68
623.879	38961.87
624.234	38584.03
624.589	38901.76
624.945	39074.86
625.3	39080.51
625.655	39289.09
626.01	39338.13
626.365	39432.37
626.72	39456.1
627.075	39445.25
627.43	39478.92
627.785	39516.43
628.14	39706.26
628.495	39782.19
628.85	39867.61
629.205	39810.44
629.559	39979.92
629.914	39856.99
630.269	39955.07
630.623	39926.14
630.978	39868.06
631.332	40120.48
631.687	40249.52
632.041	40264.66
632.396	40255.62
632.75	40128.39
633.104	40285
633.459	40124.33
633.813	40233.02
634.167	40174.27
634.521	40192.35
634.875	40302.4
635.229	40244.1
635.583	40104.67
635.937	40167.49
636.291	40248.62
636.645	40224.66
636.999	40187.83
637.352	40284.1
637.706	40146.7
638.06	40269.41
638.413	40235.96
638.767	40303.98
639.121	40295.62
639.474	40135.85
639.828	40026.93
640.181	40264.89
640.534	40145.12
640.888	40179.47
641.241	39984.44
641.594	40219.47
641.947	40267.6
642.301	39969.08
642.654	40088.85
643.007	40130.88
643.36	40049.3
643.713	40027.38
644.066	40366.13
644.419	39817.22
644.771	39734.73
645.124	39447.06
645.477	39379.26
645.83	39058.37
646.182	39093.62
646.535	38956.45
646.888	39125.48
647.24	38763.68
647.593	39078.93
647.945	39012.94
648.298	38765.04
648.65	38794.42
649.002	38769.11
649.355	38902.44
649.707	38805.94
650.059	38921.19
650.411	39320.28
650.763	39502.2
651.115	39881.85
651.467	39823.32
651.819	39779.7
652.171	39661.74
652.523	39578.13
652.875	39582.19
653.227	39529.99
653.578	39795.07
653.93	39622.64
654.282	39444.34
654.633	39386.04
654.985	39530.44
655.337	39533.16
655.688	39562.08
656.039	39663.32
656.391	39276.21
656.742	39387.4
657.094	39407.51
657.445	39500.39
657.796	39425.81
658.147	39381.97
658.498	39355.31
658.849	39456.1
659.2	39427.4
659.551	39298.59
659.902	39562.53
660.253	39235.99
660.604	39385.81
660.955	39195.31
661.306	39384.01
661.656	39231.92
662.007	39266.72
662.358	39197.8
662.708	39218.59
663.059	39216.55
663.409	38992.83
663.76	39194.63
664.11	39202.99
664.461	39325.93
664.811	39203.67
665.161	39223.56
665.511	39110.57
665.862	39267.17
666.212	39137.23
666.562	39366.83
666.912	39220.62
667.262	39171.36
667.612	39168.65
667.962	39180.85
668.312	39040.51
668.662	39449.77
669.011	39152.83
669.361	39123.45
669.711	39064.02
670.06	39038.71
670.41	38983.34
670.76	39006.16
671.109	39181.3
671.459	39129.1
671.808	39021.98
672.157	39088.42
672.507	38735.44
672.856	38770.01
673.205	38838.26
673.554	39056.56
673.904	38896.79
674.253	39188.76
674.602	39049.1
674.951	38350.14
675.3	38166.64
675.649	38763.91
675.998	38687.3
676.346	38845.72
676.695	38862.89
677.044	38598.26
677.393	38710.35
677.741	38676.91
678.09	38672.61
678.438	38567.31
678.787	38618.15
679.135	38552.62
679.484	38375.22
679.832	38448.66
680.181	38236.01
680.529	38400.76
680.877	38212.29
681.225	38343.81
681.573	38642.56
681.922	38144.49
682.27	38216.81
682.618	38301.32
682.966	38078.96
683.314	38176.35
683.661	38058.84
684.009	37810.49
684.357	37791.28
684.705	37649.36
685.053	37790.15
685.4	37654.56
685.748	37657.72
686.095	37516.26
686.443	37375.47
686.79	37387.9
687.138	37495.24
687.485	37487.56
687.832	37278.07
688.18	37307
688.527	37095.71
688.874	37194.01
689.221	37096.16
689.568	36818.2
689.915	36834.02
690.262	36832.21
690.609	36755.38
690.956	36610.52
691.303	36511.09
691.65	36340.02
691.997	36431.32
692.344	36135.28
692.69	36233.36
693.037	36224.54
693.383	35909.97
693.73	36129.86
694.077	35890.54
694.423	35869.52
694.769	35831.33
695.116	35649.87
695.462	35632.69
695.808	35509.08
696.155	35716.76
696.501	35266.6
696.847	35228.41
697.193	35002.2
697.539	35149.77
697.885	34918.14
698.231	34790.68
698.577	34881.75
698.923	34695.54
699.269	34580.52
699.614	34531.03
699.96	34508.88
700.306	34502.33
700.651	34395.44
700.997	34257.59
701.342	34018.27
701.688	34076.12
702.033	33939.86
702.379	33989.57
702.724	33863.93
703.069	33895.34
703.415	33515.69
703.76	33619.64
704.105	33584.84
704.45	33586.65
704.795	33263.04
705.14	33191.85
705.485	33200.89
705.83	33032.54
706.175	33026.21
706.52	32865.08
706.865	32714.8
707.209	32899.66
707.554	32721.13
707.899	32899.66
708.243	32574.69
708.588	32684.97
708.932	32501.02
709.277	32447.47
709.621	32361.37
709.966	32130.19
710.31	32250.86
710.654	31991.88
710.998	31865.33
711.342	31966.57
711.687	31946.91
712.031	31776.98
712.375	31742.63
712.719	31727.03
713.063	31680.03
713.407	31776.98
713.75	31462.63
714.094	31532.01
714.438	31403.65
714.782	31334.05
715.125	31243.88
715.469	31308.74
715.812	31112.59
716.156	31050.67
716.499	30931.8
716.843	31078.91
717.186	30843.21
717.53	31038.24
717.873	31091.34
718.216	30833.05
718.559	30778.13
718.902	30530.91
719.246	30723.22
719.589	30584.01
719.932	30399.61
720.275	30470.12
720.617	30431.7
720.96	30306.73
721.303	30349.67
721.646	30346.28
721.989	30018.38
722.331	30272.61
722.674	30156.45
723.016	30130.92
723.359	29869.68
723.701	30057.47
724.044	29791.94
724.386	29709.91
724.729	29781.55
725.071	29704.04
725.413	29788.55
725.755	29635.34
726.097	29515.57
726.439	29439.41
726.782	29416.81
727.124	29582.91
727.465	29376.36
727.807	29281.67
728.149	29308.79
728.491	29261.56
728.833	29240.77
729.175	29224.73
729.516	29044.84
729.858	28996.71
730.199	29062.47
730.541	28999.2
730.882	28946.09
731.224	28977.05
731.565	28767.34
731.906	28780.22
732.248	28807.34
732.589	28632.88
732.93	28554.01
733.271	28577.29
733.612	28592.43
733.953	28552.88
734.294	28422.26
734.635	28385.43
734.976	28568.7
735.317	28337.97
735.658	28398.76
735.999	28408.02
736.339	28263.62
736.68	28337.07
737.021	28244.19
737.361	28138.65
737.702	28249.38
738.042	28200.57
738.383	28154.47
738.723	28070.86
739.063	28003.06
739.404	27963.74
739.744	27991.09
740.084	27859.11
740.424	27927.81
740.764	27926.23
741.104	27831.54
741.444	27698.21
741.784	27487.82
742.124	27761.26
742.464	27686.24
742.804	27540.48
743.143	27526.01
743.483	27558.1
743.823	27385
744.162	27317.66
744.502	27477.2
744.841	27367.83
745.181	27355.85
745.52	27215.97
745.86	27312.91
746.199	27171.45
746.538	27091.9
746.877	27133.93
747.216	27205.57
747.556	26932.13
747.895	27020.72
748.234	26966.03
748.573	26887.16
748.911	26813.94
749.25	26795.86
749.589	26701.18
749.928	26789.76
750.267	26675.41
750.605	26581.41
750.944	26553.84
751.283	26506.15
751.621	26524.68
751.96	26427.96
752.298	26511.12
752.636	26450.79
752.975	26068.65
753.313	26110.46
753.651	26228.19
753.989	26152.04
754.327	26137.35
754.666	25943.68
755.004	25961.31
755.342	25987.97
755.679	25887.86
756.017	25946.39
756.355	25754.76
756.693	25587.99
757.031	25753.4
757.368	25630.47
757.706	25549.57
758.044	25426.41
758.381	25543.01
758.719	25302.34
759.056	25459.63
759.394	25317.26
759.731	25221.67
760.068	25052.41
760.405	24984.84
760.743	24843.15
761.08	25051.5
761.417	24868.46
761.754	24901.9
762.091	24757.72
762.428	24748.46
762.765	24429.15
763.102	24486.09
763.438	24425.3
763.775	24332.65
764.112	24296.72
764.449	24354.8
764.785	24103.5
765.122	24107.12
765.458	23916.62
765.795	23885.88
766.131	23966.11
766.467	23826.68
766.804	23718.2
767.14	23591.2
767.476	23661.48
767.812	23459.68
768.148	23500.36
768.485	23382.62
768.821	23121.16
769.157	23167.94
769.492	23161.61
769.828	23089.07
770.164	22816.76
770.5	22851.11
770.836	22788.74
771.171	22727.95
771.507	22648.18
771.842	22453.83
772.178	22508.97
772.513	22366.38
772.849	22393.04
773.184	22148.08
773.519	22095.87
773.855	22071.02
774.19	22057.91
774.525	21865.6
774.86	22036.89
775.195	21898.36
775.53	21679.16
775.865	21662.89
776.2	21508.77
776.535	21290.7
776.87	21431.03
777.205	21342.45
777.539	21250.25
777.874	21264.71
778.209	21138.84
778.543	20995.11
778.878	20855.68
779.212	20926.64
779.547	20749.24
779.881	20701.79
780.215	20663.37
780.55	20601
780.884	20505.63
781.218	20384.96
781.552	20487.55
781.886	20198.75
782.22	20304.06
782.554	20184.96
782.888	19907.68
783.222	19928.02
783.556	19833.79
783.889	19674.92
784.223	19654.81
784.557	19629.05
784.89	19527.13
785.224	19526
785.557	19478.77
785.891	19476.06
786.224	19268.83
786.558	19286.68
786.891	19162.62
787.224	19095.95
787.557	19029.97
787.891	18975.96
788.224	18935.28
788.557	18890.08
788.89	18849.41
789.223	18794.72
789.556	18651.44
789.888	18570.32
790.221	18531.22
790.554	18467.95
790.887	18420.04
791.219	18288.52
791.552	18257.1
791.884	18221.63
792.217	18212.13
792.549	18133.04
792.882	18051.46
793.214	17926.94
793.546	17957.68
793.879	17892.59
794.211	17715.65
794.543	17760.85
794.875	17672.49
795.207	17735.31
795.539	17618.03
795.871	17464.81
796.203	17407.64
796.535	17329.45
796.867	17343.91
797.198	17213.06
797.53	17245.38
797.862	17165.83
798.193	17163.8
798.525	17075.44
798.856	17129.9
799.188	16895.56
799.519	16836.35
799.85	16747.09
800.182	16748.9
800.513	16795.67
800.844	16654.66
801.175	16639.52
801.506	16631.38
801.837	16528.79
802.168	16509.58
802.499	16467.77
802.83	16361.79
803.161	16301.45
803.491	16293.54
803.822	16249.02
804.153	16174
804.483	16057.39
804.814	16011.97
805.145	16068.01
805.475	15967.22
805.805	15858.3
806.136	15874.79
806.466	15840.9
806.796	15847
807.126	15673.9
807.457	15619.43
807.787	15663.05
808.117	15562.94
808.447	15485.43
808.777	15522.26
809.107	15461.7
809.436	15405.2
809.766	15482.71
810.096	15364.07
810.426	15347.8
810.755	15287.69
811.085	15290.4
811.414	15176.73
811.744	15030.07
812.073	15077.53
812.403	15023.29
812.732	15050.41
813.061	15019
813.39	14892.22
813.719	14856.97
814.049	14970.19
814.378	14815.39
814.707	14813.81
815.036	14758.21
815.365	14742.62
815.693	14619.23
816.022	14610.65
816.351	14600.03
816.68	14493.14
817.008	14571.78
817.337	14401.61
817.665	14397.09
817.994	14356.64
818.322	14447.71
818.651	14265.35
818.979	14381.73
819.307	14333.37
819.636	14297.89
819.964	14207.72
820.292	14139.25
820.62	14128.63
820.948	14272.8
821.276	14253.82
821.604	14169.3
821.932	14157.78
822.259	14118.68
822.587	14013.37
822.915	14011.79
823.243	14106.71
823.57	14035.29
823.898	14136.31
824.225	14117.33
824.553	14010.21
824.88	14047.5
825.207	14059.02
825.535	13992.13
825.862	14124.33
826.189	13993.26
826.516	14081.62
826.843	14116.42
827.17	14035.97
827.497	14085.91
827.824	13977.9
828.151	14092.02
828.478	14014.96
828.805	14076.2
829.131	14029.42
829.458	13936.09
829.785	13862.87
830.111	13978.57
830.438	14036.65
830.764	13972.92
831.09	14056.99
831.417	13917.33
831.743	14024
832.069	13949.87
832.395	13916.65
832.722	13993.94
833.048	13896.32
833.374	14025.8
833.7	13859.25
834.026	13823.77
834.351	13894.28
834.677	13892.93
835.003	13859.48
835.329	13866.94
835.654	13809.99
835.98	13761.86
836.306	13689.54
836.631	13807.05
836.956	13766.15
837.282	13807.96
837.607	13715.3
837.932	13621.29
838.258	13644.8
838.583	13627.4
838.908	13509.88
839.233	13554.63
839.558	13477.12
839.883	13534.52
840.208	13473.95
840.533	13516.44
840.858	13428.08
841.182	13393.96
841.507	13459.26
841.832	13375.43
842.156	13362.54
842.481	13319.38
842.805	13290
843.13	13212.49
843.454	13220.4
843.778	13148.99
844.103	13253.39
844.427	13099.95
844.751	13156.9
845.075	13026.96
845.399	13090.91
845.723	12960.52
846.047	13017.02
846.371	12915.32
846.695	12939.73
847.019	12774.31
847.343	12757.59
847.666	12663.35
847.99	12560.53
848.313	12573.86
848.637	12512.62
848.96	12497.26
849.284	12550.14
849.607	12369.35
849.931	12358.73
850.254	12340.2
850.577	12131.84
850.9	12134.1
851.223	12113.54
851.546	12071.05
851.869	11925.52
852.192	12061.34
852.515	11946.08
852.838	11859.53
853.161	11943.37
853.483	11815.69
853.806	11771.63
854.129	11751.74
854.451	11711.97
854.774	11609.6
855.096	11597.17
855.419	11528.69
855.741	11594.23
856.063	11427.68
856.385	11449.6
856.708	11438.98
857.03	11377.74
857.352	11414.35
857.674	11314.01
857.996	11292.09
858.318	11237.18
858.64	11319.89
858.961	11200.57
859.283	11054.13
859.605	11088.93
859.926	11025.43
860.248	11046.22
860.57	10980.46
860.891	11022.04
861.212	10988.82
861.534	10969.61
861.855	10903.17
862.176	10871.76
862.498	10919.44
862.819	10953.12
863.14	10792.67
863.461	10867.69
863.782	10716.96
864.103	10805.1
864.424	10775.04
864.745	10809.16
865.065	10598.55
865.386	10711.31
865.707	10701.82
866.027	10681.26
866.348	10632.22
866.668	10670.19
866.989	10648.27
867.309	10551.09
867.63	10617.76
867.95	10583.18
868.27	10453.24
868.59	10518.78
868.91	10492.11
869.23	10453.24
869.55	10448.72
869.87	10468.83
870.19	10488.95
870.51	10439.01
870.83	10385.22
871.15	10372.11
871.469	10359.23
871.789	10354.26
872.109	10366.92
872.428	10285.56
872.748	10320.14
873.067	10206.47
873.386	10348.84
873.706	10247.15
874.025	10250.76
874.344	10180.93
874.663	10224.55
874.982	10210.54
875.301	10123.08
875.62	10169.41
875.939	10049.41
876.258	10109.3
876.577	10061.84
876.896	10084.21
877.214	10002.18
877.533	9997.43
877.852	9992.69
878.17	9956.31
878.489	9972.58
878.807	10028.17
879.125	9942.75
879.444	9963.76
879.762	9870.88
880.08	9884.67
880.398	9839.47
880.716	9872.69
881.034	9788.4
881.352	9868.62
881.67	9720.15
881.988	9782.07
882.306	9695.3
882.624	9776.2
882.941	9674.73
883.259	9618.69
883.577	9620.27
883.894	9590.89
884.212	9649.2
884.529	9634.05
884.846	9537.33
885.164	9540.5
885.481	9490.1
885.798	9582.08
886.115	9489.65
886.432	9442.42
886.75	9423.21
887.067	9437.9
887.383	9429.54
887.7	9364.01
888.017	9366.72
888.334	9338.47
888.651	9277.91
888.967	9275.87
889.284	9133.28
889.6	9241.52
889.917	9146.84
890.233	9149.1
890.55	9180.51
890.866	9197
891.182	9019.83
891.498	9095.31
891.815	9045.6
892.131	9065.93
892.447	9092.15
892.763	8978.48
893.079	8909.1
893.395	8914.07
893.71	8839.95
894.026	8832.72
894.342	8868.88
894.657	8824.36
894.973	8849.89
895.289	8734.64
895.604	8709.79
895.92	8691.03
896.235	8704.59
896.55	8676.34
896.865	8610.8
897.181	8587.98
897.496	8536.46
897.811	8475.89
898.126	8477.25
898.441	8491.49
898.756	8460.98
899.071	8382.34
899.386	8389.57
899.7	8318.83
900.015	8343.02
900.33	8265.28
900.644	8255.56
900.959	8192.96
901.273	8192.06
901.588	8190.93
901.902	8100.31
902.216	8103.47
902.531	8097.82
902.845	8155.68
903.159	7992.52
903.473	7942.12
903.787	7981.67
904.101	7910.94
904.415	7889.47
904.729	7880.88
905.042	7822.8
905.356	7767.89
905.67	7807.44
905.984	7803.82
906.297	7738.06
906.611	7675.69
906.924	7672.75
907.237	7624.84
907.551	7680.43
907.864	7562.02
908.177	7555.24
908.491	7528.57
908.804	7430.5
909.117	7464.85
909.43	7406.99
909.743	7377.39
910.056	7379.2
910.368	7303.72
910.681	7300.78
910.994	7302.82
911.307	7304.17
911.619	7216.27
911.932	7236.15
912.244	7188.24
912.557	7137.85
912.869	7106.44
913.181	7061.24
913.494	7056.5
913.806	7002.03
914.118	7018.53
914.43	6935.37
914.742	6874.13
915.054	6918.87
915.366	6912.09
915.678	6849.72
915.99	6869.16
916.302	6751.64
916.613	6762.72
916.925	6756.84
917.236	6741.93
917.548	6673.23
917.859	6668.03
918.171	6595.26
918.482	6590.29
918.794	6523.63
919.105	6556.62
919.416	6493.8
919.727	6497.19
920.038	6480.47
920.349	6477.75
920.66	6394.59
920.971	6374.48
921.282	6390.98
921.593	6337.19
921.903	6284.09
922.214	6272.79
922.525	6237.31
922.835	6238.21
923.146	6192.11
923.456	6173.81
923.767	6175.16
924.077	6164.32
924.387	6089.06
924.697	6082.96
925.008	6052.68
925.318	6020.59
925.628	6012.91
925.938	5965.45
926.248	5979.46
926.558	5952.34
926.867	5838.9
927.177	5884.1
927.487	5837.32
927.796	5800.94
928.106	5779.47
928.416	5738.79
928.725	5771.78
929.034	5745.34
929.344	5723.42
929.653	5729.52
929.962	5649.07
930.271	5610.21
930.581	5612.92
930.89	5565.91
931.199	5496.31
931.508	5538.12
931.817	5521.85
932.125	5513.48
932.434	5511.9
932.743	5405.69
933.051	5388.52
933.36	5396.65
933.669	5335.64
933.977	5351.46
934.286	5360.72
934.594	5303.1
934.902	5254.06
935.21	5233.49
935.519	5267.16
935.827	5218.35
936.135	5157.56
936.443	5158.69
936.751	5113.27
937.059	5101.74
937.367	5070.33
937.674	5036.44
937.982	5048.64
938.29	5061.97
938.597	5047.51
938.905	4956.89
939.213	4959.15
939.52	4921.18
939.827	4967.96
940.135	4863.78
940.442	4842.09
940.749	4937
941.056	4860.85
941.363	4818.59
941.67	4825.59
941.977	4756.44
942.284	4721.64
942.591	4763.9
942.898	4713.73
943.205	4707.86
943.511	4688.2
943.818	4626.73
944.125	4587.41
944.431	4565.04
944.738	4553.06
945.044	4571.14
945.35	4617.24
945.657	4498.14
945.963	4532.27
946.269	4499.27
946.575	4466.73
946.881	4491.82
947.187	4457.47
947.493	4471.7
947.799	4380.86
948.105	4372.5
948.41	4346.51
948.716	4338.6
949.022	4340.63
949.327	4352.84
949.633	4270.13
949.938	4259.73
950.244	4254.76
950.549	4185.61
950.854	4250.24
951.16	4216.34
951.465	4188.55
951.77	4229.68
952.075	4170.24
952.38	4146.74
952.685	4129.79
952.99	4115.33
953.294	4072.17
953.599	4061.32
953.904	4024.26
954.209	3993.75
954.513	4033.75
954.818	3978.38
955.122	3968.44
955.426	3918.95
955.731	3923.47
956.035	3885.28
956.339	3875.56
956.643	3924.6
956.948	3889.35
957.252	3856.35
957.556	3820.2
957.86	3832.4
958.163	3794.21
958.467	3771.61
958.771	3773.64
959.075	3777.03
959.378	3733.42
959.682	3739.07
959.985	3666.53
960.289	3690.26
960.592	3649.13
960.896	3667.66
961.199	3650.26
961.502	3620.2
961.805	3624.95
962.108	3581.56
962.411	3611.16
962.714	3557.15
963.017	3562.58
963.32	3532.07
963.623	3549.47
963.926	3528.9
964.228	3475.8
964.531	3486.65
964.833	3462.01
965.136	3434.9
965.438	3436.93
965.741	3416.59
966.043	3420.43
966.345	3392.41
966.648	3388.8
966.95	3349.02
967.252	3331.17
967.554	3324.62
967.856	3310.61
968.158	3320.32
968.46	3304.28
968.761	3294.11
969.063	3259.31
969.365	3261.11
969.666	3238.52
969.968	3191.96
970.269	3195.58
970.571	3198.97
970.872	3178.18
971.174	3183.83
971.475	3135.92
971.776	3109.93
972.077	3105.64
972.378	3090.95
972.679	3096.15
972.98	3035.36
973.281	3044.4
973.582	3055.92
973.883	3007.34
974.183	2996.71
974.484	3016.6
974.785	2964.63
975.085	3011.18
975.386	2944.06
975.686	2967.34
975.986	2894.34
976.287	2897.28
976.587	2947
976.887	2898.64
977.187	2860
977.487	2850.96
977.787	2856.15
978.087	2845.53
978.387	2851.63
978.687	2853.44
978.987	2804.4
979.286	2795.82
979.586	2756.95
979.885	2771.64
980.185	2758.98
980.484	2733.67
980.784	2740.22
981.083	2737.74
981.382	2728.02
981.682	2689.38
981.981	2699.1
982.28	2723.73
982.579	2664.29
982.878	2698.19
983.177	2625.65
983.475	2630.85
983.774	2586.1
984.073	2631.3
984.372	2589.04
984.67	2579.55
984.969	2613.67
985.267	2582.26
985.566	2530.29
985.864	2553.56
986.162	2527.8
986.461	2535.94
986.759	2510.17
987.057	2495.71
987.355	2487.58
987.653	2463.4
987.951	2459.55
988.249	2455.03
988.547	2422.04
988.844	2407.58
989.142	2429.72
989.44	2429.05
989.737	2381.59
990.035	2400.57
990.332	2356.28
990.63	2366
990.927	2371.87
991.224	2331.2
991.521	2325.09
991.819	2328.71
992.116	2308.37
992.413	2286.68
992.71	2307.24
993.006	2261.59
993.303	2260.46
993.6	2260.92
993.897	2241.48
994.193	2238.99
994.49	2237.41
994.787	2203.97
995.083	2245.32
995.379	2190.41
995.676	2187.7
995.972	2197.41
996.268	2200.58
996.565	2122.39
996.861	2190.86
997.157	2112.44
997.453	2134.14
997.749	2152.22
998.044	2078.55
998.34	2099.34
998.636	2083.97
998.932	2090.07
999.227	2086.23
999.523	2048.72
999.818	2018.66
1000.114	2032.45
1000.409	2009.85
1000.704	2016.63
1001	1987.93
1001.295	1961.71
1001.59	1977.98
1001.885	1968.04
1002.18	1976.63
1002.475	1942.73
1002.77	1951.54
1003.065	1917.2
1003.359	1909.51
1003.654	1908.83
1003.949	1919.68
1004.243	1894.6
1004.538	1872.22
1004.832	1846.01
1005.127	1834.26
1005.421	1834.94
1005.715	1837.88
1006.009	1808.5
1006.304	1829.29
1006.598	1780.93
1006.892	1817.08
1007.186	1780.25
1007.48	1749.52
1007.773	1767.14
1008.067	1750.87
1008.361	1767.82
1008.655	1739.8
1008.948	1723.98
1009.242	1735.51
1009.535	1722.85
1009.829	1688.05
1010.122	1688.5
1010.415	1669.52
1010.708	1662.51
1011.001	1695.05
1011.295	1660.7
1011.588	1630.65
1011.881	1630.65
1012.173	1610.08
1012.466	1611.44
1012.759	1613.02
1013.052	1583.87
1013.344	1591.1
1013.637	1583.64
1013.93	1553.36
1014.222	1537.09
1014.514	1536.41
1014.807	1554.72
1015.099	1536.19
1015.391	1493.25
1015.683	1480.14
1015.976	1492.35
1016.268	1492.35
1016.56	1506.13
1016.851	1483.99
1017.143	1446.7
1017.435	1470.65
1017.727	1440.82
1018.018	1448.06
1018.31	1443.08
1018.602	1447.38
1018.893	1424.1
1019.185	1414.38
1019.476	1391.33
1019.767	1391.33
1020.058	1375.51
1020.35	1350.43
1020.641	1363.09
1020.932	1361.28
1021.223	1356.08
1021.514	1356.98
1021.804	1297.1
1022.095	1317.66
1022.386	1323.09
1022.677	1309.53
1022.967	1307.49
1023.258	1262.3
1023.548	1277.44
1023.839	1285.35
1024.129	1283.99
1024.419	1233.15
1024.709	1245.35
1025	1235.18
1025.29	1228.17
1025.58	1248.29
1025.87	1216.42
1026.16	1198.57
1026.449	1211
1026.739	1177.78
1027.029	1202.64
1027.319	1190.89
1027.608	1171
1027.898	1133.49
1028.187	1140.49
1028.477	1144.56
1028.766	1135.07
1029.055	1156.09
1029.344	1119.48
1029.634	1095.97
1029.923	1100.27
1030.212	1112.47
1030.501	1099.82
1030.79	1090.78
1031.078	1074.73
1031.367	1086.26
1031.656	1075.41
1031.945	1084.67
1032.233	1050.78
1032.522	1054.85
1032.81	1047.16
1033.099	1034.96
1033.387	1030.66
1033.675	1019.14
1033.963	1037.9
1034.251	1042.42
1034.54	1011.46
1034.828	1020.04
1035.116	996.09
1035.403	990.67
1035.691	996.09
1035.979	953.15
1036.267	959.93
1036.554	950.89
1036.842	942.31
1037.129	955.19
1037.417	927.39
1037.704	937.11
1037.992	899.59
1038.279	904.57
1038.566	929.65
1038.853	929.65
1039.14	929.65
