Data from hue_250_FLMS001491_00002.txt Node
Date: Tue Feb 07 16:00:27 GMT 2017
User: dcchb
Spectrometer: FLMS00149
Trigger mode: 0
Integration Time (sec): 2.000000E-2
Scans to average: 10
Electric dark correction enabled: true
Nonlinearity correction enabled: false
Boxcar width: 0
XAxis mode: Wavelengths
Number of Pixels in Spectrum: 2048
>>>>>Begin Spectral Data<<<<<
341.393	-7.03
341.776	-7.03
342.16	-7.03
342.543	-73.47
342.927	-70.31
343.31	-67.82
343.693	-80.25
344.077	-62.4
344.46	-54.72
344.843	-44.32
345.226	-41.16
345.61	-36.41
345.993	-18.78
346.376	-2.06
346.759	36.58
347.142	8.11
347.525	26.86
347.908	56.92
348.291	79.29
348.674	98.27
349.057	101.89
349.44	127.2
349.823	140.76
350.206	147.76
350.588	181.21
350.971	199.74
351.354	225.05
351.737	217.14
352.119	246.74
352.502	265.95
352.884	255.33
353.267	283.58
353.65	291.04
354.032	271.83
354.414	274.99
354.797	278.16
355.179	294.88
355.562	304.37
355.944	292.85
356.326	305.95
356.709	333.75
357.091	320.42
357.473	327.87
357.855	339.4
358.238	327.19
358.62	323.35
359.002	316.12
359.384	327.42
359.766	327.19
360.148	328.32
360.53	311.38
360.912	328.78
361.294	340.08
361.676	333.3
362.057	336.91
362.439	317.03
362.821	301.43
363.203	328.78
363.584	335.33
363.966	325.84
364.348	325.61
364.729	321.55
365.111	302.79
365.493	314.09
365.874	312.05
366.256	314.77
366.637	295.11
367.019	295.56
367.4	310.25
367.781	290.36
368.163	297.59
368.544	315.44
368.925	282.68
369.306	301.21
369.688	284.26
370.069	294.88
370.45	298.72
370.831	310.92
371.212	301.66
371.593	302.79
371.974	305.27
372.355	304.6
372.736	295.11
373.117	285.84
373.498	302.34
373.879	318.83
374.26	300.53
374.641	298.49
375.021	286.07
375.402	298.04
375.783	300.98
376.163	304.37
376.544	338.72
376.925	308.44
377.305	314.99
377.686	315.44
378.066	323.58
378.447	323.13
378.827	326.52
379.208	302.79
379.588	310.02
379.968	310.92
380.349	319.29
380.729	324.71
381.109	332.62
381.489	317.25
381.87	337.59
382.25	318.38
382.63	318.38
383.01	307.53
383.39	337.82
383.77	329.68
384.15	326.06
384.53	345.5
384.91	334.88
385.29	348.21
385.67	343.69
386.049	331.49
386.429	325.16
386.809	331.71
387.189	346.86
387.568	346.18
387.948	349.34
388.328	343.24
388.707	351.37
389.087	352.28
389.466	362.45
389.846	343.24
390.225	344.14
390.605	341.43
390.984	350.92
391.363	375.33
391.743	357.93
392.122	372.84
392.501	354.76
392.881	351.15
393.26	351.83
393.639	360.64
394.018	367.87
394.397	373.07
394.776	365.61
395.155	380.75
395.534	375.56
395.913	352.73
396.292	377.36
396.671	380.53
397.05	392.5
397.429	392.96
397.808	358.15
398.186	388.21
398.565	384.14
398.944	380.3
399.323	383.69
399.701	403.12
400.08	382.11
400.458	396.57
400.837	399.74
401.215	400.41
401.594	414.65
401.972	414.42
402.351	405.38
402.729	402.22
403.107	423.01
403.486	423.69
403.864	400.19
404.242	436.8
404.62	417.36
404.999	425.72
405.377	405.84
405.755	451.71
406.133	440.41
406.511	454.88
406.889	421.88
407.267	438.38
407.645	433.86
408.023	454.65
408.401	457.81
408.779	469.79
409.156	457.13
409.534	472.95
409.912	481.77
410.29	484.7
410.667	479.06
411.045	501.88
411.422	498.04
411.8	513.18
412.178	532.16
412.555	521.31
412.933	523.35
413.31	526.29
413.687	527.19
414.065	535.1
414.442	554.31
414.819	524.93
415.197	556.79
415.574	589.11
415.951	581.43
416.328	594.08
416.705	596.11
417.082	588.66
417.46	609.45
417.837	602.22
418.214	598.6
418.591	625.04
418.967	594.08
419.344	614.87
419.721	621.2
420.098	652.38
420.475	642.67
420.852	645.15
421.228	650.58
421.605	663.91
421.982	670.24
422.358	701.42
422.735	686.96
423.111	694.64
423.488	696
423.864	711.82
424.241	751.59
424.617	748.2
424.994	743.68
425.37	744.36
425.746	757.47
426.123	773.51
426.499	760.63
426.875	787.07
427.251	804.92
427.627	826.16
428.003	816.45
428.379	819.39
428.756	847.63
429.132	858.25
429.507	850.12
429.883	861.42
430.259	871.14
430.635	883.79
431.011	929.21
431.387	904.81
431.763	919.27
432.138	933.28
432.514	922.43
432.89	939.83
433.265	968.76
433.641	992.94
434.016	985.93
434.392	1025.93
434.767	1035.42
435.143	1048.76
435.518	1041.07
435.894	1053.05
436.269	1068.42
436.644	1097.8
437.02	1102.54
437.395	1109.32
437.77	1127.63
438.145	1148.19
438.52	1161.75
438.895	1154.07
439.271	1186.38
439.646	1220.05
440.021	1207.4
440.395	1241.97
440.77	1217.57
441.145	1234.52
441.52	1281.97
441.895	1285.36
442.27	1292.59
442.645	1286.49
443.019	1336.43
443.394	1326.04
443.769	1345.7
444.143	1331.91
444.518	1347.05
444.892	1363.78
445.267	1385.02
445.641	1386.38
446.016	1414.17
446.39	1386.6
446.764	1423.66
447.139	1418.01
447.513	1433.38
447.887	1445.36
448.262	1452.14
448.636	1462.98
449.01	1475.87
449.384	1480.16
449.758	1502.08
450.132	1512.25
450.506	1519.25
450.88	1517.67
451.254	1528.52
451.628	1581.85
452.002	1568.29
452.376	1584.11
452.75	1604.22
453.123	1609.42
453.497	1641.74
453.871	1643.32
454.244	1645.8
454.618	1673.83
454.992	1691.45
455.365	1668.85
455.739	1722.19
456.112	1737.78
456.486	1741.17
456.859	1755.18
457.232	1780.94
457.606	1796.08
457.979	1796.76
458.352	1845.12
458.725	1866.36
459.099	1866.82
459.472	1912.24
459.845	1953.59
460.218	1973.25
460.591	1960.6
460.964	1950.43
461.337	1999.02
461.71	2027.26
462.083	2024.1
462.456	2022.74
462.829	2059.13
463.201	2105.45
463.574	2075.4
463.947	2133.7
464.32	2170.54
464.692	2216.86
465.065	2196.52
465.438	2227.03
465.81	2250.08
466.183	2286.01
466.555	2325.33
466.928	2325.56
467.3	2334.37
467.672	2321.04
468.045	2449.62
468.417	2428.61
468.789	2427.93
469.161	2465.9
469.534	2488.04
469.906	2534.37
470.278	2579.79
470.65	2567.81
471.022	2617.08
471.394	2644.87
471.766	2676.29
472.138	2689.17
472.51	2772.78
472.882	2816.17
473.253	2846
473.625	2827.92
473.997	2921.7
474.369	2905.66
474.74	2947.92
475.112	2990.63
475.484	3019.55
475.855	3060.46
476.227	3093.45
476.598	3178.87
476.97	3150.85
477.341	3250.96
477.713	3268.36
478.084	3295.48
478.455	3356.27
478.827	3435.14
479.198	3495.93
479.569	3518.52
479.94	3567.79
480.311	3597.39
480.682	3659.99
481.053	3759.65
481.424	3781.57
481.795	3798.74
482.166	3842.36
482.537	3881.9
482.908	3995.12
483.279	4029.02
483.65	4060.43
484.021	4113.76
484.391	4129.81
484.762	4172.74
485.133	4205.51
485.503	4257.26
485.874	4322.57
486.244	4396.24
486.615	4464.04
486.985	4506.97
487.356	4506.29
487.726	4588.33
488.097	4648.66
488.467	4707.87
488.837	4796.68
489.207	4840.3
489.578	4865.15
489.948	4925.94
490.318	4937.7
490.688	4982.44
491.058	5007.07
491.428	5038.48
491.798	5068.77
492.168	5228.08
492.538	5188.99
492.908	5273.28
493.278	5363.9
493.648	5367.97
494.017	5357.8
494.387	5443.44
494.757	5462.65
495.126	5493.61
495.496	5492.93
495.866	5542.88
496.235	5610.9
496.605	5633.72
496.974	5603.44
497.344	5700.16
497.713	5775.19
498.082	5725.92
498.452	5775.87
498.821	5806.6
499.19	5802.08
499.559	5902.19
499.928	5887.73
500.298	5922.08
500.667	5979.93
501.036	5935.86
501.405	5967.95
501.774	6004.33
502.143	6036.42
502.512	6043.65
502.88	6073.71
503.249	6113.48
503.618	6114.84
503.987	6127.49
504.356	6145.12
504.724	6208.85
505.093	6173.37
505.462	6169.53
505.83	6220.37
506.199	6278.68
506.567	6325.91
506.936	6320.94
507.304	6399.58
507.672	6406.36
508.041	6353.48
508.409	6453.36
508.777	6509.18
509.145	6468.73
509.514	6455.17
509.882	6529.07
510.25	6545.56
510.618	6468.28
510.986	6536.98
511.354	6590.31
511.722	6623.75
512.09	6665.56
512.458	6634.83
512.826	6670.53
513.193	6687.48
513.561	6687.25
513.929	6731.77
514.297	6759.12
514.664	6790.75
515.032	6735.84
515.4	6829.4
515.767	6799.34
516.135	6817.42
516.502	6770.87
516.869	6887.7
517.237	6887.02
517.604	6817.87
517.972	6880.69
518.339	6887.47
518.706	6852.22
519.073	6880.47
519.44	6942.61
519.808	6962.5
520.175	6949.17
520.542	7049.05
520.909	7014.7
521.276	7025.1
521.643	7066.45
522.009	7068.03
522.376	7099.67
522.743	7072.78
523.11	7113.01
523.477	7158.43
523.843	7128.82
524.21	7209.05
524.577	7198.2
524.943	7244.75
525.31	7223.74
525.676	7291.08
526.043	7333.34
526.409	7357.52
526.776	7354.35
527.142	7309.38
527.508	7327.69
527.874	7359.78
528.241	7404.97
528.607	7414.24
528.973	7459.44
529.339	7378.76
529.705	7442.26
530.071	7463.28
530.437	7475.48
530.803	7506.67
531.169	7538.08
531.535	7396.39
531.901	7470.96
532.267	7492.88
532.632	7548.7
532.998	7481.13
533.364	7491.53
533.73	7504.18
534.095	7522.49
534.461	7497.63
534.826	7507.12
535.192	7547.34
535.557	7558.64
535.923	7533.78
536.288	7534.01
536.653	7555.71
537.019	7503.73
537.384	7518.87
537.749	7541.02
538.114	7472.09
538.479	7456.05
538.845	7546.67
539.21	7548.02
539.575	7475.03
539.94	7513.9
540.305	7509.83
540.67	7562.26
541.034	7498.76
541.399	7461.47
541.764	7518.64
542.129	7492.88
542.494	7510.51
542.858	7452.66
543.223	7507.57
543.587	7454.69
543.952	7397.74
544.316	7468.93
544.681	7448.59
545.045	7479.78
545.41	7524.52
545.774	7483.84
546.138	7420.79
546.503	7409.49
546.867	7426.44
547.231	7368.37
547.595	7378.31
547.959	7473
548.324	7393.9
548.688	7442.49
549.052	7468.02
549.416	7427.12
549.779	7399.33
550.143	7389.16
550.507	7377.18
550.871	7387.35
551.235	7379.44
551.599	7416.95
551.962	7407.46
552.326	7386.67
552.689	7454.01
553.053	7302.6
553.417	7350.29
553.78	7359.78
554.143	7403.84
554.507	7319.78
554.87	7384.64
555.234	7439.78
555.597	7341.7
555.96	7338.99
556.323	7480.23
556.686	7362.94
557.05	7415.82
557.413	7404.75
557.776	7373.11
558.139	7441.81
558.502	7445.43
558.865	7380.34
559.228	7437.74
559.59	7448.82
559.953	7480.23
560.316	7517.51
560.679	7497.18
561.041	7559.55
561.404	7587.79
561.767	7586.89
562.129	7472.32
562.492	7609.04
562.854	7573.11
563.217	7522.71
563.579	7642.03
563.941	7676.61
564.304	7660.56
564.666	7649.49
565.028	7632.31
565.39	7660.34
565.753	7702.14
566.115	7764.97
566.477	7710.05
566.839	7708.24
567.201	7781.46
567.563	7777.62
567.925	7865.98
568.287	7840.9
568.648	7838.41
569.01	7877.05
569.372	7926.77
569.734	7875.24
570.095	7914.34
570.457	7969.03
570.819	7979.2
571.18	7981.46
571.542	7982.59
571.903	8047.67
572.265	8046.77
572.626	8079.53
572.987	8100.1
573.349	8047.9
573.71	8097.16
574.071	8150.49
574.432	8158.85
574.794	8144.62
575.155	8118.4
575.516	8109.82
575.877	8188.23
576.238	8181.23
576.599	8248.57
576.96	8243.14
577.32	8298.06
577.681	8293.76
578.042	8293.31
578.403	8316.36
578.763	8340.09
579.124	8364.72
579.485	8373.54
579.845	8396.36
580.206	8354.78
580.566	8404.95
580.927	8426.42
581.287	8442.91
581.648	8423.25
582.008	8486.75
582.368	8537.37
582.728	8538.5
583.089	8525.4
583.449	8542.8
583.809	8572.63
584.169	8548.9
584.529	8504.15
584.889	8592.06
585.249	8526.08
585.609	8570.14
585.969	8611.72
586.329	8604.27
586.688	8701.89
587.048	8599.97
587.408	8625.96
587.768	8624.6
588.127	8672.74
588.487	8661.66
588.846	8643.13
589.206	8651.5
589.565	8700.99
589.925	8771.94
590.284	8769.01
590.643	8790.25
591.003	8715.9
591.362	8740.08
591.721	8767.42
592.08	8778.05
592.44	8817.14
592.799	8807.88
593.158	8793.64
593.517	8816.46
593.876	8851.04
594.235	8797.48
594.593	8790.48
594.952	8807.88
595.311	8802.9
595.67	8904.14
596.029	8909.57
596.387	8929
596.746	8882.45
597.104	8902.34
597.463	8933.97
597.822	8990.92
598.18	8932.62
598.538	8857.82
598.897	8975.55
599.255	8864.37
599.613	8986.63
599.972	8953.63
600.33	8975.33
600.688	8896.24
601.046	8963.58
601.404	9017.81
601.762	8972.17
602.12	9010.58
602.478	9062.11
602.836	9014.2
603.194	8999.96
603.552	9034.54
603.91	8927.65
604.268	9042.45
604.625	9003.12
604.983	8991.37
605.341	9051.49
605.698	9092.61
606.056	9124.7
606.413	9034.08
606.771	9126.51
607.128	9125.16
607.485	9044.71
607.843	9060.3
608.2	9154.76
608.557	9139.17
608.914	9117.92
609.272	9150.92
609.629	9193.85
609.986	9192.95
610.343	9136.91
610.7	9226.4
611.057	9193.18
611.414	9153.63
611.771	9236.11
612.127	9243.12
612.484	9227.98
612.841	9221.88
613.198	9232.27
613.554	9200.63
613.911	9290.12
614.267	9291.25
614.624	9298.26
614.98	9234.08
615.337	9345.04
615.693	9308.43
616.05	9325.15
616.406	9372.83
616.762	9257.36
617.118	9348.65
617.475	9304.13
617.831	9348.88
618.187	9378.71
618.543	9362.44
618.899	9423.68
619.255	9365.15
619.611	9354.08
619.967	9370.35
620.323	9429.1
620.678	9320.63
621.034	9393.17
621.39	9363.12
621.746	9343.91
622.101	9475.65
622.457	9389.56
622.812	9406.28
623.168	9460.51
623.523	9440.85
623.879	9457.12
624.234	9369.89
624.589	9391.82
624.945	9473.62
625.3	9449.67
625.655	9413.28
626.01	9383.91
626.365	9424.81
626.72	9353.17
627.075	9423.9
627.43	9364.47
627.785	9378.26
628.14	9338.26
628.495	9376
628.85	9343.23
629.205	9304.13
629.559	9351.82
629.914	9321.08
630.269	9312.95
630.623	9297.81
630.978	9314.3
631.332	9312.95
631.687	9315.66
632.041	9335.09
632.396	9274.08
632.75	9252.84
633.104	9257.81
633.459	9202.67
633.813	9242.89
634.167	9222.33
634.521	9215.1
634.875	9258.26
635.229	9165.15
635.583	9119.51
635.937	9195.89
636.291	9086.96
636.645	9090.58
636.999	9089.22
637.352	9160.63
637.706	9150.92
638.06	9119.51
638.413	9085.61
638.767	9028.89
639.121	9107.53
639.474	9010.58
639.828	8991.83
640.181	9076.8
640.534	8972.39
640.888	8966.97
641.241	8971.94
641.594	9011.71
641.947	8977.59
642.301	8961.32
642.654	9013.52
643.007	8983.92
643.36	8916.57
643.713	8887.42
644.066	8964.26
644.419	8906.86
644.771	8884.71
645.124	8807.88
645.477	8750.25
645.83	8692.17
646.182	8715.22
646.535	8700.76
646.888	8663.92
647.24	8662.34
647.593	8729.69
647.945	8637.03
648.298	8605.62
648.65	8569.69
649.002	8580.09
649.355	8604.94
649.707	8612.85
650.059	8598.39
650.411	8726.52
650.763	8721.55
651.115	8850.81
651.467	8799.74
651.819	8853.3
652.171	8759.74
652.523	8759.97
652.875	8820.08
653.227	8822.11
653.578	8861.66
653.93	8805.16
654.282	8696.01
654.633	8701.44
654.985	8725.62
655.337	8726.97
655.688	8815.33
656.039	8810.36
656.391	8683.59
656.742	8789.35
657.094	8720.87
657.445	8762.91
657.796	8762
658.147	8743.7
658.498	8717.26
658.849	8697.37
659.2	8761.32
659.551	8763.36
659.902	8718.61
660.253	8722
660.604	8752.51
660.955	8686.3
661.306	8718.39
661.656	8737.82
662.007	8837.25
662.358	8721.78
662.708	8701.21
663.059	8783.7
663.409	8695.79
663.76	8743.02
664.11	8770.36
664.461	8757.03
664.811	8799.29
665.161	8793.64
665.511	8734.43
665.862	8698.27
666.212	8774.43
666.562	8771.72
666.912	8698.95
667.262	8771.72
667.612	8821.89
667.962	8759.97
668.312	8709.8
668.662	8742.57
669.011	8752.74
669.361	8726.3
669.711	8705.73
670.06	8762
670.41	8727.88
670.76	8647.2
671.109	8693.3
671.459	8682
671.808	8628.67
672.157	8677.94
672.507	8636.81
672.856	8630.93
673.205	8684.49
673.554	8699.63
673.904	8621.44
674.253	8693.75
674.602	8616.92
674.951	8557.94
675.3	8445.4
675.649	8592.29
675.998	8606.3
676.346	8608.78
676.695	8636.13
677.044	8564.04
677.393	8550.48
677.741	8550.03
678.09	8550.93
678.438	8558.16
678.787	8596.81
679.135	8545.06
679.484	8532.63
679.832	8509.13
680.181	8498.28
680.529	8498.28
680.877	8486.3
681.225	8462.12
681.573	8500.09
681.922	8427.55
682.27	8485.17
682.618	8444.27
682.966	8354.33
683.314	8389.13
683.661	8413.76
684.009	8385.97
684.357	8324.27
684.705	8316.82
685.053	8299.87
685.4	8232.3
685.748	8255.12
686.095	8278.17
686.443	8225.52
686.79	8203.6
687.138	8156.37
687.485	8230.26
687.832	8167.67
688.18	8143.49
688.527	8095.8
688.874	8169.7
689.221	8119.53
689.568	8058.06
689.915	7994.34
690.262	8005.86
690.609	7960.89
690.956	7965.64
691.303	7951.18
691.65	7875.47
691.997	7918.63
692.344	7807.45
692.69	7839.99
693.037	7793.44
693.383	7736.04
693.73	7798.64
694.077	7769.26
694.423	7764.74
694.769	7676.38
695.116	7724.29
695.462	7666.44
695.808	7668.7
696.155	7672.31
696.501	7647.45
696.847	7596.16
697.193	7526.78
697.539	7511.19
697.885	7534.91
698.231	7458.76
698.577	7495.14
698.923	7424.86
699.269	7461.47
699.614	7340.34
699.96	7310.06
700.306	7338.31
700.651	7247.24
700.997	7257.63
701.342	7308.93
701.688	7249.72
702.033	7234.36
702.379	7154.81
702.724	7193.23
703.069	7137.19
703.415	7130.18
703.76	7084.98
704.105	7083.18
704.45	7063.51
704.795	7025.78
705.14	6963.63
705.485	6992.1
705.83	6912.56
706.175	6968.6
706.52	6935.16
706.865	6935.38
707.209	6894.93
707.554	6887.93
707.899	6899
708.243	6824.2
708.588	6813.35
708.932	6719.34
709.277	6805.44
709.621	6793.24
709.966	6720.7
710.31	6759.12
710.654	6628.05
710.998	6742.62
711.342	6701.49
711.687	6651.77
712.031	6646.35
712.375	6665.56
712.719	6622.85
713.063	6598.22
713.407	6639.57
713.75	6606.8
714.094	6592.34
714.438	6564.09
714.782	6557.99
715.125	6541.04
715.469	6576.75
715.812	6513.92
716.156	6493.81
716.499	6472.34
716.843	6445.23
717.186	6441.61
717.53	6476.19
717.873	6455.62
718.216	6417.66
718.559	6366.13
718.902	6378.34
719.246	6376.08
719.589	6399.8
719.932	6379.69
720.275	6425.57
720.617	6306.47
720.96	6393.25
721.303	6336.3
721.646	6310.31
721.989	6308.96
722.331	6346.47
722.674	6318.22
723.016	6289.07
723.359	6344.89
723.701	6274.84
724.044	6294.04
724.386	6233.03
724.729	6307.83
725.071	6319.58
725.413	6218.11
725.755	6203.65
726.097	6208.4
726.439	6210.88
726.782	6249.3
727.124	6205.23
727.465	6226.7
727.807	6237.32
728.149	6212.46
728.491	6254.27
728.833	6166.82
729.175	6223.31
729.516	6193.48
729.858	6220.15
730.199	6171.33
730.541	6180.6
730.882	6207.94
731.224	6184.67
731.565	6144.44
731.906	6185.8
732.248	6184.22
732.589	6092.24
732.93	6078.46
733.271	6106.25
733.612	6141.73
733.953	6173.82
734.294	6126.82
734.635	6093.82
734.976	6120.04
735.317	6103.54
735.658	6120.49
735.999	6120.49
736.339	6123.2
736.68	6162.07
737.021	6155.06
737.361	6066.25
737.702	6161.62
738.042	6125.69
738.383	6173.37
738.723	6176.31
739.063	6109.19
739.404	6162.97
739.744	6106.48
740.084	6156.42
740.424	6198
740.764	6211.56
741.104	6218.79
741.444	6131.79
741.784	6160.04
742.124	6193.26
742.464	6212.69
742.804	6200.26
743.143	6162.97
743.483	6233.48
743.823	6152.35
744.162	6214.05
744.502	6258.11
744.841	6273.25
745.181	6323.42
745.52	6268.73
745.86	6363.65
746.199	6390.54
746.538	6385.11
746.877	6488.39
747.216	6442.51
747.556	6461.04
747.895	6460.14
748.234	6468.28
748.573	6528.16
748.911	6581.27
749.25	6647.48
749.589	6593.92
749.928	6765.44
750.267	6723.86
750.605	6802.96
750.944	6826.91
751.283	6816.52
751.621	6976.06
751.96	6934.25
752.298	7012.44
752.636	7068.26
752.975	7077.53
753.313	7157.3
753.651	7321.14
753.989	7312.1
754.327	7384.64
754.666	7454.24
755.004	7570.85
755.342	7662.37
755.679	7733.55
756.017	7736.04
756.355	7848.35
756.693	7920.89
757.031	8056.03
757.368	8125.63
757.706	8152.53
758.044	8295.12
758.381	8463.48
758.719	8511.84
759.056	8675.9
759.394	8667.09
759.731	8788.22
760.068	8835.9
760.405	9002.22
760.743	9056.68
761.08	9190.92
761.417	9306.85
761.754	9418.93
762.091	9433.62
762.428	9610.79
762.765	9618.48
763.102	9832.48
763.438	9966.49
763.775	9932.14
764.112	10144.11
764.449	10275.41
764.785	10274.73
765.122	10304.56
765.458	10392.47
765.795	10572.12
766.131	10656.41
766.467	10787.26
766.804	10800.82
767.14	10915.16
767.476	10977.76
767.812	10978.44
768.148	11144.99
768.485	11162.84
768.821	11223.18
769.157	11306.57
769.492	11441.48
769.828	11537.07
770.164	11471.53
770.5	11606.22
770.836	11680.12
771.171	11689.61
771.507	11723.73
771.842	11696.16
772.178	11868.59
772.513	11883.05
772.849	11920.11
773.184	12009.15
773.519	12060.9
773.855	12039.2
774.19	12126.66
774.525	12182.48
774.86	12243.04
775.195	12306.99
775.53	12262.93
775.865	12210.05
776.2	12248.01
776.535	12221.8
776.87	12362.36
777.205	12365.52
777.539	12341.79
777.874	12314.45
778.209	12304.96
778.543	12357.84
778.878	12370.72
779.212	12379.53
779.547	12369.82
779.881	12505.63
780.215	12342.47
780.55	12417.72
780.884	12379.08
781.218	12378.63
781.552	12411.4
781.886	12403.26
782.22	12435.8
782.554	12335.01
782.888	12281.68
783.222	12260.44
783.556	12285.98
783.889	12249.14
784.223	12135.25
784.557	12137.51
784.89	12301.34
785.224	12173.21
785.557	12145.64
785.891	12221.8
786.224	12205.98
786.558	12184.96
786.891	12087.56
787.224	12166.66
787.557	12126.66
787.891	12134.34
788.224	12106.77
788.557	12048.92
788.89	12141.57
789.223	12064.97
789.556	11994.01
789.888	12021.35
790.221	11967.11
790.554	11918.3
790.887	11989.49
791.219	11861.81
791.552	11835.14
791.884	11880.56
792.217	11826.33
792.549	11801.24
792.882	11756.95
793.214	11721.25
793.546	11745.88
793.879	11579.33
794.211	11553.57
794.543	11703.17
794.875	11565.77
795.207	11636.95
795.539	11530.74
795.871	11552.21
796.203	11507.47
796.535	11377.07
796.867	11452.1
797.198	11403.06
797.53	11392.44
797.862	11302.5
798.193	11340.46
798.525	11291.88
798.856	11307.25
799.188	11236.74
799.519	11189.06
799.85	11107.93
800.182	11124.43
800.513	11112.67
800.844	11133.92
801.175	11139.57
801.506	11143.18
801.837	11030.87
802.168	11060.47
802.499	10930.98
802.83	10980.7
803.161	10901.83
803.491	10967.14
803.822	10923.07
804.153	10827.03
804.483	10804.21
804.814	10789.29
805.145	10737.77
805.475	10718.11
805.805	10749.29
806.136	10755.62
806.466	10717.2
806.796	10751.1
807.126	10654.61
807.457	10591.56
807.787	10541.16
808.117	10589.75
808.447	10513.37
808.777	10580.71
809.107	10483.31
809.436	10548.39
809.766	10495.74
810.096	10442.18
810.426	10450.77
810.755	10426.36
811.085	10372.81
811.414	10389.53
811.744	10260.72
812.073	10205.35
812.403	10284.22
812.732	10237.67
813.061	10215.52
813.39	10188.4
813.719	10142.53
814.049	10225.69
814.378	10147.73
814.707	10085.13
815.036	10183.43
815.365	10006.71
815.693	10043.1
816.022	10047.84
816.351	10074.06
816.68	9898.69
817.008	9977.56
817.337	9867.28
817.665	9841.52
817.994	9943.89
818.322	9990.9
818.651	9881.52
818.979	9837.68
819.307	9816.89
819.636	9869.09
819.964	9772.37
820.292	9838.13
820.62	9826.61
820.948	9773.05
821.276	9843.55
821.604	9819.37
821.932	9783.67
822.259	9770.34
822.587	9714.07
822.915	9732.15
823.243	9775.53
823.57	9757.46
823.898	9775.31
824.225	9735.08
824.553	9728.3
824.88	9728.76
825.207	9787.96
825.535	9703.45
825.862	9790.22
826.189	9762.88
826.516	9737.57
826.843	9836.78
827.17	9807.4
827.497	9771.01
827.824	9791.8
828.151	9820.96
828.478	9766.95
828.805	9869.99
829.131	9776.21
829.458	9855.98
829.785	9733.95
830.111	9686.95
830.438	9808.75
830.764	9758.81
831.09	9810.56
831.417	9680.85
831.743	9778.47
832.069	9770.56
832.395	9706.84
832.722	9697.8
833.048	9734.86
833.374	9731.92
833.7	9731.47
834.026	9724.46
834.351	9705.25
834.677	9738.92
835.003	9738.7
835.329	9738.47
835.654	9720.85
835.98	9640.85
836.306	9660.73
836.631	9613.73
836.956	9628.65
837.282	9674.97
837.607	9626.61
837.932	9599.72
838.258	9600.85
838.583	9602.43
838.908	9511.81
839.233	9603.11
839.558	9513.62
839.883	9431.81
840.208	9445.6
840.533	9420.06
840.858	9387.52
841.182	9383.68
841.507	9466.84
841.832	9386.17
842.156	9389.33
842.481	9326.51
842.805	9328.54
843.13	9347.75
843.454	9360.63
843.778	9268.88
844.103	9226.4
844.427	9208.09
844.751	9314.3
845.075	9177.58
845.399	9165.83
845.723	9186.4
846.047	9114.99
846.371	9047.87
846.695	9061.2
847.019	8998.15
847.343	8949.11
847.666	8915.44
847.99	8911.38
848.313	8848.55
848.637	8751.15
848.96	8835.9
849.284	8739.85
849.607	8674.77
849.931	8677.03
850.254	8651.04
850.577	8637.71
850.9	8577.83
851.223	8570.37
851.546	8539.18
851.869	8446.08
852.192	8549.35
852.515	8458.28
852.838	8417.38
853.161	8455.57
853.483	8378.06
853.806	8351.39
854.129	8298.74
854.451	8292.86
854.774	8207.89
855.096	8249.7
855.419	8251.73
855.741	8220.09
856.063	8152.07
856.385	8119.76
856.708	8111.4
857.03	8112.07
857.352	8045.18
857.674	8026.88
857.996	7922.25
858.318	7905.07
858.64	7927.9
858.961	7967.9
859.283	7898.75
859.605	7824.4
859.926	7862.14
860.248	7865.3
860.57	7834.12
860.891	7898.07
861.212	7789.6
861.534	7739.66
861.855	7765.42
862.176	7752.76
862.498	7735.81
862.819	7778.75
863.14	7667.57
863.461	7702.37
863.782	7634.8
864.103	7707.11
864.424	7645.42
864.745	7699.66
865.065	7678.87
865.386	7617.4
865.707	7558.19
866.027	7579.43
866.348	7524.75
866.668	7581.24
866.989	7556.84
867.309	7496.72
867.63	7438.65
867.95	7498.76
868.27	7445.88
868.59	7453.34
868.91	7449.04
869.23	7501.47
869.55	7363.62
869.87	7429.15
870.19	7377.63
870.51	7405.88
870.83	7424.64
871.15	7341.93
871.469	7361.13
871.789	7367.69
872.109	7322.94
872.428	7384.64
872.748	7375.6
873.067	7418.08
873.386	7314.13
873.706	7336.73
874.025	7243.62
874.344	7253.57
874.663	7233
874.982	7264.64
875.301	7252.44
875.62	7154.81
875.939	7203.4
876.258	7185.77
876.577	7151.65
876.896	7163.63
877.214	7131.99
877.533	7134.02
877.852	7113.91
878.17	7145.55
878.489	7128.82
878.807	7097.19
879.125	7044.31
879.444	7108.94
879.762	7042.27
880.08	7096.06
880.398	7051.54
880.716	7012.67
881.034	7064.64
881.352	7050.63
881.67	6956.4
881.988	7032.33
882.306	6954.59
882.624	6894.25
882.941	6949.62
883.259	6894.93
883.577	6914.59
883.894	6910.98
884.212	6866.68
884.529	6891.54
884.846	6825.1
885.164	6788.04
885.481	6845.67
885.798	6859.45
886.115	6720.7
886.432	6755.95
886.75	6710.53
887.067	6751.21
887.383	6664.66
887.7	6736.29
888.017	6605.67
888.334	6633.92
888.651	6647.71
888.967	6641.38
889.284	6571.78
889.6	6574.94
889.917	6509.18
890.233	6535.85
890.55	6478.45
890.866	6523.42
891.182	6553.25
891.498	6507.37
891.815	6442.29
892.131	6472.12
892.447	6412.68
892.763	6416.07
893.079	6356.41
893.395	6406.36
893.71	6359.35
894.026	6383.31
894.342	6324.33
894.657	6312.12
894.973	6282.29
895.289	6263.76
895.604	6250.65
895.92	6162.07
896.235	6225.57
896.55	6179.24
896.865	6178.11
897.181	6101.73
897.496	6150.09
897.811	6089.98
898.126	6122.97
898.441	6068.06
898.756	6071.45
899.071	6032.58
899.386	6057.89
899.7	5952.36
900.015	5976.76
900.33	5904
900.644	5886.14
900.959	5856.31
901.273	5838.24
901.588	5834.62
901.902	5803.43
902.216	5780.16
902.531	5752.59
902.845	5739.48
903.159	5685.47
903.473	5713.72
903.787	5668.3
904.101	5647.73
904.415	5684.12
904.729	5661.74
905.042	5601.18
905.356	5579.26
905.67	5546.04
905.984	5570.45
906.297	5541.29
906.611	5510.11
906.924	5523.22
907.237	5505.14
907.551	5468.98
907.864	5455.42
908.177	5427.85
908.491	5469.21
908.804	5402.77
909.117	5315.31
909.43	5362.32
909.743	5316.22
910.056	5311.24
910.368	5277.12
910.681	5299.49
910.994	5258.82
911.307	5178.82
911.619	5173.85
911.932	5186.28
912.244	5192.15
912.557	5136.11
912.869	5124.36
913.181	5108.54
913.494	5032.38
913.806	5062.66
914.118	5014.98
914.43	4970.69
914.742	4992.83
915.054	4972.95
915.366	4935.21
915.678	4881.43
915.99	4925.04
916.302	4841.2
916.613	4863.35
916.925	4846.85
917.236	4831.71
917.548	4805.72
917.859	4838.26
918.171	4768.43
918.482	4737.93
918.794	4742.67
919.105	4748.1
919.416	4685.27
919.727	4715.33
920.038	4647.99
920.349	4673.52
920.66	4625.16
920.971	4645.73
921.282	4623.35
921.593	4580.87
921.903	4563.02
922.214	4545.61
922.525	4535.67
922.835	4524.15
923.146	4477.14
923.456	4502
923.767	4461.32
924.077	4458.16
924.387	4403.25
924.697	4412.06
925.008	4402.57
925.318	4377.26
925.628	4363.47
925.938	4309.91
926.248	4312.85
926.558	4291.61
926.867	4271.27
927.177	4240.76
927.487	4218.84
927.796	4191.5
928.106	4173.42
928.416	4166.64
928.725	4196.47
929.034	4154.89
929.344	4146.3
929.653	4153.99
929.962	4108.11
930.271	4032.18
930.581	4092.97
930.89	4040.54
931.199	4059.75
931.508	4018.4
931.817	4018.4
932.125	3985.63
932.434	4017.27
932.743	3962.35
933.051	3920.55
933.36	3923.94
933.669	3898.85
933.977	3873.54
934.286	3854.33
934.594	3907.44
934.902	3868.8
935.21	3825.63
935.519	3819.08
935.827	3796.48
936.135	3765.3
936.443	3807.78
936.751	3756.94
937.059	3775.47
937.367	3717.84
937.674	3756.03
937.982	3723.26
938.29	3704.28
938.597	3697.95
938.905	3664.51
939.213	3648.46
939.52	3609.82
939.827	3605.75
940.135	3619.54
940.442	3567.11
940.749	3586.77
941.056	3556.04
941.363	3529.37
941.67	3528.69
941.977	3546.32
942.284	3507.9
942.591	3523.04
942.898	3458.64
943.205	3457.51
943.511	3396.72
943.818	3388.13
944.125	3382.03
944.431	3363.5
944.738	3393.1
945.044	3347.23
945.35	3349.26
945.657	3336.38
945.963	3320.34
946.269	3266.33
946.575	3288.92
946.881	3304.74
947.187	3290.96
947.493	3264.07
947.799	3247.57
948.105	3239.43
948.41	3206.44
948.716	3222.26
949.022	3183.84
949.327	3201.92
949.633	3140.23
949.938	3114.24
950.244	3149.95
950.549	3152.43
950.854	3113.56
951.16	3116.05
951.465	3096.39
951.77	3110.4
952.075	3048.25
952.38	3047.35
952.685	3039.21
952.99	3054.13
953.294	3002.38
953.599	2973.68
953.904	2972.77
954.209	2977.97
954.513	2953.34
954.818	2971.65
955.122	2933.45
955.426	2952.66
955.731	2884.87
956.035	2921.02
956.339	2923.96
956.643	2882.16
956.948	2887.13
957.252	2880.8
957.556	2814.14
957.86	2813.01
958.163	2824.3
958.467	2805.77
958.771	2803.51
959.075	2796.06
959.378	2784.31
959.682	2745.66
959.985	2787.47
960.289	2722.16
960.592	2711.76
960.896	2701.37
961.199	2680.13
961.502	2687.13
961.805	2687.13
962.108	2655.5
962.411	2681.03
962.714	2632.44
963.017	2648.26
963.32	2611.88
963.623	2599.23
963.926	2615.72
964.228	2605.78
964.531	2563.52
964.833	2609.17
965.136	2561.49
965.438	2559.45
965.741	2532.56
966.043	2552
966.345	2530.07
966.648	2506.57
966.95	2514.48
967.252	2493.47
967.554	2465.67
967.856	2458.66
968.158	2457.08
968.46	2462.96
968.761	2427.7
969.063	2406.46
969.365	2403.52
969.666	2408.5
969.968	2412.56
970.269	2402.39
970.571	2373.24
970.872	2355.84
971.174	2339.8
971.475	2337.76
971.776	2331.66
972.077	2339.8
972.378	2321.04
972.679	2332.57
972.98	2315.39
973.281	2263.64
973.582	2286.01
973.883	2296.41
974.183	2236.98
974.484	2244.66
974.785	2217.99
975.085	2225
975.386	2241.04
975.686	2228.16
975.986	2207.15
976.287	2198.56
976.587	2162.4
976.887	2187.71
977.187	2171.21
977.487	2165.11
977.787	2202.17
978.087	2168.73
978.387	2111.78
978.687	2135.96
978.987	2111.1
979.286	2106.13
979.586	2080.82
979.885	2081.27
980.185	2080.82
980.484	2038.79
980.784	2081.72
981.083	2058.9
981.382	2042.63
981.682	2035.4
981.981	2032.46
982.28	2022.74
982.579	2029.07
982.878	1987.26
983.177	1979.35
983.475	2004.44
983.774	1965.8
984.073	1971.9
984.372	1949.3
984.67	1968.96
984.969	1979.13
985.267	1938.68
985.566	1933.71
985.864	1916.08
986.162	1924.44
986.461	1906.36
986.759	1919.02
987.057	1900.49
987.355	1871.11
987.653	1877.66
987.951	1855.97
988.249	1877.66
988.547	1833.82
988.844	1848.96
989.142	1848.96
989.44	1851.67
989.737	1811.45
990.035	1817.55
990.332	1811.68
990.63	1800.38
990.927	1808.74
991.224	1769.42
991.521	1775.74
991.819	1780.04
992.116	1760.83
992.413	1775.52
992.71	1751.11
993.006	1736.2
993.303	1726.71
993.6	1695.29
993.897	1732.36
994.193	1734.39
994.49	1706.82
994.787	1700.94
995.083	1703.43
995.379	1653.94
995.676	1662.07
995.972	1658.46
996.268	1653.26
996.565	1616.88
996.861	1642.64
997.157	1630.89
997.453	1625.92
997.749	1604.68
998.044	1599.25
998.34	1601.96
998.636	1590.89
998.932	1566.71
999.227	1576.88
999.523	1546.82
999.818	1572.36
1000.114	1520.61
1000.409	1547.73
1000.704	1529.88
1001	1528.29
1001.295	1510.67
1001.59	1509.31
1001.885	1528.97
1002.18	1487.39
1002.475	1446.04
1002.77	1481.29
1003.065	1475.19
1003.359	1479.25
1003.654	1470.89
1003.949	1432.7
1004.243	1459.37
1004.538	1412.82
1004.832	1444
1005.127	1418.01
1005.421	1413.27
1005.715	1399.48
1006.009	1404.91
1006.304	1399.93
1006.598	1373.72
1006.892	1371.69
1007.186	1352.25
1007.48	1386.15
1007.773	1364.91
1008.067	1333.95
1008.361	1333.04
1008.655	1379.14
1008.948	1323.33
1009.242	1329.43
1009.535	1305.7
1009.829	1309.99
1010.122	1292.14
1010.415	1302.08
1010.708	1292.14
1011.001	1294.63
1011.295	1291.24
1011.588	1261.18
1011.881	1260.5
1012.173	1258.47
1012.466	1246.49
1012.759	1245.36
1013.052	1260.5
1013.344	1219.6
1013.637	1227.28
1013.93	1220.96
1014.222	1191.8
1014.514	1204.69
1014.807	1183.9
1015.099	1178.02
1015.391	1180.28
1015.683	1158.81
1015.976	1186.61
1016.268	1164.01
1016.56	1156.33
1016.851	1132.15
1017.143	1138.7
1017.435	1124.24
1017.727	1166.49
1018.018	1146.38
1018.31	1114.74
1018.602	1138.7
1018.893	1086.27
1019.185	1113.84
1019.476	1087.17
1019.767	1074.52
1020.058	1062.99
1020.35	1059.6
1020.641	1079.49
1020.932	1086.04
1021.223	1044.46
1021.514	1042.43
1021.804	1045.37
1022.095	1039.27
1022.386	1002.88
1022.677	1005.6
1022.967	1046.5
1023.258	1024.35
1023.548	1033.62
1023.839	1011.02
1024.129	1009.21
1024.419	985.26
1024.709	977.12
1025	945.71
1025.29	976.22
1025.58	971.7
1025.87	955.43
1026.16	954.07
1026.449	936.67
1026.739	943.68
1027.029	941.42
1027.319	945.94
1027.608	933.51
1027.898	943.68
1028.187	908.42
1028.477	935.31
1028.766	912.26
1029.055	927.86
1029.344	887.63
1029.634	896.45
1029.923	904.81
1030.212	877.91
1030.501	890.57
1030.79	887.18
1031.078	877.69
1031.367	858.03
1031.656	825.26
1031.945	852.83
1032.233	844.92
1032.522	851.93
1032.81	822.32
1033.099	832.94
1033.387	848.76
1033.675	829.55
1033.963	793.85
1034.251	797.69
1034.54	817.13
1034.828	825.26
1035.116	792.95
1035.403	772.83
1035.691	793.85
1035.979	780.52
1036.267	769.22
1036.554	763.57
1036.842	767.86
1037.129	761.99
1037.417	751.36
1037.704	748.88
1037.992	765.15
1038.279	741.65
1038.566	743
1038.853	743
1039.14	743
