Data from hue_240_FLMS001491_00033.txt Node
Date: Tue Feb 07 16:35:23 GMT 2017
User: dcchb
Spectrometer: FLMS00149
Trigger mode: 0
Integration Time (sec): 2.000000E-2
Scans to average: 10
Electric dark correction enabled: true
Nonlinearity correction enabled: false
Boxcar width: 0
XAxis mode: Wavelengths
Number of Pixels in Spectrum: 2048
>>>>>Begin Spectral Data<<<<<
341.393	4.51
341.776	4.51
342.16	4.51
342.543	-65.32
342.927	-68.03
343.31	-74.81
343.693	-80.24
344.077	-64.19
344.46	-54.48
344.843	-52.44
345.226	-52.89
345.61	-36.85
345.993	-24.19
346.376	4.96
346.759	18.74
347.142	22.81
347.525	49.25
347.908	30.95
348.291	87.44
348.674	116.37
349.057	109.59
349.44	101.68
349.823	145.97
350.206	170.6
350.588	155.91
350.971	222.35
351.354	215.8
351.737	236.59
352.119	254.22
352.502	243.6
352.884	261
353.267	273.43
353.65	276.36
354.032	298.96
354.414	283.82
354.797	298.06
355.179	310.71
355.562	322.01
355.944	323.37
356.326	302.12
356.709	339.19
357.091	321.79
357.473	337.38
357.855	313.65
358.238	325.4
358.62	337.38
359.002	357.72
359.384	324.27
359.766	343.71
360.148	325.4
360.53	337.15
360.912	313.65
361.294	319.75
361.676	310.94
362.057	312.75
362.439	314.78
362.821	335.12
363.203	300.77
363.584	326.08
363.966	311.84
364.348	324.72
364.729	326.53
365.111	307.55
365.493	295.12
365.874	294.89
366.256	296.48
366.637	305.29
367.019	316.14
367.4	307.32
367.781	326.76
368.163	315.23
368.544	329.02
368.925	305.97
369.306	305.06
369.688	297.83
370.069	319.3
370.45	304.38
370.831	300.32
371.212	315.46
371.593	307.77
371.974	310.26
372.355	311.39
372.736	293.99
373.117	310.71
373.498	309.58
373.879	309.13
374.26	312.52
374.641	300.09
375.021	320.88
375.402	313.88
375.783	332.41
376.163	340.32
376.544	312.07
376.925	327.89
377.305	337.38
377.686	339.86
378.066	316.14
378.447	317.27
378.827	303.25
379.208	333.54
379.588	323.59
379.968	332.18
380.349	334.67
380.729	335.12
381.109	310.94
381.489	321.11
381.87	326.08
382.25	317.27
382.63	327.89
383.01	322.92
383.39	334.21
383.77	332.86
384.15	361.56
384.53	335.57
384.91	356.81
385.29	337.83
385.67	331.73
386.049	338.51
386.429	362.69
386.809	367.43
387.189	356.81
387.568	334.44
387.948	342.8
388.328	359.07
388.707	349.81
389.087	357.49
389.466	350.49
389.846	357.26
390.225	359.07
390.605	349.58
390.984	352.29
391.363	361.78
391.743	355.68
392.122	360.88
392.501	375.57
392.881	365.85
393.26	345.06
393.639	371.5
394.018	357.94
394.397	366.08
394.776	369.02
395.155	391.16
395.534	362.91
395.913	390.94
396.292	366.98
396.671	401.56
397.05	375.34
397.429	380.54
397.808	378.51
398.186	388.22
398.565	370.15
398.944	368.56
399.323	391.16
399.701	395.68
400.08	399.07
400.458	387.09
400.837	397.26
401.215	421.67
401.594	404.72
401.972	410.14
402.351	407.66
402.729	404.04
403.107	413.08
403.486	424.38
403.864	430.48
404.242	413.53
404.62	431.61
404.999	433.87
405.377	440.65
405.755	430.93
406.133	423.7
406.511	440.65
406.889	434.55
407.267	451.27
407.645	471.84
408.023	447.88
408.401	460.54
408.779	448.11
409.156	476.36
409.534	471.61
409.912	484.72
410.29	474.1
410.667	504.61
411.045	514.32
411.422	487.66
411.8	493.31
412.178	522.01
412.555	552.06
412.933	534.44
413.31	553.64
413.687	542.57
414.065	560.42
414.442	569.01
414.819	561.55
415.197	545.73
415.574	560.65
415.951	577.37
416.328	579.41
416.705	587.99
417.082	583.02
417.46	595.9
417.837	599.74
418.214	607.65
418.591	613.98
418.967	631.61
419.344	625.51
419.721	644.71
420.098	645.17
420.475	643.81
420.852	625.51
421.228	661.89
421.605	675
421.982	671.83
422.358	694.2
422.735	691.27
423.111	706.18
423.488	732.62
423.864	710.48
424.241	733.3
424.617	752.06
424.994	747.08
425.37	749.8
425.746	746.63
426.123	767.65
426.499	776.46
426.875	782.56
427.251	821.21
427.627	819.4
428.003	816.01
428.379	831.83
428.756	837.48
429.132	846.52
429.507	834.09
429.883	892.39
430.259	868.66
430.635	871.83
431.011	890.58
431.387	917.7
431.763	917.25
432.138	909.79
432.514	952.96
432.89	960.19
433.265	965.16
433.641	978.94
434.016	992.28
434.392	1024.14
434.767	996.8
435.143	1014.2
435.518	1051.71
435.894	1047.42
436.269	1088.54
436.644	1101.88
437.02	1106.62
437.395	1114.53
437.77	1108.43
438.145	1136.23
438.52	1152.27
438.895	1171.48
439.271	1190.69
439.646	1192.72
440.021	1253.29
440.395	1230.69
440.77	1229.11
441.145	1240.41
441.52	1272.27
441.895	1289.44
442.27	1298.26
442.645	1265.49
443.019	1317.92
443.394	1311.59
443.769	1308.2
444.143	1321.31
444.518	1356.79
444.892	1321.76
445.267	1365.15
445.641	1371.25
446.016	1379.38
446.39	1390.68
446.764	1395.66
447.139	1407.86
447.513	1437.69
447.887	1427.74
448.262	1431.13
448.636	1413.73
449.01	1469.78
449.384	1461.64
449.758	1477.69
450.132	1477.91
450.506	1504.81
450.88	1532.83
451.254	1512.94
451.628	1531.7
452.002	1543.45
452.376	1573.73
452.75	1594.29
453.123	1577.57
453.497	1583
453.871	1607.4
454.244	1621.19
454.618	1615.31
454.992	1680.62
455.365	1668.87
455.739	1714.97
456.112	1745.25
456.486	1741.86
456.859	1765.59
457.232	1799.49
457.606	1798.36
457.979	1810.56
458.352	1844.23
458.725	1820.05
459.099	1831.12
459.472	1879.26
459.845	1874.74
460.218	1911.35
460.591	1961.97
460.964	1967.84
461.337	1976.88
461.71	2007.16
462.083	2022.31
462.456	2051.91
462.829	2051.01
463.201	2076.09
463.574	2093.49
463.947	2118.8
464.32	2154.73
464.692	2159.03
465.065	2191.79
465.438	2206.71
465.81	2241.51
466.183	2256.65
466.555	2284.9
466.928	2294.84
467.3	2300.04
467.672	2335.74
468.045	2420.49
468.417	2372.8
468.789	2431.33
469.161	2439.02
469.534	2499.13
469.906	2536.19
470.278	2526.93
470.65	2567.83
471.022	2608.96
471.394	2638.79
471.766	2680.37
472.138	2686.24
472.51	2754.94
472.882	2795.17
473.253	2816.18
473.625	2846.24
473.997	2916.52
474.369	2893.47
474.74	2948.83
475.112	2979.12
475.484	3058.66
475.855	3080.58
476.227	3072.67
476.598	3165.78
476.97	3179.56
477.341	3256.17
477.713	3293.91
478.084	3306.34
478.455	3411.42
478.827	3399.44
479.198	3516.05
479.569	3482.83
479.94	3546.33
480.311	3584.3
480.682	3674.69
481.053	3727.57
481.424	3790.17
481.795	3791.75
482.166	3872.88
482.537	3888.02
482.908	3950.84
483.279	3989.94
483.65	4067.68
484.021	4173.44
484.391	4215.24
484.762	4171.85
485.133	4255.47
485.503	4280.33
485.874	4359.19
486.244	4422.02
486.615	4466.31
486.985	4572.52
487.356	4567.78
487.726	4593.99
488.097	4692.97
488.467	4695.23
488.837	4786.3
489.207	4851.61
489.578	4887.09
489.948	4923.02
490.318	5052.51
490.688	4987.88
491.058	5093.86
491.428	5093.41
491.798	5187.65
492.168	5293.41
492.538	5301.99
492.908	5299.28
493.278	5382.44
493.648	5382.22
494.017	5429
494.387	5489.56
494.757	5519.84
495.126	5562.1
495.496	5565.49
495.866	5640.06
496.235	5701.08
496.605	5717.58
496.974	5741.3
497.344	5775.43
497.713	5800.51
498.082	5851.58
498.452	5860.62
498.821	5904.24
499.19	5934.97
499.559	5978.13
499.928	6005.48
500.298	6054.97
500.667	6091.58
501.036	6027.62
501.405	6135.19
501.774	6075.31
502.143	6158.69
502.512	6118.47
502.88	6182.42
503.249	6228.97
503.618	6287.05
503.987	6256.32
504.356	6291.35
504.724	6296.32
505.093	6353.49
505.462	6343.77
505.83	6381.74
506.199	6411.79
506.567	6505.13
506.936	6420.61
507.304	6479.82
507.672	6485.47
508.041	6480.49
508.409	6555.29
508.777	6562.3
509.145	6670.77
509.514	6626.7
509.882	6663.54
510.25	6653.14
510.618	6704.67
510.986	6692.01
511.354	6748.73
511.722	6831.22
512.09	6892.01
512.458	6803.2
512.826	6803.87
513.193	6800.94
513.561	6903.53
513.929	6889.52
514.297	6971.78
514.664	7009.75
515.032	6960.03
515.4	6991.44
515.767	7039.8
516.135	7021.72
516.502	7003.42
516.869	7070.76
517.237	7090.19
517.604	7070.76
517.972	7119.57
518.339	7123.64
518.706	7075.51
519.073	7108.27
519.44	7140.59
519.808	7177.88
520.175	7099.01
520.542	7240.47
520.909	7269.85
521.276	7241.83
521.643	7293.13
522.009	7310.08
522.376	7299.91
522.743	7340.13
523.11	7345.1
523.477	7454.25
523.843	7436.17
524.21	7503.07
524.577	7480.02
524.943	7546
525.31	7484.53
525.676	7479.79
526.043	7606.34
526.409	7560.24
526.776	7662.16
527.142	7583.29
527.508	7617.86
527.874	7653.12
528.241	7580.35
528.607	7689.05
528.973	7717.3
529.339	7665.1
529.705	7802.27
530.071	7711.2
530.437	7800.46
530.803	7780.35
531.169	7811.31
531.535	7767.47
531.901	7716.39
532.267	7808.14
532.632	7821.02
532.998	7834.13
533.364	7770.4
533.73	7788.26
534.095	7855.15
534.461	7822.15
534.826	7869.16
535.192	7874.36
535.557	7852.89
535.923	7852.66
536.288	7875.94
536.653	7871.87
537.019	7823.28
537.384	7831.64
537.749	7867.35
538.114	7804.53
538.479	7821.7
538.845	7805.88
539.21	7897.18
539.575	7866.67
539.94	7849.27
540.305	7846.79
540.67	7816.28
541.034	7835.71
541.399	7842.49
541.764	7823.51
542.129	7803.17
542.494	7787.8
542.858	7816.96
543.223	7814.47
543.587	7808.37
543.952	7783.28
544.316	7756.17
544.681	7740.12
545.045	7735.15
545.41	7767.69
545.774	7793
546.138	7689.73
546.503	7787.58
546.867	7748.26
547.231	7745.54
547.595	7780.57
547.959	7723.4
548.324	7751.65
548.688	7706.9
549.052	7710.74
549.416	7659.45
549.779	7679.56
550.143	7723.4
550.507	7735.15
550.871	7706.9
551.235	7667.35
551.599	7736.73
551.962	7689.28
552.326	7678.2
552.689	7716.62
553.053	7742.16
553.417	7694.25
553.78	7745.09
554.143	7699.22
554.507	7735.15
554.87	7722.49
555.234	7743.96
555.597	7701.03
555.96	7663.74
556.323	7727.24
556.686	7750.06
557.05	7799.33
557.413	7707.58
557.776	7748.03
558.139	7839.55
558.502	7791.42
558.865	7762.04
559.228	7793.45
559.59	7815.37
559.953	7806.56
560.316	7741.03
560.679	7850.17
561.041	7829.61
561.404	7857.41
561.767	7865.32
562.129	7855.82
562.492	7933.79
562.854	7893.79
563.217	7881.13
563.579	7964.52
563.941	7977.86
564.304	7966.56
564.666	7977.63
565.028	8018.98
565.39	8058.08
565.753	8068.02
566.115	8091.75
566.477	8109.15
566.839	8111.64
567.201	8147.34
567.563	8120.22
567.925	8204.97
568.287	8175.36
568.648	8226.89
569.01	8272.99
569.372	8253.33
569.734	8214.46
570.095	8330.84
570.457	8324.96
570.819	8298.3
571.18	8319.99
571.542	8410.39
571.903	8422.14
572.265	8446.09
572.626	8475.47
572.987	8449.26
573.349	8429.14
573.71	8541.46
574.071	8484.51
574.432	8475.92
574.794	8577.39
575.155	8569.03
575.516	8591.4
575.877	8556.15
576.238	8622.81
576.599	8632.3
576.96	8636.59
577.32	8693.99
577.681	8606.77
578.042	8698.29
578.403	8695.8
578.763	8691.28
579.124	8753.43
579.485	8721.34
579.845	8806.31
580.206	8757.5
580.566	8769.25
580.927	8809.92
581.287	8772.64
581.648	8819.87
582.008	8822.13
582.368	8887.89
582.728	8851.73
583.089	8872.75
583.449	8884.27
583.809	8877.27
584.169	8933.31
584.529	8945.29
584.889	8957.26
585.249	8896.02
585.609	8958.85
585.969	9009.92
586.329	8912.52
586.688	9019.64
587.048	8935.57
587.408	8965.63
587.768	8962.91
588.127	8997.04
588.487	8962.24
588.846	9047.66
589.206	8979.18
589.565	8991.61
589.925	9080.2
590.284	9035
590.643	9070.03
591.003	9037.71
591.362	9076.13
591.721	9045.62
592.08	9123.59
592.44	9127.2
592.799	9087.43
593.158	9090.82
593.517	9104.15
593.876	9153.64
594.235	9123.36
594.593	9113.42
594.952	9105.74
595.311	9117.94
595.67	9154.1
596.029	9208.56
596.387	9173.53
596.746	9203.81
597.104	9180.76
597.463	9136.24
597.822	9252.4
598.18	9155.45
598.538	9176.69
598.897	9219.86
599.255	9168.78
599.613	9329.68
599.972	9274.09
600.33	9290.36
600.688	9214.66
601.046	9230.03
601.404	9313.87
601.762	9205.62
602.12	9249.69
602.478	9309.12
602.836	9294.43
603.194	9282.23
603.552	9315.67
603.91	9294.66
604.268	9298.5
604.625	9292.17
604.983	9245.84
605.341	9234.55
605.698	9303.24
606.056	9402.45
606.413	9335.33
606.771	9382.56
607.128	9374.65
607.485	9366.07
607.843	9347.31
608.2	9420.98
608.557	9432.05
608.914	9391.38
609.272	9436.35
609.629	9487.42
609.986	9470.02
610.343	9460.53
610.7	9451.04
611.057	9444.94
611.414	9392.28
611.771	9469.57
612.127	9515.44
612.484	9489.23
612.841	9546.18
613.198	9504.37
613.554	9453.75
613.911	9542.79
614.267	9512.28
614.624	9478.61
614.98	9560.86
615.337	9540.3
615.693	9533.07
616.05	9583.01
616.406	9625.72
616.762	9559.06
617.118	9604.48
617.475	9581.65
617.831	9690.35
618.187	9679.28
618.543	9670.24
618.899	9705.04
619.255	9736.9
619.611	9655.55
619.967	9740.07
620.323	9715.89
620.678	9644.48
621.034	9636.34
621.39	9688.32
621.746	9609.22
622.101	9684.25
622.457	9663.69
622.812	9676.34
623.168	9661.88
623.523	9685.15
623.879	9723.8
624.234	9639.73
624.589	9594.31
624.945	9642.67
625.3	9685.15
625.655	9718.6
626.01	9650.35
626.365	9623.01
626.72	9637.7
627.075	9615.55
627.43	9611.03
627.785	9586.63
628.14	9619.17
628.495	9648.09
628.85	9628.66
629.205	9544.37
629.559	9643.35
629.914	9589.11
630.269	9589.79
630.623	9598.38
630.978	9546.85
631.332	9586.63
631.687	9601.77
632.041	9586.85
632.396	9573.29
632.75	9570.81
633.104	9519.74
633.459	9513.18
633.813	9461.66
634.167	9461.43
634.521	9464.37
634.875	9535.33
635.229	9430.25
635.583	9402
635.937	9448.55
636.291	9391.15
636.645	9372.17
636.999	9350.7
637.352	9397.7
637.706	9331.72
638.06	9378.27
638.413	9386.41
638.767	9372.85
639.121	9360.42
639.474	9254.88
639.828	9241.32
640.181	9267.99
640.534	9311.38
640.888	9271.61
641.241	9262.34
641.594	9216.92
641.947	9230.25
642.301	9278.16
642.654	9265.05
643.007	9245.17
643.36	9204.49
643.713	9271.83
644.066	9185.28
644.419	9162
644.771	9143.7
645.124	9028
645.477	8976.92
645.83	8872.75
646.182	8955.91
646.535	8955.46
646.888	8942.58
647.24	8864.16
647.593	8876.81
647.945	8910.49
648.298	8832.07
648.65	8842.47
649.002	8825.97
649.355	8839.3
649.707	8916.36
650.059	8891.73
650.411	8976.47
650.763	8973.54
651.115	9065.28
651.467	9089.24
651.819	9056.47
652.171	9052.63
652.523	9030.71
652.875	9091.05
653.227	8968.79
653.578	9084.04
653.93	8945.29
654.282	8937.6
654.633	8958.85
654.985	8969.47
655.337	8972.18
655.688	8956.81
656.039	9053.53
656.391	8988
656.742	8964.04
657.094	8990.71
657.445	8992.29
657.796	8994.1
658.147	8993.65
658.498	9018.96
658.849	9017.83
659.2	9001.33
659.551	8962.46
659.902	9021.9
660.253	8979.18
660.604	9031.61
660.955	8958.85
661.306	8956.81
661.656	8938.06
662.007	8964.5
662.358	8978.96
662.708	8931.73
663.059	8953.42
663.409	8922.69
663.76	9077.94
664.11	8990.71
664.461	9055.34
664.811	8987.55
665.161	9011.73
665.511	8950.26
665.862	8949.81
666.212	8987.55
666.562	8966.98
666.912	9017.83
667.262	8954.55
667.612	8976.7
667.962	8968.56
668.312	9022.8
668.662	9009.47
669.011	8973.76
669.361	9001.11
669.711	8992.29
670.06	8881.79
670.41	8874.55
670.76	8896.93
671.109	8914.55
671.459	8976.02
671.808	8924.5
672.157	8891.05
672.507	8880.88
672.856	8926.76
673.205	8882.92
673.554	8904.61
673.904	8867.1
674.253	8908.45
674.602	8835.91
674.951	8760.21
675.3	8770.38
675.649	8827.55
675.998	8821.67
676.346	8863.48
676.695	8887.44
677.044	8820.77
677.393	8766.08
677.741	8758.63
678.09	8796.36
678.438	8737.61
678.787	8817.83
679.135	8781.68
679.484	8761.56
679.832	8772.86
680.181	8720.66
680.529	8718.63
680.877	8678.85
681.225	8638.4
681.573	8738.51
681.922	8614.45
682.27	8601.57
682.618	8583.71
682.966	8545.3
683.314	8612.64
683.661	8629.59
684.009	8543.26
684.357	8543.49
684.705	8476.37
685.053	8520.89
685.4	8487.22
685.748	8428.92
686.095	8438.86
686.443	8432.98
686.79	8366.32
687.138	8391.4
687.485	8397.96
687.832	8345.76
688.18	8338.98
688.527	8287.9
688.874	8278.41
689.221	8315.93
689.568	8277.28
689.915	8256.04
690.262	8188.7
690.609	8170.39
690.956	8148.47
691.303	8164.29
691.65	8073.45
691.997	8175.36
692.344	8052.88
692.69	8021.47
693.037	8064.41
693.383	7976.5
693.73	8028.7
694.077	8003.62
694.423	7927.01
694.769	7919.55
695.116	7923.85
695.462	7892.21
695.808	7868.03
696.155	7823.51
696.501	7759.1
696.847	7832.77
697.193	7783.74
697.539	7767.01
697.885	7720.01
698.231	7582.16
698.577	7718.88
698.923	7590.97
699.269	7592.1
699.614	7585.78
699.96	7544.19
700.306	7490.64
700.651	7462.39
700.997	7476.63
701.342	7418.32
701.688	7419.45
702.033	7357.53
702.379	7370.64
702.724	7348.04
703.069	7398.44
703.415	7313.01
703.76	7243.86
704.105	7291.09
704.45	7242.06
704.795	7273.24
705.14	7230.08
705.485	7212.45
705.83	7188.72
706.175	7173.13
706.52	7156.86
706.865	7096.07
707.209	7094.94
707.554	7052.91
707.899	7122.06
708.243	7059.46
708.588	7053.36
708.932	6982.63
709.277	6951.89
709.621	6926.36
709.966	6947.15
710.31	6983.08
710.654	6894.72
710.998	6886.13
711.342	6907.37
711.687	6872.57
712.031	6838.9
712.375	6837.55
712.719	6890.88
713.063	6834.61
713.407	6873.7
713.75	6764.33
714.094	6744.89
714.438	6736.31
714.782	6747.15
715.125	6767.94
715.469	6756.87
715.812	6662.41
716.156	6668.96
716.499	6635.74
716.843	6668.51
717.186	6646.36
717.53	6630.77
717.873	6637.33
718.216	6678.45
718.559	6607.04
718.902	6657.44
719.246	6616.08
719.589	6600.04
719.932	6555.29
720.275	6531.79
720.617	6543.09
720.96	6584.45
721.303	6518.91
721.646	6494.28
721.989	6499.02
722.331	6488.63
722.674	6472.81
723.016	6517.33
723.359	6519.14
723.701	6486.37
724.044	6434.84
724.386	6424.22
724.729	6532.47
725.071	6467.39
725.413	6453.83
725.755	6454.28
726.097	6413.83
726.439	6370.44
726.782	6419.93
727.124	6440.95
727.465	6369.76
727.807	6373.6
728.149	6378.8
728.491	6351.91
728.833	6394.39
729.175	6375.19
729.516	6409.53
729.858	6369.31
730.199	6415.64
730.541	6325.24
730.882	6409.76
731.224	6386.03
731.565	6315.3
731.906	6332.25
732.248	6337.22
732.589	6282.98
732.93	6310.78
733.271	6277.56
733.612	6309.88
733.953	6333.38
734.294	6261.29
734.635	6297.9
734.976	6334.73
735.317	6279.59
735.658	6321.63
735.999	6298.58
736.339	6306.03
736.68	6302.42
737.021	6295.41
737.361	6316.2
737.702	6292.25
738.042	6299.03
738.383	6283.66
738.723	6302.19
739.063	6280.27
739.404	6330.67
739.744	6316.43
740.084	6323.89
740.424	6294.96
740.764	6367.95
741.104	6359.59
741.444	6339.93
741.784	6352.14
742.124	6400.72
742.464	6392.81
742.804	6376.77
743.143	6352.81
743.483	6426.26
743.823	6450.44
744.162	6424.68
744.502	6447.5
744.841	6443.21
745.181	6424.68
745.52	6504.9
745.86	6463.77
746.199	6520.27
746.538	6458.57
746.877	6617.89
747.216	6585.12
747.556	6638.46
747.895	6632.35
748.234	6642.3
748.573	6680.71
748.911	6755.51
749.25	6748.51
749.589	6730.88
749.928	6861.05
750.267	6883.42
750.605	6886.81
750.944	6943.31
751.283	6950.99
751.621	7023.76
751.96	7027.37
752.298	7141.27
752.636	7167.03
752.975	7171.1
753.313	7213.36
753.651	7369.74
753.989	7394.59
754.327	7451.32
754.666	7466.46
755.004	7541.26
755.342	7657.41
755.679	7716.85
756.017	7738.54
756.355	7898.08
756.693	7943.05
757.031	8109.38
757.368	8105.54
757.706	8134.01
758.044	8231.86
758.381	8436.15
758.719	8399.31
759.056	8527.45
759.394	8563.6
759.731	8670.27
760.068	8732.64
760.405	8784.16
760.743	8887.44
761.08	9018.96
761.417	9132.4
761.754	9216.47
762.091	9325.62
762.428	9389.12
762.765	9398.83
763.102	9633.4
763.438	9661.2
763.775	9658.49
764.112	9892.61
764.449	9926.96
764.785	10030.23
765.122	10044.47
765.458	10138.7
765.795	10232.49
766.131	10288.3
766.467	10399.03
766.804	10457.34
767.14	10444.91
767.476	10507.96
767.812	10669.76
768.148	10731.91
768.485	10730.55
768.821	10741.85
769.157	10985.69
769.492	10983.65
769.828	11021.39
770.164	10996.31
770.5	11142.52
770.836	11090.54
771.171	11132.35
771.507	11194.27
771.842	11222.52
772.178	11295.51
772.513	11332.34
772.849	11415.73
773.184	11403.53
773.519	11380.93
773.855	11378.9
774.19	11479.46
774.525	11510.64
774.86	11539.8
775.195	11633.8
775.53	11623.86
775.865	11602.39
776.2	11604.65
776.535	11495.73
776.87	11664.99
777.205	11646.69
777.539	11585.67
777.874	11617.31
778.209	11606.23
778.543	11609.4
778.878	11537.76
779.212	11634.71
779.547	11591.32
779.881	11695.05
780.215	11655.72
780.55	11660.47
780.884	11665.22
781.218	11574.37
781.552	11681.26
781.886	11586.8
782.22	11518.55
782.554	11632.67
782.888	11451.89
783.222	11477.2
783.556	11463.19
783.889	11526.01
784.223	11441.49
784.557	11462.06
784.89	11497.31
785.224	11403.98
785.557	11432
785.891	11374.6
786.224	11336.41
786.558	11373.92
786.891	11349.97
787.224	11321.04
787.557	11277.88
787.891	11340.48
788.224	11302.97
788.557	11372.57
788.89	11322.85
789.223	11276.53
789.556	11196.53
789.888	11208.28
790.221	11116.53
790.554	11028.85
790.887	11123.99
791.219	11083.31
791.552	11088.28
791.884	10964.22
792.217	10992.24
792.549	10975.29
792.882	10903.65
793.214	10923.54
793.546	10937.55
793.879	10892.35
794.211	10827.72
794.543	10823.43
794.875	10878.8
795.207	10891.68
795.539	10808.97
795.871	10752.25
796.203	10695.52
796.535	10724.68
796.867	10661.4
797.198	10681.74
797.53	10625.47
797.862	10556.32
798.193	10554.28
798.525	10507.28
798.856	10518.58
799.188	10484.23
799.519	10433.61
799.85	10385.93
800.182	10344.8
800.513	10469.54
800.844	10289.43
801.175	10399.94
801.506	10363.78
801.837	10307.06
802.168	10252.15
802.499	10217.57
802.83	10173.5
803.161	10164.46
803.491	10169.44
803.822	10171.92
804.153	10115.2
804.483	10043.56
804.814	10044.02
805.145	10052.6
805.475	10110.23
805.805	9994.75
806.136	10004.24
806.466	9966.5
806.796	9950.68
807.126	9854.64
807.457	9903.45
807.787	9893.51
808.117	9812.61
808.447	9844.02
808.777	9819.16
809.107	9817.35
809.436	9757.24
809.766	9747.53
810.096	9764.7
810.426	9719.73
810.755	9691.03
811.085	9662.1
811.414	9697.13
811.744	9554.08
812.073	9534.42
812.403	9553.63
812.732	9517.02
813.061	9535.33
813.39	9435.44
813.719	9477.48
814.049	9518.83
814.378	9454.88
814.707	9454.2
815.036	9390.02
815.365	9375.33
815.693	9328.1
816.022	9353.86
816.351	9376.46
816.68	9315.67
817.008	9307.76
817.337	9270.25
817.665	9227.09
817.994	9204.49
818.322	9256.92
818.651	9133.98
818.979	9129.46
819.307	9178.5
819.636	9187.09
819.964	9124.49
820.292	9241.55
820.62	9121.1
820.948	9095.34
821.276	9130.14
821.604	9118.16
821.932	9116.13
822.259	9097.83
822.587	9132.63
822.915	9085.17
823.243	9018.73
823.57	9136.92
823.898	9122.91
824.225	9096.02
824.553	9062.57
824.88	9131.27
825.207	9124.27
825.535	9144.15
825.862	9097.83
826.189	9101.89
826.516	9122.46
826.843	9194.77
827.17	9119.07
827.497	9098.5
827.824	9047.21
828.151	9213.75
828.478	9068.67
828.805	9177.6
829.131	9071.61
829.458	9153.64
829.785	9099.63
830.111	9137.82
830.438	9136.69
830.764	9155.9
831.09	9164.94
831.417	9097.37
831.743	9090.37
832.069	9073.19
832.395	9013.99
832.722	9054.21
833.048	9049.01
833.374	9114.77
833.7	9105.51
834.026	9031.61
834.351	9074.78
834.677	9056.24
835.003	9058.28
835.329	9054.66
835.654	8986.64
835.98	9005.4
836.306	8949.36
836.631	8964.95
836.956	8978.73
837.282	8949.36
837.607	8961.11
837.932	8925.4
838.258	8960.43
838.583	8918.4
838.908	8846.08
839.233	8898.51
839.558	8879.3
839.883	8850.15
840.208	8846.76
840.533	8859.64
840.858	8835.46
841.182	8858.06
841.507	8781.68
841.832	8717.27
842.156	8721.34
842.481	8791.62
842.805	8745.74
843.13	8686.99
843.454	8670.72
843.778	8652.64
844.103	8615.13
844.427	8614.22
844.751	8587.78
845.075	8508.46
845.399	8480.67
845.723	8502.81
846.047	8493.77
846.371	8447.45
846.695	8444.96
847.019	8332.65
847.343	8358.64
847.666	8321.12
847.99	8237.51
848.313	8274.8
848.637	8295.36
848.96	8290.84
849.284	8193.67
849.607	8111.64
849.931	8169.04
850.254	8059.66
850.577	8049.04
850.9	7980.57
851.223	7981.92
851.546	7957.52
851.869	7905.31
852.192	7988.25
852.515	7833
852.838	7819.67
853.161	7883.17
853.483	7788.71
853.806	7721.59
854.129	7731.31
854.451	7703.74
854.774	7726.11
855.096	7612.89
855.419	7660.35
855.741	7654.7
856.063	7562.95
856.385	7549.17
856.708	7593.01
857.03	7527.47
857.352	7527.92
857.674	7472.78
857.996	7444.08
858.318	7399.79
858.64	7426.68
858.961	7393.69
859.283	7390.3
859.605	7308.72
859.926	7357.98
860.248	7300.58
860.57	7307.14
860.891	7347.36
861.212	7288.16
861.534	7208.61
861.855	7217.2
862.176	7215.39
862.498	7282.28
862.819	7249.74
863.14	7226.91
863.461	7170.64
863.782	7133.36
864.103	7171.32
864.424	7068.05
864.745	7186.92
865.065	7081.83
865.386	7074.6
865.707	7087.03
866.027	7076.41
866.348	7073.47
866.668	7073.92
866.989	7016.07
867.309	6999.12
867.63	6981.05
867.95	7017.2
868.27	6926.81
868.59	6997.99
868.91	6919.8
869.23	6945.57
869.55	6906.24
869.87	6983.53
870.19	6948.05
870.51	6906.24
870.83	6893.36
871.15	6948.73
871.469	6912.57
871.789	6843.2
872.109	6895.85
872.428	6744.22
872.748	6854.72
873.067	6842.52
873.386	6812.01
873.706	6800.94
874.025	6797.55
874.344	6794.38
874.663	6723.42
874.982	6772.24
875.301	6732.24
875.62	6785.34
875.939	6710.32
876.258	6740.15
876.577	6700.15
876.896	6654.95
877.214	6664.67
877.533	6700.15
877.852	6600.04
878.17	6659.25
878.489	6709.19
878.807	6677.55
879.125	6631
879.444	6630.77
879.762	6581.06
880.08	6594.39
880.398	6590.32
880.716	6592.13
881.034	6589.19
881.352	6569.08
881.67	6516.42
881.988	6563.2
882.306	6496.54
882.624	6540.6
882.941	6489.08
883.259	6443.21
883.577	6432.36
883.894	6431.46
884.212	6378.8
884.529	6443.88
884.846	6393.49
885.164	6459.25
885.481	6323.21
885.798	6351.01
886.115	6328.86
886.432	6316.66
886.75	6316.2
887.067	6311.46
887.383	6288.18
887.7	6282.76
888.017	6266.94
888.334	6226.04
888.651	6240.73
888.967	6148.07
889.284	6179.71
889.6	6156.21
889.917	6141.97
890.233	6146.49
890.55	6141.75
890.866	6133.61
891.182	6092.93
891.498	6081.18
891.815	6054.74
892.131	5977.91
892.447	6008.64
892.763	6051.58
893.079	6038.25
893.395	5976.33
893.71	5954.86
894.026	5940.17
894.342	5962.54
894.657	5883
894.973	5900.4
895.289	5890.45
895.604	5904.24
895.92	5834.63
896.235	5755.77
896.55	5775.43
896.865	5805.48
897.181	5747.63
897.496	5774.98
897.811	5729.55
898.126	5752.6
898.441	5718.93
898.756	5626.96
899.071	5685.71
899.386	5629.67
899.7	5586.05
900.015	5634.64
900.33	5575.43
900.644	5510.12
900.959	5514.19
901.273	5498.6
901.588	5490.69
901.902	5478.94
902.216	5477.36
902.531	5414.76
902.845	5415.89
903.159	5410.69
903.473	5420.63
903.787	5323.24
904.101	5338.83
904.415	5344.25
904.729	5320.3
905.042	5259.73
905.356	5261.99
905.67	5266.51
905.984	5207.76
906.297	5257.25
906.611	5149.23
906.924	5178.83
907.237	5153.97
907.551	5140.42
907.864	5117.14
908.177	5116.46
908.491	5095.22
908.804	5064.03
909.117	5000.31
909.43	5001.21
909.743	4929.57
910.056	5010.48
910.368	5001.66
910.681	4882.34
910.994	4895.9
911.307	4944.26
911.619	4864.94
911.932	4890.03
912.244	4843.93
912.557	4796.47
912.869	4795.11
913.181	4760.99
913.494	4794.89
913.806	4716.92
914.118	4769.58
914.43	4715.34
914.742	4678.28
915.054	4678.51
915.366	4654.55
915.678	4654.33
915.99	4631.95
916.302	4626.53
916.613	4590.15
916.925	4568.91
917.236	4560.09
917.548	4548.57
917.859	4489.36
918.171	4477.83
918.482	4499.3
918.794	4462.02
919.105	4490.04
919.416	4466.31
919.727	4405.07
920.038	4440.1
920.349	4374.11
920.66	4390.6
920.971	4359.42
921.282	4365.29
921.593	4379.98
921.903	4346.99
922.214	4291.4
922.525	4270.83
922.835	4273.09
923.146	4240.55
923.456	4211.17
923.767	4196.94
924.077	4198.52
924.387	4161.01
924.697	4132.53
925.008	4180.89
925.318	4117.17
925.628	4115.58
925.938	4052.08
926.248	4034
926.558	4067
926.867	4049.14
927.177	4032.65
927.487	4021.35
927.796	3953.33
928.106	3951.97
928.416	3945.19
928.725	3961.92
929.034	3928.92
929.344	3961.92
929.653	3899.54
929.962	3905.42
930.271	3850.05
930.581	3833.56
930.89	3841.92
931.199	3807.12
931.508	3821.35
931.817	3807.57
932.125	3810.28
932.434	3722.37
932.743	3748.36
933.051	3703.62
933.36	3724.18
933.669	3713.79
933.977	3675.6
934.286	3691.41
934.594	3664.3
934.902	3622.04
935.21	3589.5
935.519	3588.82
935.827	3580.68
936.135	3540.01
936.443	3565.32
936.751	3585.2
937.059	3528.48
937.367	3529.16
937.674	3553.79
937.982	3521.48
938.29	3476.73
938.597	3475.37
938.905	3463.62
939.213	3424.75
939.52	3411.65
939.827	3445.09
940.135	3369.61
940.442	3389.73
940.749	3382.27
941.056	3369.84
941.363	3363.06
941.67	3323.74
941.977	3286.68
942.284	3290.97
942.591	3270.86
942.898	3269.5
943.205	3238.09
943.511	3289.62
943.818	3258.21
944.125	3218.21
944.431	3203.52
944.738	3217.98
945.044	3182.05
945.35	3174.14
945.657	3116.06
945.963	3127.81
946.269	3110.64
946.575	3119.68
946.881	3085.78
947.187	3104.09
947.493	3066.8
947.799	3089.62
948.105	3046.46
948.41	3031.32
948.716	2988.16
949.022	3025.44
949.327	3013.47
949.633	2966.01
949.938	2985.9
950.244	2951.32
950.549	2927.59
950.854	2968.72
951.16	2940.02
951.465	2932.11
951.77	2923.07
952.075	2882.4
952.38	2874.49
952.685	2873.36
952.99	2867.26
953.294	2846.69
953.599	2846.69
953.904	2810.76
954.209	2820.93
954.513	2840.14
954.818	2802.17
955.122	2795.39
955.426	2757.88
955.731	2785.9
956.035	2751.1
956.339	2721.5
956.643	2718.11
956.948	2671.1
957.252	2707.49
957.556	2708.84
957.86	2680.37
958.163	2661.84
958.467	2662.29
958.771	2631.78
959.075	2658.45
959.378	2652.35
959.682	2611.89
959.985	2617.32
960.289	2605.79
960.592	2584.55
960.896	2561.05
961.199	2563.53
961.502	2513.59
961.805	2556.75
962.108	2550.65
962.411	2513.59
962.714	2531.22
963.017	2474.5
963.32	2507.72
963.623	2533.93
963.926	2476.08
964.228	2484.89
964.531	2498
964.833	2435.85
965.136	2429.53
965.438	2407.61
965.741	2401.73
966.043	2406.48
966.345	2438.57
966.648	2359.02
966.95	2388.4
967.252	2373.71
967.554	2386.82
967.856	2360.6
968.158	2329.19
968.46	2316.31
968.761	2329.42
969.063	2307.04
969.365	2317.21
969.666	2323.99
969.968	2256.42
970.269	2261.4
970.571	2286.93
970.872	2252.58
971.174	2256.2
971.475	2210.32
971.776	2228.63
972.077	2209.42
972.378	2216.88
972.679	2192.7
972.98	2190.21
973.281	2200.15
973.582	2175.97
973.883	2173.04
974.183	2171.68
974.484	2125.13
974.785	2148.63
975.085	2157.9
975.386	2129.87
975.686	2102.76
975.986	2103.66
976.287	2105.92
976.587	2079.71
976.887	2084
977.187	2067.5
977.487	2049.2
977.787	2052.36
978.087	2038.8
978.387	2037.67
978.687	2021.63
978.987	1994.96
979.286	2013.49
979.586	2020.72
979.885	1973.04
980.185	2015.07
980.484	1981.63
980.784	1983.89
981.083	1981.85
981.382	1959.03
981.682	1948.86
981.981	1926.26
982.28	1947.96
982.579	1921.07
982.878	1933.27
983.177	1902.08
983.475	1863.89
983.774	1906.6
984.073	1826.83
984.372	1872.25
984.67	1891.46
984.969	1826.38
985.267	1858.69
985.566	1872.25
985.864	1828.19
986.162	1832.93
986.461	1820.05
986.759	1794.29
987.057	1773.95
987.355	1777.34
987.653	1781.18
987.951	1795.87
988.249	1785.25
988.547	1752.93
988.844	1751.35
989.142	1731.01
989.44	1747.74
989.737	1735.53
990.035	1723.78
990.332	1738.47
990.63	1713.84
990.927	1703.9
991.224	1706.16
991.521	1699.6
991.819	1691.01
992.116	1674.52
992.413	1668.42
992.71	1658.47
993.006	1673.16
993.303	1657.12
993.6	1657.34
993.897	1622.09
994.193	1647.63
994.49	1609.89
994.787	1616.21
995.083	1627.06
995.379	1629.32
995.676	1599.72
995.972	1594.52
996.268	1590.23
996.565	1579.38
996.861	1548.42
997.157	1539.15
997.453	1528.76
997.749	1568.76
998.044	1538.93
998.34	1539.83
998.636	1540.96
998.932	1518.36
999.227	1490.34
999.523	1479.49
999.818	1484.01
1000.114	1483.79
1000.409	1483.56
1000.704	1471.36
1001	1476.33
1001.295	1482.66
1001.59	1460.74
1001.885	1455.99
1002.18	1438.59
1002.475	1426.62
1002.77	1440.85
1003.065	1425.26
1003.359	1390.46
1003.654	1402.21
1003.949	1398.14
1004.243	1394.53
1004.538	1369.89
1004.832	1392.04
1005.127	1362.21
1005.421	1383.9
1005.715	1363.11
1006.009	1346.17
1006.304	1328.99
1006.598	1334.19
1006.892	1316.34
1007.186	1336.22
1007.48	1298.03
1007.773	1295.55
1008.067	1299.39
1008.361	1292.83
1008.655	1284.92
1008.948	1271.36
1009.242	1275.88
1009.535	1298.93
1009.829	1252.61
1010.122	1257.35
1010.415	1258.48
1010.708	1239.95
1011.001	1267.75
1011.295	1231.59
1011.588	1214.87
1011.881	1184.36
1012.173	1223.23
1012.466	1211.71
1012.759	1201.31
1013.052	1197.92
1013.344	1193.4
1013.637	1189.79
1013.93	1171.25
1014.222	1177.13
1014.514	1150.24
1014.807	1171.93
1015.099	1167.41
1015.391	1147.3
1015.683	1164.7
1015.976	1095.32
1016.268	1098.71
1016.56	1114.76
1016.851	1102.33
1017.143	1103.46
1017.435	1135.1
1017.727	1093.29
1018.018	1080.64
1018.31	1077.47
1018.602	1084.25
1018.893	1065.04
1019.185	1073.4
1019.476	1061.43
1019.767	1055.33
1020.058	1027.3
1020.35	1038.38
1020.641	1035.21
1020.932	1031.82
1021.223	1015.1
1021.514	1033.63
1021.804	1022.33
1022.095	1007.64
1022.386	1002.9
1022.677	1006.97
1022.967	998.83
1023.258	987.98
1023.548	1002.9
1023.839	975.1
1024.129	980.07
1024.419	952.73
1024.709	959.06
1025	925.39
1025.29	954.09
1025.58	966.06
1025.87	971.26
1026.16	923.8
1026.449	922.22
1026.739	907.31
1027.029	922
1027.319	912.73
1027.608	913.41
1027.898	880.87
1028.187	876.57
1028.477	872.73
1028.766	870.25
1029.055	865.27
1029.344	895.78
1029.634	856.23
1029.923	860.3
1030.212	881.77
1030.501	850.13
1030.79	828.21
1031.078	840.64
1031.367	830.02
1031.656	840.42
1031.945	830.7
1032.233	839.29
1032.522	818.72
1032.81	819.63
1033.099	804.94
1033.387	816.91
1033.675	805.61
1033.963	803.13
1034.251	805.16
1034.54	788.44
1034.828	787.54
1035.116	790.93
1035.403	780.3
1035.691	798.38
1035.979	765.39
1036.267	773.07
1036.554	752.28
1036.842	749.8
1037.129	742.34
1037.417	737.37
1037.704	736.69
1037.992	744.15
1038.279	736.46
1038.566	748.89
1038.853	748.89
1039.14	748.89
