Data from hue_260_FLMS001491_00028.txt Node
Date: Tue Feb 07 15:58:47 GMT 2017
User: dcchb
Spectrometer: FLMS00149
Trigger mode: 0
Integration Time (sec): 2.000000E-2
Scans to average: 10
Electric dark correction enabled: true
Nonlinearity correction enabled: false
Boxcar width: 0
XAxis mode: Wavelengths
Number of Pixels in Spectrum: 2048
>>>>>Begin Spectral Data<<<<<
341.393	-24.39
341.776	-24.39
342.16	-24.39
342.543	-41.11
342.927	-38.85
343.31	-73.66
343.693	-74.79
344.077	-59.65
344.46	-68.68
344.843	-44.96
345.226	-34.56
345.61	-23.26
345.993	-31.62
346.376	-16.26
346.759	22.16
347.142	36.4
347.525	49.28
347.908	52.89
348.291	71.88
348.674	90.63
349.057	104.19
349.44	119.33
349.823	135.38
350.206	133.34
350.588	197.75
350.971	184.19
351.354	227.13
351.737	226.9
352.119	227.35
352.502	252.44
352.884	261.02
353.267	267.8
353.65	289.27
354.032	296.05
354.414	287.01
354.797	339.89
355.179	311.87
355.562	310.51
355.944	315.26
356.326	318.42
356.709	327.24
357.091	334.02
357.473	329.5
357.855	323.4
358.238	328.37
358.62	348.48
359.002	319.55
359.384	323.4
359.766	330.4
360.148	333.11
360.53	338.99
360.912	310.74
361.294	329.05
361.676	324.07
362.057	330.85
362.439	326.79
362.821	315.94
363.203	329.27
363.584	305.77
363.966	337.41
364.348	324.07
364.729	301.48
365.111	295.37
365.493	324.98
365.874	311.42
366.256	297.41
366.637	308.71
367.019	315.71
367.4	313.23
367.781	306.22
368.163	313
368.544	281.81
368.925	327.69
369.306	321.36
369.688	298.99
370.069	323.85
370.45	305.54
370.831	281.81
371.212	308.48
371.593	308.71
371.974	299.22
372.355	320.01
372.736	315.49
373.117	326.33
373.498	284.53
373.879	292.21
374.26	322.04
374.641	295.6
375.021	313.9
375.402	302.83
375.783	312.55
376.163	300.12
376.544	299.89
376.925	310.97
377.305	324.98
377.686	315.94
378.066	328.82
378.447	326.79
378.827	311.64
379.208	326.11
379.588	307.58
379.968	317.52
380.349	339.44
380.729	325.88
381.109	330.63
381.489	325.66
381.87	340.34
382.25	338.08
382.63	348.48
383.01	316.84
383.39	350.51
383.77	319.1
384.15	315.03
384.53	336.73
384.91	348.48
385.29	338.99
385.67	346.9
386.049	367.46
386.429	350.74
386.809	333.79
387.189	334.47
387.568	360.46
387.948	370.63
388.328	339.21
388.707	335.82
389.087	359.33
389.466	362.72
389.846	373.34
390.225	370.4
390.605	353.45
390.984	351.19
391.363	362.26
391.743	367.91
392.122	372.66
392.501	365.43
392.881	371.98
393.26	367.69
393.639	401.59
394.018	366.11
394.397	379.89
394.776	396.16
395.155	389.83
395.534	378.08
395.913	382.83
396.292	385.54
396.671	397.29
397.05	385.99
397.429	393
397.808	375.82
398.186	383.96
398.565	401.36
398.944	388.25
399.323	410.17
399.701	383.51
400.08	403.85
400.458	413.11
400.837	394.81
401.215	417.4
401.594	435.03
401.972	421.92
402.351	426.9
402.729	431.87
403.107	420.12
403.486	438.87
403.864	436.39
404.242	424.86
404.62	434.35
404.999	448.36
405.377	436.39
405.755	434.35
406.133	443.84
406.511	441.13
406.889	468.25
407.267	472.77
407.645	467.12
408.023	468.25
408.401	457.4
408.779	461.02
409.156	515.48
409.534	512.32
409.912	499.44
410.29	509.15
410.667	523.62
411.045	520.9
411.422	530.85
411.8	531.53
412.178	556.16
412.555	549.15
412.933	538.08
413.31	558.64
413.687	577.17
414.065	585.08
414.442	577.85
414.819	585.76
415.197	606.78
415.574	618.08
415.951	613.33
416.328	615.82
416.705	612.65
417.082	611.98
417.46	627.34
417.837	653.1
418.214	653.78
418.591	668.25
418.967	680.9
419.344	676.15
419.721	656.49
420.098	690.62
420.475	703.05
420.852	716.38
421.228	720.45
421.605	710.05
421.982	722.93
422.358	732.42
422.735	768.81
423.111	756.38
423.488	813.33
423.864	784.4
424.241	793.89
424.617	807
424.994	799.32
425.37	824.63
425.746	831.63
426.123	818.07
426.499	856.49
426.875	847.9
427.251	869.14
427.627	917.5
428.003	896.04
428.379	890.84
428.756	892.19
429.132	931.52
429.507	939.88
429.883	950.95
430.259	976.26
430.635	948.69
431.011	978.75
431.387	984.62
431.763	1002.7
432.138	1021.91
432.514	1009.93
432.89	1054.22
433.265	1099.42
433.641	1093.54
434.016	1109.59
434.392	1115.01
434.767	1141.68
435.143	1131.96
435.518	1154.56
435.894	1174.9
436.269	1224.84
436.644	1239.98
437.02	1203.37
437.395	1254.22
437.77	1264.61
438.145	1281.56
438.52	1299.19
438.895	1324.73
439.271	1326.98
439.646	1346.87
440.021	1385.74
440.395	1379.86
440.77	1400.43
441.145	1392.29
441.52	1450.37
441.895	1437.49
442.27	1435.91
442.645	1438.62
443.019	1458.96
443.394	1473.42
443.769	1483.36
444.143	1487.88
444.518	1546.64
444.892	1514.78
445.267	1542.35
445.641	1564.04
446.016	1551.61
446.39	1597.49
446.764	1593.19
447.139	1585.28
447.513	1611.72
447.887	1613.53
448.262	1623.25
448.636	1608.79
449.01	1662.34
449.384	1675.45
449.758	1672.96
450.132	1699.63
450.506	1697.6
450.88	1739.86
451.254	1703.92
451.628	1719.06
452.002	1761.55
452.376	1761.55
452.75	1769.69
453.123	1780.76
453.497	1825.05
453.871	1830.47
454.244	1874.77
454.618	1860.53
454.992	1924.94
455.365	1951.6
455.739	1929.45
456.112	1950.02
456.486	1976.69
456.859	1963.35
457.232	2024.14
457.606	2010.36
457.979	2023.24
458.352	2105.72
458.725	2087.42
459.099	2143.46
459.472	2154.99
459.845	2162.67
460.218	2197.24
460.591	2179.39
460.964	2199.5
461.337	2256.68
461.71	2295.1
462.083	2298.26
462.456	2332.83
462.829	2330.8
463.201	2352.27
463.574	2379.84
463.947	2399.95
464.32	2427.97
464.692	2466.84
465.065	2469.78
465.438	2506.84
465.81	2536.9
466.183	2565.37
466.555	2606.5
466.928	2626.39
467.3	2664.58
467.672	2672.26
468.045	2724.46
468.417	2679.49
468.789	2769.88
469.161	2771.92
469.534	2797.68
469.906	2859.37
470.278	2875.87
470.65	2932.82
471.022	2991.35
471.394	3034.06
471.766	3022.53
472.138	3068.63
472.51	3120.38
472.882	3126.71
473.253	3177.78
473.625	3231.57
473.997	3300.49
474.369	3278.57
474.74	3336.88
475.112	3395.86
475.484	3425.01
475.855	3485.12
476.227	3554.95
476.598	3578.9
476.97	3611.44
477.341	3695.06
477.713	3746.81
478.084	3782.74
478.455	3820.7
478.827	3872.23
479.198	3993.36
479.569	3949.97
479.94	4006.24
480.311	4070.64
480.682	4177.31
481.053	4256.17
481.424	4304.08
481.795	4295.27
482.166	4399.45
482.537	4388.83
482.908	4496.85
483.279	4539.33
483.65	4629.27
484.021	4693.9
484.391	4747.23
484.762	4767.8
485.133	4857.29
485.503	4820.45
485.874	4947.23
486.244	4970.05
486.615	5025.64
486.985	5095.02
487.356	5163.49
487.726	5214.11
488.097	5251.85
488.467	5341.57
488.837	5433.32
489.207	5452.75
489.578	5502.24
489.948	5572.07
490.318	5608.68
490.688	5621.11
491.058	5754.67
491.428	5821.78
491.798	5790.37
492.168	5946.75
492.538	5972.51
492.908	6062.23
493.278	6064.04
493.648	6049.35
494.017	6132.51
494.387	6123.24
494.757	6221.55
495.126	6236.91
495.496	6327.31
495.866	6309.68
496.235	6377.02
496.605	6380.64
496.974	6468.77
497.344	6478.49
497.713	6504.7
498.082	6505.83
498.452	6576.34
498.821	6645.04
499.19	6626.05
499.559	6666.51
499.928	6722.1
500.298	6697.01
500.667	6761.42
501.036	6820.63
501.405	6860.85
501.774	6845.71
502.143	6871.7
502.512	6881.87
502.88	6984.01
503.249	6926.61
503.618	6967.97
503.987	6973.62
504.356	7017
504.724	7062.2
505.093	7067.62
505.462	7076.89
505.83	7155.98
506.199	7166.61
506.567	7213.84
506.936	7189.43
507.304	7264.68
507.672	7277.11
508.041	7300.61
508.409	7307.17
508.777	7388.07
509.145	7378.58
509.514	7364.34
509.882	7412.25
510.25	7420.61
510.618	7503.55
510.986	7437.78
511.354	7491.34
511.722	7519.36
512.09	7640.72
512.458	7579.7
512.826	7631.9
513.193	7572.47
513.561	7638.68
513.929	7630.55
514.297	7662.41
514.664	7716.65
515.032	7709.42
515.4	7763.2
515.767	7816.08
516.135	7766.82
516.502	7692.69
516.869	7824.44
517.237	7786.93
517.604	7828.51
517.972	7863.76
518.339	7882.52
518.706	7847.27
519.073	7857.89
519.44	7905.34
519.808	7899.69
520.175	7983.76
520.542	7982.18
520.909	8108.05
521.276	8017.66
521.643	8071.21
522.009	8087.71
522.376	8143.3
522.743	8129.97
523.11	8198.22
523.477	8194.37
523.843	8181.27
524.21	8279.34
524.577	8328.16
524.943	8304.88
525.31	8266.46
525.676	8302.62
526.043	8362.05
526.409	8367.25
526.776	8408.38
527.142	8390.98
527.508	8375.84
527.874	8419.45
528.241	8468.94
528.607	8437.53
528.973	8463.29
529.339	8458.32
529.705	8541.48
530.071	8563.18
530.437	8565.44
530.803	8539.68
531.169	8558.89
531.535	8533.8
531.901	8529.51
532.267	8574.7
532.632	8640.92
532.998	8640.69
533.364	8621.71
533.73	8583.74
534.095	8630.3
534.461	8630.07
534.826	8672.55
535.192	8640.46
535.557	8644.08
535.923	8694.47
536.288	8628.94
536.653	8697.64
537.019	8569.51
537.384	8646.57
537.749	8698.32
538.114	8585.78
538.479	8595.72
538.845	8586.23
539.21	8581.94
539.575	8584.87
539.94	8619.45
540.305	8629.62
540.67	8574.93
541.034	8559.56
541.399	8640.92
541.764	8587.81
542.129	8625.1
542.494	8656.96
542.858	8572.44
543.223	8555.72
543.587	8565.89
543.952	8618.54
544.316	8641.59
544.681	8553.46
545.045	8605.44
545.41	8575.38
545.774	8604.53
546.138	8562.73
546.503	8563.86
546.867	8496.74
547.231	8622.16
547.595	8588.04
547.959	8534.03
548.324	8552.11
548.688	8548.26
549.052	8553.46
549.416	8505.33
549.779	8498.32
550.143	8542.39
550.507	8549.85
550.871	8525.67
551.235	8476.18
551.599	8545.78
551.962	8514.82
552.326	8469.62
552.689	8502.84
553.053	8469.17
553.417	8475.72
553.78	8563.63
554.143	8459.9
554.507	8450.87
554.87	8509.62
555.234	8598.21
555.597	8493.8
555.96	8534.03
556.323	8503.52
556.686	8453.8
557.05	8497.19
557.413	8512.33
557.776	8512.33
558.139	8568.83
558.502	8550.75
558.865	8508.26
559.228	8517.76
559.59	8551.88
559.953	8568.6
560.316	8575.61
560.679	8617.41
561.041	8677.53
561.404	8630.75
561.767	8664.65
562.129	8673.68
562.492	8704.64
562.854	8684.98
563.217	8653.12
563.579	8786.45
563.941	8762.04
564.304	8744.64
564.666	8821.48
565.028	8786.22
565.39	8785.32
565.753	8881.59
566.115	8854.02
566.477	8823.06
566.839	8869.61
567.201	8945.09
567.563	8920.91
567.925	8990.51
568.287	8991.64
568.648	9011.98
569.01	8999.33
569.372	9090.17
569.734	9041.13
570.095	9035.71
570.457	9131.07
570.819	9110.51
571.18	9155.48
571.542	9114.12
571.903	9144.18
572.265	9215.14
572.626	9172.65
572.987	9268.47
573.349	9200.9
573.71	9305.31
574.071	9248.81
574.432	9399.09
574.794	9429.37
575.155	9286.55
575.516	9349.82
575.877	9409.48
576.238	9415.59
576.599	9447.9
576.96	9462.36
577.32	9476.15
577.681	9433.89
578.042	9527
578.403	9553.66
578.763	9521.12
579.124	9608.12
579.485	9607.9
579.845	9668.91
580.206	9664.62
580.566	9649.03
580.927	9638.4
581.287	9718.18
581.648	9653.09
582.008	9748.01
582.368	9713.66
582.728	9742.58
583.089	9767.89
583.449	9755.92
583.809	9806.54
584.169	9810.83
584.529	9818.74
584.889	9931.73
585.249	9892.41
585.609	9850.83
585.969	9922.69
586.329	9911.62
586.688	9998.17
587.048	9916.59
587.408	9961.11
587.768	9990.49
588.127	9956.59
588.487	9933.09
588.846	10025.97
589.206	9997.49
589.565	10050.15
589.925	10096.92
590.284	10063.25
590.643	10070.48
591.003	10145.06
591.362	10084.72
591.721	10138.5
592.08	10144.15
592.44	10191.61
592.799	10213.3
593.158	10161.55
593.517	10185.74
593.876	10221.89
594.235	10204.49
594.593	10172.63
594.952	10274.09
595.311	10295.79
595.67	10240.87
596.029	10325.62
596.387	10329.91
596.746	10350.48
597.104	10281.78
597.463	10291.95
597.822	10389.12
598.18	10297.6
598.538	10270.25
598.897	10445.39
599.255	10243.81
599.613	10406.52
599.972	10376.46
600.33	10365.39
600.688	10345.5
601.046	10425.5
601.404	10480.87
601.762	10409.91
602.12	10440.64
602.478	10429.34
602.836	10444.94
603.194	10391.38
603.552	10479.96
603.91	10387.31
604.268	10464.37
604.625	10486.97
604.983	10456.46
605.341	10397.25
605.698	10472.96
606.056	10507.99
606.413	10530.13
606.771	10476.57
607.128	10475.44
607.485	10512.73
607.843	10527.19
608.2	10622.79
608.557	10548.21
608.914	10557.48
609.272	10628.44
609.629	10586.4
609.986	10651.49
610.343	10628.21
610.7	10687.19
611.057	10635.44
611.414	10731.26
611.771	10701.2
612.127	10696.68
612.484	10695.33
612.841	10753.4
613.198	10638.38
613.554	10651.26
613.911	10748.43
614.267	10781.88
614.624	10735.33
614.98	10728.55
615.337	10798.83
615.693	10767.87
616.05	10858.26
616.406	10849.9
616.762	10838.37
617.118	10828.2
617.475	10842.67
617.831	10837.02
618.187	10841.76
618.543	10879.95
618.899	10875.66
619.255	10925.15
619.611	10870.46
619.967	10932.61
620.323	10933.51
620.678	10889.67
621.034	10868.2
621.39	10890.12
621.746	10848.32
622.101	10992.72
622.457	10851.03
622.812	10846.51
623.168	10895.09
623.523	10924.25
623.879	10902.55
624.234	10887.64
624.589	10895.77
624.945	10856.68
625.3	11021.87
625.655	10863.68
626.01	10903.46
626.365	10866.62
626.72	10888.77
627.075	10869.78
627.43	10841.99
627.785	10808.09
628.14	10906.85
628.495	10899.16
628.85	10819.16
629.205	10805.83
629.559	10941.2
629.914	10777.58
630.269	10858.03
630.623	10792.72
630.978	10733.07
631.332	10739.84
631.687	10766.96
632.041	10737.81
632.396	10714.08
632.75	10745.95
633.104	10739.84
633.459	10722.67
633.813	10737.36
634.167	10746.85
634.521	10656.46
634.875	10736
635.229	10710.69
635.583	10656.91
635.937	10659.85
636.291	10628.44
636.645	10627.53
636.999	10649.68
637.352	10630.02
637.706	10572.62
638.06	10577.36
638.413	10584.14
638.767	10623.92
639.121	10583.24
639.474	10473.19
639.828	10426.86
640.181	10527.42
640.534	10549.79
640.888	10447.65
641.241	10390.93
641.594	10460.53
641.947	10435.9
642.301	10418.27
642.654	10390.02
643.007	10395.9
643.36	10387.76
643.713	10342.79
644.066	10402.23
644.419	10352.06
644.771	10342.34
645.124	10209.92
645.477	10240.2
645.83	10107.54
646.182	10035
646.535	10073.42
646.888	10068.68
647.24	10012.86
647.593	10058.28
647.945	10049.02
648.298	10000.66
648.65	10031.61
649.002	9952.97
649.355	10043.14
649.707	10035.68
650.059	10037.72
650.411	10202.01
650.763	10198.62
651.115	10270.03
651.467	10264.15
651.819	10305.96
652.171	10215.56
652.523	10245.85
652.875	10180.99
653.227	10193.19
653.578	10251.5
653.93	10270.25
654.282	10226.41
654.633	10178.5
654.985	10194.77
655.337	10213.98
655.688	10297.6
656.039	10333.53
656.391	10170.82
656.742	10205.4
657.094	10227.32
657.445	10265.73
657.796	10192.29
658.147	10210.82
658.498	10288.11
658.849	10196.13
659.2	10264.6
659.551	10151.16
659.902	10232.06
660.253	10208.56
660.604	10210.37
660.955	10135.79
661.306	10167.43
661.656	10172.85
662.007	10201.33
662.358	10266.86
662.708	10195.68
663.059	10277.71
663.409	10246.52
663.76	10219.63
664.11	10192.29
664.461	10258.95
664.811	10257.15
665.161	10296.92
665.511	10259.41
665.862	10230.25
666.212	10334.21
666.562	10222.57
666.912	10254.43
667.262	10246.3
667.612	10229.8
667.962	10306.86
668.312	10253.53
668.662	10277.94
669.011	10277.94
669.361	10251.72
669.711	10197.94
670.06	10205.17
670.41	10099.18
670.76	10138.73
671.109	10146.41
671.459	10139.63
671.808	10169.46
672.157	10182.35
672.507	10100.77
672.856	10173.31
673.205	10164.94
673.554	10151.61
673.904	10153.42
674.253	10167.88
674.602	10063.03
674.951	10008.34
675.3	9925.4
675.649	10088.56
675.998	10067.32
676.346	10109.13
676.695	10048.79
677.044	10016.25
677.393	10065.51
677.741	10045.17
678.09	10088.34
678.438	9984.16
678.787	9999.07
679.135	10013.76
679.484	9932.63
679.832	9992.07
680.181	9938.51
680.529	9912.52
680.877	9946.87
681.225	9910.71
681.573	9948.45
681.922	9863.71
682.27	9886.08
682.618	9792.53
682.966	9823.03
683.314	9859.64
683.661	9756.14
684.009	9709.59
684.357	9647.9
684.705	9733.77
685.053	9743.49
685.4	9702.13
685.748	9620.55
686.095	9612.19
686.443	9519.54
686.79	9530.39
687.138	9569.25
687.485	9607.9
687.832	9500.33
688.18	9476.83
688.527	9461.69
688.874	9450.61
689.221	9498.07
689.568	9380.33
689.915	9360.67
690.262	9391.63
690.609	9317.06
690.956	9291.97
691.303	9284.74
691.65	9172.43
691.997	9226.89
692.344	9127.01
692.69	9121.81
693.037	9126.33
693.383	9096.72
693.73	9121.58
694.077	8990.74
694.423	9000.91
694.769	9032.77
695.116	9015.82
695.462	9007.23
695.808	8885.66
696.155	8923.62
696.501	8835.71
696.847	8862.38
697.193	8748.48
697.539	8816.28
697.885	8727.47
698.231	8767.47
698.577	8672.55
698.923	8698.09
699.269	8626
699.614	8599.34
699.96	8536.06
700.306	8511.2
700.651	8501.94
700.997	8455.16
701.342	8505.1
701.688	8427.14
702.033	8436.18
702.379	8417.42
702.724	8359.57
703.069	8357.53
703.415	8246.58
703.76	8256.29
704.105	8189.18
704.45	8212.23
704.795	8135.39
705.14	8165.9
705.485	8129.97
705.83	8124.77
706.175	8085
706.52	8111.21
706.865	8050.2
707.209	8038.45
707.554	7963.65
707.899	7987.83
708.243	7912.57
708.588	7930.88
708.932	7874.61
709.277	7877.32
709.621	7869.86
709.966	7852.69
710.31	7799.13
710.654	7723.43
710.998	7837.32
711.342	7737.21
711.687	7792.35
712.031	7755.06
712.375	7699.7
712.719	7668.51
713.063	7659.7
713.407	7720.49
713.75	7613.15
714.094	7640.94
714.438	7551.23
714.782	7559.36
715.125	7588.52
715.469	7554.84
715.812	7484.56
716.156	7455.64
716.499	7469.2
716.843	7490.21
717.186	7461.74
717.53	7473.26
717.873	7513.71
718.216	7427.39
718.559	7368.63
718.902	7409.76
719.246	7371.12
719.589	7355.53
719.932	7326.6
720.275	7358.24
720.617	7329.31
720.96	7271.01
721.303	7314.62
721.646	7339.03
721.989	7325.47
722.331	7323.89
722.674	7259.26
723.016	7307.62
723.359	7299.26
723.701	7331.57
724.044	7187.62
724.386	7193.5
724.729	7231.91
725.071	7181.07
725.413	7218.13
725.755	7247.96
726.097	7200.73
726.439	7165.7
726.782	7178.13
727.124	7207.28
727.465	7145.36
727.807	7203.44
728.149	7148.53
728.491	7172.03
728.833	7127.51
729.175	7138.36
729.516	7126.15
729.858	7136.55
730.199	7126.15
730.541	7146.94
730.882	7162.31
731.224	7137.23
731.565	7108.08
731.906	7146.27
732.248	7119.37
732.589	7087.29
732.93	7094.52
733.271	7087.74
733.612	7104.01
733.953	7122.76
734.294	7110.79
734.635	7099.94
734.976	7082.54
735.317	7045.93
735.658	7075.31
735.999	7045.03
736.339	7042.77
736.68	7052.03
737.021	7165.02
737.361	7101.97
737.702	7060.39
738.042	7130.9
738.383	7088.87
738.723	7132.93
739.063	7115.99
739.404	7122.99
739.744	7141.52
740.084	7178.81
740.424	7193.5
740.764	7134.52
741.104	7150.79
741.444	7149.66
741.784	7159.83
742.124	7145.81
742.464	7216.77
742.804	7198.92
743.143	7190.79
743.483	7210.45
743.823	7191.92
744.162	7217.45
744.502	7230.11
744.841	7273.27
745.181	7352.59
745.52	7290.22
745.86	7352.36
746.199	7334.06
746.538	7432.36
746.877	7493.15
747.216	7519.59
747.556	7502.87
747.895	7508.29
748.234	7579.93
748.573	7582.87
748.911	7628.51
749.25	7768.62
749.589	7705.35
749.928	7803.2
750.267	7865.57
750.605	7885
750.944	7980.6
751.283	8005.23
751.621	8079.12
751.96	8108.73
752.298	8219.23
752.636	8315.95
752.975	8330.87
753.313	8405.44
753.651	8506.23
753.989	8559.79
754.327	8645.66
754.666	8720.24
755.004	8880.46
755.342	8933.56
755.679	9016.73
756.017	9049.04
756.355	9252.43
756.693	9242.71
757.031	9459.88
757.368	9523.83
757.706	9649.03
758.044	9740.32
758.381	9940.54
758.719	9913.2
759.056	10107.77
759.394	10242.46
759.731	10298.95
760.068	10404.49
760.405	10535.78
760.743	10683.35
761.08	10887.19
761.417	10897.81
761.754	11095.77
762.091	11140.96
762.428	11345.25
762.765	11348.19
763.102	11606.71
763.438	11633.38
763.775	11800.83
764.112	11909.53
764.449	12050.09
764.785	12118.11
765.122	12195.17
765.458	12337.77
765.795	12457.77
766.131	12606.24
766.467	12730.75
766.804	12762.84
767.14	12890.97
767.476	13016.17
767.812	13086.45
768.148	13158.54
768.485	13206.67
768.821	13286.22
769.157	13387.23
769.492	13556.27
769.828	13660.9
770.164	13636.27
770.5	13753.32
770.836	13846.43
771.171	13852.76
771.507	13876.94
771.842	13917.61
772.178	14089.81
772.513	14093.43
772.849	14189.47
773.184	14210.26
773.519	14245.06
773.855	14351.73
774.19	14350.15
774.525	14403.48
774.86	14500.88
775.195	14577.94
775.53	14479.86
775.865	14535.68
776.2	14466.75
776.535	14470.37
776.87	14600.76
777.205	14509.69
777.539	14563.92
777.874	14659.29
778.209	14593.98
778.543	14646.18
778.878	14632.85
779.212	14724.15
779.547	14645.5
779.881	14749.23
780.215	14719.18
780.55	14810.02
780.884	14680.76
781.218	14772.73
781.552	14766.18
781.886	14730.47
782.22	14680.08
782.554	14727.08
782.888	14567.09
783.222	14653.41
783.556	14657.93
783.889	14651.61
784.223	14554.89
784.557	14524.6
784.89	14644.37
785.224	14506.75
785.557	14628.78
785.891	14545.85
786.224	14504.49
786.558	14544.04
786.891	14393.31
787.224	14409.58
787.557	14360.54
787.891	14418.84
788.224	14352.18
788.557	14403.25
788.89	14398.96
789.223	14463.14
789.556	14315.34
789.888	14380.65
790.221	14306.53
790.554	14162.58
790.887	14207.32
791.219	14138.17
791.552	14110.15
791.884	14113.32
792.217	14048.23
792.549	14029.48
792.882	14056.59
793.214	13980.89
793.546	14042.81
793.879	13926.88
794.211	13838.29
794.543	13999.42
794.875	13808.24
795.207	13954.9
795.539	13844.4
795.871	13834.23
796.203	13776.6
796.535	13694.57
796.867	13660.22
797.198	13603.72
797.53	13678.3
797.862	13647.34
798.193	13549.49
798.525	13574.8
798.856	13631.97
799.188	13483.73
799.519	13374.8
799.85	13366.44
800.182	13406.22
800.513	13335.48
800.844	13203.28
801.175	13373.45
801.506	13342.94
801.837	13241.02
802.168	13217.75
802.499	13128.93
802.83	13117.18
803.161	13080.35
803.491	13114.7
803.822	13136.39
804.153	12996.06
804.483	12807.81
804.814	12854.59
805.145	12901.82
805.475	12924.19
805.805	12853.69
806.136	12779.11
806.466	12806.46
806.796	12820.92
807.126	12696.18
807.457	12688.49
807.787	12642.62
808.117	12589.74
808.447	12549.29
808.777	12638.78
809.107	12588.61
809.436	12561.94
809.766	12614.37
810.096	12540.48
810.426	12465.9
810.755	12448.05
811.085	12334.15
811.414	12499.57
811.744	12342.06
812.073	12286.7
812.403	12362.63
812.732	12242.86
813.061	12244.44
813.39	12178.22
813.719	12163.76
814.049	12256.87
814.378	12170.99
814.707	12106.14
815.036	12170.09
815.365	12070.66
815.693	12053.26
816.022	11960.38
816.351	12034.95
816.68	11928.51
817.008	11980.49
817.337	11830.21
817.665	11860.49
817.994	11907.27
818.322	11898.01
818.651	11818.91
818.979	11747.5
819.307	11984.11
819.636	11824.56
819.964	11659.82
820.292	11768.74
820.62	11741.85
820.948	11640.61
821.276	11640.84
821.604	11620.73
821.932	11626.83
822.259	11723.32
822.587	11736.43
822.915	11684
823.243	11724.68
823.57	11674.06
823.898	11659.59
824.225	11621.86
824.553	11618.01
824.88	11718.58
825.207	11649.2
825.535	11680.38
825.862	11667.28
826.189	11611.91
826.516	11714.51
826.843	11737.11
827.17	11745.47
827.497	11740.27
827.824	11646.04
828.151	11689.65
828.478	11644.23
828.805	11757.67
829.131	11686.03
829.458	11706.82
829.785	11649.2
830.111	11619.6
830.438	11647.84
830.764	11663.66
831.09	11727.39
831.417	11607.39
831.743	11682.19
832.069	11653.04
832.395	11645.36
832.722	11683.1
833.048	11604.23
833.374	11651.23
833.7	11592.93
834.026	11593.38
834.351	11623.21
834.677	11602.19
835.003	11636.32
835.329	11623.66
835.654	11620.5
835.98	11549.77
836.306	11569.2
836.631	11463.22
836.956	11482.88
837.282	11593.16
837.607	11499.37
837.932	11477
838.258	11410.79
838.583	11425.7
838.908	11374.86
839.233	11379.15
839.558	11400.17
839.883	11326.04
840.208	11359.49
840.533	11380.73
840.858	11322.2
841.182	11295.31
841.507	11317.91
841.832	11265.25
842.156	11227.52
842.481	11242.88
842.805	11147.29
843.13	11154.98
843.454	11093.06
843.778	11143
844.103	11103.23
844.427	11045.37
844.751	11031.36
845.075	10970.8
845.399	10958.82
845.723	10917.47
846.047	10943.23
846.371	10792.72
846.695	10834.08
847.019	10706.4
847.343	10759.05
847.666	10719.05
847.99	10665.95
848.313	10600.19
848.637	10581.66
848.96	10545.95
849.284	10456.91
849.607	10446.97
849.931	10427.08
850.254	10333.3
850.577	10325.17
850.9	10206.3
851.223	10195.45
851.546	10177.37
851.869	10113.87
852.192	10192.97
852.515	10053.08
852.838	9995.46
853.161	10096.25
853.483	9987.1
853.806	9943.26
854.129	9884.73
854.451	9858.29
854.774	9861.9
855.096	9802.69
855.419	9829.36
855.741	9818.29
856.063	9741.68
856.385	9727.44
856.708	9662.81
857.03	9606.32
857.352	9657.61
857.674	9620.1
857.996	9560.44
858.318	9482.93
858.64	9444.96
858.961	9498.52
859.283	9466.88
859.605	9443.61
859.926	9390.73
860.248	9358.19
860.57	9336.04
860.891	9392.31
861.212	9233.44
861.534	9262.37
861.855	9248.81
862.176	9270.73
862.498	9208.59
862.819	9237.29
863.14	9214.91
863.461	9280.67
863.782	9203.61
864.103	9121.13
864.424	9123.39
864.745	9085.88
865.065	9137.4
865.386	9055.6
865.707	9043.84
866.027	9063.05
866.348	9052.43
866.668	9035.48
866.989	9012.66
867.309	8995.48
867.63	9016.05
867.95	8938.99
868.27	8894.92
868.59	8938.31
868.91	8905.99
869.23	8897.41
869.55	8883.62
869.87	8939.44
870.19	8861.25
870.51	8894.7
870.83	8813.34
871.15	8810.63
871.469	8813.57
871.789	8849.5
872.109	8769.28
872.428	8781.03
872.748	8795.49
873.067	8704.42
873.386	8732.21
873.706	8748.26
874.025	8691.76
874.344	8672.1
874.663	8623.29
874.982	8625.1
875.301	8650.18
875.62	8595.27
875.939	8562.73
876.258	8592.33
876.577	8555.5
876.896	8577.19
877.214	8528.83
877.533	8589.17
877.852	8533.8
878.17	8513.91
878.489	8535.38
878.807	8454.26
879.125	8516.4
879.444	8513.01
879.762	8397.53
880.08	8534.93
880.398	8413.58
880.716	8347.82
881.034	8395.95
881.352	8335.84
881.67	8343.3
881.988	8328.38
882.306	8302.62
882.624	8283.41
882.941	8233.24
883.259	8243.64
883.577	8220.59
883.894	8240.48
884.212	8229.4
884.529	8214.04
884.846	8160.93
885.164	8148.27
885.481	8127.94
885.798	8116.18
886.115	8053.59
886.432	8090.65
886.75	7993.02
887.067	8056.53
887.383	7976.53
887.7	7987.37
888.017	8025.11
888.334	7987.83
888.651	7969.75
888.967	8006.13
889.284	7881.39
889.6	7887.26
889.917	7862.86
890.233	7810.43
890.55	7773.6
890.866	7788.96
891.182	7737.21
891.498	7689.76
891.815	7769.53
892.131	7677.1
892.447	7677.1
892.763	7708.51
893.079	7606.59
893.395	7624.22
893.71	7623.77
894.026	7579.48
894.342	7484.11
894.657	7524.79
894.973	7438.91
895.289	7423.32
895.604	7432.36
895.92	7277.34
896.235	7372.48
896.55	7291.57
896.865	7347.39
897.181	7296.77
897.496	7279.82
897.811	7249.54
898.126	7237.11
898.441	7168.64
898.756	7157.11
899.071	7135.42
899.386	7175.19
899.7	7053.61
900.015	7084.8
900.33	6964.12
900.644	7032.15
900.959	6996.21
901.273	6988.98
901.588	6959.61
901.902	6924.35
902.216	6937.23
902.531	6933.17
902.845	6855.43
903.159	6767.75
903.473	6784.47
903.787	6732.27
904.101	6733.85
904.415	6734.07
904.729	6653.4
905.042	6629.67
905.356	6633.29
905.67	6596.45
905.984	6618.37
906.297	6577.02
906.611	6531.14
906.924	6560.52
907.237	6560.52
907.551	6469
907.864	6470.58
908.177	6467.41
908.491	6429.22
908.804	6388.77
909.117	6309
909.43	6365.5
909.743	6277.82
910.056	6254.54
910.368	6306.51
910.681	6238.49
910.994	6187.2
911.307	6204.6
911.619	6107.42
911.932	6147.65
912.244	6080.53
912.557	6136.12
912.869	6052.06
913.181	6043.7
913.494	5970.03
913.806	5967.99
914.118	5977.71
914.43	5914.43
914.742	5920.99
915.054	5917.37
915.366	5846.41
915.678	5844.15
915.99	5861.1
916.302	5745.17
916.613	5739.07
916.925	5736.36
917.236	5722.35
917.548	5689.13
917.859	5694.1
918.171	5621.11
918.482	5612.3
918.794	5603.48
919.105	5587.21
919.416	5520.32
919.727	5518.97
920.038	5581.34
920.349	5555.57
920.66	5467.22
920.971	5502.47
921.282	5401.68
921.593	5402.13
921.903	5391.96
922.214	5341.34
922.525	5309.48
922.835	5318.74
923.146	5321.23
923.456	5292.53
923.767	5265.19
924.077	5291.63
924.387	5207.56
924.697	5187.22
925.008	5165.3
925.318	5133.21
925.628	5136.6
925.938	5088.02
926.248	5076.94
926.558	5078.52
926.867	5060.9
927.177	5052.76
927.487	5020
927.796	4971.63
928.106	4954.91
928.416	4975.02
928.725	4920.56
929.034	4910.62
929.344	4914.01
929.653	4913.11
929.962	4840.56
930.271	4764.63
930.581	4827.46
930.89	4757.4
931.199	4749.04
931.508	4765.99
931.817	4777.29
932.125	4753.79
932.434	4706.56
932.743	4632.89
933.051	4661.13
933.36	4635.37
933.669	4586.33
933.977	4568.48
934.286	4550.4
934.594	4597.41
934.902	4524.19
935.21	4553.11
935.519	4540.69
935.827	4514.02
936.135	4505.43
936.443	4486.68
936.751	4459.33
937.059	4428.37
937.367	4423.4
937.674	4420.46
937.982	4353.35
938.29	4327.36
938.597	4353.12
938.905	4257.98
939.213	4321.71
939.52	4272.44
939.827	4262.73
940.135	4210.52
940.442	4249.62
940.749	4219.79
941.056	4206.23
941.363	4140.47
941.67	4161.94
941.977	4106.8
942.284	4085.78
942.591	4106.12
942.898	4088.04
943.205	4104.31
943.511	4037.2
943.818	3999.01
944.125	4021.38
944.431	4029.96
944.738	4010.53
945.044	3985.9
945.35	3936.41
945.657	3920.14
945.963	3845.34
946.269	3857.99
946.575	3857.54
946.881	3883.98
947.187	3879.69
947.493	3837.88
947.799	3804.66
948.105	3784.32
948.41	3762.4
948.716	3785.45
949.022	3744.32
949.327	3762.18
949.633	3696.64
949.938	3725.79
950.244	3754.04
950.549	3695.51
950.854	3680.37
951.16	3643.99
951.465	3632.46
951.77	3640.6
952.075	3628.62
952.38	3587.94
952.685	3590.65
952.99	3532.58
953.294	3552.01
953.599	3544.78
953.904	3484.44
954.209	3481.96
954.513	3488.74
954.818	3399.47
955.122	3458.68
955.426	3427.72
955.731	3416.87
956.035	3402.41
956.339	3404.67
956.643	3408.96
956.948	3351.56
957.252	3341.85
957.556	3347.72
957.86	3296.65
958.163	3299.36
958.467	3324.9
958.771	3268.85
959.075	3310.66
959.378	3250.1
959.682	3232.02
959.985	3233.38
960.289	3198.57
960.592	3191.79
960.896	3187.5
961.199	3180.72
961.502	3176.65
961.805	3144.34
962.108	3122.42
962.411	3131.23
962.714	3061.18
963.017	3084
963.32	3074.28
963.623	3066.15
963.926	3069.09
964.228	3037.67
964.531	3010.56
964.833	3022.99
965.136	2966.72
965.438	2960.84
965.741	2955.19
966.043	2944.57
966.345	2931.46
966.648	2917.23
966.95	2944.8
967.252	2916.32
967.554	2895.76
967.856	2874.51
968.158	2832.93
968.46	2836.1
968.761	2879.26
969.063	2814.86
969.365	2819.6
969.666	2806.95
969.968	2785.25
970.269	2776.21
970.571	2763.11
970.872	2766.72
971.174	2731.02
971.475	2716.1
971.776	2735.08
972.077	2726.5
972.378	2684.46
972.679	2714.29
972.98	2703.45
973.281	2703.9
973.582	2671.58
973.883	2655.76
974.183	2660.28
974.484	2646.27
974.785	2643.11
975.085	2624.35
975.386	2604.69
975.686	2593.17
975.986	2574.86
976.287	2561.08
976.587	2546.84
976.887	2515.43
977.187	2549.33
977.487	2531.25
977.787	2518.14
978.087	2497.35
978.387	2477.92
978.687	2493.28
978.987	2453.96
979.286	2440.85
979.586	2440.4
979.885	2441.31
980.185	2411.25
980.484	2429.33
980.784	2404.92
981.083	2397.47
981.382	2341.42
981.682	2391.82
981.981	2348.2
982.28	2324.02
982.579	2349.33
982.878	2312.72
983.177	2314.08
983.475	2301.87
983.774	2326.51
984.073	2303.23
984.372	2266.85
984.67	2274.08
984.969	2279.95
985.267	2261.42
985.566	2256.45
985.864	2256.9
986.162	2218.03
986.461	2196.34
986.759	2196.57
987.057	2170.35
987.355	2210.58
987.653	2180.75
987.951	2134.2
988.249	2176.45
988.547	2124.48
988.844	2135.1
989.142	2159.28
989.44	2092.61
989.737	2122.22
990.035	2093.74
990.332	2078.15
990.63	2053.97
990.927	2089.9
991.224	2041.77
991.521	2031.15
991.819	2053.97
992.116	2057.59
992.413	2005.16
992.71	2032.28
993.006	2003.35
993.303	1984.59
993.6	1989.11
993.897	2005.39
994.193	1962.22
994.49	1983.46
994.787	1917.7
995.083	1941.21
995.379	1920.64
995.676	1910.7
995.972	1936.69
996.268	1886.97
996.565	1890.81
996.861	1901.21
997.157	1876.8
997.453	1888.78
997.749	1852.17
998.044	1866.18
998.34	1859.4
998.636	1816.24
998.932	1823.69
999.227	1818.05
999.523	1821.21
999.818	1807.42
1000.114	1791.61
1000.409	1783.02
1000.704	1728.78
1001	1742.34
1001.295	1738.5
1001.59	1735.11
1001.885	1740.31
1002.18	1710.25
1002.475	1752.06
1002.77	1698.5
1003.065	1681.1
1003.359	1692.17
1003.654	1671.83
1003.949	1650.14
1004.243	1675.45
1004.538	1648.78
1004.832	1654.89
1005.127	1668.67
1005.421	1620.99
1005.715	1616.69
1006.009	1635.9
1006.304	1596.58
1006.598	1595.45
1006.892	1585.96
1007.186	1557.26
1007.48	1563.14
1007.773	1575.57
1008.067	1542.8
1008.361	1552.52
1008.655	1541.22
1008.948	1520.43
1009.242	1541.67
1009.535	1523.59
1009.829	1511.39
1010.122	1501.67
1010.415	1491.5
1010.708	1480.88
1011.001	1488.56
1011.295	1450.82
1011.588	1462.35
1011.881	1449.92
1012.173	1425.97
1012.466	1428.23
1012.759	1410.37
1013.052	1437.04
1013.344	1374.89
1013.637	1382.8
1013.93	1364.95
1014.222	1377.38
1014.514	1349.36
1014.807	1384.84
1015.099	1361.11
1015.391	1310.26
1015.683	1353.88
1015.976	1335.8
1016.268	1356.14
1016.56	1315.69
1016.851	1328.11
1017.143	1316.59
1017.435	1289.25
1017.727	1263.03
1018.018	1291.51
1018.31	1269.13
1018.602	1271.62
1018.893	1276.82
1019.185	1248.34
1019.476	1218.06
1019.767	1234.56
1020.058	1203.82
1020.35	1209.93
1020.641	1205.86
1020.932	1188.91
1021.223	1175.8
1021.514	1186.65
1021.804	1199.98
1022.095	1188.23
1022.386	1160.44
1022.677	1151.17
1022.967	1157.5
1023.258	1156.82
1023.548	1113.66
1023.839	1118.63
1024.129	1123.37
1024.419	1130.38
1024.709	1081.57
1025	1104.84
1025.29	1100.55
1025.58	1094.45
1025.87	1075.24
1026.16	1072.08
1026.449	1076.6
1026.739	1074.56
1027.029	1044.96
1027.319	1058.29
1027.608	1047.22
1027.898	1037.73
1028.187	995.69
1028.477	1041.34
1028.766	1042.47
1029.055	1010.84
1029.344	1015.35
1029.634	991.85
1029.923	1007.67
1030.212	991.85
1030.501	985.98
1030.79	979.2
1031.078	984.62
1031.367	987.78
1031.656	948.46
1031.945	939.2
1032.233	959.99
1032.522	949.82
1032.81	952.76
1033.099	948.24
1033.387	920.89
1033.675	911.63
1033.963	890.39
1034.251	927.67
1034.54	898.97
1034.828	887.45
1035.116	880.89
1035.403	875.92
1035.691	856.49
1035.979	897.39
1036.267	883.83
1036.554	881.57
1036.842	865.3
1037.129	855.36
1037.417	853.1
1037.704	838.64
1037.992	836.38
1038.279	835.25
1038.566	829.82
1038.853	829.82
1039.14	829.82
