Data from hue_20_FLMS001491_17.txt Node
Date: Mon Feb 06 15:33:41 GMT 2017
User: dcchb
Spectrometer: FLMS00149
Trigger mode: 0
Integration Time (sec): 2.000000E-2
Scans to average: 10
Electric dark correction enabled: true
Nonlinearity correction enabled: false
Boxcar width: 0
XAxis mode: Wavelengths
Number of Pixels in Spectrum: 2048
>>>>>Begin Spectral Data<<<<<
341.393	-8.09
341.776	-8.09
342.16	-8.09
342.543	-71.14
342.927	-77.24
343.31	-59.62
343.693	-68.2
344.077	-50.8
344.46	-74.76
344.843	-56.23
345.226	-27.08
345.61	-30.01
345.993	-30.92
346.376	2.08
346.759	0.04
347.142	25.58
347.525	41.62
347.908	69.19
348.291	65.58
348.674	94.05
349.057	99.47
349.44	125.91
349.823	143.77
350.206	167.5
350.588	177.44
350.971	210.66
351.354	224.67
351.737	251.56
352.119	259.02
352.502	278
352.884	269.41
353.267	254.5
353.65	277.55
354.032	301.73
354.414	310.32
354.797	312.35
355.179	321.39
355.562	325.23
355.944	320.49
356.326	349.19
356.709	337.21
357.091	325.68
357.473	329.3
357.855	343.54
358.238	349.19
358.62	317.32
359.002	325.68
359.384	326.59
359.766	344.89
360.148	338.79
360.53	351.9
360.912	355.97
361.294	332.24
361.676	329.3
362.057	332.91
362.439	321.84
362.821	326.36
363.203	329.3
363.584	317.77
363.966	318
364.348	317.1
364.729	287.94
365.111	306.47
365.493	311.45
365.874	304.89
366.256	313.93
366.637	299.92
367.019	298.34
367.4	304.22
367.781	305.35
368.163	308.96
368.544	321.62
368.925	317.55
369.306	329.07
369.688	307.83
370.069	314.38
370.45	310.32
370.831	313.93
371.212	311.9
371.593	309.86
371.974	299.47
372.355	297.89
372.736	314.84
373.117	307.15
373.498	301.96
373.879	307.38
374.26	309.64
374.641	306.02
375.021	313.71
375.402	298.79
375.783	320.94
376.163	322.97
376.544	312.8
376.925	336.76
377.305	312.58
377.686	343.99
378.066	339.92
378.447	341.95
378.827	340.37
379.208	328.62
379.588	315.97
379.968	314.38
380.349	317.55
380.729	341.05
381.109	336.98
381.489	314.84
381.87	318.45
382.25	337.66
382.63	325.91
383.01	334.27
383.39	326.59
383.77	341.05
384.15	331.11
384.53	339.02
384.91	318.9
385.29	345.57
385.67	354.16
386.049	341.95
386.429	340.6
386.809	350.99
387.189	347.83
387.568	336.08
387.948	338.56
388.328	346.7
388.707	347.6
389.087	354.84
389.466	350.09
389.846	375.85
390.225	363.2
390.605	375.17
390.984	352.12
391.363	366.81
391.743	358.45
392.122	362.97
392.501	364.55
392.881	358.45
393.26	368.62
393.639	366.81
394.018	384.67
394.397	374.5
394.776	382.63
395.155	372.24
395.534	351.45
395.913	358.68
396.292	379.69
396.671	370.65
397.05	378.79
397.429	378.56
397.808	388.28
398.186	375.17
398.565	376.08
398.944	391.9
399.323	396.42
399.701	382.63
400.08	381.73
400.458	393.48
400.837	407.49
401.215	399.35
401.594	372.46
401.972	401.61
402.351	409.3
402.729	384.89
403.107	388.96
403.486	414.95
403.864	381.28
404.242	388.05
404.62	404.1
404.999	400.48
405.377	404.1
405.755	399.13
406.133	416.53
406.511	412.91
406.889	427.6
407.267	413.82
407.645	408.39
408.023	413.14
408.401	413.59
408.779	419.47
409.156	418.34
409.534	413.82
409.912	439.35
410.29	440.93
410.667	449.52
411.045	435.29
411.422	430.09
411.8	442.97
412.178	448.62
412.555	441.39
412.933	445.45
413.31	447.04
413.687	438.9
414.065	434.16
414.442	449.3
414.819	461.95
415.197	460.82
415.574	463.98
415.951	461.73
416.328	458.11
416.705	468.73
417.082	462.4
417.46	491.33
417.837	476.87
418.214	470.76
418.591	485.68
418.967	468.05
419.344	488.39
419.721	490.65
420.098	507.15
420.475	498.11
420.852	459.47
421.228	501.27
421.605	486.81
421.982	514.83
422.358	509.63
422.735	510.99
423.111	514.15
423.488	514.15
423.864	518.9
424.241	528.84
424.617	535.4
424.994	523.87
425.37	505.79
425.746	529.75
426.123	539.01
426.499	530.2
426.875	533.36
427.251	540.14
427.627	542.63
428.003	539.46
428.379	566.36
428.756	544.66
429.132	569.74
429.507	562.06
429.883	569.74
430.259	552.8
430.635	573.59
431.011	580.37
431.387	593.02
431.763	592.34
432.138	580.82
432.514	593.02
432.89	599.57
433.265	619.91
433.641	619.01
434.016	612.46
434.392	634.15
434.767	616.3
435.143	617.65
435.518	626.47
435.894	641.83
436.269	659.01
436.644	610.42
437.02	638.22
437.395	658.78
437.77	667.6
438.145	679.35
438.52	653.13
438.895	676.63
439.271	668.95
439.646	683.64
440.021	678.89
440.395	684.54
440.77	674.6
441.145	694.04
441.52	697.88
441.895	700.14
442.27	715.05
442.645	706.46
443.019	724.32
443.394	724.54
443.769	695.39
444.143	696.97
444.518	734.03
444.892	709.63
445.267	712.11
445.641	723.19
446.016	731.77
446.39	736.97
446.764	765.67
447.139	750.98
447.513	764.09
447.887	747.59
448.262	732.9
448.636	747.14
449.01	756.41
449.384	748.05
449.758	740.81
450.132	759.34
450.506	792.34
450.88	781.26
451.254	800.02
451.628	815.61
452.002	803.64
452.376	787.37
452.75	784.43
453.123	816.29
453.497	819.91
453.871	827.82
454.244	854.48
454.618	850.87
454.992	845.9
455.365	855.16
455.739	875.27
456.112	883.86
456.486	873.47
456.859	884.09
457.232	907.14
457.606	895.84
457.979	900.58
458.352	908.04
458.725	941.26
459.099	925.67
459.472	930.41
459.845	950.53
460.218	964.99
460.591	996.4
460.964	985.1
461.337	966.12
461.71	1009.51
462.083	1026.23
462.456	1035.95
462.829	1012.45
463.201	1034.82
463.574	1035.5
463.947	1067.81
464.32	1078.66
464.692	1120.46
465.065	1091.09
465.438	1083.4
465.81	1090.18
466.183	1145.32
466.555	1158.2
466.928	1143.52
467.3	1183.74
467.672	1176.51
468.045	1224.42
468.417	1216.51
468.789	1206.56
469.161	1228.94
469.534	1217.19
469.906	1257.64
470.278	1256.28
470.65	1268.26
471.022	1310.29
471.394	1302.83
471.766	1351.65
472.138	1360.01
472.51	1389.16
472.882	1416.73
473.253	1407.91
473.625	1456.28
473.997	1448.37
474.369	1472.32
474.74	1501.47
475.112	1502.6
475.484	1556.84
475.855	1574.24
476.227	1582.6
476.598	1646.1
476.97	1645.2
477.341	1671.64
477.713	1712.09
478.084	1715.93
478.455	1776.72
478.827	1779.2
479.198	1843.16
479.569	1832.08
479.94	1911.4
480.311	1926.09
480.682	1929.71
481.053	2006.54
481.424	2038.63
481.795	2016.26
482.166	2077.5
482.537	2117.95
482.908	2197.72
483.279	2195.92
483.65	2207.67
484.021	2259.64
484.391	2322.92
484.762	2334.9
485.133	2385.74
485.503	2416.02
485.874	2449.02
486.244	2504.38
486.615	2552.74
486.985	2578.96
487.356	2625.06
487.726	2652.18
488.097	2698.73
488.467	2711.38
488.837	2788.44
489.207	2807.2
489.578	2870.7
489.948	2889.01
490.318	2918.61
490.688	2969.91
491.058	3039.96
491.428	3062.79
491.798	3076.57
492.168	3158.6
492.538	3159.06
492.908	3237.47
493.278	3261.65
493.648	3281.09
494.017	3328.77
494.387	3349.11
494.757	3369.9
495.126	3421.42
495.496	3440.63
495.866	3482.21
496.235	3537.35
496.605	3561.3
496.974	3568.76
497.344	3609.21
497.713	3616.22
498.082	3654.64
498.452	3712.94
498.821	3725.14
499.19	3693.73
499.559	3751.58
499.928	3808.08
500.298	3815.54
500.667	3839.72
501.036	3842.88
501.405	3851.92
501.774	3890.79
502.143	3990.67
502.512	3924.46
502.88	4006.72
503.249	4020.05
503.618	4027.06
503.987	4086.71
504.356	4074.51
504.724	4095.08
505.093	4076.32
505.462	4094.62
505.83	4189.31
506.199	4174.62
506.567	4194.73
506.936	4194.51
507.304	4266.14
507.672	4285.13
508.041	4300.49
508.409	4317.22
508.777	4359.93
509.145	4362.64
509.514	4356.09
509.882	4376.65
510.25	4406.03
510.618	4415.75
510.986	4427.95
511.354	4475.18
511.722	4493.71
512.09	4544.33
512.458	4519.25
512.826	4571.67
513.193	4560.15
513.561	4593.37
513.929	4599.7
514.297	4642.18
514.664	4698.68
515.032	4648.51
515.4	4741.61
515.767	4740.03
516.135	4706.36
516.502	4706.13
516.869	4778.22
517.237	4772.8
517.604	4785.23
517.972	4801.5
518.339	4841.72
518.706	4881.5
519.073	4858.67
519.44	4861.61
519.808	4908.84
520.175	4921.04
520.542	4962.62
520.909	5018.22
521.276	5027.48
521.643	5051.43
522.009	5048.27
522.376	5069.74
522.743	5108.38
523.11	5144.99
523.477	5171.21
523.843	5208.94
524.21	5242.16
524.577	5271.32
524.943	5262.73
525.31	5296.4
525.676	5342.95
526.043	5374.36
526.409	5375.27
526.776	5445.1
527.142	5452.55
527.508	5475.38
527.874	5521.71
528.241	5557.18
528.607	5517.19
528.973	5570.74
529.339	5589.5
529.705	5647.8
530.071	5732.32
530.437	5720.57
530.803	5719.89
531.169	5817.52
531.535	5742.72
531.901	5848.48
532.267	5773.68
532.632	5823.17
532.998	5871.75
533.364	5902.49
533.73	5950.62
534.095	5966.21
534.461	5982.26
534.826	6038.53
535.192	6038.08
535.557	6050.5
535.923	6121.46
536.288	6102.93
536.653	6149.49
537.019	6103.38
537.384	6144.97
537.749	6174.12
538.114	6205.53
538.479	6219.31
538.845	6292.31
539.21	6230.84
539.575	6276.26
539.94	6271.06
540.305	6318.75
540.67	6342.25
541.034	6395.35
541.399	6382.93
541.764	6398.29
542.129	6491.85
542.494	6410.72
542.858	6473.09
543.223	6500.89
543.587	6532.07
543.952	6546.31
544.316	6551.28
544.681	6561
545.045	6622.02
545.41	6675.35
545.774	6656.14
546.138	6669.47
546.503	6761.9
546.867	6758.73
547.231	6822.69
547.595	6804.61
547.959	6815.91
548.324	6873.08
548.688	6924.38
549.052	6939.75
549.416	6938.84
549.779	6968.67
550.143	6940.42
550.507	7042.12
550.871	7055.22
551.235	7058.16
551.599	7080.53
551.962	7066.75
552.326	7126.63
552.689	7148.1
553.053	7147.88
553.417	7172.74
553.78	7226.07
554.143	7223.58
554.507	7268.55
554.87	7271.04
555.234	7347.87
555.597	7346.74
555.96	7284.37
556.323	7363.46
556.686	7398.94
557.05	7465.38
557.413	7447.08
557.776	7440.52
558.139	7494.53
558.502	7516.23
558.865	7537.02
559.228	7600.75
559.59	7649.78
559.953	7619.28
560.316	7706.51
560.679	7612.95
561.041	7740.4
561.404	7736.11
561.767	7779.72
562.129	7791.93
562.492	7878.93
562.854	7838.48
563.217	7899.27
563.579	7916.9
563.941	7940.17
564.304	8011.13
564.666	8030.11
565.028	8009.78
565.39	8040.28
565.753	8077.8
566.115	8120.05
566.477	8073.28
566.839	8173.84
567.201	8259.03
567.563	8249.32
567.925	8298.81
568.287	8297.45
568.648	8308.07
569.01	8320.95
569.372	8409.76
569.734	8400.05
570.095	8441.18
570.457	8549.65
570.819	8546.03
571.18	8569.31
571.542	8619.7
571.903	8619.25
572.265	8636.65
572.626	8714.84
572.987	8738.57
573.349	8832.35
573.71	8831.45
574.071	8908.06
574.432	8894.05
574.794	8982.86
575.155	9014.49
575.516	9004.55
575.877	9113.93
576.238	9193.25
576.599	9296.75
576.96	9313.47
577.32	9382.39
577.681	9463.75
578.042	9556.63
578.403	9627.36
578.763	9717.53
579.124	9738.09
579.485	9875.71
579.845	9944.41
580.206	10024.41
580.566	10132.66
580.927	10201.58
581.287	10312.31
581.648	10442.48
582.008	10612.87
582.368	10720.66
582.728	10775.13
583.089	10992.3
583.449	11132.41
583.809	11256.92
584.169	11386.86
584.529	11579.85
584.889	11868.2
585.249	11908.43
585.609	12038.6
585.969	12248.53
586.329	12416.21
586.688	12627.96
587.048	12815.52
587.408	13014.84
587.768	13238.79
588.127	13425.68
588.487	13670.19
588.846	14031.09
589.206	14129.61
589.565	14325.99
589.925	14622.71
590.284	14865.64
590.643	15104.96
591.003	15380.43
591.362	15677.6
591.721	15922.11
592.08	16145.83
592.44	16445.49
592.799	16708.3
593.158	17049.31
593.517	17338.12
593.876	17632.12
594.235	17760.03
594.593	18122.73
594.952	18548.26
595.311	18739.44
595.67	19009.26
596.029	19384.17
596.387	19692.41
596.746	20043.13
597.104	20212.84
597.463	20523.57
597.822	20790.23
598.18	21137.57
598.538	21329.65
598.897	21830.88
599.255	21903.65
599.613	22526.68
599.972	22570.3
600.33	22903.17
600.688	23039.89
601.046	23507.45
601.404	23882.58
601.762	24137.49
602.12	24507.42
602.478	24744.93
602.836	24941.99
603.194	25183.34
603.552	25497.68
603.91	25754.39
604.268	26138.56
604.625	26313.47
604.983	26661.04
605.341	26889.96
605.698	27214.02
606.056	27567.45
606.413	27724.51
606.771	28025.97
607.128	28370.14
607.485	28476.13
607.843	28649.01
608.2	29081.31
608.557	29301.42
608.914	29492.6
609.272	29809.65
609.629	30050.33
609.986	30303.43
610.343	30313.14
610.7	30791.32
611.057	30848.04
611.414	31055.05
611.771	31372.32
612.127	31596.05
612.484	31859.32
612.841	32097.96
613.198	32065.19
613.554	32403.26
613.911	32686.19
614.267	32879.18
614.624	33022.9
614.98	33189.45
615.337	33441.65
615.693	33532.72
616.05	33734.3
616.406	34002.99
616.762	34056.1
617.118	34163.66
617.475	34414.73
617.831	34586.48
618.187	34765.46
618.543	34816.75
618.899	35167.71
619.255	35239.79
619.611	35354.59
619.967	35408.6
620.323	35754.13
620.678	35610.86
621.034	35836.61
621.39	35890.17
621.746	36016.27
622.101	36423.27
622.457	36272.31
622.812	36492.64
623.168	36557.73
623.523	36684.95
623.879	36965.4
624.234	36731.05
624.589	36974.66
624.945	37058.28
625.3	37300.53
625.655	37324.26
626.01	37364.94
626.365	37381.66
626.72	37587.08
627.075	37453.07
627.43	37627.75
627.785	37665.27
628.14	37698.26
628.495	37870.01
628.85	37854.64
629.205	37781.87
629.559	38235.2
629.914	37964.92
630.269	37983.22
630.623	38077.91
630.978	38105.71
631.332	38244.69
631.687	38318.81
632.041	38196.1
632.396	38279.94
632.75	38262.09
633.104	38236.1
633.459	38211.47
633.813	38050.12
634.167	38310
634.521	38214.63
634.875	38418.69
635.229	38245.82
635.583	38148.87
635.937	38180.28
636.291	38273.16
636.645	38142.99
636.999	38287.17
637.352	38349.09
637.706	38225.7
638.06	38362.88
638.413	38357.68
638.767	38422.99
639.121	38355.64
639.474	38068.87
639.828	38315.19
640.181	38254.63
640.534	38252.6
640.888	38198.81
641.241	38064.13
641.594	38161.07
641.947	38307.28
642.301	38288.53
642.654	38278.81
643.007	38304.35
643.36	38262.09
643.713	38186.16
644.066	38365.59
644.419	38093.73
644.771	37929.89
645.124	37581.2
645.477	37465.05
645.83	37252.85
646.182	37172.62
646.535	37073.42
646.888	37188.44
647.24	36985.06
647.593	37301.66
647.945	37271.38
648.298	37030.93
648.65	36945.96
649.002	36944.61
649.355	37079.29
649.707	36956.13
650.059	37146.18
650.411	37695.77
650.763	37535.78
651.115	38027.52
651.467	37896.22
651.819	37906.84
652.171	37918.59
652.523	37770.12
652.875	37842.66
653.227	37753.85
653.578	37816.68
653.93	37908.88
654.282	37798.82
654.633	37708.43
654.985	37778.26
655.337	37670.24
655.688	37684.48
656.039	37851.25
656.391	37560.41
656.742	37662.1
657.094	37725.38
657.445	37906.39
657.796	37670.69
658.147	37631.37
658.498	37531.26
658.849	37764.25
659.2	37637.47
659.551	37658.04
659.902	37731.25
660.253	37615.1
660.604	37752.5
660.955	37521.77
661.306	37589.79
661.656	37570.58
662.007	37611.71
662.358	37604.03
662.708	37597.92
663.059	37680.86
663.409	37398.16
663.76	37672.27
664.11	37699.62
664.461	37727.86
664.811	37612.16
665.161	37748.65
665.511	37521.54
665.862	37663.91
666.212	37813.51
666.562	37639.96
666.912	37575.55
667.262	37426.85
667.612	37762.89
667.962	37561.99
668.312	37619.62
668.662	37749.11
669.011	37556.34
669.361	37487.42
669.711	37447.42
670.06	37520.41
670.41	37438.15
670.76	37474.99
671.109	37701.65
671.459	37536.23
671.808	37393.86
672.157	37528.1
672.507	37299.17
672.856	37330.59
673.205	37426.85
673.554	37651.03
673.904	37283.13
674.253	37667.53
674.602	37464.82
674.951	36940.99
675.3	36814.22
675.649	37376.91
675.998	37388.44
676.346	37327.42
676.695	37420.08
677.044	37212.62
677.393	37367.2
677.741	37429.57
678.09	37285.62
678.438	37232.74
678.787	37354.77
679.135	37274.77
679.484	36962.69
679.832	37256.69
680.181	36986.19
680.529	37137.37
680.877	37095.79
681.225	36965.85
681.573	37185.73
681.922	36917.94
682.27	36742.35
682.618	36964.72
682.966	36792.52
683.314	36802.24
683.661	36692.64
684.009	36544.17
684.357	36525.18
684.705	36444.06
685.053	36410.61
685.4	36373.1
685.748	36189.83
686.095	36277.51
686.443	36212.42
686.79	36189.15
687.138	36130.17
687.485	36296.26
687.832	36117.06
688.18	36082.71
688.527	35882.26
688.874	35958.19
689.221	35854.69
689.568	35802.49
689.915	35658.31
690.262	35605.21
690.609	35622.16
690.956	35582.38
691.303	35440.24
691.65	35429.62
691.997	35296.97
692.344	35047.48
692.69	35008.84
693.037	35052.68
693.383	34793.7
693.73	35067.59
694.077	34759.81
694.423	34743.08
694.769	34646.59
695.116	34586.7
695.462	34521.62
695.808	34452.7
696.155	34526.37
696.501	34323.21
696.847	34322.3
697.193	33902.43
697.539	34175.87
697.885	33869.66
698.231	33932.48
698.577	33791.92
698.923	33770.68
699.269	33523.91
699.614	33337.02
699.96	33355.78
700.306	33346.28
700.651	33273.74
700.997	33057.7
701.342	33142.9
701.688	33128.44
702.033	32950.36
702.379	32956.92
702.724	32778.16
703.069	32840.53
703.415	32711.27
703.76	32731.39
704.105	32654.78
704.45	32537.94
704.795	32270.38
705.14	32285.97
705.485	32192.19
705.83	32225.64
706.175	32221.57
706.52	32127.79
706.865	32006.66
707.209	31901.58
707.554	31829.94
707.899	31979.09
708.243	31702.03
708.588	31700.45
708.932	31464.3
709.277	31507.91
709.621	31466.79
709.966	31295.49
710.31	31403.74
710.654	30970.3
710.998	31230.86
711.342	31093.91
711.687	31058.43
712.031	30953.8
712.375	30736.18
712.719	30834.26
713.063	30733.47
713.407	30868.16
713.75	30598.56
714.094	30651.44
714.438	30542.06
714.782	30596.53
715.125	30415.29
715.469	30518.34
715.812	30281.28
716.156	30169.64
716.499	30286.48
716.843	30244.22
717.186	30019.82
717.53	30206.71
717.873	30259.59
718.216	29979.82
718.559	29872.93
718.902	29629.55
719.246	29806.04
719.589	29666.38
719.932	29551.36
720.275	29643.33
720.617	29496.22
720.96	29557.91
721.303	29588.87
721.646	29497.57
721.989	29397.24
722.331	29332.15
722.674	29334.86
723.016	29392.72
723.359	29107.53
723.701	29289.22
724.044	29114.08
724.386	28918.83
724.729	29070.01
725.071	28959.73
725.413	28967.19
725.755	28978.26
726.097	28918.6
726.439	28765.16
726.782	28651.94
727.124	28880.41
727.465	28734.88
727.807	28556.81
728.149	28684.03
728.491	28564.26
728.833	28517.26
729.175	28409.92
729.516	28348.68
729.858	28416.24
730.199	28338.51
730.541	28322.69
730.882	28267.55
731.224	28393.19
731.565	28024.16
731.906	28225.74
732.248	28256.25
732.589	27903.94
732.93	27887.44
733.271	27884.73
733.612	28038.4
733.953	27945.3
734.294	27934.9
734.635	27791.4
734.976	27802.93
735.317	27770.16
735.658	27646.32
735.999	27667.11
736.339	27622.37
736.68	27719.09
737.021	27615.36
737.361	27375.59
737.702	27607.23
738.042	27469.15
738.383	27391.19
738.723	27402.94
739.063	27285.2
739.404	27351.19
739.744	27276.39
740.084	27178.31
740.424	27130.63
740.764	27171.53
741.104	27210.17
741.444	27088.82
741.784	26978.99
742.124	27027.58
742.464	26935.15
742.804	26989.16
743.143	26902.61
743.483	26905.1
743.823	26819.45
744.162	26704.65
744.502	26906.45
744.841	26640.47
745.181	26752.33
745.52	26657.42
745.86	26748.72
746.199	26637.76
746.538	26548.27
746.877	26724.76
747.216	26545.11
747.556	26496.52
747.895	26625.11
748.234	26420.36
748.573	26352.8
748.911	26343.76
749.25	26328.16
749.589	26148.73
749.928	26117.1
750.267	26200.48
750.605	26055.4
750.944	26108.28
751.283	25934.28
751.621	26040.26
751.96	25948.96
752.298	25872.58
752.636	25812.7
752.975	25708.97
753.313	25688.41
753.651	25819.93
753.989	25678.01
754.327	25632.14
754.666	25509.65
755.004	25594.4
755.342	25485.47
755.679	25532.25
756.017	25310.79
756.355	25364.8
756.693	25358.7
757.031	25245.93
757.368	25084.13
757.706	25201.19
758.044	25061.53
758.381	25154.64
758.719	25021.98
759.056	24996.9
759.394	24900.63
759.731	24721.65
760.068	24671.03
760.405	24542.45
760.743	24605.5
761.08	24490.02
761.417	24455.44
761.754	24439.63
762.091	24328.89
762.428	24312.4
762.765	24200.99
763.102	24279.4
763.438	24061.78
763.775	24069.24
764.112	23933.2
764.449	24041.44
764.785	23856.82
765.122	23633.32
765.458	23601.46
765.795	23575.69
766.131	23612.53
766.467	23504.28
766.804	23348.81
767.14	23241.92
767.476	23355.59
767.812	23107.23
768.148	23234.01
768.485	22868.59
768.821	22914.24
769.157	22880.57
769.492	22710.41
769.828	22764.64
770.164	22541.6
770.5	22616.4
770.836	22499.34
771.171	22390.87
771.507	22252.79
771.842	22171.44
772.178	22257.76
772.513	22209.63
772.849	22076.75
773.184	21914.27
773.519	22022.74
773.855	21872.24
774.19	21762.86
774.525	21741.62
774.86	21607.38
775.195	21576.42
775.53	21503.21
775.865	21392.47
776.2	21247.62
776.535	21116.1
776.87	20955.65
777.205	21018.47
777.539	20926.72
777.874	21044.69
778.209	20897.8
778.543	20772.83
778.878	20667.52
779.212	20620.97
779.547	20554.53
779.881	20459.62
780.215	20293.29
780.55	20434.08
780.884	20363.8
781.218	20262.56
781.552	20167.87
781.886	20138.04
782.22	19982.12
782.554	19922.68
782.888	19775.79
783.222	19676.81
783.556	19578.74
783.889	19592.3
784.223	19373.09
784.557	19408.57
784.89	19398.18
785.224	19373.32
785.557	19155.92
785.891	19150.73
786.224	19097.39
786.558	19093.78
786.891	18998.64
787.224	18894.69
787.557	18796.61
787.891	18698.31
788.224	18703.96
788.557	18747.8
788.89	18654.24
789.223	18574.47
789.556	18472.78
789.888	18478.65
790.221	18329.96
790.554	18147.36
790.887	18255.16
791.219	18133.58
791.552	18089.28
791.884	18003.18
792.217	17967.93
792.549	17842.29
792.882	17794.15
793.214	17638.9
793.546	17707.6
793.879	17676.87
794.211	17595.06
794.543	17594.61
794.875	17412.01
795.207	17501.5
795.539	17400.04
795.871	17418.12
796.203	17179.7
796.535	17162.53
796.867	17077.11
797.198	17060.38
797.53	17053.83
797.862	16941.74
798.193	16990.78
798.525	16795.98
798.856	16935.64
799.188	16670.79
799.519	16680.73
799.85	16592.6
800.182	16610.68
800.513	16574.75
800.844	16459.95
801.175	16429.89
801.506	16368.65
801.837	16388.99
802.168	16264.7
802.499	16279.61
802.83	16189.45
803.161	16096.79
803.491	16182.89
803.822	16092.27
804.153	16036.68
804.483	15917.14
804.814	15878.95
805.145	15861.77
805.475	15782
805.805	15814.32
806.136	15705.39
806.466	15758.05
806.796	15606.64
807.126	15528
807.457	15503.14
807.787	15478.51
808.117	15440.99
808.447	15384.27
808.777	15317.83
809.107	15266.76
809.436	15259.3
809.766	15263.6
810.096	15228.12
810.426	15138.18
810.755	15167.78
811.085	15109.02
811.414	15065.63
811.744	14967.11
812.073	14933.21
812.403	14947.22
812.732	14935.02
813.061	14874.45
813.39	14742.48
813.719	14757.85
814.049	14854.79
814.378	14655.93
814.707	14603.73
815.036	14561.47
815.365	14546.55
815.693	14421.58
816.022	14462.94
816.351	14405.99
816.68	14360.34
817.008	14329.38
817.337	14322.83
817.665	14236.73
817.994	14170.74
818.322	14226.56
818.651	14046.23
818.979	14103.4
819.307	14167.13
819.636	14050.97
819.964	13985.89
820.292	14037.87
820.62	14064.98
820.948	13963.74
821.276	14039.45
821.604	13976.17
821.932	13984.08
822.259	13926.68
822.587	13920.35
822.915	13896.85
823.243	13957.42
823.57	13890.52
823.898	14002.39
824.225	13873.58
824.553	13857.08
824.88	13811.2
825.207	13946.57
825.535	13898.66
825.862	13872.67
826.189	13873.8
826.516	13877.19
826.843	13869.96
827.17	13911.77
827.497	13931.2
827.824	13927.59
828.151	13945.66
828.478	13944.08
828.805	14017.3
829.131	13801.49
829.458	13822.96
829.785	13775.05
830.111	13792.9
830.438	13886.46
830.764	13794.71
831.09	13801.26
831.417	13770.53
831.743	13895.04
832.069	13845.33
832.395	13772.79
832.722	13883.75
833.048	13689.85
833.374	13833.12
833.7	13635.84
834.026	13639.68
834.351	13697.54
834.677	13752.9
835.003	13723.07
835.329	13641.94
835.654	13643.53
835.98	13581.61
836.306	13589.06
836.631	13630.19
836.956	13613.02
837.282	13620.7
837.607	13536.41
837.932	13471.78
838.258	13494.38
838.583	13418.45
838.908	13434.94
839.233	13398.11
839.558	13416.86
839.883	13296.19
840.208	13347.71
840.533	13295.96
840.858	13246.7
841.182	13347.71
841.507	13270.43
841.832	13154.27
842.156	13185.68
842.481	13146.14
842.805	13177.32
843.13	13134.84
843.454	12966.71
843.778	12980.04
844.103	13039.25
844.427	13027.72
844.751	12994.5
845.075	12899.59
845.399	12840.83
845.723	12880.38
846.047	12832.7
846.371	12677.9
846.695	12713.38
847.019	12622.31
847.343	12598.58
847.666	12529.43
847.99	12420.96
848.313	12522.88
848.637	12371.69
848.96	12405.14
849.284	12298.02
849.607	12139.61
849.931	12221.87
850.254	12038.6
850.577	12075.88
850.9	11907.53
851.223	12030.01
851.546	11988.2
851.869	11836.34
852.192	11899.62
852.515	11748.89
852.838	11664.37
853.161	11731.03
853.483	11680.19
853.806	11530.59
854.129	11539.63
854.451	11589.79
854.774	11519.51
855.096	11467.76
855.419	11405.84
855.741	11419.18
856.063	11321.1
856.385	11333.08
856.708	11228.22
857.03	11230.93
857.352	11232.52
857.674	11244.27
857.996	11112.97
858.318	11082.91
858.64	11117.72
858.961	11098.06
859.283	11004.05
859.605	10941.22
859.926	11030.71
860.248	10878.17
860.57	10906.2
860.891	10882.24
861.212	10839.08
861.534	10808.57
861.855	10767.22
862.176	10830.27
862.498	10742.13
862.819	10782.36
863.14	10783.49
863.461	10713.21
863.782	10687.67
864.103	10684.96
864.424	10628.46
864.745	10651.51
865.065	10589.37
865.386	10637.28
865.707	10569.03
866.027	10551.86
866.348	10536.71
866.668	10482.93
866.989	10495.81
867.309	10419.2
867.63	10458.52
867.95	10457.17
868.27	10362.71
868.59	10344.4
868.91	10401.12
869.23	10475.25
869.55	10257.17
869.87	10355.93
870.19	10297.62
870.51	10278.42
870.83	10274.12
871.15	10281.58
871.469	10265.54
871.789	10205.65
872.109	10265.99
872.428	10163.39
872.748	10121.81
873.067	10172.2
873.386	10208.14
873.706	10096.95
874.025	10120.68
874.344	10049.72
874.663	10097.18
874.982	10078.42
875.301	10099.89
875.62	10010.63
875.939	10010.85
876.258	9981.02
876.577	9940.8
876.896	9981.47
877.214	9910.52
877.533	9878.88
877.852	9871.65
878.17	9943.28
878.489	9889.5
878.807	9881.82
879.125	9900.8
879.444	9815.15
879.762	9772.89
880.08	9795.94
880.398	9728.37
880.716	9802.5
881.034	9693.57
881.352	9740.8
881.67	9682.05
881.988	9717.3
882.306	9687.7
882.624	9629.62
882.941	9561.37
883.259	9570.64
883.577	9569.96
883.894	9551.2
884.212	9481.6
884.529	9502.84
884.846	9461.26
885.164	9452
885.481	9453.81
885.798	9419
886.115	9335.16
886.432	9338.55
886.75	9346.01
887.067	9259.69
887.383	9266.01
887.7	9283.87
888.017	9178.56
888.334	9198.44
888.651	9210.2
888.967	9181.72
889.284	9108.05
889.6	9126.36
889.917	9030.54
890.233	9045.91
890.55	9026.47
890.866	8981.05
891.182	9049.07
891.498	8996.42
891.815	8937.89
892.131	8884.33
892.447	8896.08
892.763	8859.02
893.079	8842.3
893.395	8823.99
893.71	8769.98
894.026	8803.65
894.342	8733.37
894.657	8645.24
894.973	8709.87
895.289	8671
895.604	8666.26
895.92	8582.64
896.235	8536.09
896.55	8559.82
896.865	8493.38
897.181	8529.54
897.496	8498.12
897.811	8426.04
898.126	8354.85
898.441	8326.15
898.756	8389.43
899.071	8348.75
899.386	8283.89
899.7	8210
900.015	8173.16
900.33	8162.09
900.644	8198.92
900.959	8133.16
901.273	8154.4
901.588	8085.48
901.902	8026.95
902.216	8042.54
902.531	8001.64
902.845	7973.17
903.159	7926.16
903.473	7914.86
903.787	7915.31
904.101	7810.46
904.415	7799.61
904.729	7819.72
905.042	7664.02
905.356	7693.4
905.67	7696.34
905.984	7714.19
906.297	7614.76
906.611	7566.17
906.924	7584.02
907.237	7494.99
907.551	7554.19
907.864	7431.71
908.177	7519.17
908.491	7459.96
908.804	7447.3
909.117	7364.82
909.43	7321.88
909.743	7229.46
910.056	7337.25
910.368	7298.16
910.681	7233.52
910.994	7172.51
911.307	7172.51
911.619	7113.53
911.932	7113.75
912.244	7059.07
912.557	7076.24
912.869	7017.94
913.181	6995.79
913.494	7017.48
913.806	6971.84
914.118	6853.87
914.43	6874.44
914.742	6884.61
915.054	6827.43
915.366	6841.9
915.678	6819.75
915.99	6753.31
916.302	6731.16
916.613	6659.98
916.925	6668.12
917.236	6653.43
917.548	6595.8
917.859	6587.44
918.171	6547.44
918.482	6542.7
918.794	6476.48
919.105	6466.99
919.416	6404.85
919.727	6448.46
920.038	6421.34
920.349	6309.26
920.66	6297.05
920.971	6399.65
921.282	6259.31
921.593	6255.47
921.903	6184.29
922.214	6169.6
922.525	6168.02
922.835	6133.44
923.146	6103.16
923.456	6117.85
923.767	6066.32
924.077	6094.57
924.387	6036.27
924.697	6004.4
925.008	5998.53
925.318	5992.65
925.628	5975.03
925.938	5928.25
926.248	5839.66
926.558	5823.84
926.867	5846.89
927.177	5842.6
927.487	5729.84
927.796	5737.97
928.106	5732.32
928.416	5699.55
928.725	5662.27
929.034	5665.88
929.344	5675.83
929.653	5660.91
929.962	5601.03
930.271	5610.52
930.581	5548.37
930.89	5514.25
931.199	5508.6
931.508	5418.88
931.817	5448.94
932.125	5441.71
932.434	5477.64
932.743	5338.21
933.051	5357.64
933.36	5306.12
933.669	5290.07
933.977	5260.02
934.286	5273.8
934.594	5222.73
934.902	5176.18
935.21	5149.51
935.519	5136.18
935.827	5127.82
936.135	5183.18
936.443	5061.38
936.751	4998.78
937.059	5063.86
937.367	5027.48
937.674	5039.23
937.982	5062.51
938.29	5000.14
938.597	4967.14
938.905	4921.27
939.213	4878.78
939.52	4910.42
939.827	4894.15
940.135	4849.18
940.442	4822.06
940.749	4834.94
941.056	4852.8
941.363	4692.12
941.67	4754.27
941.977	4722.86
942.284	4667.49
942.591	4697.55
942.898	4675.63
943.205	4664.33
943.511	4615.06
943.818	4604.89
944.125	4608.96
944.431	4592.01
944.738	4572.35
945.044	4562.18
945.35	4526.03
945.657	4466.37
945.963	4489.87
946.269	4435.63
946.575	4472.02
946.881	4418.01
947.187	4414.39
947.493	4371.23
947.799	4371.68
948.105	4300.49
948.41	4293.26
948.716	4270.21
949.022	4248.52
949.327	4279.25
949.633	4239.93
949.938	4232.47
950.244	4234.51
950.549	4169.42
950.854	4147.73
951.16	4168.75
951.465	4113.61
951.77	4136.43
952.075	4066.15
952.38	4070.9
952.685	4077.45
952.99	4047.62
953.294	4010.33
953.599	4031.8
953.904	4009.65
954.209	3972.14
954.513	3965.14
954.818	3951.35
955.122	3914.97
955.426	3935.31
955.731	3875.42
956.035	3863.22
956.339	3860.51
956.643	3811.92
956.948	3852.82
957.252	3794.07
957.556	3768.98
957.86	3790.68
958.163	3753.62
958.467	3746.61
958.771	3736.67
959.075	3700.28
959.378	3732.37
959.682	3689.66
959.985	3685.14
960.289	3660.74
960.592	3674.3
960.896	3658.25
961.199	3612.15
961.502	3605.6
961.805	3586.84
962.108	3561.3
962.411	3547.75
962.714	3541.64
963.017	3532.6
963.32	3485.6
963.623	3501.19
963.926	3475.43
964.228	3441.99
964.531	3440.86
964.833	3408.31
965.136	3406.05
965.438	3395.66
965.741	3367.86
966.043	3373.06
966.345	3370.12
966.648	3343.23
966.95	3354.98
967.252	3323.57
967.554	3317.02
967.856	3268.66
968.158	3249.9
968.46	3291.03
968.761	3230.24
969.063	3227.3
969.365	3215.1
969.666	3244.7
969.968	3165.16
970.269	3183.69
970.571	3162.9
970.872	3170.58
971.174	3113.18
971.475	3110.92
971.776	3083.8
972.077	3118.83
972.378	3092.84
972.679	3047.87
972.98	3081.54
973.281	3035.89
973.582	2963.81
973.883	3016.69
974.183	3033.86
974.484	2962.45
974.785	3007.65
975.085	2974.88
975.386	2956.57
975.686	2940.3
975.986	2926.29
976.287	2891.49
976.587	2858.72
976.887	2847.88
977.187	2889.23
977.487	2849.01
977.787	2823.7
978.087	2808.78
978.387	2845.84
978.687	2773.75
978.987	2731.5
979.286	2786.86
979.586	2770.14
979.885	2744.6
980.185	2701.21
980.484	2713.64
980.784	2692.4
981.083	2684.04
981.382	2673.19
981.682	2670.25
981.981	2688.11
982.28	2642.01
982.579	2661.22
982.878	2634.32
983.177	2602.46
983.475	2620.99
983.774	2562.91
984.073	2594.78
984.372	2578.05
984.67	2541.67
984.969	2551.61
985.267	2545.51
985.566	2560.2
985.864	2520.65
986.162	2515.91
986.461	2485.17
986.759	2508
987.057	2477.04
987.355	2464.61
987.653	2453.99
987.951	2442.92
988.249	2464.84
988.547	2399.75
988.844	2434.1
989.142	2393.43
989.44	2392.07
989.737	2344.39
990.035	2365.86
990.332	2356.36
990.63	2336.93
990.927	2336.03
991.224	2337.38
991.521	2310.94
991.819	2289.93
992.116	2301.68
992.413	2277.95
992.71	2278.85
993.006	2249.7
993.303	2270.94
993.6	2248.8
993.897	2216.48
994.193	2205.18
994.49	2202.47
994.787	2189.82
995.083	2180.55
995.379	2172.64
995.676	2156.14
995.972	2191.85
996.268	2149.59
996.565	2113.66
996.861	2123.15
997.157	2098.52
997.453	2094.68
997.749	2123.6
998.044	2076.82
998.34	2088.8
998.636	2084.73
998.932	2071.17
999.227	2061.01
999.523	2027.33
999.818	2020.78
1000.114	2025.75
1000.409	2003.61
1000.704	1981.46
1001	1999.54
1001.295	1988.46
1001.59	1957.05
1001.885	1967.22
1002.18	1951.63
1002.475	1954.57
1002.77	1892.65
1003.065	1884.51
1003.359	1908.92
1003.654	1898.52
1003.949	1895.36
1004.243	1905.3
1004.538	1847.9
1004.832	1829.82
1005.127	1830.28
1005.421	1836.38
1005.715	1829.15
1006.009	1837.06
1006.304	1794.35
1006.598	1830.28
1006.892	1797.06
1007.186	1770.17
1007.48	1779.66
1007.773	1758.19
1008.067	1769.71
1008.361	1723.39
1008.655	1726.1
1008.948	1731.97
1009.242	1689.72
1009.535	1709.38
1009.829	1682.48
1010.122	1678.87
1010.415	1651.3
1010.708	1678.42
1011.001	1654.46
1011.295	1633.67
1011.588	1619.21
1011.881	1614.92
1012.173	1636.16
1012.466	1609.27
1012.759	1586.22
1013.052	1562.49
1013.344	1557.06
1013.637	1550.28
1013.93	1547.35
1014.222	1536.95
1014.514	1509.38
1014.807	1543.96
1015.099	1532.88
1015.391	1533.56
1015.683	1515.03
1015.976	1500.79
1016.268	1517.74
1016.56	1469.61
1016.851	1435.94
1017.143	1471.87
1017.435	1441.59
1017.727	1465.09
1018.018	1394.58
1018.31	1440.46
1018.602	1415.6
1018.893	1404.98
1019.185	1418.31
1019.476	1404.98
1019.767	1388.93
1020.058	1376.73
1020.35	1380.8
1020.641	1347.35
1020.932	1333.34
1021.223	1339.22
1021.514	1314.13
1021.804	1299.9
1022.095	1325.43
1022.386	1306.45
1022.677	1288.82
1022.967	1284.98
1023.258	1308.03
1023.548	1287.24
1023.839	1272.55
1024.129	1258.31
1024.419	1246.34
1024.709	1242.04
1025	1233
1025.29	1210.18
1025.58	1219.67
1025.87	1212.21
1026.16	1194.14
1026.449	1184.42
1026.739	1174.25
1027.029	1182.61
1027.319	1163.63
1027.608	1163.63
1027.898	1139
1028.187	1174.93
1028.477	1133.12
1028.766	1113.01
1029.055	1106.91
1029.344	1122.27
1029.634	1110.07
1029.923	1081.14
1030.212	1069.39
1030.501	1090.41
1030.79	1061.71
1031.078	1087.02
1031.367	1082.27
1031.656	1085.89
1031.945	1051.31
1032.233	1046.57
1032.522	1043.63
1032.81	1052.44
1033.099	1030.3
1033.387	1022.84
1033.675	1033.91
1033.963	1026.46
1034.251	1012.45
1034.54	1025.78
1034.828	1000.24
1035.116	998.89
1035.403	993.46
1035.691	958.44
1035.979	974.03
1036.267	975.61
1036.554	942.16
1036.842	959.57
1037.129	953.92
1037.417	936.74
1037.704	908.72
1037.992	910.75
1038.279	917.31
1038.566	911.43
1038.853	911.43
1039.14	911.43
