Data from hue_280_FLMS001491_00068.txt Node
Date: Tue Feb 07 15:55:37 GMT 2017
User: dcchb
Spectrometer: FLMS00149
Trigger mode: 0
Integration Time (sec): 2.000000E-2
Scans to average: 10
Electric dark correction enabled: true
Nonlinearity correction enabled: false
Boxcar width: 0
XAxis mode: Wavelengths
Number of Pixels in Spectrum: 2048
>>>>>Begin Spectral Data<<<<<
341.393	-6
341.776	-6
342.16	-6
342.543	-66.34
342.927	-82.38
343.31	-77.41
343.693	-82.61
344.077	-68.37
344.46	-52.78
344.843	-50.07
345.226	-42.84
345.61	-17.3
345.993	-16.4
346.376	-24.31
346.759	0.1
347.142	40.1
347.525	51.4
347.908	57.27
348.291	68.12
348.674	104.95
349.057	110.15
349.44	101.79
349.823	143.15
350.206	153.99
350.588	182.01
350.971	200.77
351.354	226.53
351.737	223.82
352.119	226.76
352.502	234.44
352.884	261.79
353.267	257.04
353.65	280.77
354.032	273.54
354.414	279.87
354.797	310.37
355.179	318.28
355.562	297.72
355.944	321.9
356.326	334.1
356.709	330.71
357.091	325.97
357.473	322.58
357.855	326.87
358.238	314.67
358.62	325.29
359.002	332.29
359.384	328.68
359.766	321.9
360.148	331.84
360.53	325.51
360.912	318.73
361.294	309.02
361.676	335.23
362.057	326.42
362.439	316.7
362.821	320.54
363.203	330.49
363.584	333.88
363.966	294.33
364.348	318.73
364.729	325.29
365.111	307.21
365.493	302.24
365.874	287.55
366.256	306.98
366.637	304.5
367.019	293.65
367.4	308.11
367.781	292.75
368.163	290.26
368.544	303.59
368.925	290.94
369.306	313.99
369.688	301.56
370.069	287.1
370.45	298.17
370.831	309.92
371.212	304.72
371.593	295.46
371.974	292.29
372.355	298.62
372.736	298.62
373.117	306.31
373.498	322.35
373.879	304.27
374.26	305.18
374.641	315.57
375.021	304.95
375.402	313.31
375.783	315.57
376.163	315.34
376.544	337.27
376.925	312.63
377.305	318.96
377.686	326.42
378.066	313.76
378.447	313.31
378.827	320.32
379.208	348.11
379.588	335.23
379.968	304.5
380.349	323.48
380.729	314.21
381.109	334.78
381.489	333.88
381.87	298.4
382.25	325.06
382.63	341.33
383.01	320.77
383.39	331.39
383.77	344.27
384.15	337.04
384.53	333.42
384.91	354.67
385.29	354.89
385.67	356.47
386.049	346.08
386.429	326.42
386.809	340.43
387.189	345.4
387.568	358.73
387.948	353.08
388.328	354.21
388.707	357.6
389.087	363.93
389.466	335.23
389.846	361.9
390.225	345.17
390.605	357.15
390.984	359.41
391.363	353.08
391.743	355.12
392.122	368
392.501	361.45
392.881	350.37
393.26	369.13
393.639	376.59
394.018	383.14
394.397	371.84
394.776	368.22
395.155	362.12
395.534	362.58
395.913	363.93
396.292	375.46
396.671	387.89
397.05	362.12
397.429	359.64
397.808	381.33
398.186	396.47
398.565	384.72
398.944	382.91
399.323	389.69
399.701	368
400.08	395.12
400.458	380.43
400.837	408.22
401.215	404.61
401.594	403.7
401.972	419.97
402.351	411.39
402.729	411.61
403.107	435.79
403.486	427.21
403.864	435.79
404.242	415.46
404.62	418.17
404.999	443.7
405.377	431.5
405.755	432.4
406.133	452.06
406.511	422.01
406.889	421.33
407.267	463.82
407.645	457.71
408.023	445.06
408.401	456.81
408.779	453.42
409.156	459.97
409.534	464.95
409.912	489.58
410.29	490.71
410.667	530.93
411.045	497.71
411.422	527.32
411.8	499.75
412.178	516.7
412.555	527.77
412.933	524.15
413.31	535.68
413.687	555.11
414.065	525.73
414.442	542.01
414.819	552.63
415.197	555.11
415.574	590.59
415.951	606.86
416.328	577.71
416.705	598.05
417.082	585.85
417.46	590.59
417.837	634.43
418.214	611.38
418.591	597.37
418.967	633.53
419.344	622.23
419.721	648.9
420.098	657.93
420.475	653.87
420.852	661.55
421.228	667.43
421.605	671.04
421.982	658.61
422.358	702.45
422.735	714.88
423.111	724.6
423.488	715.79
423.864	719.18
424.241	709.91
424.617	741.55
424.994	765.73
425.37	772.06
425.746	764.82
426.123	766.63
426.499	800.53
426.875	789
427.251	794.88
427.627	825.16
428.003	815.22
428.379	832.85
428.756	831.94
429.132	850.02
429.507	858.61
429.883	887.99
430.259	867.87
430.635	873.3
431.011	896.12
431.387	923.24
431.763	928.89
432.138	934.31
432.514	960.98
432.89	938.61
433.265	982.9
433.641	975.44
434.016	988.55
434.392	996.46
434.767	1024.03
435.143	1036
435.518	1031.94
435.894	1046.85
436.269	1065.61
436.644	1077.36
437.02	1097.25
437.395	1104.93
437.77	1129.33
438.145	1152.84
438.52	1139.96
438.895	1158.49
439.271	1168.2
439.646	1181.99
440.021	1195.32
440.395	1203.68
440.77	1219.5
441.145	1184.7
441.52	1247.07
441.895	1244.59
442.27	1270.12
442.645	1266.73
443.019	1279.61
443.394	1256.34
443.769	1278.71
444.143	1272.38
444.518	1292.72
444.892	1291.82
445.267	1313.51
445.641	1337.69
446.016	1340.4
446.39	1353.51
446.764	1332.95
447.139	1333.85
447.513	1357.13
447.887	1333.62
448.262	1365.94
448.636	1363.23
449.01	1391.93
449.384	1406.16
449.758	1379.27
450.132	1408.88
450.506	1420.4
450.88	1395.32
451.254	1411.59
451.628	1435.54
452.002	1480.74
452.376	1455.2
452.75	1449.55
453.123	1466.95
453.497	1480.06
453.871	1487.07
454.244	1522.32
454.618	1497.01
454.992	1539.49
455.365	1534.07
455.739	1555.54
456.112	1580.17
456.486	1574.97
456.859	1601.41
457.232	1602.54
457.606	1618.81
457.979	1642.99
458.352	1645.71
458.725	1671.92
459.099	1671.02
459.472	1730
459.845	1727.96
460.218	1694.74
460.591	1734.74
460.964	1728.64
461.337	1779.04
461.71	1775.19
462.083	1804.12
462.456	1805.25
462.829	1817.45
463.201	1856.55
463.574	1843.44
463.947	1870.33
464.32	1922.99
464.692	1906.49
465.065	1923.21
465.438	1934.06
465.81	1945.13
466.183	1955.98
466.555	1992.36
466.928	2022.19
467.3	1999.37
467.672	2017.67
468.045	2077.56
468.417	2064.68
468.789	2063.32
469.161	2103.09
469.534	2127.05
469.906	2193.04
470.278	2159.82
470.65	2195.52
471.022	2223.32
471.394	2218.12
471.766	2217.44
472.138	2256.54
472.51	2290.89
472.882	2305.57
473.253	2358.68
473.625	2373.82
473.997	2375.18
474.369	2425.35
474.74	2402.07
475.112	2463.76
475.484	2539.47
475.855	2524.55
476.227	2529.3
476.598	2598.9
476.97	2612.23
477.341	2647.71
477.713	2675.06
478.084	2693.14
478.455	2768.39
478.827	2770.2
479.198	2776.3
479.569	2806.58
479.94	2866.01
480.311	2919.8
480.682	2932.68
481.053	3004.99
481.424	3031.21
481.795	3027.36
482.166	3081.37
482.537	3097.42
482.908	3162.5
483.279	3200.69
483.65	3224.87
484.021	3286.11
484.391	3233.69
484.762	3283.18
485.133	3290.18
485.503	3360.69
485.874	3422.38
486.244	3420.8
486.615	3476.84
486.985	3486.11
487.356	3529.27
487.726	3569.27
488.097	3658.53
488.467	3646.1
488.837	3673
489.207	3731.53
489.578	3789.38
489.948	3781.69
490.318	3818.98
490.688	3856.27
491.058	3914.8
491.428	3919.77
491.798	3948.24
492.168	4052.42
492.538	3996.15
492.908	4027.79
493.278	4058.07
493.648	4036.83
494.017	4057.17
494.387	4162.02
494.757	4150.72
495.126	4238.41
495.496	4173.77
495.866	4235.02
496.235	4272.98
496.605	4272.98
496.974	4283.38
497.344	4327.67
497.713	4329.7
498.082	4375.13
498.452	4388.68
498.821	4458.51
499.19	4457.38
499.559	4439.53
499.928	4453.77
500.298	4509.81
500.667	4491.05
501.036	4495.57
501.405	4518.85
501.774	4544.39
502.143	4604.95
502.512	4579.19
502.88	4618.51
503.249	4624.38
503.618	4659.19
503.987	4660.32
504.356	4662.12
504.724	4703.25
505.093	4696.25
505.462	4699.41
505.83	4733.08
506.199	4770.82
506.567	4788
506.936	4769.92
507.304	4796.13
507.672	4835.68
508.041	4859.18
508.409	4887.88
508.777	4833.19
509.145	4908.44
509.514	4849.01
509.882	4912.29
510.25	4988.67
510.618	4907.99
510.986	4930.82
511.354	4981.89
511.722	5022.11
512.09	4992.51
512.458	4995.22
512.826	5058.5
513.193	5093.3
513.561	5074.32
513.929	5098.95
514.297	5122
514.664	5117.48
515.032	5126.74
515.4	5129.68
515.767	5162.9
516.135	5124.03
516.502	5145.5
516.869	5170.13
517.237	5214.65
517.604	5187.53
517.972	5237.7
518.339	5208.55
518.706	5225.72
519.073	5256.68
519.44	5291.03
519.808	5304.37
520.175	5275.44
520.542	5335.1
520.909	5329.22
521.276	5366.96
521.643	5345.72
522.009	5380.3
522.376	5400.63
522.743	5361.77
523.11	5506.85
523.477	5483.12
523.843	5542.1
524.21	5520.63
524.577	5564.92
524.943	5543.68
525.31	5601.76
525.676	5578.94
526.043	5638.82
526.409	5620.29
526.776	5717.91
527.142	5708.65
527.508	5678.14
527.874	5746.16
528.241	5743.68
528.607	5793.84
528.973	5780.96
529.339	5837.69
529.705	5888.31
530.071	5864.58
530.437	5891.92
530.803	5897.34
531.169	5879.04
531.535	5858.48
531.901	5866.39
532.267	5877.01
532.632	5921.53
532.998	5992.26
533.364	5947.06
533.73	5994.74
534.095	6044.69
534.461	6010.11
534.826	6047.4
535.192	6060.05
535.557	6067.06
535.923	6028.87
536.288	6076.78
536.653	6138.92
537.019	6058.47
537.384	6115.87
537.749	6117.68
538.114	6133.5
538.479	6172.37
538.845	6199.94
539.21	6175.98
539.575	6197.22
539.94	6224.12
540.305	6248.52
540.67	6220.05
541.034	6211.46
541.399	6246.49
541.764	6242.87
542.129	6281.74
542.494	6248.52
542.858	6309.99
543.223	6329.2
543.587	6376.65
543.952	6342.3
544.316	6369.87
544.681	6340.95
545.045	6391.34
545.41	6448.29
545.774	6427.27
546.138	6424.11
546.503	6457.56
546.867	6445.35
547.231	6486.93
547.595	6436.31
547.959	6455.97
548.324	6480.38
548.688	6505.24
549.052	6532.13
549.416	6566.25
549.779	6537.78
550.143	6542.75
550.507	6566.71
550.871	6553.6
551.235	6526.25
551.599	6596.99
551.962	6619.13
552.326	6548.4
552.689	6587.72
553.053	6555.86
553.417	6651.22
553.78	6637.44
554.143	6680.15
554.507	6682.86
554.87	6641.05
555.234	6729.64
555.597	6689.87
555.96	6654.84
556.323	6784.1
556.686	6729.87
557.05	6799.92
557.413	6796.98
557.776	6757.21
558.139	6825.68
558.502	6842.18
558.865	6846.25
559.228	6866.36
559.59	6897.32
559.953	6871.1
560.316	6991.78
560.679	6939.13
561.041	6986.36
561.404	7006.02
561.767	7045.56
562.129	6977.32
562.492	7074.94
562.854	7068.61
563.217	7082.4
563.579	7113.58
563.941	7085.56
564.304	7131.21
564.666	7191.77
565.028	7172.11
565.39	7179.12
565.753	7289.85
566.115	7262.51
566.477	7310.42
566.839	7297.76
567.201	7333.92
567.563	7324.43
567.925	7361.49
568.287	7396.97
568.648	7407.36
569.01	7451.88
569.372	7478.77
569.734	7459.34
570.095	7490.75
570.457	7627.47
570.819	7576.62
571.18	7589.96
571.542	7640.12
571.903	7635.15
572.265	7760.12
572.626	7667.02
572.987	7667.69
573.349	7729.84
573.71	7856.39
574.071	7796.28
574.432	7866.11
574.794	7969.61
575.155	7954.92
575.516	7864.07
575.877	7939.55
576.238	7985.43
576.599	8028.81
576.96	8046.67
577.32	8091.41
577.681	8079.21
578.042	8130.28
578.403	8152.88
578.763	8172.54
579.124	8240.79
579.485	8314.68
579.845	8352.42
580.206	8344.29
580.566	8435.13
580.927	8467.45
581.287	8544.28
581.648	8532.53
582.008	8593.32
582.368	8562.59
582.728	8737.04
583.089	8721.45
583.449	8747.89
583.809	8822.92
584.169	8900.2
584.529	8904.72
584.889	9015.68
585.249	9010.48
585.609	9067.88
585.969	9155.34
586.329	9133.19
586.688	9213.87
587.048	9332.73
587.408	9407.54
587.768	9401.66
588.127	9486.18
588.487	9527.08
588.846	9615.21
589.206	9640.52
589.565	9654.99
589.925	9827.64
590.284	9854.3
590.643	9917.13
591.003	9923
591.362	10070.12
591.721	10113.96
592.08	10123.67
592.44	10232.37
592.799	10259.26
593.158	10325.03
593.517	10311.92
593.876	10482.76
594.235	10545.81
594.593	10534.29
594.952	10614.96
595.311	10643.21
595.67	10713.49
596.029	10857.21
596.387	10907.83
596.746	11005.46
597.104	10947.16
597.463	11081.16
597.822	11157.55
598.18	11144.44
598.538	11208.17
598.897	11248.39
599.255	11266.7
599.613	11480.47
599.972	11426.47
600.33	11513.69
600.688	11495.39
601.046	11663.97
601.404	11675.95
601.762	11724.99
602.12	11833.01
602.478	11825.55
602.836	11885.44
603.194	11738.1
603.552	11947.36
603.91	11845.44
604.268	12070.74
604.625	12037.07
604.983	12084.07
605.341	12002.04
605.698	12168.37
606.056	12228.48
606.413	12203.39
606.771	12285.65
607.128	12280.91
607.485	12189.16
607.843	12303.28
608.2	12395.25
608.557	12473.22
608.914	12413.78
609.272	12566.32
609.629	12559.54
609.986	12596.15
610.343	12600.22
610.7	12703.27
611.057	12711.4
611.414	12629.37
611.771	12686.77
612.127	12765.64
612.484	12755.02
612.841	12843.83
613.198	12863.26
613.554	12837.73
613.911	12897.39
614.267	12963.37
614.624	12911.85
614.98	12963.15
615.337	13101.68
615.693	13050.83
616.05	13074.78
616.406	13113.88
616.762	13079.53
617.118	13141.45
617.475	13133.99
617.831	13173.09
618.187	13149.81
618.543	13173.76
618.899	13223.03
619.255	13239.52
619.611	13243.59
619.967	13354.1
620.323	13241.56
620.678	13324.04
621.034	13288.11
621.39	13376.24
621.746	13282.46
622.101	13487.2
622.457	13384.38
622.812	13465.06
623.168	13505.51
623.523	13480.42
623.879	13542.12
624.234	13500.08
624.589	13500.31
624.945	13534.21
625.3	13602
625.655	13488.78
626.01	13528.78
626.365	13615.79
626.72	13533.75
627.075	13558.16
627.43	13503.92
627.785	13511.38
628.14	13580.31
628.495	13595.45
628.85	13504.6
629.205	13498.28
629.559	13524.94
629.914	13502.12
630.269	13529.01
630.623	13580.53
630.978	13477.26
631.332	13528.33
631.687	13494.89
632.041	13399.29
632.396	13554.32
632.75	13396.36
633.104	13444.27
633.459	13329.47
633.813	13423.25
634.167	13452.4
634.521	13371.05
634.875	13416.47
635.229	13427.09
635.583	13356.58
635.937	13333.76
636.291	13343.93
636.645	13321.1
636.999	13337.15
637.352	13398.84
637.706	13272.52
638.06	13356.81
638.413	13301.67
638.767	13270.03
639.121	13326.3
639.474	13183.03
639.828	13183.03
640.181	13235.91
640.534	13320.65
640.888	13209.7
641.241	13230.03
641.594	13191.16
641.947	13262.8
642.301	13212.63
642.654	13264.61
643.007	13157.49
643.36	13169.24
643.713	13118.62
644.066	13127.21
644.419	13198.4
644.771	13120.21
645.124	12910.49
645.477	12941.68
645.83	12804.28
646.182	12793.21
646.535	12796.15
646.888	12753.21
647.24	12740.1
647.593	12837.73
647.945	12844.73
648.298	12740.1
648.65	12732.19
649.002	12722.7
649.355	12800.21
649.707	12741.91
650.059	12778.97
650.411	12911.4
650.763	12928.35
651.115	13118.62
651.467	13062.58
651.819	13071.17
652.171	12979.19
652.523	12968.8
652.875	13021.23
653.227	13058.51
653.578	13081.11
653.93	12974.22
654.282	12969.48
654.633	12993.88
654.985	13049.7
655.337	13007.89
655.688	13074.11
656.039	13148.45
656.391	12969.7
656.742	12933.32
657.094	13077.5
657.445	13106.19
657.796	13098.51
658.147	13072.98
658.498	13079.08
658.849	13055.12
659.2	13157.72
659.551	13079.3
659.902	13144.61
660.253	13104.84
660.604	13206.98
660.955	13108
661.306	13031.62
661.656	13115.91
662.007	13153.88
662.358	13118.62
662.708	13190.49
663.059	13092.86
663.409	13020.77
663.76	13213.31
664.11	13240.88
664.461	13143.26
664.811	13208.11
665.161	13143.03
665.511	13131.96
665.862	13181
666.212	13204.5
666.562	13152.97
666.912	13068.68
667.262	13164.95
667.612	13097.38
667.962	13171.96
668.312	13088.12
668.662	13260.99
669.011	13147.55
669.361	13174.44
669.711	13145.06
670.06	13152.75
670.41	13043.6
670.76	13065.29
671.109	13136.48
671.459	13201.56
671.808	13121.11
672.157	13104.61
672.507	13062.35
672.856	13032.52
673.205	13072.07
673.554	13143.93
673.904	13070.26
674.253	13065.07
674.602	13069.59
674.951	12922.7
675.3	12822.13
675.649	13026.65
675.998	13042.69
676.346	12991.62
676.695	12952.3
677.044	12897.16
677.393	12972.87
677.741	13022.58
678.09	12987.33
678.438	12929.93
678.787	12950.94
679.135	12948.46
679.484	12862.59
679.832	12874.34
680.181	12753.44
680.529	12767.9
680.877	12742.59
681.225	12732.42
681.573	12851.74
681.922	12767.67
682.27	12722.02
682.618	12679.99
682.966	12720.22
683.314	12718.18
683.661	12597.73
684.009	12535.59
684.357	12591.86
684.705	12644.51
685.053	12592.31
685.4	12551.18
685.748	12484.74
686.095	12475.48
686.443	12387.12
686.79	12437.51
687.138	12465.99
687.485	12404.29
687.832	12318.42
688.18	12330.62
688.527	12220.79
688.874	12254.24
689.221	12315.71
689.568	12143.06
689.915	12169.95
690.262	12108.93
690.609	12054.7
690.956	12016.51
691.303	11989.61
691.65	11955.49
691.997	11944.64
692.344	11868.26
692.69	11856.06
693.037	11840.92
693.383	11706.46
693.73	11786
694.077	11623.52
694.423	11654.48
694.769	11647.93
695.116	11703.97
695.462	11530.19
695.808	11484.54
696.155	11479.35
696.501	11393.92
696.847	11431.44
697.193	11350.99
697.539	11360.7
697.885	11216.98
698.231	11227.83
698.577	11289.75
698.923	11169.3
699.269	11115.74
699.614	11032.35
699.96	11033.93
700.306	11001.17
700.651	11006.36
700.997	10952.81
701.342	10895.86
701.688	10862.86
702.033	10866.48
702.379	10840.94
702.724	10752.58
703.069	10805.01
703.415	10653.83
703.76	10686.6
704.105	10677.33
704.45	10577.45
704.795	10497.68
705.14	10472.14
705.485	10484.34
705.83	10416.1
706.175	10414.06
706.52	10409.32
706.865	10282.09
707.209	10300.84
707.554	10278.25
707.899	10301.75
708.243	10221.75
708.588	10258.36
708.932	10122.09
709.277	10163.9
709.621	10089.55
709.966	10031.02
710.31	10127.06
710.654	9919.16
710.998	10012.72
711.342	10054.75
711.687	10022.89
712.031	9904.7
712.375	9945.37
712.719	9971.14
713.063	9886.17
713.407	9952.38
713.75	9874.19
714.094	9901.08
714.438	9825.83
714.782	9801.42
715.125	9803
715.469	9792.84
715.812	9792.16
716.156	9633.07
716.499	9681.2
716.843	9735.21
717.186	9727.3
717.53	9737.7
717.873	9655.44
718.216	9633.52
718.559	9657.7
718.902	9522.79
719.246	9577.25
719.589	9581.54
719.932	9510.13
720.275	9522.56
720.617	9504.26
720.96	9516.23
721.303	9533.86
721.646	9533.63
721.989	9456.35
722.331	9525.95
722.674	9454.99
723.016	9541.77
723.359	9397.37
723.701	9457.7
724.044	9348.78
724.386	9366.41
724.729	9382
725.071	9386.29
725.413	9356.69
725.755	9320.98
726.097	9379.51
726.439	9297.03
726.782	9357.14
727.124	9308.78
727.465	9313.53
727.807	9337.03
728.149	9299.52
728.491	9314.2
728.833	9294.54
729.175	9264.71
729.516	9302
729.858	9239.18
730.199	9307.2
730.541	9229.01
730.882	9216.58
731.224	9260.65
731.565	9257.03
731.906	9233.75
732.248	9241.44
732.589	9239.86
732.93	9239.18
733.271	9235.34
733.612	9290.93
733.953	9290.48
734.294	9236.24
734.635	9225.17
734.976	9223.81
735.317	9261.32
735.658	9218.84
735.999	9175.9
736.339	9179.29
736.68	9250.25
737.021	9266.07
737.361	9271.72
737.702	9217.26
738.042	9219.74
738.383	9239.86
738.723	9300.42
739.063	9274.66
739.404	9342.45
739.744	9317.82
740.084	9308.55
740.424	9329.8
740.764	9298.84
741.104	9416.57
741.444	9350.36
741.784	9365.95
742.124	9322.79
742.464	9396.91
742.804	9359.4
743.143	9354.66
743.483	9431.04
743.823	9415.44
744.162	9466.97
744.502	9525.72
744.841	9492.28
745.181	9617.7
745.52	9609.34
745.86	9706.96
746.199	9683.23
746.538	9743.57
746.877	9795.32
747.216	9851.59
747.556	9836
747.895	9890.69
748.234	9920.97
748.573	9879.84
748.911	9984.92
749.25	10117.35
749.589	10090.68
749.928	10158.7
750.267	10321.18
750.605	10354.63
750.944	10361.41
751.283	10499.03
751.621	10620.84
751.96	10592.36
752.298	10728.18
752.636	10801.17
752.975	10908.51
753.313	10958.23
753.651	11110.09
753.989	11110.54
754.327	11267.6
754.666	11358.44
755.004	11559.12
755.342	11618.1
755.679	11715.5
756.017	11742.39
756.355	11945.55
756.693	12067.13
757.031	12169.72
757.368	12308.93
757.706	12457.4
758.044	12617.39
758.381	12720.67
758.719	12737.84
759.056	12981.23
759.394	13117.27
759.731	13164.27
760.068	13283.14
760.405	13429.35
760.743	13529.91
761.08	13726.74
761.417	13880.64
761.754	13940.07
762.091	14112.27
762.428	14160.18
762.765	14349.1
763.102	14531.47
763.438	14668.19
763.775	14623.44
764.112	14889.88
764.449	15004.9
764.785	15110.44
765.122	15227.72
765.458	15240.83
765.795	15448.51
766.131	15585.23
766.467	15626.58
766.804	15657.09
767.14	15782.28
767.476	15857.54
767.812	16020.92
768.148	16126.45
768.485	16217.53
768.821	16227.02
769.157	16357.18
769.492	16461.36
769.828	16542.94
770.164	16445.09
770.5	16543.39
770.836	16649.83
771.171	16620.9
771.507	16821.58
771.842	16772.31
772.178	16936.6
772.513	16952.87
772.849	17013.66
773.184	16940.44
773.519	17120.78
773.855	17043.72
774.19	17179.31
774.525	17071.51
774.86	17238.74
775.195	17233.77
775.53	17218.18
775.865	17274.67
776.2	17146.54
776.535	17115.13
776.87	17191.51
777.205	17200.32
777.539	17267.89
777.874	17384.05
778.209	17316.71
778.543	17257.27
778.878	17275.12
779.212	17255.92
779.547	17221.79
779.881	17335.69
780.215	17175.47
780.55	17318.51
780.884	17226.31
781.218	17224.05
781.552	17222.24
781.886	17247.33
782.22	17142.25
782.554	17190.16
782.888	17106.09
783.222	17068.58
783.556	17137.5
783.889	17016.83
784.223	16995.13
784.557	16980.67
784.89	17088.69
785.224	16949.03
785.557	16904.51
785.891	16988.13
786.224	16855.93
786.558	16942.03
786.891	16846.66
787.224	16673.33
787.557	16718.53
787.891	16749.71
788.224	16792.2
788.557	16730.96
788.89	16704.07
789.223	16642.37
789.556	16563.96
789.888	16573.45
790.221	16476.95
790.554	16263.4
790.887	16394.24
791.219	16324.64
791.552	16315.15
791.884	16322.16
792.217	16327.58
792.549	16247.58
792.882	16163.74
793.214	16125.32
793.546	16149.96
793.879	16093.46
794.211	15955.61
794.543	16038.77
794.875	16008.27
795.207	16081.48
795.539	15944.76
795.871	15879.46
796.203	15809.63
796.535	15747.48
796.867	15733.02
797.198	15742.28
797.53	15620.25
797.862	15646.92
798.193	15596.98
798.525	15442.63
798.856	15538.67
799.188	15436.98
799.519	15352.46
799.85	15333.03
800.182	15267.04
800.513	15436.98
800.844	15230.21
801.175	15287.38
801.506	15270.66
801.837	15111.79
802.168	15115.63
802.499	15078.12
802.83	14944.56
803.161	15015.07
803.491	14989.99
803.822	15046.03
804.153	14853.27
804.483	14808.52
804.814	14693.05
805.145	14781.63
805.475	14712.48
805.805	14645.36
806.136	14730.56
806.466	14705.47
806.796	14648.3
807.126	14540.96
807.457	14479.49
807.787	14523.33
808.117	14447.18
808.447	14466.84
808.777	14474.52
809.107	14329.44
809.436	14376.44
809.766	14403.56
810.096	14267.97
810.426	14158.82
810.755	14268.88
811.085	14115.89
811.414	14173.96
811.744	14017.36
812.073	14073.18
812.403	14108.2
812.732	14060.29
813.061	13964.48
813.39	13905.5
813.719	13893.97
814.049	13973.97
814.378	13920.64
814.707	13815.55
815.036	13792.73
815.365	13733.52
815.693	13647.42
816.022	13645.62
816.351	13611.49
816.68	13519.52
817.008	13548.9
817.337	13467.54
817.665	13455.56
817.994	13471.16
818.322	13498.95
818.651	13436.58
818.979	13338.51
819.307	13431.61
819.636	13410.37
819.964	13335.12
820.292	13330.82
820.62	13431.16
820.948	13359.07
821.276	13293.53
821.604	13329.92
821.932	13274.33
822.259	13388.45
822.587	13297.15
822.915	13277.26
823.243	13329.47
823.57	13273.65
823.898	13321.1
824.225	13241.11
824.553	13207.44
824.88	13253.99
825.207	13326.08
825.535	13199.75
825.862	13319.75
826.189	13255.8
826.516	13305.29
826.843	13334.66
827.17	13298.28
827.497	13252.41
827.824	13266.42
828.151	13275
828.478	13410.37
828.805	13397.94
829.131	13241.78
829.458	13255.57
829.785	13177.61
830.111	13232.75
830.438	13315.45
830.764	13223.48
831.09	13306.19
831.417	13150.94
831.743	13269.81
832.069	13277.94
832.395	13262.8
832.722	13265.51
833.048	13124.73
833.374	13223.71
833.7	13091.73
834.026	13152.52
834.351	13119.08
834.677	13181.9
835.003	13157.04
835.329	13075.01
835.654	13171.28
835.98	13093.77
836.306	13122.92
836.631	13128.79
836.956	13099.42
837.282	13005.63
837.607	12993.66
837.932	13072.75
838.258	13044.28
838.583	12947.78
838.908	12940.32
839.233	12921.79
839.558	12889.7
839.883	12827.78
840.208	12798.63
840.533	12784.85
840.858	12842.25
841.182	12796.6
841.507	12713.89
841.832	12764.51
842.156	12650.39
842.481	12722.93
842.805	12659.2
843.13	12605.19
843.454	12618.3
843.778	12573.1
844.103	12528.13
844.427	12449.04
844.751	12467.79
845.075	12483.61
845.399	12394.8
845.723	12328.36
846.047	12367.91
846.371	12260.34
846.695	12280.45
847.019	12140.12
847.343	12175.6
847.666	12038.43
847.99	12023.06
848.313	11950.52
848.637	11934.47
848.96	11924.08
849.284	11803.18
849.607	11803.86
849.931	11766.34
850.254	11664.2
850.577	11673.46
850.9	11566.8
851.223	11527.48
851.546	11464.66
851.869	11392.12
852.192	11479.57
852.515	11407.93
852.838	11292.91
853.161	11264.21
853.483	11251.78
853.806	11171.1
854.129	11155.29
854.451	11117.09
854.774	11132.91
855.096	11071.22
855.419	11045.91
855.741	10979.47
856.063	10908.51
856.385	10928.4
856.708	10912.13
857.03	10917.1
857.352	10890.66
857.674	10830.55
857.996	10791.23
858.318	10774.5
858.64	10678.01
858.961	10687.73
859.283	10580.39
859.605	10598.24
859.926	10653.83
860.248	10557.56
860.57	10524.57
860.891	10559.82
861.212	10447.51
861.534	10446.6
861.855	10432.82
862.176	10461.97
862.498	10441.41
862.819	10454.51
863.14	10353.95
863.461	10311.01
863.782	10336.32
864.103	10350.34
864.424	10244.8
864.745	10220.4
865.065	10280.51
865.386	10226.04
865.707	10170.23
866.027	10226.95
866.348	10210.45
866.668	10213.16
866.989	10160.51
867.309	10017.01
867.63	10148.31
867.95	10033.06
868.27	10054.07
868.59	10025.15
868.91	10030.34
869.23	9982.89
869.55	9923
869.87	10020.85
870.19	9980.63
870.51	9969.55
870.83	9947.41
871.15	9857.24
871.469	9877.35
871.789	9941.08
872.109	9837.13
872.428	9853.4
872.748	9929.56
873.067	9878.26
873.386	9837.13
873.706	9828.32
874.025	9726.62
874.344	9761.88
874.663	9714.65
874.982	9690.92
875.301	9712.61
875.62	9688.43
875.939	9654.31
876.258	9682.56
876.577	9644.37
876.896	9643.46
877.214	9588.77
877.533	9648.43
877.852	9653.63
878.17	9602.33
878.489	9609.56
878.807	9600.07
879.125	9503.58
879.444	9539.06
879.762	9457.03
880.08	9475.33
880.398	9454.99
880.716	9487.53
881.034	9404.6
881.352	9448.89
881.67	9405.05
881.988	9423.35
882.306	9421.09
882.624	9282.34
882.941	9308.55
883.259	9239.63
883.577	9270.82
883.894	9217.71
884.212	9217.94
884.529	9168.9
884.846	9108.56
885.164	9155.34
885.481	9169.35
885.798	9118.96
886.115	9040.77
886.432	9068.11
886.75	9062.91
887.067	9020.43
887.383	9048.22
887.7	8989.24
888.017	8930.49
888.334	8915.12
888.651	8897.94
888.967	8888.45
889.284	8861.79
889.6	8804.39
889.917	8786.53
890.233	8765.52
890.55	8706.31
890.866	8736.37
891.182	8768.91
891.498	8704.5
891.815	8695.92
892.131	8659.31
892.447	8576.82
892.763	8543.38
893.079	8593.77
893.395	8508.12
893.71	8542.93
894.026	8420.89
894.342	8429.03
894.657	8380.22
894.973	8440.33
895.289	8381.8
895.604	8371.63
895.92	8328.69
896.235	8292.08
896.55	8282.59
896.865	8194.69
897.181	8222.48
897.496	8247.34
897.811	8169.6
898.126	8082.15
898.441	8148.81
898.756	8121.02
899.071	8059.55
899.386	8014.8
899.7	7948.36
900.015	7981.58
900.33	7884.41
900.644	7888.93
900.959	7903.62
901.273	7825.2
901.588	7858.65
901.902	7783.17
902.216	7726.9
902.531	7728.03
902.845	7731.2
903.159	7607.58
903.473	7672.89
903.787	7591.31
904.101	7604.19
904.415	7488.49
904.729	7515.83
905.042	7456.63
905.356	7424.31
905.67	7467.93
905.984	7493.46
906.297	7404.2
906.611	7349.74
906.924	7312
907.237	7271.32
907.551	7256.41
907.864	7282.17
908.177	7130.98
908.491	7211.89
908.804	7131.21
909.117	7080.59
909.43	7062.74
909.743	7030.65
910.056	7102.06
910.368	6990.88
910.681	6968.96
910.994	6942.29
911.307	6944.78
911.619	6883.31
911.932	6885.79
912.244	6804.67
912.557	6822.29
912.869	6795.4
913.181	6743.88
913.494	6707.72
913.806	6701.39
914.118	6672.69
914.43	6627.27
914.742	6631.11
915.054	6587.04
915.366	6576.2
915.678	6546.59
915.99	6492.13
916.302	6490.55
916.613	6453.71
916.925	6409.42
917.236	6453.49
917.548	6374.17
917.859	6365.58
918.171	6350.44
918.482	6315.87
918.794	6215.3
919.105	6242.87
919.416	6189.54
919.727	6158.81
920.038	6159.48
920.349	6193.83
920.66	6082.42
920.971	6111.12
921.282	6077
921.593	5996.78
921.903	6037
922.214	6008.3
922.525	5976.66
922.835	5931.92
923.146	5848.98
923.456	5887.4
923.767	5870.45
924.077	5913.39
924.387	5834.3
924.697	5766.5
925.008	5749.78
925.318	5723.11
925.628	5754.98
925.938	5779.61
926.248	5649.22
926.558	5658.03
926.867	5622.55
927.177	5601.76
927.487	5578.94
927.796	5550.91
928.106	5546.17
928.416	5471.14
928.725	5471.37
929.034	5449.22
929.344	5484.7
929.653	5487.86
929.962	5326.51
930.271	5367.64
930.581	5342.11
930.89	5351.37
931.199	5293.52
931.508	5317.25
931.817	5311.37
932.125	5259.4
932.434	5247.42
932.743	5178.95
933.051	5170.58
933.36	5164.71
933.669	5143.92
933.977	5094.43
934.286	5108.44
934.594	5102.79
934.902	5102.56
935.21	5000.19
935.519	5057.37
935.827	4977.6
936.135	5009.46
936.443	4966.75
936.751	4938.73
937.059	4914.55
937.367	4893.08
937.674	4869.8
937.982	4891.5
938.29	4864.83
938.597	4804.04
938.905	4753.87
939.213	4766.98
939.52	4773.98
939.827	4750.26
940.135	4688.56
940.442	4656.7
940.749	4641.78
941.056	4660.77
941.363	4624.84
941.67	4583.71
941.977	4559.98
942.284	4545.97
942.591	4539.19
942.898	4549.13
943.205	4553.65
943.511	4539.41
943.818	4516.36
944.125	4471.62
944.431	4465.07
944.738	4396.59
945.044	4431.17
945.35	4385.97
945.657	4285.64
945.963	4341.23
946.269	4292.42
946.575	4265.52
946.881	4277.05
947.187	4272.08
947.493	4243.38
947.799	4216.94
948.105	4216.49
948.41	4170.84
948.716	4201.34
949.022	4181.23
949.327	4150.5
949.633	4048.58
949.938	4114.57
950.244	4093.1
950.549	4052.42
950.854	4058.3
951.16	4014.46
951.465	4019.65
951.77	4007.23
952.075	3945.08
952.38	3942.59
952.685	3973.1
952.99	3922.93
953.294	3896.95
953.599	3926.1
953.904	3878.19
954.209	3860.56
954.513	3834.35
954.818	3839.77
955.122	3823.28
955.426	3836.38
955.731	3810.39
956.035	3735.82
956.339	3755.25
956.643	3771.75
956.948	3730.85
957.252	3697.18
957.556	3693.56
957.86	3655.82
958.163	3621.25
958.467	3669.83
958.771	3622.15
959.075	3593.68
959.378	3612.21
959.682	3609.27
959.985	3578.08
960.289	3545.09
960.592	3499.89
960.896	3566.56
961.199	3533.34
961.502	3477.75
961.805	3467.58
962.108	3434.58
962.411	3477.3
962.714	3426.45
963.017	3409.27
963.32	3420.12
963.623	3351.65
963.926	3366.34
964.228	3356.62
964.531	3348.03
964.833	3346.68
965.136	3291.76
965.438	3265.55
965.741	3292.44
966.043	3273.23
966.345	3235.72
966.648	3238.88
966.95	3246.12
967.252	3224.19
967.554	3221.71
967.856	3205.66
968.158	3140.13
968.46	3141.49
968.761	3144.87
969.063	3155.04
969.365	3103.07
969.666	3110.3
969.968	3129.51
970.269	3081.6
970.571	3061.94
970.872	3071.2
971.174	3025.33
971.475	3031.88
971.776	2997.53
972.077	3013.35
972.378	2977.87
972.679	2946.24
972.98	2957.99
973.281	2960.02
973.582	2934.94
973.883	2919.8
974.183	2891.1
974.484	2924.32
974.785	2889.29
975.085	2885.9
975.386	2887.71
975.686	2835.5
975.986	2805.22
976.287	2823.53
976.587	2799.12
976.887	2771.1
977.187	2769.97
977.487	2806.13
977.787	2757.99
978.087	2736.3
978.387	2751.89
978.687	2739.91
978.987	2732.68
979.286	2666.24
979.586	2679.8
979.885	2672.12
980.185	2640.26
980.484	2634.61
980.784	2631.44
981.083	2592.57
981.382	2607.94
981.682	2608.39
981.981	2554.83
982.28	2561.61
982.579	2575.85
982.878	2561.61
983.177	2573.59
983.475	2538.79
983.774	2519.35
984.073	2536.98
984.372	2524.1
984.67	2504.44
984.969	2473.03
985.267	2496.08
985.566	2470.32
985.864	2457.89
986.162	2418.79
986.461	2431.45
986.759	2454.72
987.057	2352.81
987.355	2396.65
987.653	2372.47
987.951	2363.65
988.249	2362.75
988.547	2347.16
988.844	2314.61
989.142	2328.85
989.44	2338.79
989.737	2296.08
990.035	2261.96
990.332	2304.67
990.63	2259.7
990.927	2250.44
991.224	2241.17
991.521	2213.83
991.819	2249.76
992.116	2221.96
992.413	2216.09
992.71	2210.89
993.006	2188.74
993.303	2189.19
993.6	2178.35
993.897	2212.24
994.193	2170.21
994.49	2148.52
994.787	2141.74
995.083	2117.33
995.379	2099.48
995.676	2094.28
995.972	2112.13
996.268	2092.93
996.565	2070.78
996.861	2054.28
997.157	2055.19
997.453	2043.89
997.749	2048.86
998.044	2010.89
998.34	2017.22
998.636	2017.67
998.932	1990.78
999.227	1974.96
999.523	1959.37
999.818	1946.71
1000.114	1949.65
1000.409	1938.35
1000.704	1920.27
1001	1937.45
1001.295	1899.48
1001.59	1901.29
1001.885	1898.35
1002.18	1873.72
1002.475	1872.14
1002.77	1851.35
1003.065	1841.63
1003.359	1826.27
1003.654	1815.64
1003.949	1816.1
1004.243	1810.9
1004.538	1811.8
1004.832	1802.76
1005.127	1778.81
1005.421	1796.21
1005.715	1746.95
1006.009	1758.02
1006.304	1740.17
1006.598	1708.75
1006.892	1734.29
1007.186	1721.64
1007.48	1720.51
1007.773	1693.39
1008.067	1699.72
1008.361	1651.13
1008.655	1677.12
1008.948	1656.55
1009.242	1643.67
1009.535	1668.08
1009.829	1638.93
1010.122	1629.66
1010.415	1614.97
1010.708	1593.96
1011.001	1566.61
1011.295	1602.77
1011.588	1573.62
1011.881	1596.44
1012.173	1534.97
1012.466	1565.03
1012.759	1539.27
1013.052	1542.66
1013.344	1510.57
1013.637	1526.16
1013.93	1483.68
1014.222	1511.47
1014.514	1487.97
1014.807	1486.16
1015.099	1441.64
1015.391	1455.43
1015.683	1472.15
1015.976	1440.74
1016.268	1406.39
1016.56	1429.89
1016.851	1400.29
1017.143	1426.95
1017.435	1407.52
1017.727	1406.84
1018.018	1371.14
1018.31	1393.28
1018.602	1354.41
1018.893	1345.37
1019.185	1333.85
1019.476	1334.98
1019.767	1350.12
1020.058	1349.44
1020.35	1338.37
1020.641	1301.08
1020.932	1284.58
1021.223	1270.57
1021.514	1284.58
1021.804	1271.25
1022.095	1272.61
1022.386	1262.66
1022.677	1253.4
1022.967	1230.8
1023.258	1206.85
1023.548	1229.45
1023.839	1229.9
1024.129	1210.01
1024.419	1209.56
1024.709	1178.82
1025	1167.75
1025.29	1174.08
1025.58	1179.73
1025.87	1170.01
1026.16	1146.74
1026.449	1153.51
1026.739	1148.09
1027.029	1151.71
1027.319	1130.92
1027.608	1108.09
1027.898	1117.36
1028.187	1098.83
1028.477	1134.98
1028.766	1117.81
1029.055	1079.84
1029.344	1092.95
1029.634	1046.85
1029.923	1055.21
1030.212	1038.04
1030.501	1056.12
1030.79	1057.02
1031.078	1018.6
1031.367	1006.63
1031.656	1040.07
1031.945	1038.04
1032.233	1001.43
1032.522	1023.35
1032.81	993.29
1033.099	974.54
1033.387	976.57
1033.675	986.97
1033.963	974.08
1034.251	962.56
1034.54	952.16
1034.828	953.29
1035.116	956.68
1035.403	945.38
1035.691	925.05
1035.979	949.45
1036.267	950.13
1036.554	930.24
1036.842	925.72
1037.129	918.27
1037.417	888.44
1037.704	874.2
1037.992	896.8
1038.279	893.86
1038.566	876.91
1038.853	876.91
1039.14	876.91
