Data from hue_80_FLMS001491_41.txt Node
Date: Mon Feb 06 15:23:02 GMT 2017
User: dcchb
Spectrometer: FLMS00149
Trigger mode: 0
Integration Time (sec): 2.000000E-2
Scans to average: 10
Electric dark correction enabled: true
Nonlinearity correction enabled: false
Boxcar width: 0
XAxis mode: Wavelengths
Number of Pixels in Spectrum: 2048
>>>>>Begin Spectral Data<<<<<
341.393	-16.68
341.776	-16.68
342.16	-16.68
342.543	-39.28
342.927	-70.92
343.31	-74.76
343.693	-70.46
344.077	-79.73
344.46	-62.55
344.843	-40.63
345.226	-49.45
345.61	-50.8
345.993	-7.64
346.376	0.95
346.759	25.35
347.142	33.94
347.525	41.62
347.908	55.41
348.291	93.6
348.674	86.37
349.057	98.8
349.44	117.1
349.823	137.21
350.206	156.87
350.588	179.7
350.971	210.88
351.354	229.64
351.737	230.32
352.119	247.49
352.502	244.1
352.884	266.93
353.267	273.26
353.65	295.4
354.032	291.33
354.414	322.52
354.797	325.91
355.179	315.06
355.562	317.55
355.944	328.85
356.326	355.29
356.709	336.98
357.091	322.97
357.473	337.43
357.855	338.79
358.238	339.47
358.62	348.06
359.002	343.54
359.384	340.15
359.766	371.33
360.148	336.53
360.53	343.31
360.912	343.76
361.294	339.24
361.676	366.81
362.057	337.21
362.439	316.19
362.821	337.89
363.203	339.02
363.584	310.09
363.966	355.06
364.348	326.81
364.729	314.84
365.111	330.2
365.493	332.46
365.874	322.75
366.256	311.67
366.637	314.61
367.019	315.51
367.4	314.61
367.781	328.17
368.163	327.72
368.544	310.99
368.925	309.86
369.306	325.23
369.688	313.93
370.069	317.55
370.45	296.98
370.831	308.51
371.212	310.77
371.593	307.15
371.974	321.39
372.355	310.77
372.736	322.07
373.117	321.84
373.498	301.28
373.879	331.79
374.26	319.58
374.641	323.88
375.021	340.82
375.402	318.9
375.783	328.17
376.163	320.71
376.544	333.82
376.925	322.97
377.305	315.06
377.686	329.53
378.066	323.65
378.447	330.2
378.827	328.62
379.208	329.75
379.588	339.24
379.968	345.8
380.349	341.28
380.729	337.89
381.109	340.15
381.489	344.21
381.87	347.83
382.25	338.56
382.63	347.83
383.01	330.2
383.39	334.27
383.77	341.28
384.15	328.17
384.53	372.01
384.91	355.51
385.29	350.32
385.67	347.6
386.049	332.69
386.429	332.24
386.809	356.19
387.189	375.85
387.568	362.52
387.948	348.73
388.328	364.1
388.707	369.75
389.087	381.73
389.466	368.85
389.846	376.53
390.225	361.84
390.605	363.87
390.984	374.04
391.363	360.94
391.743	366.59
392.122	366.59
392.501	385.12
392.881	390.54
393.26	374.27
393.639	374.04
394.018	362.74
394.397	389.18
394.776	391.67
395.155	397.09
395.534	371.11
395.913	369.98
396.292	395.96
396.671	393.03
397.05	375.85
397.429	383.99
397.808	399.58
398.186	374.04
398.565	393.03
398.944	377.66
399.323	389.18
399.701	419.24
400.08	411.11
400.458	406.81
400.837	410.88
401.215	382.63
401.594	409.75
401.972	390.09
402.351	409.98
402.729	417.43
403.107	403.87
403.486	416.98
403.864	414.72
404.242	418.34
404.62	429.41
404.999	414.95
405.377	435.06
405.755	433.93
406.133	422.18
406.511	427.83
406.889	432.35
407.267	437.54
407.645	433.48
408.023	442.29
408.401	439.13
408.779	458.56
409.156	449.75
409.534	450.88
409.912	442.97
410.29	424.21
410.667	445.68
411.045	460.37
411.422	442.97
411.8	463.76
412.178	462.18
412.555	467.6
412.933	466.92
413.31	476.87
413.687	478.45
414.065	482.06
414.442	456.3
414.819	503.76
415.197	496.75
415.574	492.01
415.951	489.52
416.328	504.21
416.705	500.82
417.082	532.01
417.46	503.98
417.837	510.54
418.214	496.3
418.591	501.27
418.967	502.63
419.344	519.35
419.721	517.54
420.098	509.63
420.475	535.4
420.852	541.95
421.228	542.18
421.605	522.97
421.982	534.49
422.358	533.81
422.735	540.59
423.111	545.34
423.488	562.74
423.864	564.77
424.241	552.8
424.617	574.49
424.994	578.11
425.37	569.74
425.746	552.8
426.123	576.3
426.499	593.7
426.875	572.91
427.251	594.38
427.627	580.59
428.003	595.51
428.379	579.91
428.756	594.38
429.132	616.3
429.507	614.49
429.883	609.29
430.259	612
430.635	633.25
431.011	624.43
431.387	635.28
431.763	646.58
432.138	623.3
432.514	642.74
432.89	667.82
433.265	663.08
433.641	676.18
434.016	680.48
434.392	691.32
434.767	691.32
435.143	691.55
435.518	707.14
435.894	711.66
436.269	703.98
436.644	717.99
437.02	686.13
437.395	721.61
437.77	723.64
438.145	746.92
438.52	747.59
438.895	748.05
439.271	755.28
439.646	748.05
440.021	777.88
440.395	765.67
440.77	775.62
441.145	760.02
441.52	780.81
441.895	762.28
442.27	782.62
442.645	779.23
443.019	789.17
443.394	791.43
443.769	787.59
444.143	804.32
444.518	822.62
444.892	821.94
445.267	799.57
445.641	829.63
446.016	834.37
446.39	827.59
446.764	817.65
447.139	849.51
447.513	850.19
447.887	850.42
448.262	876.63
448.636	848.16
449.01	859.91
449.384	872.79
449.758	877.76
450.132	898.55
450.506	871.66
450.88	887.7
451.254	904.88
451.628	921.15
452.002	927.93
452.376	935.16
452.75	932.67
453.123	939.9
453.497	945.1
453.871	940.58
454.244	998.89
454.618	977.42
454.992	1001.6
455.365	990.3
455.739	1012.67
456.112	1020.13
456.486	1036.17
456.859	1031.88
457.232	1056.51
457.606	1058.09
457.979	1096.51
458.352	1072.1
458.725	1096.96
459.099	1109.84
459.472	1129.28
459.845	1129.05
460.218	1162.72
460.591	1134.7
460.964	1180.12
461.337	1197.75
461.71	1203.4
462.083	1227.13
462.456	1223.51
462.829	1200.91
463.201	1248.6
463.574	1264.42
463.947	1303.74
464.32	1313.68
464.692	1305.32
465.065	1320.23
465.438	1361.81
465.81	1358.65
466.183	1400.46
466.555	1407.91
466.928	1413.56
467.3	1440
467.672	1446.78
468.045	1465.54
468.417	1511.64
468.789	1504.86
469.161	1527.01
469.534	1562.04
469.906	1631.86
470.278	1629.6
470.65	1676.61
471.022	1688.13
471.394	1702.14
471.766	1761.8
472.138	1778.53
472.51	1806.77
472.882	1845.87
473.253	1877.51
473.625	1935.81
473.997	1997.5
474.369	2004.06
474.74	2018.29
475.112	2081.34
475.484	2123.83
475.855	2188.69
476.227	2207.22
476.598	2284.73
476.97	2319.53
477.341	2409.24
477.713	2476.36
478.084	2499.19
478.455	2592.74
478.827	2678.84
479.198	2711.84
479.569	2776.92
479.94	2852.85
480.311	2919.51
480.682	3027.31
481.053	3080.41
481.424	3198.38
481.795	3265.49
482.166	3343.23
482.537	3464.13
482.908	3536.67
483.279	3604.02
483.65	3719.04
484.021	3809.89
484.391	3942.09
484.762	3973.05
485.133	4117
485.503	4214.39
485.874	4354.96
486.244	4418.91
486.615	4630.66
486.985	4700.71
487.356	4874.04
487.726	4940.48
488.097	5092.11
488.467	5157.87
488.837	5402.16
489.207	5420.46
489.578	5565.32
489.948	5709.04
490.318	5938.42
490.688	5989.72
491.058	6116.72
491.428	6231.52
491.798	6370.72
492.168	6535.92
492.538	6658.62
492.908	6816.81
493.278	6917.37
493.648	6999.18
494.017	7235.33
494.387	7305.39
494.757	7433.29
495.126	7616.34
495.496	7726.17
495.866	7840.74
496.235	8061.07
496.605	8170.45
496.974	8227.62
497.344	8388.07
497.713	8478.46
498.082	8645.01
498.452	8808.62
498.821	8922.07
499.19	8971.33
499.559	9068.73
499.928	9261.04
500.298	9350.76
500.667	9461.26
501.036	9543.07
501.405	9661.03
501.774	9777.41
502.143	9849.05
502.512	9950.06
502.88	10160.68
503.249	10136.05
503.618	10358.41
503.987	10423.27
504.356	10494.91
504.724	10598.41
505.093	10682.02
505.462	10756.82
505.83	10914.11
506.199	11026.65
506.567	11203.36
506.936	11172.63
507.304	11355
507.672	11456.01
508.041	11505.5
508.409	11639.51
508.777	11712.73
509.145	11797.47
509.514	11889.9
509.882	11964.02
510.25	12076.34
510.618	12247.86
510.986	12167.63
511.354	12275.65
511.722	12433.61
512.09	12502.54
512.458	12516.1
512.826	12685.58
513.193	12678.13
513.561	12892.81
513.929	12948.4
514.297	12978.23
514.664	13088.74
515.032	13145.69
515.4	13252.12
515.767	13264.55
516.135	13286.47
516.502	13299.58
516.869	13516.75
517.237	13588.61
517.604	13565.56
517.972	13720.13
518.339	13813.24
518.706	13804.65
519.073	13848.72
519.44	13972.33
519.808	14085.32
520.175	14049.16
520.542	14206.9
520.909	14292.55
521.276	14361.7
521.643	14412.32
522.009	14449.83
522.376	14534.58
522.743	14529.83
523.11	14701.12
523.477	14828.35
523.843	14895.24
524.21	14935.69
524.577	15082.36
524.943	15090.95
525.31	15123.71
525.676	15240.32
526.043	15307.89
526.409	15327.77
526.776	15523.93
527.142	15531.39
527.508	15548.79
527.874	15630.14
528.241	15687.77
528.607	15695.22
528.973	15836.01
529.339	15802.11
529.705	15852.73
530.071	15902.68
530.437	15993.29
530.803	16055.89
531.169	16044.14
531.535	15958.72
531.901	16068.77
532.267	16104.7
532.632	16197.36
532.998	16175.66
533.364	16244.81
533.73	16193.51
534.095	16414.3
534.461	16307.41
534.826	16471.93
535.192	16410.46
535.557	16556.67
535.923	16387.18
536.288	16480.29
536.653	16513.28
537.019	16428.54
537.384	16515.54
537.749	16606.61
538.114	16526.61
538.479	16482.09
538.845	16556.9
539.21	16560.74
539.575	16539.72
539.94	16545.14
540.305	16553.96
540.67	16488.87
541.034	16554.64
541.399	16585.59
541.764	16538.36
542.129	16668.76
542.494	16519.38
542.858	16572.49
543.223	16670.79
543.587	16726.38
543.952	16593.05
544.316	16513.96
544.681	16472.15
545.045	16633.28
545.41	16639.83
545.774	16656.78
546.138	16610
546.503	16545.37
546.867	16511.47
547.231	16603
547.595	16587.18
547.959	16586.5
548.324	16599.61
548.688	16532.94
549.052	16646.16
549.416	16581.08
549.779	16516.67
550.143	16589.89
550.507	16621.53
550.871	16623.79
551.235	16613.84
551.599	16712.6
551.962	16679.38
552.326	16628.08
552.689	16664.46
553.053	16570.68
553.417	16626.95
553.78	16866.94
554.143	16603.45
554.507	16697.23
554.87	16722.77
555.234	16801.86
555.597	16777.45
555.96	16711.69
556.323	16691.58
556.686	16741.98
557.05	16733.39
557.413	16849.99
557.776	16840.5
558.139	16804.57
558.502	16795.53
558.865	16898.36
559.228	16955.3
559.59	16990.33
559.953	17024.45
560.316	17095.64
560.679	17071.23
561.041	17164.79
561.404	17086.6
561.767	17342.64
562.129	17153.04
562.492	17344.22
562.854	17247.72
563.217	17200.72
563.579	17272.81
563.941	17403.88
564.304	17401.39
564.666	17444.1
565.028	17473.26
565.39	17435.97
565.753	17468.28
566.115	17602.74
566.477	17588.28
566.839	17645.91
567.201	17747.37
567.563	17634.15
567.925	17822.17
568.287	17749.18
568.648	17837.54
569.01	17903.3
569.372	17941.94
569.734	17777.2
570.095	17970.87
570.457	18013.81
570.819	17988.95
571.18	17978.78
571.542	18113.69
571.903	18089.51
572.265	18106.01
572.626	18215.83
572.987	18184.42
573.349	18216.51
573.71	18261.26
574.071	18193.91
574.432	18342.38
574.794	18489.73
575.155	18299.45
575.516	18252.67
575.877	18342.84
576.238	18297.19
576.599	18416.51
576.96	18473.68
577.32	18428.03
577.681	18480.01
578.042	18582.15
578.403	18454.92
578.763	18501.7
579.124	18547.8
579.485	18667.8
579.845	18663.51
580.206	18522.04
580.566	18461.7
580.927	18614.02
581.287	18665.31
581.648	18560.46
582.008	18640.68
582.368	18705.99
582.728	18617.41
583.089	18617.41
583.449	18682.49
583.809	18603.17
584.169	18590.06
584.529	18555.49
584.889	18692.88
585.249	18570.4
585.609	18520.69
585.969	18716.61
586.329	18517.97
586.688	18553
587.048	18577.41
587.408	18506.45
587.768	18521.36
588.127	18523.62
588.487	18506.9
588.846	18593.45
589.206	18495.6
589.565	18464.19
589.925	18618.08
590.284	18478.88
590.643	18532.66
591.003	18563.17
591.362	18540.35
591.721	18551.87
592.08	18607.01
592.44	18559.33
592.799	18608.82
593.158	18549.61
593.517	18471.65
593.876	18557.29
594.235	18487.47
594.593	18489.95
594.952	18516.84
595.311	18526.11
595.67	18579.21
596.029	18515.94
596.387	18508.71
596.746	18539.22
597.104	18415.15
597.463	18466
597.822	18501.7
598.18	18489.73
598.538	18485.43
598.897	18523.85
599.255	18341.93
599.613	18746.22
599.972	18591.42
600.33	18592.77
600.688	18455.38
601.046	18527.69
601.404	18655.6
601.762	18551.19
602.12	18632.77
602.478	18663.51
602.836	18619.67
603.194	18553.68
603.552	18597.97
603.91	18472.1
604.268	18619.67
604.625	18634.13
604.983	18577.86
605.341	18442.95
605.698	18719.32
606.056	18667.35
606.413	18617.63
606.771	18663.73
607.128	18697.63
607.485	18571.98
607.843	18630.51
608.2	18673.22
608.557	18768.36
608.914	18715.71
609.272	18781.24
609.629	18765.42
609.986	18850.62
610.343	18697.86
610.7	18913.44
611.057	18883.39
611.414	18910.05
611.771	18891.75
612.127	18989.6
612.484	18954.35
612.841	19040.67
613.198	18891.52
613.554	18969.49
613.911	19108.01
614.267	18981.24
614.624	18993.67
614.98	19082.7
615.337	19131.97
615.693	19124.96
616.05	19111.18
616.406	19297.61
616.762	19174.23
617.118	19232.31
617.475	19164.74
617.831	19204.51
618.187	19152.08
618.543	19280.89
618.899	19369.48
619.255	19285.41
619.611	19273.43
619.967	19381.91
620.323	19350.72
620.678	19343.71
621.034	19244.06
621.39	19253.77
621.746	19256.26
622.101	19530.38
622.457	19370.83
622.812	19457.38
623.168	19413.32
623.523	19356.82
623.879	19429.81
624.234	19319.31
624.589	19418.06
624.945	19424.84
625.3	19436.14
625.655	19486.76
626.01	19322.92
626.365	19455.12
626.72	19472.75
627.075	19556.82
627.43	19471.17
627.785	19499.64
628.14	19479.3
628.495	19468.46
628.85	19473.65
629.205	19345.52
629.559	19417.84
629.914	19338.29
630.269	19326.77
630.623	19328.57
630.978	19210.61
631.332	19396.82
631.687	19398.63
632.041	19248.58
632.396	19280.44
632.75	19252.19
633.104	19210.38
633.459	19187.56
633.813	19240.21
634.167	19206.54
634.521	19155.02
634.875	19200.44
635.229	19183.72
635.583	19045.87
635.937	19019.66
636.291	19014.01
636.645	19082.93
636.999	19032.54
637.352	18981.01
637.706	18916.16
638.06	19051.74
638.413	18961.35
638.767	18854.24
639.121	18932.2
639.474	18778.53
639.828	18787.12
640.181	18786.89
640.534	18895.59
640.888	18780.11
641.241	18759.78
641.594	18776.95
641.947	18893.1
642.301	18697.63
642.654	18836.38
643.007	18750.28
643.36	18658.08
643.713	18735.14
644.066	18723.62
644.419	18607.24
644.771	18471.42
645.124	18324.76
645.477	18350.97
645.83	18208.38
646.182	18129.74
646.535	18077.08
646.888	18186.23
647.24	17986.46
647.593	18201.6
647.945	18119.34
648.298	18060.36
648.65	18075.05
649.002	17922.51
649.355	18000.47
649.707	18165.21
650.059	18099
650.411	18384.19
650.763	18350.07
651.115	18570.4
651.467	18471.65
651.819	18513.23
652.171	18535.15
652.523	18441.59
652.875	18389.62
653.227	18354.14
653.578	18374.93
653.93	18460.57
654.282	18348.26
654.633	18302.16
654.985	18346.9
655.337	18450.18
655.688	18414.7
656.039	18501.7
656.391	18300.35
656.742	18371.99
657.094	18296.51
657.445	18361.59
657.796	18384.19
658.147	18393.01
658.498	18325.66
658.849	18466.22
659.2	18440.24
659.551	18385.32
659.902	18414.25
660.253	18374.7
660.604	18433
660.955	18358.88
661.306	18473.68
661.656	18388.03
662.007	18335.15
662.358	18333.35
662.708	18461.48
663.059	18385.55
663.409	18304.87
663.76	18407.69
664.11	18481.36
664.461	18442.95
664.811	18453.12
665.161	18423.51
665.511	18514.13
665.862	18488.6
666.212	18470.52
666.562	18403.17
666.912	18467.81
667.262	18410.63
667.612	18474.36
667.962	18465.32
668.312	18406.79
668.662	18468.26
669.011	18426
669.361	18379.22
669.711	18412.21
670.06	18329.96
670.41	18348.94
670.76	18290.18
671.109	18289.96
671.459	18379.9
671.808	18263.74
672.157	18413.12
672.507	18311.43
672.856	18219.45
673.205	18324.08
673.554	18335.38
673.904	18168.38
674.253	18326.34
674.602	18275.95
674.951	17948.5
675.3	17925.9
675.649	18160.02
675.998	18215.61
676.346	18131.99
676.695	18331.54
677.044	18047.25
677.393	18169.73
677.741	18176.74
678.09	18134.93
678.438	18082.96
678.787	18079.57
679.135	18010.42
679.484	18095.39
679.832	18056.52
680.181	17949.85
680.529	18002.51
680.877	17946.01
681.225	17887.71
681.573	17972.68
681.922	17848.39
682.27	17732.46
682.618	17777.2
682.966	17690.2
683.314	17770.42
683.661	17679.35
684.009	17639.58
684.357	17520.49
684.705	17538.56
685.053	17521.39
685.4	17502.41
685.748	17427.15
686.095	17447.95
686.443	17323.2
686.79	17352.35
687.138	17316.2
687.485	17278.46
687.832	17264.9
688.18	17268.29
688.527	17167.5
688.874	17150.33
689.221	17083.21
689.568	17025.36
689.915	17049.09
690.262	16974.51
690.609	16985.58
690.956	16901.07
691.303	16848.41
691.65	16711.69
691.997	16801.18
692.344	16687.06
692.69	16654.52
693.037	16612.26
693.383	16424.47
693.73	16553.28
694.077	16392.38
694.423	16365.71
694.769	16322.33
695.116	16247.52
695.462	16216.57
695.808	16208.2
696.155	16137.92
696.501	16036.23
696.847	16064.25
697.193	15973.41
697.539	15974.99
697.885	15759.63
698.231	15729.57
698.577	15802.11
698.923	15794.66
699.269	15671.27
699.614	15601.67
699.96	15547.88
700.306	15531.39
700.651	15469.69
700.997	15416.36
701.342	15292.52
701.688	15372.29
702.033	15259.08
702.379	15283.03
702.724	15148.57
703.069	15138.85
703.415	14959.65
703.76	14979.08
704.105	14981.57
704.45	14914.9
704.795	14775.02
705.14	14864.28
705.485	14828.81
705.83	14716.49
706.175	14777.05
706.52	14658.19
706.865	14683.27
707.209	14653.22
707.554	14626.78
707.899	14616.16
708.243	14514.69
708.588	14413.9
708.932	14398.76
709.277	14251.42
709.621	14323.06
709.966	14214.58
710.31	14291.42
710.654	14169.39
710.998	14188.6
711.342	14154.92
711.687	14100.24
712.031	14058.2
712.375	13959
712.719	13995.61
713.063	14021.37
713.407	14021.37
713.75	13850.75
714.094	13902.95
714.438	13885.33
714.782	13861.15
715.125	13852.79
715.469	13800.36
715.812	13723.52
716.156	13632.9
716.499	13676.74
716.843	13701.83
717.186	13562.85
717.53	13646.69
717.873	13525.56
718.216	13560.59
718.559	13557.65
718.902	13425.45
719.246	13434.49
719.589	13442.4
719.932	13403.98
720.275	13431.55
720.617	13410.76
720.96	13315.17
721.303	13347.49
721.646	13357.66
721.989	13246.47
722.331	13369.86
722.674	13304.78
723.016	13284.44
723.359	13374.61
723.701	13221.84
724.044	13218.23
724.386	13186.36
724.729	13141.17
725.071	13205.57
725.413	13160.15
725.755	13196.31
726.097	13100.49
726.439	13020.26
726.782	13008.29
727.124	13126.25
727.465	13039.25
727.807	13101.17
728.149	13015.07
728.491	13010.77
728.833	13102.3
729.175	12979.59
729.516	13024.11
729.858	12979.59
730.199	12966.26
730.541	12968.06
730.882	12900.49
731.224	12977.78
731.565	12964.22
731.906	12921.28
732.248	12868.4
732.589	12858.69
732.93	12788.18
733.271	12861.4
733.612	12905.92
733.953	12891.45
734.294	12797.67
734.635	12888.52
734.976	12891.23
735.317	12762.19
735.658	12859.59
735.999	12922.87
736.339	12809.2
736.68	12886.03
737.021	12854.39
737.361	12805.13
737.702	12895.07
738.042	12939.59
738.383	12843.32
738.723	12834.06
739.063	12879.7
739.404	12923.32
739.744	12873.6
740.084	12876.54
740.424	12852.59
740.764	12886.48
741.104	12913.6
741.444	12854.39
741.784	12944.56
742.124	12954.73
742.464	12999.02
742.804	12943.88
743.143	12977.1
743.483	12914.28
743.823	12933.71
744.162	12936.65
744.502	13024.78
744.841	13018.23
745.181	13069.3
745.52	12999.02
745.86	13062.75
746.199	13205.34
746.538	13103.88
746.877	13269.98
747.216	13315.85
747.556	13247.83
747.895	13312.69
748.234	13305.91
748.573	13366.24
748.911	13383.87
749.25	13405.34
749.589	13508.61
749.928	13568.73
750.267	13691.43
750.605	13663.86
750.944	13765.56
751.283	13816.63
751.621	13910.19
751.96	13935.5
752.298	13991.76
752.636	14119.45
752.975	14164.42
753.313	14249.61
753.651	14342.94
753.989	14410.74
754.327	14429.04
754.666	14487.35
755.004	14684.85
755.342	14761.69
755.679	14857.73
756.017	14895.24
756.355	15054.56
756.693	15086.88
757.031	15209.81
757.368	15230.6
757.706	15334.1
758.044	15505.17
758.381	15600.99
758.719	15708.33
759.056	15847.54
759.394	15890.02
759.731	15948.1
760.068	16088.88
760.405	16087.75
760.743	16196.68
761.08	16280.74
761.417	16476.22
761.754	16454.52
762.091	16553.73
762.428	16624.24
762.765	16651.58
763.102	16875.98
763.438	16903.1
763.775	17023.55
764.112	17057.9
764.449	17251.79
764.785	17267.84
765.122	17343.09
765.458	17375.4
765.795	17552.12
766.131	17561.84
766.467	17616.3
766.804	17685
767.14	17686.36
767.476	17741.27
767.812	17727.49
768.148	18030.53
768.485	17896.97
768.821	17925.45
769.157	18032.56
769.492	18044.99
769.828	18120.7
770.164	18042.28
770.5	18136.29
770.836	18178.77
771.171	18139.9
771.507	18229.62
771.842	18081.83
772.178	18246.34
772.513	18199.56
772.849	18201.15
773.184	18169.28
773.519	18179.68
773.855	18262.39
774.19	18146.68
774.525	18236.85
774.86	18329.05
775.195	18280.92
775.53	18300.13
775.865	18158.66
776.2	18082.5
776.535	18124.31
776.87	18171.77
777.205	18195.5
777.539	18084.99
777.874	18061.26
778.209	18020.36
778.543	18006.12
778.878	17993.69
779.212	17901.04
779.547	17912.34
779.881	18117.98
780.215	17932.9
780.55	17943.53
780.884	17868.73
781.218	17903.3
781.552	17904.88
781.886	17741.95
782.22	17674.15
782.554	17694.27
782.888	17532.91
783.222	17557.32
783.556	17542.41
783.889	17400.49
784.223	17372.92
784.557	17296.54
784.89	17457.89
785.224	17346.48
785.557	17244.79
785.891	17344.67
786.224	17205.47
786.558	17225.13
786.891	17061.74
787.224	17095.41
787.557	16996.21
787.891	17009.54
788.224	16956.43
788.557	16960.95
788.89	16935.19
789.223	16932.93
789.556	16733.84
789.888	16738.36
790.221	16723.22
790.554	16572.71
790.887	16632.6
791.219	16602.32
791.552	16516.44
791.884	16452.72
792.217	16386.28
792.549	16396.9
792.882	16274.42
793.214	16222.89
793.546	16304.02
793.879	16192.61
794.211	15986.29
794.543	16222.89
794.875	16137.47
795.207	16098.15
795.539	15997.81
795.871	16008.44
796.203	15962.56
796.535	15827.65
796.867	15781.77
797.198	15716.24
797.53	15711.49
797.862	15705.39
798.193	15625.17
798.525	15597.82
798.856	15575.68
799.188	15472.4
799.519	15389.69
799.85	15265.18
800.182	15437.38
800.513	15287.32
800.844	15246.2
801.175	15263.14
801.506	15244.84
801.837	15154.45
802.168	15081.91
802.499	15206.87
802.83	15002.36
803.161	14970.5
803.491	14983.38
803.822	14961.46
804.153	14975.92
804.483	14756.49
804.814	14757.39
805.145	14746.55
805.475	14675.36
805.805	14720.56
806.136	14661.13
806.466	14663.39
806.796	14614.35
807.126	14521.47
807.457	14435.82
807.787	14463.39
808.117	14325.77
808.447	14374.35
808.777	14423.84
809.107	14258.42
809.436	14238.09
809.766	14332.09
810.096	14189.5
810.426	14222.95
810.755	14136.62
811.085	14104.98
811.414	14182.49
811.744	14031.09
812.073	13862.73
812.403	13927.36
812.732	13868.15
813.061	13855.95
813.39	13772.11
813.719	13743.86
814.049	13834.93
814.378	13753.58
814.707	13699.12
815.036	13764.88
815.365	13633.36
815.693	13568.27
816.022	13547.71
816.351	13556.52
816.68	13409.86
817.008	13443.98
817.337	13363.31
817.665	13332.57
817.994	13408.96
818.322	13329.18
818.651	13232.24
818.979	13204.67
819.307	13297.09
819.636	13245.8
819.964	13206.02
820.292	13213.48
820.62	13239.47
820.948	13138
821.276	13183.88
821.604	13125.35
821.932	13208.06
822.259	13185.91
822.587	13208.96
822.915	13080.83
823.243	13148.17
823.57	13133.03
823.898	13128.28
824.225	13133.71
824.553	13034.28
824.88	13086.48
825.207	13166.25
825.535	13070.43
825.862	13111.79
826.189	13077.89
826.516	13105.01
826.843	13196.76
827.17	13108.17
827.497	13223.88
827.824	13067.95
828.151	13112.47
828.478	13082.18
828.805	13133.26
829.131	13021.39
829.458	13053.26
829.785	13047.61
830.111	13031.56
830.438	13127.38
830.764	13065.69
831.09	13123.09
831.417	13013.26
831.743	13050.55
832.069	13062.75
832.395	12971.23
832.722	13043.09
833.048	13000.6
833.374	13112.92
833.7	13001.28
834.026	12951.79
834.351	12987.5
834.677	13011.9
835.003	13006.03
835.329	12917.22
835.654	12933.49
835.98	12906.82
836.306	12958.8
836.631	12831.57
836.956	12934.84
837.282	12815.98
837.607	12739.82
837.932	12794.06
838.258	12806.03
838.583	12764.9
838.908	12694.85
839.233	12751.35
839.558	12710.89
839.883	12646.04
840.208	12622.54
840.533	12668.18
840.858	12691.23
841.182	12668.86
841.507	12503.22
841.832	12538.92
842.156	12443.78
842.481	12510.9
842.805	12430
843.13	12440.85
843.454	12380.51
843.778	12366.72
844.103	12352.03
844.427	12271.13
844.751	12309.1
845.075	12305.26
845.399	12244.92
845.723	12199.95
846.047	12153.4
846.371	12051.93
846.695	12083.34
847.019	11977.81
847.343	11902.33
847.666	11852.39
847.99	11825.04
848.313	11780.07
848.637	11701.66
848.96	11707.08
849.284	11738.72
849.607	11632.05
849.931	11543.92
850.254	11550.47
850.577	11397.71
850.9	11337.37
851.223	11433.41
851.546	11334.21
851.869	11277.94
852.192	11289.69
852.515	11203.14
852.838	11181.67
853.161	11114.55
853.483	11124.5
853.806	11053.99
854.129	10970.6
854.451	10969.47
854.774	10939.64
855.096	10957.27
855.419	10843.6
855.741	10752.3
856.063	10724.05
856.385	10778.97
856.708	10641.8
857.03	10749.82
857.352	10721.12
857.674	10761.79
857.996	10630.05
858.318	10584.85
858.64	10589.14
858.961	10497.39
859.283	10529.71
859.605	10446.1
859.926	10481.35
860.248	10425.08
860.57	10419.88
860.891	10415.14
861.212	10331.07
861.534	10330.84
861.855	10243.16
862.176	10239.32
862.498	10281.81
862.819	10203.16
863.14	10213.79
863.461	10240.9
863.782	10179.66
864.103	10175.37
864.424	10098.08
864.745	10109.16
865.065	10076.39
865.386	10041.36
865.707	10028.03
866.027	10031.87
866.348	9978.76
866.668	10012.89
866.989	10002.04
867.309	9903.06
867.63	9958.88
867.95	9919.78
868.27	9882.04
868.59	9851.76
868.91	9806.34
869.23	9817.41
869.55	9808.6
869.87	9842.95
870.19	9879.56
870.51	9846.56
870.83	9779.45
871.15	9692.22
871.469	9680.92
871.789	9707.58
872.109	9704.87
872.428	9678.88
872.748	9715.04
873.067	9692.89
873.386	9643.18
873.706	9688.38
874.025	9578.32
874.344	9583.07
874.663	9613.8
874.982	9546.68
875.301	9576.29
875.62	9567.02
875.939	9486.12
876.258	9534.48
876.577	9440.7
876.896	9482.05
877.214	9433.47
877.533	9450.87
877.852	9404.09
878.17	9466.46
878.489	9358.44
878.807	9400.25
879.125	9388.95
879.444	9356.63
879.762	9324.54
880.08	9357.54
880.398	9249.29
880.716	9281.83
881.034	9250.42
881.352	9259.23
881.67	9188.73
881.988	9231.66
882.306	9192.8
882.624	9136.07
882.941	9148.5
883.259	9131.55
883.577	9068.28
883.894	9069.41
884.212	9052.91
884.529	9041.61
884.846	8992.35
885.164	9040.93
885.481	8894.27
885.798	8976.08
886.115	8890.2
886.432	8899.02
886.75	8842.3
887.067	8915.97
887.383	8868.06
887.7	8802.97
888.017	8839.36
888.334	8787.83
888.651	8837.55
888.967	8738.34
889.284	8678.91
889.6	8661.96
889.917	8674.39
890.233	8687.27
890.55	8564.11
890.866	8562.76
891.182	8598.46
891.498	8571.79
891.815	8562.98
892.131	8431.91
892.447	8490.89
892.763	8401.86
893.079	8400.73
893.395	8327.51
893.71	8364.79
894.026	8370.22
894.342	8342.42
894.657	8247.28
894.973	8257.9
895.289	8245.7
895.604	8216.78
895.92	8209.09
896.235	8136.55
896.55	8186.04
896.865	8082.54
897.181	8100.62
897.496	8042.32
897.811	8048.87
898.126	7991.24
898.441	7937.23
898.756	7939.27
899.071	7886.39
899.386	7901.53
899.7	7809.1
900.015	7728.88
900.33	7803.68
900.644	7759.16
900.959	7767.52
901.273	7710.35
901.588	7686.85
901.902	7655.89
902.216	7596.9
902.531	7584.48
902.845	7579.73
903.159	7584.48
903.473	7485.27
903.787	7475.33
904.101	7433.52
904.415	7417.02
904.729	7372.96
905.042	7330.25
905.356	7336.35
905.67	7312.39
905.984	7369.57
906.297	7269.23
906.611	7222.23
906.924	7188.1
907.237	7204.82
907.551	7162.79
907.864	7156.01
908.177	7088.67
908.491	7105.62
908.804	7076.24
909.117	7046.41
909.43	6995.11
909.743	6925.51
910.056	6894.32
910.368	6968.9
910.681	6864.72
910.994	6820.88
911.307	6815.91
911.619	6769.13
911.932	6770.49
912.244	6720.77
912.557	6705.63
912.869	6663.6
913.181	6676.48
913.494	6593.32
913.806	6600.55
914.118	6575.24
914.43	6489.82
914.742	6595.8
915.054	6473.32
915.366	6461.34
915.678	6486.2
915.99	6398.97
916.302	6420.21
916.613	6375.47
916.925	6323.94
917.236	6317.39
917.548	6277.84
917.859	6234
918.171	6249.37
918.482	6210.5
918.794	6220.44
919.105	6223.16
919.416	6125.98
919.727	6128.24
920.038	6135.25
920.349	6029.71
920.66	6034.23
920.971	6015.93
921.282	6022.71
921.593	5965.08
921.903	5949.26
922.214	5900.68
922.525	5874.69
922.835	5853.45
923.146	5822.04
923.456	5798.53
923.767	5785.43
924.077	5756.73
924.387	5782.26
924.697	5747.01
925.008	5715.6
925.318	5673.79
925.628	5676.05
925.938	5634.47
926.248	5588.37
926.558	5629.05
926.867	5613
927.177	5606.45
927.487	5494.81
927.796	5420.69
928.106	5475.6
928.416	5469.96
928.725	5431.76
929.034	5375.95
929.344	5448.26
929.653	5369.17
929.962	5328.94
930.271	5281.71
930.581	5279.45
930.89	5272.67
931.199	5258.89
931.508	5226.35
931.817	5229.51
932.125	5220.47
932.434	5190.64
932.743	5150.64
933.051	5136.4
933.36	5134.6
933.669	5039.46
933.977	5072.23
934.286	5035.62
934.594	5030.42
934.902	4968.95
935.21	5004.88
935.519	4974.83
935.827	4946.8
936.135	4894.15
936.443	4839.69
936.751	4884.21
937.059	4823.87
937.367	4815.73
937.674	4832.01
937.982	4791.33
938.29	4779.13
938.597	4803.08
938.905	4740.03
939.213	4681.28
939.52	4669.75
939.827	4670.43
940.135	4627.49
940.442	4638.34
940.749	4606.25
941.056	4646.47
941.363	4549.75
941.67	4554.5
941.977	4477.44
942.284	4483.31
942.591	4475.63
942.898	4490.09
943.205	4444.9
943.511	4435.18
943.818	4431.11
944.125	4408.29
944.431	4341.62
944.738	4355.86
945.044	4354.5
945.35	4320.61
945.657	4296.43
945.963	4252.13
946.269	4299.82
946.575	4270.44
946.881	4204.45
947.187	4238.57
947.493	4223.89
947.799	4167.84
948.105	4139.82
948.41	4097.56
948.716	4128.07
949.022	4147.5
949.327	4085.36
949.633	4072.93
949.938	4031.8
950.244	4112.48
950.549	3999.94
950.854	3980.73
951.16	4003.33
951.465	3971.46
951.77	3985.25
952.075	3974.18
952.38	3925.81
952.685	3926.72
952.99	3890.34
953.294	3862.99
953.599	3845.36
953.904	3843.11
954.209	3834.74
954.513	3833.39
954.818	3780.28
955.122	3806.5
955.426	3757.01
955.731	3720.4
956.035	3710.91
956.339	3731.24
956.643	3693.28
956.948	3653.05
957.252	3665.48
957.556	3643.56
957.86	3649.66
958.163	3591.13
958.467	3634.52
958.771	3623.9
959.075	3614.18
959.378	3571.93
959.682	3581.87
959.985	3491.7
960.289	3550.01
960.592	3498.71
960.896	3490.57
961.199	3425.49
961.502	3452.38
961.805	3456.22
962.108	3427.52
962.411	3397.02
962.714	3415.55
963.017	3369.67
963.32	3417.58
963.623	3337.58
963.926	3334.19
964.228	3370.12
964.531	3310.69
964.833	3336.9
965.136	3258.49
965.438	3253.52
965.741	3275.21
966.043	3261.43
966.345	3239.05
966.648	3207.87
966.95	3213.07
967.252	3158.15
967.554	3175.55
967.856	3174.65
968.158	3102.79
968.46	3114.31
968.761	3138.49
969.063	3112.28
969.365	3107.98
969.666	3085.38
969.968	3047.65
970.269	3061.66
970.571	3032.73
970.872	3035.22
971.174	3003.81
971.475	2966.07
971.776	2967.87
972.077	2955.44
972.378	2934.65
972.679	2957.25
972.98	2949.8
973.281	2875.67
973.582	2906.86
973.883	2898.27
974.183	2910.25
974.484	2914.54
974.785	2893.07
975.085	2838.84
975.386	2865.28
975.686	2810.14
975.986	2792.06
976.287	2823.47
976.587	2736.47
976.887	2789.12
977.187	2767.88
977.487	2743.02
977.787	2717.49
978.087	2722.23
978.387	2712.97
978.687	2729.69
978.987	2686.07
979.286	2673.42
979.586	2676.58
979.885	2643.59
980.185	2601.1
980.484	2623.02
980.784	2588
981.083	2608.11
981.382	2606.08
981.682	2579.64
981.981	2572.86
982.28	2589.35
982.579	2565.4
982.878	2568.56
983.177	2562.01
983.475	2525.63
983.774	2500.99
984.073	2482.69
984.372	2488.11
984.67	2453.54
984.969	2475.01
985.267	2468.45
985.566	2458.96
985.864	2405.85
986.162	2437.49
986.461	2407.44
986.759	2407.44
987.057	2379.19
987.355	2356.36
987.653	2378.28
987.951	2331.73
988.249	2348
988.547	2291.73
988.844	2322.02
989.142	2317.72
989.44	2331.73
989.737	2266.2
990.035	2279.08
990.332	2286.08
990.63	2268.46
990.927	2256.93
991.224	2250.6
991.521	2217.61
991.819	2180.78
992.116	2211.74
992.413	2212.19
992.71	2173.09
993.006	2186.88
993.303	2165.86
993.6	2148.01
993.897	2159.31
994.193	2160.89
994.49	2130.83
994.787	2121.12
995.083	2100.33
995.379	2093.55
995.676	2106.88
995.972	2072.3
996.268	2023.94
996.565	2081.34
996.861	2043.15
997.157	2043.6
997.453	2055.81
997.749	2035.24
998.044	2014.45
998.34	2004.06
998.636	1997.96
998.932	1951.86
999.227	1973.1
999.523	1969.03
999.818	1962.48
1000.114	1948.47
1000.409	1900.33
1000.704	1939.2
1001	1911.18
1001.295	1903.72
1001.59	1914.34
1001.885	1877.51
1002.18	1900.56
1002.475	1852.42
1002.77	1839.77
1003.065	1818.75
1003.359	1835.47
1003.654	1802.03
1003.949	1807.45
1004.243	1792.99
1004.538	1799.77
1004.832	1780.79
1005.127	1796.61
1005.421	1742.82
1005.715	1746.89
1006.009	1746.21
1006.304	1774.01
1006.598	1720.22
1006.892	1702.82
1007.186	1702.6
1007.48	1709.83
1007.773	1681.81
1008.067	1711.41
1008.361	1666.89
1008.655	1682.94
1008.948	1667.57
1009.242	1651.07
1009.535	1620.56
1009.829	1649.26
1010.122	1599.1
1010.415	1603.84
1010.708	1629.15
1011.001	1606.1
1011.295	1586.67
1011.588	1572.66
1011.881	1558.65
1012.173	1534.24
1012.466	1571.98
1012.759	1540.11
1013.052	1550.96
1013.344	1523.84
1013.637	1530.17
1013.93	1457.86
1014.222	1451.3
1014.514	1490.17
1014.807	1492.21
1015.099	1467.57
1015.391	1452.43
1015.683	1451.98
1015.976	1438.87
1016.268	1425.99
1016.56	1400.01
1016.851	1404.53
1017.143	1402.49
1017.435	1371.31
1017.727	1375.6
1018.018	1394.13
1018.31	1405.43
1018.602	1376.05
1018.893	1359.1
1019.185	1350.29
1019.476	1343.06
1019.767	1375.83
1020.058	1328.6
1020.35	1343.96
1020.641	1349.16
1020.932	1317.07
1021.223	1286.11
1021.514	1327.24
1021.804	1294.92
1022.095	1255.83
1022.386	1268.26
1022.677	1266
1022.967	1256.73
1023.258	1233.68
1023.548	1218.77
1023.839	1223.96
1024.129	1203.85
1024.419	1208.6
1024.709	1216.73
1025	1207.02
1025.29	1191.88
1025.58	1175.83
1025.87	1164.08
1026.16	1152.33
1026.449	1175.38
1026.739	1135.61
1027.029	1131.09
1027.319	1128.15
1027.608	1138.77
1027.898	1109.62
1028.187	1140.13
1028.477	1106.68
1028.766	1120.46
1029.055	1082.73
1029.344	1086.34
1029.634	1085.21
1029.923	1104.19
1030.212	1083.86
1030.501	1057.87
1030.79	1050.41
1031.078	1048.83
1031.367	1034.82
1031.656	1012.22
1031.945	1019.22
1032.233	1004.99
1032.522	991.2
1032.81	1028.49
1033.099	1019
1033.387	1004.08
1033.675	997.98
1033.963	973.8
1034.251	981.71
1034.54	978.1
1034.828	984.2
1035.116	943.97
1035.403	953.92
1035.691	947.59
1035.979	970.64
1036.267	946.91
1036.554	958.21
1036.842	943.75
1037.129	922.73
1037.417	892.22
1037.704	950.75
1037.992	904.43
1038.279	897.65
1038.566	879.34
1038.853	879.34
1039.14	879.34
