Data from hue_26_FLMS001491_00092.txt Node
Date: Tue Feb 07 17:14:50 GMT 2017
User: dcchb
Spectrometer: FLMS00149
Trigger mode: 0
Integration Time (sec): 2.000000E-2
Scans to average: 10
Electric dark correction enabled: true
Nonlinearity correction enabled: false
Boxcar width: 0
XAxis mode: Wavelengths
Number of Pixels in Spectrum: 2048
>>>>>Begin Spectral Data<<<<<
341.393	-22.39
341.776	-22.39
342.16	-22.39
342.543	-45.44
342.927	-68.26
343.31	-66.45
343.693	-65.32
344.077	-57.87
344.46	-54.25
344.843	-64.65
345.226	-56.28
345.61	-36.4
345.993	-28.94
346.376	2.92
346.759	22.58
347.142	39.76
347.525	34.56
347.908	52.41
348.291	77.5
348.674	86.99
349.057	113.43
349.44	125.86
349.823	142.58
350.206	148
350.588	201.79
350.971	204.95
351.354	232.3
351.737	249.47
352.119	257.83
352.502	272.3
352.884	286.76
353.267	289.24
353.65	300.09
354.032	325.85
354.414	326.08
354.797	321.56
355.179	333.08
355.562	344.61
355.944	343.71
356.326	369.02
356.709	347.55
357.091	373.08
357.473	362.69
357.855	345.97
358.238	358.62
358.62	324.95
359.002	366.3
359.384	368.56
359.766	341.22
360.148	356.13
360.53	349.13
360.912	351.62
361.294	356.13
361.676	327.21
362.057	341.22
362.439	358.85
362.821	344.38
363.203	356.59
363.584	342.35
363.966	341.9
364.348	336.47
364.729	347.55
365.111	342.12
365.493	333.31
365.874	332.86
366.256	322.69
366.637	340.09
367.019	353.87
367.4	347.32
367.781	344.16
368.163	314.33
368.544	333.08
368.925	356.36
369.306	360.88
369.688	336.47
370.069	328.56
370.45	335.57
370.831	360.88
371.212	347.32
371.593	314.78
371.974	338.06
372.355	330.37
372.736	323.14
373.117	312.75
373.498	333.08
373.879	309.36
374.26	340.77
374.641	331.5
375.021	355
375.402	349.81
375.783	370.6
376.163	363.59
376.544	357.94
376.925	321.79
377.305	353.2
377.686	361.78
378.066	343.03
378.447	333.99
378.827	352.29
379.208	360.88
379.588	382.8
379.968	351.39
380.349	360.65
380.729	368.34
381.109	348.45
381.489	373.08
381.87	363.59
382.25	368.79
382.63	373.08
383.01	389.58
383.39	391.61
383.77	380.31
384.15	382.35
384.53	387.09
384.91	387.09
385.29	388.45
385.67	407.88
386.049	379.18
386.429	397.94
386.809	389.58
387.189	386.19
387.568	405.85
387.948	375.34
388.328	376.25
388.707	414.44
389.087	408.34
389.466	400.43
389.846	403.59
390.225	402.69
390.605	401.11
390.984	411.05
391.363	417.6
391.743	418.05
392.122	396.13
392.501	430.48
392.881	425.96
393.26	436.36
393.639	421.22
394.018	406.08
394.397	440.2
394.776	429.58
395.155	437.04
395.534	427.55
395.913	416.7
396.292	411.73
396.671	442.23
397.05	449.47
397.429	449.47
397.808	440.2
398.186	442.23
398.565	465.06
398.944	436.58
399.323	480.43
399.701	457.6
400.08	452.86
400.458	468
400.837	478.62
401.215	480.88
401.594	463.48
401.972	461.44
402.351	464.83
402.729	493.08
403.107	498.96
403.486	476.36
403.864	484.27
404.242	493.53
404.62	482.01
404.999	516.13
405.377	507.54
405.755	501.22
406.133	514.32
406.511	504.61
406.889	528.79
407.267	529.01
407.645	516.58
408.023	514.32
408.401	528.11
408.779	548.22
409.156	523.81
409.534	542.12
409.912	545.73
410.29	557.94
410.667	560.42
411.045	557.71
411.422	579.63
411.8	562.23
412.178	580.31
412.555	576.92
412.933	569.91
413.31	579.41
413.687	575.56
414.065	583.47
414.442	598.61
414.819	571.27
415.197	593.64
415.574	583.93
415.951	618.27
416.328	632.06
416.705	623.02
417.082	635.22
417.46	613.08
417.837	628.9
418.214	649.91
418.591	640.42
418.967	637.71
419.344	667.09
419.721	680.87
420.098	641.55
420.475	659.18
420.852	670.02
421.228	676.8
421.605	665.96
421.982	675.45
422.358	703.47
422.735	696.92
423.111	699.63
423.488	686.52
423.864	711.83
424.241	699.4
424.617	711.15
424.994	740.31
425.37	743.92
425.746	740.08
426.123	726.97
426.499	720.42
426.875	768.78
427.251	752.06
427.627	776.69
428.003	759.29
428.379	770.14
428.756	765.62
429.132	814.2
429.507	796.12
429.883	804.71
430.259	825.05
430.635	834.99
431.011	823.02
431.387	847.42
431.763	867.76
432.138	852.17
432.514	869.57
432.89	862.79
433.265	896.01
433.641	896.23
434.016	927.19
434.392	940.98
434.767	920.87
435.143	921.09
435.518	963.12
435.894	938.72
436.269	966.06
436.644	977.36
437.02	969.45
437.395	955.44
437.77	997.93
438.145	999.73
438.52	1004.03
438.895	1026.17
439.271	1024.14
439.646	1018.26
440.021	1033.18
440.395	1039.05
440.77	1023.46
441.145	1035.21
441.52	1083.57
441.895	1078.15
442.27	1089.22
442.645	1064.82
443.019	1110.01
443.394	1090.13
443.769	1108.43
444.143	1103.69
444.518	1122.67
444.892	1120.41
445.267	1118.37
445.641	1130.35
446.016	1158.83
446.39	1142.78
446.764	1173.29
447.139	1171.03
447.513	1184.36
447.887	1187.75
448.262	1181.88
448.636	1201.54
449.01	1226.17
449.384	1203.12
449.758	1214.42
450.132	1236.79
450.506	1239.73
450.88	1248.77
451.254	1258.71
451.628	1255.77
452.002	1271.82
452.376	1293.29
452.75	1290.57
453.123	1307.97
453.497	1331.93
453.871	1333.51
454.244	1379.16
454.618	1355.66
454.992	1362.44
455.365	1395.43
455.739	1382.32
456.112	1451.93
456.486	1443.79
456.859	1438.82
457.232	1461.42
457.606	1486.27
457.979	1495.99
458.352	1534.86
458.725	1517.01
459.099	1550.45
459.472	1555.65
459.845	1543
460.218	1588.87
460.591	1587.74
460.964	1635.42
461.337	1629.1
461.71	1666.38
462.083	1710.45
462.456	1713.84
462.829	1740.96
463.201	1733.95
463.574	1738.92
463.947	1771.46
464.32	1841.07
464.692	1841.07
465.065	1832.93
465.438	1847.39
465.81	1883.1
466.183	1914.51
466.555	1939.82
466.928	1982.08
467.3	1988.63
467.672	1998.8
468.045	2052.36
468.417	2101.85
468.789	2120.38
469.161	2084.9
469.534	2152.47
469.906	2162.87
470.278	2194.96
470.65	2203.77
471.022	2266.82
471.394	2307.04
471.766	2318.12
472.138	2335.74
472.51	2428.62
472.882	2447.61
473.253	2470.2
473.625	2527.15
473.997	2605.34
474.369	2615.51
474.74	2639.01
475.112	2678.56
475.484	2748.61
475.855	2789.97
476.227	2809.4
476.598	2911.55
476.97	2937.99
477.341	2999.46
477.713	3046.01
478.084	3077.19
478.455	3135.72
478.827	3198.09
479.198	3309.5
479.569	3306.34
479.94	3398.99
480.311	3450.74
480.682	3560.8
481.053	3608.48
481.424	3667.69
481.795	3723.5
482.166	3790.39
482.537	3869.71
482.908	3988.58
483.279	3995.59
483.65	4045.98
484.021	4156.94
484.391	4264.28
484.762	4257.05
485.133	4318.97
485.503	4439.19
485.874	4493.43
486.244	4514.9
486.615	4648.45
486.985	4757.83
487.356	4828.56
487.726	4855.9
488.097	4977.93
488.467	5039.4
488.837	5124.6
489.207	5211.15
489.578	5305.38
489.948	5290.47
490.318	5402.78
490.688	5484.36
491.058	5565.04
491.428	5611.82
491.798	5704.02
492.168	5792.83
492.538	5834.41
492.908	5945.82
493.278	5994.86
493.648	6073.72
494.017	6122.99
494.387	6189.65
494.757	6266.26
495.126	6359.82
495.496	6427.16
495.866	6384.68
496.235	6504
496.605	6619.92
496.974	6672.8
497.344	6691.56
497.713	6714.84
498.082	6785.12
498.452	6903.08
498.821	6941.95
499.19	6914.15
499.559	7031.67
499.928	7106.92
500.298	7161.15
500.667	7197.08
501.036	7173.36
501.405	7276.4
501.774	7315.05
502.143	7440.02
502.512	7419.68
502.88	7450.41
503.249	7464.87
503.618	7548.71
503.987	7606.79
504.356	7633.01
504.724	7662.61
505.093	7812.66
505.462	7703.96
505.83	7841.36
506.199	7951.87
506.567	8004.07
506.936	7955.48
507.304	8066.67
507.672	8143.05
508.041	8139.21
508.409	8211.75
508.777	8181.24
509.145	8246.32
509.514	8330.39
509.882	8308.69
510.25	8343.95
510.618	8437.96
510.986	8489.25
511.354	8545.52
511.722	8674.11
512.09	8617.84
512.458	8646.76
512.826	8750.26
513.193	8744.16
513.561	8799.08
513.929	8850.37
514.297	8930.15
514.664	8955.46
515.032	8963.37
515.4	9071.16
515.767	9086.75
516.135	9129.69
516.502	9062.12
516.869	9269.35
517.237	9236.58
517.604	9259.4
517.972	9318.38
518.339	9434.54
518.706	9384.82
519.073	9416.69
519.44	9526.74
519.808	9600.19
520.175	9577.59
520.542	9654.2
520.909	9719.05
521.276	9648.55
521.643	9816.45
522.009	9875.43
522.376	9931.93
522.743	9920.4
523.11	10023
523.477	10194.29
523.843	10157.91
524.21	10173.05
524.577	10276.1
524.943	10343.89
525.31	10343.22
525.676	10466.6
526.043	10496.43
526.409	10592.48
526.776	10755.41
527.142	10667.73
527.508	10753.83
527.874	10824.11
528.241	10883.99
528.607	10898
528.973	11007.38
529.339	11011.45
529.705	11156.53
530.071	11240.14
530.437	11288.5
530.803	11411.89
531.169	11403.08
531.535	11338.44
531.901	11463.19
532.267	11503.64
532.632	11625.22
532.998	11597.87
533.364	11686.91
533.73	11702.28
534.095	11751.09
534.461	11829.73
534.826	11925.32
535.192	11958.77
535.557	11987.24
535.923	12011.2
536.288	12128.03
536.653	12137.75
537.019	12128.48
537.384	12204.64
537.749	12208.7
538.114	12329.83
538.479	12363.28
538.845	12414.35
539.21	12431.3
539.575	12483.73
539.94	12512.2
540.305	12565.53
540.67	12577.28
541.034	12689.6
541.399	12749.93
541.764	12789.25
542.129	12814.79
542.494	12869.03
542.858	12964.16
543.223	12930.27
543.587	12999.42
543.952	13085.07
544.316	13106.08
544.681	13139.75
545.045	13192.86
545.41	13243.48
545.774	13297.49
546.138	13370.03
546.503	13383.36
546.867	13408.22
547.231	13565.28
547.595	13602.34
547.959	13651.15
548.324	13720.53
548.688	13697.48
549.052	13723.47
549.416	13753.97
549.779	13827.19
550.143	13904.48
550.507	13936.79
550.871	14035.55
551.235	14014.08
551.599	14111.71
551.962	14215.66
552.326	14292.27
552.689	14230.57
553.053	14273.51
553.417	14220.85
553.78	14459.49
554.143	14456.78
554.507	14448.42
554.87	14552.6
555.234	14610
555.597	14678.47
555.96	14673.95
556.323	14722.31
556.686	14712.37
557.05	14808.86
557.413	14897
557.776	14979.7
558.139	15044.11
558.502	15081.17
558.865	15118.46
559.228	15198.68
559.59	15203.43
559.953	15221.73
560.316	15411.11
560.679	15412.69
561.041	15515.74
561.404	15552.8
561.767	15626.24
562.129	15524.1
562.492	15731.1
562.854	15749.85
563.217	15741.72
563.579	15804.54
563.941	15987.36
564.304	15947.59
564.666	15990.3
565.028	16027.59
565.39	16173.12
565.753	16152.78
566.115	16253.57
566.477	16264.87
566.839	16315.72
567.201	16513.22
567.563	16551.87
567.925	16650.4
568.287	16680.45
568.648	16665.99
569.01	16835.25
569.372	16835.25
569.734	16845.19
570.095	16901.24
570.457	17091.97
570.819	17113.66
571.18	17114.11
571.542	17286.76
571.903	17206.31
572.265	17386.2
572.626	17398.17
572.987	17495.35
573.349	17569.02
573.71	17704.83
574.071	17862.34
574.432	17894.43
574.794	18075.44
575.155	18010.36
575.516	18101.43
575.877	18246.74
576.238	18297.58
576.599	18388.2
576.96	18474.75
577.32	18626.84
577.681	18722.66
578.042	18929.88
578.403	18995.42
578.763	19052.82
579.124	19204.68
579.485	19402.64
579.845	19743.87
580.206	19695.51
580.566	19864.77
580.927	20036.07
581.287	20305.44
581.648	20379.11
582.008	20745.43
582.368	20732.32
582.728	21023.84
583.089	21129.37
583.449	21323.49
583.809	21618.17
584.169	21933.87
584.529	21999.41
584.889	22451.82
585.249	22471.26
585.609	22741.31
585.969	23195.53
586.329	23304.68
586.688	23616.99
587.048	23904.67
587.408	24097.21
587.768	24370.64
588.127	24706.91
588.487	25014.47
588.846	25557.28
589.206	25543.72
589.565	26071.84
589.925	26436.35
590.284	26585.5
590.643	27001.31
591.003	27410.34
591.362	27825.02
591.721	28026.59
592.08	28540.93
592.44	28897.31
592.799	29354.24
593.158	29580.9
593.517	30025.41
593.876	30380.2
594.235	30678.73
594.593	31044.59
594.952	31574.97
595.311	31811.13
595.67	32240.95
596.029	32765.9
596.387	33174.25
596.746	33520.01
597.104	33688.14
597.463	34118.41
597.822	34646.98
598.18	34877.49
598.538	35323.8
598.897	35705.94
599.255	35889.21
599.613	36801.28
599.972	36837.89
600.33	37249.18
600.688	37449.85
601.046	38022.26
601.404	38510.84
601.762	38587.67
602.12	39227.65
602.478	39675.1
602.836	39793.74
603.194	40114.19
603.552	40444.8
603.91	40644.11
604.268	41148.51
604.625	41465.79
604.983	41705.1
605.341	41796.18
605.698	42295.37
606.056	42596.83
606.413	43016.03
606.771	43219.41
607.128	43705.5
607.485	43639.74
607.843	44141.2
608.2	44470.91
608.557	44845.59
608.914	45001.74
609.272	45372.35
609.629	45603.31
609.986	45970.98
610.343	46022.5
610.7	46495.03
611.057	46559.21
611.414	46772.77
611.771	47034.68
612.127	47357.38
612.484	47580.43
612.841	47815.68
613.198	47806.41
613.554	47886.18
613.911	48497.92
614.267	48510.12
614.624	48594.87
614.98	48871.24
615.337	49215.64
615.693	49217.67
616.05	49288.63
616.406	49682.07
616.762	49643.65
617.118	49842.29
617.475	49908.28
617.831	50044.32
618.187	50213.81
618.543	50445.89
618.899	50692.44
619.255	50626.23
619.611	50717.52
619.967	50990.51
620.323	51114.35
620.678	51034.8
621.034	51033.67
621.39	51193.22
621.746	51149.38
622.101	51703.26
622.457	51518.41
622.812	51663.03
623.168	51768.34
623.523	51763.82
623.879	52057.83
624.234	51768.79
624.589	51986.42
624.945	52066.64
625.3	52183.47
625.655	52196.13
626.01	52301.21
626.365	52359.29
626.72	52394.77
627.075	52262.57
627.43	52411.49
627.785	52376.91
628.14	52516.8
628.495	52590.02
628.85	52654.42
629.205	52645.83
629.559	52797.24
629.914	52664.36
630.269	52669.79
630.623	52633.63
630.978	52656.91
631.332	52788.88
631.687	52831.14
632.041	52740.52
632.396	52873.17
632.75	52720.86
633.104	52855.09
633.459	52773.06
633.813	52790.69
634.167	52825.49
634.521	52824.81
634.875	52855.09
635.229	52836.11
635.583	52635.89
635.937	52818.03
636.291	52742.78
636.645	52894.64
636.999	52690.58
637.352	52814.87
637.706	52661.88
638.06	52754.08
638.413	52794.3
638.767	52686.96
639.121	52788.65
639.474	52605.83
639.828	52706.17
640.181	52741.65
640.534	52705.72
640.888	52645.83
641.241	52557.25
641.594	52689.22
641.947	52704.59
642.301	52597.92
642.654	52713.63
643.007	52694.19
643.36	52623.91
643.713	52602.67
644.066	52782.33
644.419	52548.21
644.771	52313.86
645.124	52032.97
645.477	51981.22
645.83	51804.27
646.182	51796.14
646.535	51564.28
646.888	51839.07
647.24	51548.69
647.593	51751.85
647.945	51717.27
648.298	51499.87
648.65	51465.75
649.002	51437.5
649.355	51528.12
649.707	51495.81
650.059	51658.51
650.411	51998.84
650.763	52087.43
651.115	52391.38
651.467	52314.99
651.819	52284.49
652.171	52106.64
652.523	52066.64
652.875	52224.83
653.227	52045.17
653.578	52234.09
653.93	52246.97
654.282	52018.05
654.633	51863.25
654.985	52157.26
655.337	52063.48
655.688	52137.37
656.039	52221.66
656.391	51871.39
656.742	51907.1
657.094	51979.64
657.445	52126.07
657.796	52079.29
658.147	51993.65
658.498	51965.4
658.849	52046.98
659.2	52044.72
659.551	51837.49
659.902	51969.01
660.253	51967.43
660.604	52049.46
660.955	51729.93
661.306	51968.79
661.656	51883.59
662.007	52009.69
662.358	51881.11
662.708	51935.34
663.059	51866.64
663.409	51762.69
663.76	51960.65
664.11	51858.28
664.461	51900.54
664.811	51967.88
665.161	51973.31
665.511	51977.6
665.862	51851.5
666.212	51876.59
666.562	51943.03
666.912	51812.63
667.262	51922.46
667.612	51909.13
667.962	51912.97
668.312	51838.85
668.662	51898.06
669.011	51840.2
669.361	51675.24
669.711	51663.03
670.06	51729.02
670.41	51660.1
670.76	51618.52
671.109	51744.84
671.459	51661.68
671.808	51632.07
672.157	51629.59
672.507	51427.11
672.856	51516.82
673.205	51603.6
673.554	51630.27
673.904	51447.45
674.253	51667.33
674.602	51574.45
674.951	51126.33
675.3	50911.87
675.649	51392.31
675.998	51449.71
676.346	51498.74
676.695	51654.9
677.044	51334.46
677.393	51465.53
677.741	51455.58
678.09	51316.15
678.438	51221.24
678.787	51337.17
679.135	51402.02
679.484	51061.02
679.832	51164.52
680.181	51090.39
680.529	51133.78
680.877	50985.31
681.225	51017.4
681.573	51131.3
681.922	50886.56
682.27	50845.65
682.618	50882.26
682.966	50845.65
683.314	50858.54
683.661	50595.27
684.009	50505.78
684.357	50459.45
684.705	50525.89
685.053	50413.12
685.4	50538.54
685.748	50316.85
686.095	50324.09
686.443	50180.59
686.79	50195.95
687.138	50210.19
687.485	50148.95
687.832	49935.85
688.18	50071.21
688.527	49925.45
688.874	49820.6
689.221	49830.54
689.568	49678.23
689.915	49611.56
690.262	49659.47
690.609	49451.79
690.956	49294.06
691.303	49409.99
691.65	49225.13
691.997	49195.3
692.344	48933.39
692.69	48907.4
693.037	48915.54
693.383	48542.89
693.73	48845.93
694.077	48565.71
694.423	48553.74
694.769	48381.31
695.116	48389.45
695.462	48298.38
695.808	48145.61
696.155	48278.94
696.501	47920.31
696.847	47886.18
697.193	47566.87
697.539	47806.19
697.885	47627.21
698.231	47475.12
698.577	47537.27
698.923	47299.31
699.269	47260.66
699.614	47065.42
699.96	46936.15
700.306	46982.48
700.651	46811.64
700.997	46752.43
701.342	46750.62
701.688	46640.34
702.033	46343.85
702.379	46404.42
702.724	46341.59
703.069	46286.9
703.415	45999.68
703.76	45929.17
704.105	45926.01
704.45	45827.71
704.795	45618.22
705.14	45480.82
705.485	45526.7
705.83	45432.69
706.175	45395.63
706.52	45234.05
706.865	45151.34
707.209	45058.01
707.554	44999.93
707.899	44910.9
708.243	44734.18
708.588	44739.6
708.932	44496.22
709.277	44430.23
709.621	44458.7
709.966	44284.25
710.31	44179.39
710.654	43825.05
710.998	44102.78
711.342	44013.74
711.687	43905.27
712.031	43719.06
712.375	43533.53
712.719	43688.1
713.063	43539.86
713.407	43567.2
713.75	43410.82
714.094	43301.9
714.438	43155.91
714.782	43301.22
715.125	43051.74
715.469	43110.49
715.812	42934.45
716.156	42633.67
716.499	42755.47
716.843	42816.49
717.186	42539.88
717.53	42757.05
717.873	42693.33
718.216	42611.07
718.559	42409.27
718.902	42185.54
719.246	42294.92
719.589	42018.99
719.932	42036.39
720.275	41988.03
720.617	41903.06
720.96	41849.28
721.303	41904.42
721.646	41894.48
721.989	41555.73
722.331	41869.62
722.674	41600.25
723.016	41581.72
723.359	41427.15
723.701	41557.54
724.044	41219.69
724.386	41153.03
724.729	41283.87
725.071	41197.09
725.413	41112.58
725.755	41056.99
726.097	40925.01
726.439	40646.15
726.782	40745.58
727.124	40862.19
727.465	40633.27
727.807	40587.17
728.149	40565.25
728.491	40489.09
728.833	40493.61
729.175	40417.23
729.516	40341.07
729.858	40082.77
730.199	40368.87
730.541	40233.96
730.882	40117.12
731.224	40245.71
731.565	39921.42
731.906	39913.51
732.248	40012.95
732.589	39768.66
732.93	39695.67
733.271	39739.28
733.612	39790.35
733.953	39829.22
734.294	39571.6
734.635	39342.91
734.976	39574.99
735.317	39257.26
735.658	39480.76
735.999	39333.87
736.339	39230.82
736.68	39378.39
737.021	39147.88
737.361	38926.65
737.702	39202.34
738.042	39083.48
738.383	38939.75
738.723	38972.97
739.063	38810.26
739.404	38857.72
739.744	38860.21
740.084	38699.31
740.424	38551.06
740.764	38518.3
741.104	38634.22
741.444	38410.73
741.784	38345.42
742.124	38444.85
742.464	38356.94
742.804	38262.93
743.143	38089.61
743.483	38245.76
743.823	37955.15
744.162	37962.83
744.502	38072.21
744.841	37982.04
745.181	37970.96
745.52	37889.61
745.86	37726.23
746.199	37718.77
746.538	37811.42
746.877	37771.2
747.216	37692.1
747.556	37598.55
747.895	37613.91
748.234	37436.29
748.573	37387.25
748.911	37401.94
749.25	37260.02
749.589	37149.52
749.928	37265.22
750.267	37338.21
750.605	37097.09
750.944	37104.32
751.283	36888.28
751.621	36933.25
751.96	36789.75
752.298	36720.83
752.636	36863.42
752.975	36583.66
753.313	36483.77
753.651	36621.17
753.989	36393.38
754.327	36356.09
754.666	36234.29
755.004	36272.7
755.342	36209.88
755.679	36093.27
756.017	35948.87
756.355	36021.86
756.693	35765.15
757.031	35907.06
757.368	35595.89
757.706	35664.36
758.044	35522.89
758.381	35537.36
758.719	35405.61
759.056	35494.65
759.394	35199.29
759.731	35063.47
760.068	34967.65
760.405	34971.5
760.743	34842.91
761.08	34865.74
761.417	34644.27
761.754	34680.66
762.091	34727.89
762.428	34556.59
762.765	34253.55
763.102	34447.67
763.438	34290.16
763.775	34143.95
764.112	34261.01
764.449	34213.32
764.785	33883.39
765.122	33671.64
765.458	33642.72
765.795	33578.31
766.131	33626.22
766.467	33509.61
766.804	33229.17
767.14	33008.61
767.476	32980.14
767.812	32920.93
768.148	32950.31
768.485	32744.44
768.821	32537.66
769.157	32564.33
769.492	32365.91
769.828	32396.65
770.164	32109.65
770.5	32057.67
770.836	31974.74
771.171	31777.23
771.507	31745.37
771.842	31521.64
772.178	31458.59
772.513	31428.99
772.849	31318.94
773.184	31186.74
773.519	31176.57
773.855	30998.94
774.19	30886.86
774.525	30725.05
774.86	30623.81
775.195	30786.3
775.53	30629.01
775.865	30379.75
776.2	30271.96
776.535	29899.54
776.87	30015.92
777.205	29909.93
777.539	29784.29
777.874	29848.01
778.209	29604.63
778.543	29609.6
778.878	29396.95
779.212	29465.43
779.547	29190.4
779.881	29286.67
780.215	28960.58
780.55	29063.63
780.884	28858.44
781.218	28701.38
781.552	28614.37
781.886	28542.29
782.22	28355.17
782.554	28307.49
782.888	28098.23
783.222	28083.54
783.556	27961.96
783.889	27873.83
784.223	27677.22
784.557	27579.15
784.89	27594.97
785.224	27387.74
785.557	27307.74
785.891	27279.72
786.224	27134.87
786.558	27081.99
786.891	26924.02
787.224	26906.17
787.557	26713.18
787.891	26629.34
788.224	26581.43
788.557	26623.01
788.89	26388.22
789.223	26529.91
789.556	26295.57
789.888	26285.17
790.221	26045.4
790.554	25828.23
790.887	25885.41
791.219	25808.12
791.552	25698.07
791.884	25651.97
792.217	25530.84
792.549	25543.72
792.882	25338.98
793.214	25211.53
793.546	25322.71
793.879	25067.8
794.211	24985.32
794.543	25099.21
794.875	24979.89
795.207	24940.12
795.539	24770.86
795.871	24702.16
796.203	24542.17
796.535	24386.01
796.867	24379.01
797.198	24369.74
797.53	24297.43
797.862	24137.43
798.193	24224.89
798.525	24005.46
798.856	24158.22
799.188	23753.94
799.519	23686.14
799.85	23616.99
800.182	23645.92
800.513	23648.63
800.844	23324.34
801.175	23384.46
801.506	23434.85
801.837	23394.17
802.168	23305.59
802.499	23197.34
802.83	23002.77
803.161	22905.15
803.491	22924.13
803.822	22937.24
804.153	22857.46
804.483	22632.61
804.814	22609.33
805.145	22478.94
805.475	22601.43
805.805	22394.2
806.136	22426.74
806.466	22469.23
806.796	22283.24
807.126	22153.53
807.457	22047.99
807.787	22039.41
808.117	21972.29
808.447	21874.21
808.777	21870.82
809.107	21835.8
809.436	21744.5
809.766	21699.3
810.096	21712.64
810.426	21551.74
810.755	21563.26
811.085	21584.73
811.414	21471.96
811.744	21291.4
812.073	21293.89
812.403	21190.84
812.732	21133.22
813.061	21170.28
813.39	21034.91
813.719	20954.01
814.049	21123.5
814.378	20880.34
814.707	20817.29
815.036	20772.32
815.365	20662.27
815.693	20607.35
816.022	20554.7
816.351	20462.95
816.68	20380.24
817.008	20514.7
817.337	20314.93
817.665	20242.17
817.994	20274.93
818.322	20241.94
818.651	20027.93
818.979	20083.07
819.307	20126.01
819.636	20144.31
819.964	19905.68
820.292	20101.15
820.62	20012.34
820.948	19886.47
821.276	19964.66
821.604	19932.34
821.932	19907.26
822.259	19923.76
822.587	19762.63
822.915	19860.25
823.243	19956.98
823.57	19909.74
823.898	19842.18
824.225	19759.92
824.553	19787.49
824.88	19798.79
825.207	19812.8
825.535	19752.23
825.862	19829.29
826.189	19775.29
826.516	19873.81
826.843	19802.86
827.17	19902.29
827.497	19808.05
827.824	19814.38
828.151	19771.67
828.478	19839.24
828.805	19793.59
829.131	19804.44
829.458	19736.42
829.785	19728.28
830.111	19707.26
830.438	19839.01
830.764	19799.24
831.09	19799.92
831.417	19605.57
831.743	19768.96
832.069	19699.58
832.395	19667.49
832.722	19629.07
833.048	19732.8
833.374	19647.15
833.7	19495.29
834.026	19613.03
834.351	19569.87
834.677	19529.42
835.003	19523.99
835.329	19488.06
835.654	19465.01
835.98	19487.61
836.306	19480.15
836.631	19383.88
836.956	19423.66
837.282	19432.47
837.607	19380.95
837.932	19268.86
838.258	19283.32
838.583	19191.8
838.908	19088.07
839.233	19234.96
839.558	19096.21
839.883	19033.61
840.208	18833.39
840.533	19007.62
840.858	18990.9
841.182	18997.23
841.507	18946.61
841.832	18801.3
842.156	18845.82
842.481	18801.53
842.805	18785.93
843.13	18702.32
843.454	18663.9
843.778	18690.12
844.103	18546.39
844.427	18511.14
844.751	18493.06
845.075	18478.14
845.399	18565.15
845.723	18360.18
846.047	18336.45
846.371	18212.61
846.695	18143.24
847.019	18023.01
847.343	17943.47
847.666	17858.27
847.99	17796.13
848.313	17716.58
848.637	17532.41
848.96	17547.1
849.284	17516.14
849.607	17436.59
849.931	17415.8
850.254	17328.34
850.577	17139.42
850.9	17078.18
851.223	17018.52
851.546	17013.55
851.869	16906.43
852.192	16971.97
852.515	16730.39
852.838	16693.56
853.161	16709.6
853.483	16665.99
853.806	16552.09
854.129	16447.46
854.451	16425.32
854.774	16376.05
855.096	16275.04
855.419	16233.01
855.741	16342.38
856.063	16168.83
856.385	16109.84
856.708	15982.16
857.03	16033.91
857.352	16142.84
857.674	16075.04
857.996	15894.03
858.318	15872.11
858.64	15864.43
858.961	15699.69
859.283	15657.65
859.605	15655.62
859.926	15706.47
860.248	15698.1
860.57	15523.65
860.891	15530.65
861.212	15468.73
861.534	15326.14
861.855	15422.86
862.176	15414.72
862.498	15404.33
862.819	15409.3
863.14	15321.39
863.461	15298.57
863.782	15227.83
864.103	15227.16
864.424	15183.09
864.745	15174.28
865.065	15069.42
865.386	14939.48
865.707	15036.2
866.027	14970.67
866.348	14983.55
866.668	14995.07
866.989	14938.58
867.309	14888.18
867.63	14898.35
867.95	14859.03
868.27	14702.42
868.59	14752.82
868.91	14643.67
869.23	14627.4
869.55	14592.82
869.87	14744.23
870.19	14716.44
870.51	14737.45
870.83	14613.39
871.15	14550.11
871.469	14574.97
871.789	14616.55
872.109	14573.39
872.428	14419.72
872.748	14436.22
873.067	14423.56
873.386	14450.68
873.706	14392.15
874.025	14367.29
874.344	14291.36
874.663	14291.81
874.982	14214.08
875.301	14280.97
875.62	14171.14
875.939	14240.97
876.258	14210.01
876.577	14165.26
876.896	14156.45
877.214	14126.39
877.533	14152.16
877.852	14081.42
878.17	14064.02
878.489	14140.18
878.807	14125.94
879.125	13958.04
879.444	13946.74
879.762	13901.77
880.08	13973.4
880.398	13793.52
880.716	13855.89
881.034	13814.76
881.352	13878.49
881.67	13806.4
881.988	13732.28
882.306	13705.16
882.624	13718.72
882.941	13635.79
883.259	13589.91
883.577	13586.3
883.894	13513.98
884.212	13522.12
884.529	13547.43
884.846	13515.79
885.164	13515.34
885.481	13431.95
885.798	13349.69
886.115	13332.97
886.432	13256.36
886.75	13307.43
887.067	13295.23
887.383	13185.4
887.7	13250.26
888.017	13158.28
888.334	13162.35
888.651	13109.7
888.967	13094.78
889.284	13022.92
889.6	12989.25
889.917	12886.43
890.233	12832.87
890.55	12934.11
890.866	12852.98
891.182	12776.83
891.498	12815.69
891.815	12774.11
892.131	12642.59
892.447	12621.12
892.763	12577.28
893.079	12552.42
893.395	12456.61
893.71	12495.48
894.026	12458.87
894.342	12413.9
894.657	12399.66
894.973	12282.37
895.289	12317.63
895.604	12304.07
895.92	12199.89
896.235	12115.37
896.55	12090.97
896.865	12068.14
897.181	12030.4
897.496	12052.32
897.811	11936.62
898.126	11949.28
898.441	11858.43
898.756	11799.45
899.071	11739.56
899.386	11758.32
899.7	11662.5
900.015	11578.44
900.33	11534.37
900.644	11589.06
900.959	11570.53
901.273	11476.75
901.588	11430.42
901.902	11414.83
902.216	11391.55
902.531	11276.53
902.845	11258.9
903.159	11259.35
903.473	11164.89
903.787	11106.59
904.101	11123.08
904.415	11035.18
904.729	11015.06
905.042	11066.36
905.356	10902.07
905.67	10869.3
905.984	10938.68
906.297	10884.67
906.611	10811.23
906.924	10775.3
907.237	10658.69
907.551	10759.93
907.864	10646.03
908.177	10688.07
908.491	10601.06
908.804	10466.6
909.117	10402.88
909.43	10444.91
909.743	10385.93
910.056	10278.59
910.368	10239.49
910.681	10211.47
910.994	10288.53
911.307	10238.13
911.619	10175.09
911.932	10189.1
912.244	10039.04
912.557	9992.04
912.869	9987.07
913.181	10007.41
913.494	9837.02
913.806	9818.03
914.118	9787.53
914.43	9725.38
914.742	9754.98
915.054	9670.47
915.366	9617.81
915.678	9615.33
915.99	9601.32
916.302	9497.14
916.613	9531.49
916.925	9520.41
917.236	9383.69
917.548	9405.61
917.859	9385.73
918.171	9280.42
918.482	9264.38
918.794	9157.49
919.105	9172.63
919.416	9119.52
919.727	9086.53
920.038	9072.06
920.349	8986.64
920.66	8943.25
920.971	8934.89
921.282	8882.24
921.593	8827.32
921.903	8816.7
922.214	8752.07
922.525	8750.72
922.835	8654
923.146	8621.45
923.456	8630.27
923.767	8617.84
924.077	8544.17
924.387	8493.32
924.697	8470.05
925.008	8463.04
925.318	8419.2
925.628	8378.75
925.938	8402.02
926.248	8284.06
926.558	8268.47
926.867	8255.14
927.177	8231.86
927.487	8141.92
927.796	8011.07
928.106	8128.81
928.416	7965.88
928.725	8051.3
929.034	7940.34
929.344	8013.33
929.653	7990.96
929.962	7878.87
930.271	7861.93
930.581	7769.95
930.89	7813.34
931.199	7764.53
931.508	7701.7
931.817	7622.84
932.125	7670.97
932.434	7626.68
932.743	7568.37
933.051	7484.31
933.36	7498.32
933.669	7390.75
933.977	7393.24
934.286	7426.91
934.594	7379
934.902	7269.17
935.21	7296.52
935.519	7256.52
935.827	7229.85
936.135	7200.02
936.443	7128.84
936.751	7139.01
937.059	7108.27
937.367	7048.61
937.674	7059.91
937.982	7031.67
938.29	7005.23
938.597	6966.58
938.905	6869.64
939.213	6908.05
939.52	6831.44
939.827	6835.29
940.135	6813.14
940.442	6808.17
940.749	6740.6
941.056	6757.1
941.363	6648.17
941.67	6662.41
941.977	6618.57
942.284	6547.38
942.591	6598
942.898	6517.33
943.205	6523.2
943.511	6456.99
943.818	6460.15
944.125	6407.05
944.431	6410.44
944.738	6350.1
945.044	6334.06
945.35	6308.52
945.657	6257.9
945.963	6231.46
946.269	6220.61
946.575	6247.28
946.881	6140.16
947.187	6152.14
947.493	6144.46
947.799	6071.92
948.105	6016.78
948.41	6008.19
948.716	6024.69
949.022	5978.81
949.327	5960.96
949.633	5919.15
949.938	5927.51
950.244	5922.77
950.549	5848.42
950.854	5844.58
951.16	5832.37
951.465	5784.24
951.77	5742.66
952.075	5750.34
952.38	5657.92
952.685	5690.91
952.99	5651.81
953.294	5651.36
953.599	5593.29
953.904	5537.92
954.209	5537.47
954.513	5525.94
954.818	5489.56
955.122	5509.9
955.426	5475.55
955.731	5415.21
956.035	5365.27
956.339	5363.91
956.643	5369.79
956.948	5265.84
957.252	5297.47
957.556	5291.6
957.86	5221.77
958.163	5235.33
958.467	5200.75
958.771	5203.46
959.075	5142.45
959.378	5091.38
959.682	5111.94
959.985	5099.96
960.289	5062.68
960.592	5059.97
960.896	5021.1
961.199	5011.61
961.502	4978.61
961.805	4931.16
962.108	4925.05
962.411	4906.07
962.714	4857.03
963.017	4860.65
963.32	4863.59
963.623	4812.74
963.926	4844.83
964.228	4769.8
964.531	4805.28
964.833	4766.87
965.136	4713.31
965.438	4718.51
965.741	4685.96
966.043	4687.09
966.345	4657.49
966.648	4634.21
966.95	4584.72
967.252	4624.72
967.554	4585.18
967.856	4543.82
968.158	4476.48
968.46	4501.79
968.761	4480.32
969.063	4459.53
969.365	4414.11
969.666	4439.19
969.968	4428.12
970.269	4365.29
970.571	4359.42
970.872	4367.78
971.174	4301.79
971.475	4292.3
971.776	4302.02
972.077	4278.52
972.378	4259.08
972.679	4255.92
972.98	4199.88
973.281	4194.23
973.582	4211.4
973.883	4185.19
974.183	4125.08
974.484	4135.92
974.785	4110.84
975.085	4103.83
975.386	4074.91
975.686	3997.62
975.986	4022.25
976.287	4025.42
976.587	3955.14
976.887	3957.62
977.187	3903.16
977.487	3947.9
977.787	3893.22
978.087	3919.88
978.387	3838.98
978.687	3834.01
978.987	3871.97
979.286	3792.65
979.586	3833.78
979.885	3774.35
980.185	3782.49
980.484	3749.94
980.784	3747.46
981.083	3745.65
981.382	3714.24
981.682	3673.79
981.981	3665.2
982.28	3661.36
982.579	3617.97
982.878	3614.35
983.177	3612.32
983.475	3621.81
983.774	3570.97
984.073	3536.84
984.372	3514.47
984.67	3532.32
984.969	3524.64
985.267	3511.53
985.566	3461.82
985.864	3476.5
986.162	3476.96
986.461	3453.23
986.759	3375.26
987.057	3368.48
987.355	3410.97
987.653	3363.51
987.951	3384.53
988.249	3319.45
988.547	3344.3
988.844	3292.33
989.142	3260.92
989.44	3266.79
989.737	3261.37
990.035	3203.97
990.332	3262.05
990.63	3196.96
990.927	3192.22
991.224	3194.48
991.521	3149.06
991.819	3179.11
992.116	3159.45
992.413	3133.46
992.71	3071.09
993.006	3075.39
993.303	3094.37
993.6	3048.27
993.897	3036.29
994.193	3045.1
994.49	3000.13
994.787	3020.47
995.083	2949.51
995.379	2985.9
995.676	2953.13
995.972	2940.02
996.268	2933.69
996.565	2915.39
996.861	2922.39
997.157	2869.51
997.453	2899.57
997.749	2844.2
998.044	2824.09
998.34	2812.34
998.636	2782.74
998.932	2780.48
999.227	2746.35
999.523	2783.42
999.818	2760.59
1000.114	2741.16
1000.409	2698.67
1000.704	2680.82
1001	2690.08
1001.295	2676.3
1001.59	2680.59
1001.885	2655.28
1002.18	2597.66
1002.475	2616.64
1002.77	2563.99
1003.065	2579.81
1003.359	2556.08
1003.654	2544.33
1003.949	2520.82
1004.243	2548.85
1004.538	2521.5
1004.832	2471.56
1005.127	2474.27
1005.421	2460.49
1005.715	2462.07
1006.009	2435.63
1006.304	2415.52
1006.598	2422.07
1006.892	2430.66
1007.186	2380.49
1007.48	2395.18
1007.773	2376.87
1008.067	2357.44
1008.361	2344.56
1008.655	2333.26
1008.948	2286.03
1009.242	2322.86
1009.535	2313.6
1009.829	2257.33
1010.122	2239.02
1010.415	2223.66
1010.708	2216.65
1011.001	2206.48
1011.295	2184.11
1011.588	2188.63
1011.881	2169.65
1012.173	2151.12
1012.466	2152.7
1012.759	2108.86
1013.052	2152.7
1013.344	2091
1013.637	2098.46
1013.93	2092.59
1014.222	2073.83
1014.514	2087.39
1014.807	2085.58
1015.099	2042.87
1015.391	2007.39
1015.683	1993.83
1015.976	1964.68
1016.268	1987.28
1016.56	1929.88
1016.851	1942.76
1017.143	1956.77
1017.435	1888.07
1017.727	1896.43
1018.018	1897.11
1018.31	1901.86
1018.602	1884.46
1018.893	1845.36
1019.185	1862.08
1019.476	1839.03
1019.767	1827.73
1020.058	1838.36
1020.35	1780.05
1020.641	1785.93
1020.932	1782.54
1021.223	1761.3
1021.514	1759.49
1021.804	1743.89
1022.095	1722.2
1022.386	1723.56
1022.677	1715.2
1022.967	1695.31
1023.258	1669.55
1023.548	1679.04
1023.839	1674.52
1024.129	1641.07
1024.419	1636.33
1024.709	1632.03
1025	1591.36
1025.29	1659.6
1025.58	1578.48
1025.87	1563.79
1026.16	1577.12
1026.449	1571.47
1026.739	1528.08
1027.029	1552.94
1027.319	1550.23
1027.608	1509.1
1027.898	1515.88
1028.187	1486.95
1028.477	1506.39
1028.766	1486.5
1029.055	1425.03
1029.344	1470.23
1029.634	1430
1029.923	1434.3
1030.212	1435.65
1030.501	1403.11
1030.79	1406.5
1031.078	1392.72
1031.367	1382.32
1031.656	1378.03
1031.945	1387.07
1032.233	1371.02
1032.522	1327.41
1032.81	1345.94
1033.099	1318.6
1033.387	1310.23
1033.675	1333.51
1033.963	1330.35
1034.251	1305.94
1034.54	1294.64
1034.828	1277.92
1035.116	1298.26
1035.403	1262.1
1035.691	1229.11
1035.979	1239.5
1036.267	1238.82
1036.554	1205.38
1036.842	1207.19
1037.129	1201.31
1037.417	1187.98
1037.704	1177.13
1037.992	1177.13
1038.279	1150.24
1038.566	1140.97
1038.853	1140.97
1039.14	1140.97
