Data from hue_320_FLMS001491_35.txt Node
Date: Mon Feb 06 15:47:07 GMT 2017
User: dcchb
Spectrometer: FLMS00149
Trigger mode: 0
Integration Time (sec): 2.000000E-2
Scans to average: 10
Electric dark correction enabled: true
Nonlinearity correction enabled: false
Boxcar width: 0
XAxis mode: Wavelengths
Number of Pixels in Spectrum: 2048
>>>>>Begin Spectral Data<<<<<
341.393	-30.51
341.776	-30.51
342.16	-30.51
342.543	-51.3
342.927	-60.11
343.31	-77.51
343.693	-64.63
344.077	-60.79
344.46	-77.96
344.843	-61.47
345.226	-46.78
345.61	-17.4
345.993	-9.49
346.376	-8.36
346.759	24.41
347.142	27.12
347.525	50.39
347.908	47.23
348.291	76.61
348.674	97.85
349.057	100.79
349.44	137.85
349.823	146.66
350.206	140.11
350.588	198.86
350.971	211.52
351.354	229.37
351.737	239.09
352.119	246.1
352.502	265.08
352.884	288.35
353.267	285.64
353.65	298.75
354.032	286.09
354.414	300.56
354.797	310.05
355.179	338.3
355.562	305.53
355.944	318.18
356.326	325.64
356.709	324.74
357.091	356.15
357.473	347.79
357.855	347.79
358.238	324.96
358.62	322.7
359.002	343.04
359.384	323.83
359.766	348.69
360.148	338.97
360.53	351.4
360.912	353.89
361.294	328.58
361.676	335.58
362.057	331.97
362.439	318.64
362.821	326.77
363.203	327.22
363.584	336.04
363.966	308.69
364.348	300.11
364.729	333.55
365.111	318.86
365.493	327.67
365.874	319.99
366.256	296.94
366.637	320.9
367.019	307.11
367.4	311.18
367.781	308.92
368.163	324.29
368.544	317.28
368.925	315.92
369.306	327.45
369.688	307.34
370.069	308.69
370.45	303.95
370.831	313.21
371.212	331.52
371.593	296.72
371.974	312.08
372.355	316.38
372.736	296.04
373.117	312.08
373.498	309.82
373.879	306.43
374.26	302.36
374.641	328.35
375.021	338.97
375.402	312.99
375.783	325.19
376.163	313.44
376.544	320.44
376.925	340.56
377.305	311.18
377.686	310.05
378.066	329.03
378.447	323.16
378.827	324.96
379.208	336.71
379.588	329.71
379.968	352.53
380.349	329.26
380.729	341.91
381.109	312.99
381.489	348.92
381.87	330.61
382.25	354.79
382.63	340.1
383.01	352.53
383.39	340.33
383.77	336.04
384.15	334.45
384.53	353.21
384.91	343.72
385.29	341.69
385.67	348.92
386.049	347.11
386.429	356.83
386.809	357.28
387.189	341.69
387.568	358.86
387.948	328.8
388.328	336.26
388.707	352.31
389.087	383.27
389.466	336.94
389.846	345.98
390.225	346.66
390.605	338.75
390.984	358.63
391.363	369.93
391.743	351.63
392.122	383.27
392.501	366.09
392.881	369.48
393.26	375.58
393.639	381.01
394.018	371.29
394.397	382.59
394.776	400.67
395.155	397.05
395.534	373.78
395.913	395.24
396.292	376.94
396.671	379.2
397.05	396.15
397.429	401.12
397.808	386.2
398.186	405.87
398.565	402.25
398.944	400.44
399.323	417.16
399.701	394.79
400.08	371.74
400.458	407.9
400.837	391.63
401.215	394.34
401.594	427.56
401.972	425.75
402.351	431.18
402.729	417.84
403.107	416.03
403.486	434.79
403.864	393.44
404.242	411.74
404.62	406.54
404.999	433.43
405.377	415.36
405.755	424.62
406.133	439.08
406.511	455.81
406.889	432.76
407.267	448.58
407.645	451.06
408.023	454
408.401	472.53
408.779	464.85
409.156	461
409.534	473.66
409.912	496.94
410.29	480.67
410.667	495.13
411.045	505.07
411.422	494.68
411.8	479.99
412.178	489.48
412.555	508.24
412.933	498.74
413.31	515.01
413.687	512.53
414.065	525.18
414.442	546.2
414.819	540.32
415.197	551.85
415.574	562.7
415.951	562.47
416.328	567.67
416.705	565.86
417.082	546.65
417.46	584.62
417.837	567.89
418.214	579.87
418.591	597.72
418.967	603.15
419.344	598.4
419.721	617.84
420.098	618.06
420.475	644.28
420.852	631.4
421.228	648.8
421.605	662.36
421.982	642.92
422.358	653.77
422.735	696.48
423.111	676.82
423.488	672.98
423.864	684.95
424.241	692.41
424.617	691.96
424.994	707.78
425.37	697.83
425.746	706.65
426.123	710.26
426.499	712.07
426.875	730.38
427.251	750.71
427.627	761.56
428.003	775.35
428.379	749.81
428.756	769.92
429.132	789.58
429.507	807.66
429.883	787.78
430.259	822.8
430.635	825.74
431.011	796.14
431.387	806.31
431.763	849.47
432.138	859.86
432.514	868.9
432.89	849.24
433.265	884.27
433.641	889.92
434.016	906.87
434.392	912.74
434.767	892.41
435.143	936.7
435.518	928.56
435.894	924.04
436.269	915.91
436.644	943.25
437.02	960.2
437.395	962.91
437.77	971.73
438.145	995
438.52	989.13
438.895	1011.95
439.271	1014.89
439.646	1024.83
440.021	1037.49
440.395	1034.55
440.77	1006.3
441.145	1045.62
441.52	1048.56
441.895	1047.88
442.27	1061.44
442.645	1057.6
443.019	1049.69
443.394	1071.16
443.769	1077.49
444.143	1070.71
444.518	1097.37
444.892	1093.53
445.267	1094.66
445.641	1118.16
446.016	1145.28
446.39	1117.71
446.764	1086.53
447.139	1097.37
447.513	1110.48
447.887	1130.37
448.262	1100.76
448.636	1124.72
449.01	1139.41
449.384	1152.06
449.758	1142.12
450.132	1176.01
450.506	1178.27
450.88	1162.46
451.254	1179.18
451.628	1204.26
452.002	1186.41
452.376	1194.32
452.75	1195.9
453.123	1218.73
453.497	1214.88
453.871	1226.18
454.244	1249.91
454.618	1223.02
454.992	1249.68
455.365	1247.42
455.739	1288.55
456.112	1285.84
456.486	1327.65
456.859	1290.59
457.232	1316.58
457.606	1323.13
457.979	1333.52
458.352	1336.91
458.725	1394.77
459.099	1354.09
459.472	1380.75
459.845	1354.31
460.218	1402.9
460.591	1414.88
460.964	1388.21
461.337	1438.38
461.71	1443.8
462.083	1440.41
462.456	1472.5
462.829	1487.87
463.201	1464.37
463.574	1459.17
463.947	1504.14
464.32	1508.21
464.692	1529.68
465.065	1510.24
465.438	1578.72
465.81	1557.93
466.183	1585.04
466.555	1605.83
466.928	1605.61
467.3	1597.92
467.672	1614.42
468.045	1651.71
468.417	1632.95
468.789	1652.61
469.161	1684.02
469.534	1688.32
469.906	1723.8
470.278	1733.06
470.65	1719.05
471.022	1767.86
471.394	1777.13
471.766	1797.69
472.138	1802.44
472.51	1826.84
472.882	1868.88
473.253	1868.65
473.625	1872.04
473.997	1933.28
474.369	1920.18
474.74	1943.9
475.112	1947.29
475.484	1994.75
475.855	1999.95
476.227	2039.72
476.598	2035.43
476.97	2111.81
477.341	2125.82
477.713	2138.02
478.084	2178.7
478.455	2182.32
478.827	2220.96
479.198	2250.11
479.569	2262.77
479.94	2290.56
480.311	2282.2
480.682	2335.31
481.053	2356.77
481.424	2386.15
481.795	2417.56
482.166	2428.64
482.537	2483.55
482.908	2515.19
483.279	2545.92
483.65	2561.29
484.021	2596.99
484.391	2599.03
484.762	2652.59
485.133	2663.21
485.503	2708.4
485.874	2735.3
486.244	2753.37
486.615	2786.37
486.985	2821.39
487.356	2835.63
487.726	2883.09
488.097	2917.44
488.467	2895.29
488.837	2984.55
489.207	3001.73
489.578	3035.85
489.948	3027.27
490.318	3070.65
490.688	3084.44
491.058	3129.86
491.428	3157.66
491.798	3164.66
492.168	3206.24
492.538	3222.29
492.908	3276.3
493.278	3337.99
493.648	3296.64
494.017	3296.64
494.387	3349.29
494.757	3356.07
495.126	3439.23
495.496	3417.31
495.866	3420.93
496.235	3470.87
496.605	3509.06
496.974	3517.87
497.344	3544.09
497.713	3531.66
498.082	3544.09
498.452	3576.63
498.821	3629.06
499.19	3611.2
499.559	3639.9
499.928	3642.62
500.298	3670.41
500.667	3700.24
501.036	3663.18
501.405	3723.52
501.774	3714.03
502.143	3710.64
502.512	3771.65
502.88	3766.45
503.249	3780.92
503.618	3796.28
503.987	3822.05
504.356	3839.9
504.724	3848.94
505.093	3827.47
505.462	3896.85
505.83	3891.42
506.199	3935.26
506.567	3948.37
506.936	3938.65
507.304	3929.61
507.672	3983.17
508.041	3970.97
508.409	3994.92
508.777	4031.31
509.145	4011.42
509.514	4063.85
509.882	4033.11
510.25	4035.6
510.618	4096.84
510.986	4121.93
511.354	4125.32
511.722	4130.29
512.09	4157.63
512.458	4178.65
512.826	4204.86
513.193	4170.74
513.561	4191.08
513.929	4205.99
514.297	4258.19
514.664	4305.88
515.032	4275.37
515.4	4237.85
515.767	4288.25
516.135	4293.9
516.502	4266.78
516.869	4303.84
517.237	4313.33
517.604	4301.58
517.972	4364.63
518.339	4337.29
518.706	4354.24
519.073	4445.31
519.44	4421.8
519.808	4441.01
520.175	4416.16
520.542	4424.74
520.909	4461.8
521.276	4475.81
521.643	4500.9
522.009	4494.12
522.376	4536.6
522.743	4564.4
523.11	4595.36
523.477	4605.53
523.843	4601.46
524.21	4652.53
524.577	4689.14
524.943	4685.3
525.31	4667.45
525.676	4739.76
526.043	4786.54
526.409	4764.62
526.776	4859.76
527.142	4815.01
527.508	4813.88
527.874	4838.29
528.241	4886.43
528.607	4909.93
528.973	4946.31
529.339	4963.49
529.705	4975.01
530.071	4994.44
530.437	4999.87
530.803	5062.69
531.169	5048.91
531.535	5119.64
531.901	5084.61
532.267	5118.74
532.632	5109.92
532.998	5211.39
533.364	5218.85
533.73	5173.65
534.095	5216.59
534.461	5265.85
534.826	5292.29
535.192	5302.91
535.557	5313.76
535.923	5343.81
536.288	5378.39
536.653	5402.57
537.019	5375.23
537.384	5422.91
537.749	5472.4
538.114	5457.71
538.479	5427.43
538.845	5469.23
539.21	5433.3
539.575	5537.93
539.94	5525.5
540.305	5605.5
540.67	5553.53
541.034	5641.66
541.399	5642.11
541.764	5667.65
542.129	5681.88
542.494	5673.52
542.858	5742
543.223	5693.41
543.587	5710.58
543.952	5777.48
544.316	5820.86
544.681	5796.23
545.045	5856.34
545.41	5873.07
545.774	5862.67
546.138	5915.55
546.503	5978.15
546.867	5994.87
547.231	5968.66
547.595	5990.58
547.959	6042.55
548.324	6043.23
548.688	6100.4
549.052	6053.17
549.416	6087.98
549.779	6081.42
550.143	6149.44
550.507	6168.2
550.871	6184.92
551.235	6189.44
551.599	6228.99
551.962	6263.56
552.326	6271.93
552.689	6339.95
553.053	6267.18
553.417	6285.71
553.78	6365.48
554.143	6384.01
554.507	6399.61
554.87	6391.92
555.234	6433.05
555.597	6447.51
555.96	6461.53
556.323	6458.14
556.686	6462.65
557.05	6527.96
557.413	6523.22
557.776	6523.67
558.139	6614.52
558.502	6623.78
558.865	6560.28
559.228	6662.2
559.59	6634.18
559.953	6660.16
560.316	6734.96
560.679	6723.21
561.041	6746.04
561.404	6788.3
561.767	6825.81
562.129	6759.37
562.492	6869.88
562.854	6838.01
563.217	6849.76
563.579	6899.71
563.941	6928.18
564.304	6973.15
564.666	6998.91
565.028	7034.84
565.39	7034.39
565.753	7067.38
566.115	7016.54
566.477	7098.34
566.839	7143.31
567.201	7205.46
567.563	7154.61
567.925	7179.02
568.287	7162.75
568.648	7266.7
569.01	7320.03
569.372	7339.92
569.734	7282.07
570.095	7420.6
570.457	7370.43
570.819	7397.77
571.18	7479.58
571.542	7467.37
571.903	7489.75
572.265	7594.83
572.626	7588.73
572.987	7625.56
573.349	7647.03
573.71	7676.86
574.071	7774.03
574.432	7812.45
574.794	7897.65
575.155	7917.53
575.516	7909.17
575.877	8023.29
576.238	8053.8
576.599	8192.33
576.96	8131.76
577.32	8282.27
577.681	8364.53
578.042	8423.96
578.403	8482.71
578.763	8574.24
579.124	8691.97
579.485	8787.79
579.845	8919.31
580.206	8950.27
580.566	9077.05
580.927	9146.2
581.287	9341.9
581.648	9414.44
582.008	9577.83
582.368	9717.71
582.728	9810.59
583.089	9979.62
583.449	10185.95
583.809	10266.85
584.169	10435.66
584.529	10561.76
584.889	10866.15
585.249	11021.86
585.609	11091.23
585.969	11377.1
586.329	11561.05
586.688	11751.56
587.048	11954.94
587.408	12233.35
587.768	12419.33
588.127	12646.22
588.487	12849.83
588.846	13110.16
589.206	13340.89
589.565	13623.82
589.925	13795.34
590.284	14094.32
590.643	14323.92
591.003	14705.6
591.362	14958.25
591.721	15285.25
592.08	15489.76
592.44	15796.42
592.799	16094.04
593.158	16261.72
593.517	16508.72
593.876	16893.34
594.235	17170.62
594.593	17449.94
594.952	17748.91
595.311	17946.42
595.67	18342.79
596.029	18773.07
596.387	19019.16
596.746	19374.18
597.104	19470.22
597.463	19879.48
597.822	20170.77
598.18	20396.75
598.538	20741.15
598.897	21116.28
599.255	21214.58
599.613	21734.12
599.972	21948.8
600.33	22226.08
600.688	22465.62
601.046	22781.77
601.404	23141.54
601.762	23406.16
602.12	23705.59
602.478	24024.91
602.836	24303.99
603.194	24390.09
603.552	24773.81
603.91	24908.27
604.268	25241.14
604.625	25427.13
604.983	25745.09
605.341	25892.43
605.698	26254.45
606.056	26515.46
606.413	26743.48
606.771	27035.67
607.128	27325.16
607.485	27401.31
607.843	27688.76
608.2	27911.13
608.557	28365.58
608.914	28410.1
609.272	28787.72
609.629	28938.9
609.986	29146.8
610.343	29252.34
610.7	29717.41
611.057	29857.97
611.414	29837.86
611.771	30207.12
612.127	30457.05
612.484	30576.15
612.841	31062.46
613.198	30831.28
613.554	31099.07
613.911	31504.48
614.267	31691.82
614.624	31558.72
614.98	31886.85
615.337	32155.31
615.693	32291.58
616.05	32397.11
616.406	32724.79
616.762	32733.6
617.118	32907.84
617.475	32943.54
617.831	33158.9
618.187	33337.43
618.543	33425.79
618.899	33820.35
619.255	33862.39
619.611	33927.02
619.967	34154.81
620.323	34256.95
620.678	34224.41
621.034	34403.62
621.39	34387.8
621.746	34583.5
622.101	35021.9
622.457	34895.35
622.812	34976.71
623.168	35174.44
623.523	35328.56
623.879	35514.55
624.234	35320.2
624.589	35498.28
624.945	35513.64
625.3	35731.49
625.655	35683.13
626.01	35889.9
626.365	35998.15
626.72	35913.41
627.075	36014.19
627.43	36060.97
627.785	36098.49
628.14	36190.23
628.495	36284.24
628.85	36295.32
629.205	36249.67
629.559	36526.27
629.914	36364.24
630.269	36562.2
630.623	36451.47
630.978	36507.29
631.332	36654.63
631.687	36837.9
632.041	36573.28
632.396	36778.92
632.75	36628.64
633.104	36687.85
633.459	36600.62
633.813	36633.39
634.167	36721.75
634.521	36635.65
634.875	36721.75
635.229	36890.33
635.583	36658.25
635.937	36834.96
636.291	36734.85
636.645	36708.41
636.999	36704.35
637.352	36881.06
637.706	36584.12
638.06	36901.4
638.413	36781.18
638.767	36737.79
639.121	36849.88
639.474	36652.14
639.828	36547.74
640.181	36740.73
640.534	36737.11
640.888	36621.64
641.241	36580.51
641.594	36575.08
641.947	36725.36
642.301	36534.86
642.654	36663.22
643.007	36633.61
643.36	36754.74
643.713	36702.09
644.066	36700.05
644.419	36452.37
644.771	36251.7
645.124	36067.07
645.477	35994.53
645.83	35826.85
646.182	35587.76
646.535	35577.82
646.888	35740.08
647.24	35539.63
647.593	35705.05
647.945	35595.22
648.298	35428.22
648.65	35440.2
649.002	35434.32
649.355	35441.1
649.707	35405.85
650.059	35650.59
650.411	35933.52
650.763	36187.98
651.115	36425.48
651.467	36168.99
651.819	36386.84
652.171	36273.85
652.523	36205.38
652.875	36070.24
653.227	36041.99
653.578	36279.27
653.93	36180.97
654.282	36131.93
654.633	36159.95
654.985	36086.51
655.337	36093.29
655.688	36091.93
656.039	36226.17
656.391	35865.72
656.742	36045.15
657.094	36043.57
657.445	36061.42
657.796	35988.88
658.147	35994.31
658.498	35946.85
658.849	35962.22
659.2	35894.65
659.551	35789.79
659.902	36096
660.253	35925.16
660.604	36034.98
660.955	35882.45
661.306	35913.41
661.656	35837.7
662.007	35895.55
662.358	36087.19
662.708	35821.88
663.059	35839.28
663.409	35654.43
663.76	35961.09
664.11	35935.55
664.461	35949.56
664.811	36003.57
665.161	35928.09
665.511	35733.98
665.862	35786.63
666.212	35990.69
666.562	35933.52
666.912	35902.56
667.262	35878.15
667.612	35832.28
667.962	35805.39
668.312	35714.54
668.662	35860.98
669.011	35907.3
669.361	35868.66
669.711	35695.33
670.06	35730.36
670.41	35726.07
670.76	35613.75
671.109	35790.02
671.459	35689.46
671.808	35714.77
672.157	35796.12
672.507	35571.04
672.856	35548.67
673.205	35634.32
673.554	35686.75
673.904	35396.81
674.253	35681.55
674.602	35526.98
674.951	35087.89
675.3	34851.06
675.649	35535.34
675.998	35507.31
676.346	35446.53
676.695	35625.5
677.044	35295.8
677.393	35490.37
677.741	35407.2
678.09	35257.6
678.438	35350.26
678.787	35387.09
679.135	35434.1
679.484	35119.75
679.832	35329.01
680.181	35004.73
680.529	35291.5
680.877	35052.19
681.225	35056.71
681.573	35250.6
681.922	35171.73
682.27	34907.78
682.618	34985.07
682.966	34877.5
683.314	34912.75
683.661	34805.41
684.009	34637.96
684.357	34571.07
684.705	34528.36
685.053	34545.98
685.4	34528.81
685.748	34448.13
686.095	34260.79
686.443	34143.06
686.79	34222.6
687.138	34218.76
687.485	34258.31
687.832	33957.53
688.18	34176.28
688.527	34002.95
688.874	33958.88
689.221	33878.21
689.568	33856.96
689.915	33730.41
690.262	33843.4
690.609	33588.27
690.956	33637.99
691.303	33433.47
691.65	33303.98
691.997	33367.26
692.344	33111.9
692.69	33187.15
693.037	33046.59
693.383	32952.58
693.73	33073.03
694.077	32931.79
694.423	32920.26
694.769	32776.54
695.116	32724.11
695.462	32620.84
695.808	32476.89
696.155	32602.53
696.501	32283.44
696.847	32282.77
697.193	32115.77
697.539	32157.57
697.885	32036.67
698.231	31886.39
698.577	31915.32
698.923	31840.52
699.269	31742.44
699.614	31726.62
699.96	31575.89
700.306	31520.75
700.651	31489.12
700.997	31239.63
701.342	31258.16
701.688	31247.09
702.033	31125.28
702.379	31130.93
702.724	31150.14
703.069	31033.08
703.415	30673.09
703.76	30697.5
704.105	30704.5
704.45	30722.58
704.795	30503.15
705.14	30399.43
705.485	30379.09
705.83	30276.49
706.175	30364.4
706.52	30278.98
706.865	30132.32
707.209	30060.45
707.554	29945.2
707.899	30077.18
708.243	29845.77
708.588	29874.02
708.932	29558.09
709.277	29613.46
709.621	29592.44
709.966	29525.78
710.31	29525.33
710.654	29253.02
710.998	29397.65
711.342	29295.73
711.687	29233.13
712.031	29031.78
712.375	29059.57
712.719	28919.47
713.063	29005.79
713.407	29029.52
713.75	28826.13
714.094	28817.1
714.438	28717.44
714.782	28691.9
715.125	28502.08
715.469	28648.29
715.812	28503.66
716.156	28412.59
716.499	28391.34
716.843	28408.29
717.186	28283.55
717.53	28352.47
717.873	28309.31
718.216	28234.29
718.559	28212.82
718.902	27926.5
719.246	28061.18
719.589	28044.23
719.932	27859.38
720.275	27868.65
720.617	27910.9
720.96	27857.12
721.303	27717.01
721.646	27682.66
721.989	27587.3
722.331	27667.07
722.674	27546.39
723.016	27528.77
723.359	27522.67
723.701	27523.34
724.044	27350.47
724.386	27217.36
724.729	27461.2
725.071	27226.85
725.413	27177.14
725.755	27158.16
726.097	27131.49
726.439	26979.63
726.782	26908.22
727.124	27079.97
727.465	26908.45
727.807	26896.92
728.149	26691.73
728.491	26809.69
728.833	26886.3
729.175	26632.07
729.516	26614.89
729.858	26539.64
730.199	26549.13
730.541	26577.15
730.882	26490.38
731.224	26728.79
731.565	26468.68
731.906	26589.36
732.248	26602.92
732.589	26377.84
732.93	26251.97
733.271	26293.77
733.612	26326.54
733.953	26301.23
734.294	26246.99
734.635	26020.11
734.976	26100.78
735.317	26135.36
735.658	26020.56
735.999	25995.47
736.339	25912.76
736.68	25969.94
737.021	25948.24
737.361	25889.49
737.702	25979.66
738.042	25772.2
738.383	25741.24
738.723	25824.18
739.063	25689.72
739.404	25807.68
739.744	25665.99
740.084	25472.78
740.424	25566.56
740.764	25568.14
741.104	25597.29
741.444	25414.47
741.784	25216.74
742.124	25386
742.464	25288.15
742.804	25306
743.143	25191.2
743.483	25183.97
743.823	25039.12
744.162	25226.91
744.502	25104.65
744.841	25041.38
745.181	25052.22
745.52	25051.32
745.86	25073.24
746.199	24830.99
746.538	24934.71
746.877	24854.94
747.216	24924.99
747.556	24765
747.895	24786.92
748.234	24750.31
748.573	24648.62
748.911	24736.3
749.25	24617.43
749.589	24555.96
749.928	24551.44
750.267	24606.13
750.605	24590.09
750.944	24434.84
751.283	24296.99
751.621	24415.18
751.96	24355.74
752.298	24207.27
752.636	24190.32
752.975	24212.7
753.313	23988.75
753.651	24177.67
753.989	24063.55
754.327	24009.76
754.666	23849.77
755.004	23879.82
755.342	23839.6
755.679	23817.9
756.017	23685.48
756.355	23810.9
756.693	23685.7
757.031	23710.56
757.368	23594.86
757.706	23527.52
758.044	23477.57
758.381	23423.56
758.719	23235.55
759.056	23312.83
759.394	23164.14
759.731	23048.21
760.068	22969.11
760.405	22925.72
760.743	22853.41
761.08	22948.1
761.417	22799.4
761.754	22758.05
762.091	22711.04
762.428	22692.96
762.765	22497.71
763.102	22528.9
763.438	22458.62
763.775	22339.98
764.112	22301.11
764.449	22373.87
764.785	22264.73
765.122	22077.16
765.458	22092.75
765.795	21997.61
766.131	21949.25
766.467	21774.57
766.804	21842.59
767.14	21522.82
767.476	21687.34
767.812	21462.26
768.148	21500.45
768.485	21391.3
768.821	21323.51
769.157	21250.97
769.492	21293.68
769.828	21120.12
770.164	20977.08
770.5	20949.05
770.836	21008.04
771.171	20726.69
771.507	20849.17
771.842	20566.92
772.178	20633.81
772.513	20575.05
772.849	20527.37
773.184	20460.93
773.519	20381.84
773.855	20308.62
774.19	20259.35
774.525	20222.52
774.86	20135.52
775.195	20149.75
775.53	20013.71
775.865	19877.44
776.2	19777.56
776.535	19573.72
776.87	19604
777.205	19561.97
777.539	19460.28
777.874	19470.9
778.209	19348.19
778.543	19368.53
778.878	19205.82
779.212	19182.32
779.547	19065.49
779.881	19033.4
780.215	18900.52
780.55	18920.41
780.884	18909.56
781.218	18843.35
781.552	18742.56
781.886	18698.04
782.22	18634.54
782.554	18502.34
782.888	18365.62
783.222	18290.14
783.556	18247.88
783.889	18272.74
784.223	18035.23
784.557	18029.36
784.89	18126.53
785.224	18045.85
785.557	17909.13
785.891	17738.74
786.224	17744.84
786.558	17741.45
786.891	17588.46
787.224	17543.72
787.557	17532.87
787.891	17403.38
788.224	17468.02
788.557	17307.79
788.89	17305.53
789.223	17298.98
789.556	17133.11
789.888	17119.78
790.221	17067.8
790.554	16948.71
790.887	16998.88
791.219	16865.77
791.552	16829.39
791.884	16698.09
792.217	16646.12
792.549	16612.67
792.882	16577.64
793.214	16469.62
793.546	16568.15
793.879	16392.34
794.211	16320.25
794.543	16339.91
794.875	16250.19
795.207	16353.24
795.539	16139.01
795.871	16182.63
796.203	15984.44
796.535	15916.42
796.867	15902.63
797.198	15941.28
797.53	15833.48
797.862	15782.64
798.193	15768.4
798.525	15664.22
798.856	15695.86
799.188	15532.92
799.519	15533.6
799.85	15396.43
800.182	15402.31
800.513	15461.51
800.844	15159.6
801.175	15336.09
801.506	15284.8
801.837	15223.1
802.168	15248.64
802.499	15112.82
802.83	15114.86
803.161	15052.03
803.491	14942.43
803.822	14893.85
804.153	14883.45
804.483	14732.49
804.814	14711.7
805.145	14726.62
805.475	14765.49
805.805	14665.6
806.136	14700.63
806.466	14655.43
806.796	14625.6
807.126	14394.88
807.457	14374.31
807.787	14444.59
808.117	14344.03
808.447	14375.44
808.777	14312.39
809.107	14275.56
809.436	14159.4
809.766	14179.29
810.096	14199.17
810.426	14093.19
810.755	14175.45
811.085	14047.54
811.414	13956.7
811.744	13861.56
812.073	13888.9
812.403	13862.23
812.732	13832.4
813.061	13790.37
813.39	13709.24
813.719	13710.15
814.049	13761.22
814.378	13635.57
814.707	13661.11
815.036	13565.97
815.365	13470.15
815.693	13452.08
816.022	13474.22
816.351	13393.32
816.68	13302.7
817.008	13386.99
817.337	13193.78
817.665	13259.09
817.994	13272.19
818.322	13197.62
818.651	13173.44
818.979	13133.44
819.307	13128.24
819.636	13068.13
819.964	13052.54
820.292	13083.95
820.62	13062.48
820.948	13038.53
821.276	13038.53
821.604	12969.15
821.932	12943.61
822.259	13064.52
822.587	12954.24
822.915	12954.91
823.243	12906.33
823.57	12934.35
823.898	12923.73
824.225	12867.91
824.553	12887.12
824.88	12939.55
825.207	13025.19
825.535	12888.93
825.862	12944.07
826.189	12883.28
826.516	13000.56
826.843	12980.9
827.17	13018.87
827.497	13010.73
827.824	12933.22
828.151	12998.53
828.478	12936.38
828.805	13036.72
829.131	13011.18
829.458	12954.46
829.785	12864.75
830.111	12898.19
830.438	12928.47
830.764	12892.32
831.09	12908.14
831.417	12805.54
831.743	12884.41
832.069	12837.63
832.395	12814.58
832.722	12863.39
833.048	12821.81
833.374	12862.03
833.7	12728.25
834.026	12790.4
834.351	12758.53
834.677	12777.74
835.003	12765.54
835.329	12724.64
835.654	12751.08
835.98	12661.36
836.306	12632.89
836.631	12576.84
836.956	12605.54
837.282	12665.43
837.607	12581.14
837.932	12602.15
838.258	12551.08
838.583	12570.97
838.908	12475.38
839.233	12523.06
839.558	12476.96
839.883	12416.17
840.208	12447.13
840.533	12431.31
840.858	12337.75
841.182	12341.14
841.507	12287.59
841.832	12257.98
842.156	12205.78
842.481	12281.26
842.805	12259.11
843.13	12170.3
843.454	12144.31
843.778	12104.77
844.103	12097.99
844.427	12061.6
844.751	12051.43
845.075	11984.54
845.399	12000.59
845.723	11917.2
846.047	11941.15
846.371	11804.89
846.695	11848.28
847.019	11748.84
847.343	11730.31
847.666	11657.55
847.99	11604.89
848.313	11613.93
848.637	11516.99
848.96	11479.7
849.284	11444.9
849.607	11390.43
849.931	11385.69
850.254	11305.24
850.577	11194.73
850.9	11172.36
851.223	11127.39
851.546	11057.34
851.869	11022.54
852.192	11008.98
852.515	10902.76
852.838	10949.77
853.161	10922.2
853.483	10821.41
853.806	10789.09
854.129	10780.51
854.451	10701.19
854.774	10721.07
855.096	10677.46
855.419	10638.14
855.741	10596.78
856.063	10587.74
856.385	10481.98
856.708	10451.25
857.03	10476.11
857.352	10524.47
857.674	10457.13
857.996	10360.41
858.318	10289.22
858.64	10319.73
858.961	10345.26
859.283	10300.75
859.605	10252.84
859.926	10246.96
860.248	10254.65
860.57	10166.51
860.891	10170.35
861.212	10117.93
861.534	10139.39
861.855	10074.99
862.176	10096.01
862.498	10014.88
862.819	10036.35
863.14	9960.64
863.461	10005.84
863.782	9951.83
864.103	9850.14
864.424	9926.97
864.745	9898.04
865.065	9890.36
865.386	9847.65
865.707	9871.83
866.027	9848.1
866.348	9787.54
866.668	9760.2
866.989	9761.33
867.309	9717.71
867.63	9727.65
867.95	9739.18
868.27	9707.54
868.59	9705.96
868.91	9686.52
869.23	9700.31
869.55	9582.8
869.87	9701.67
870.19	9546.64
870.51	9587.09
870.83	9622.35
871.15	9518.62
871.469	9594.55
871.789	9578.96
872.109	9540.99
872.428	9464.84
872.748	9523.37
873.067	9497.38
873.386	9513.42
873.706	9472.29
874.025	9344.84
874.344	9437.27
874.663	9379.19
874.982	9310.49
875.301	9370.83
875.62	9351.17
875.939	9267.33
876.258	9312.3
876.577	9298.96
876.896	9232.07
877.214	9223.71
877.533	9232.07
877.852	9213.54
878.17	9280.66
878.489	9195.46
878.807	9204.73
879.125	9244.28
879.444	9161.79
879.762	9150.95
880.08	9194.11
880.398	9150.72
880.716	9078.63
881.034	9055.36
881.352	9057.61
881.67	9020.33
881.988	8983.27
882.306	9000.89
882.624	9000.44
882.941	8933.32
883.259	8870.95
883.577	8969.03
883.894	8852.2
884.212	8821.91
884.529	8835.93
884.846	8775.36
885.164	8840.9
885.481	8764.52
885.798	8811.75
886.115	8755.7
886.432	8812.65
886.75	8702.6
887.067	8729.26
887.383	8685.2
887.7	8691.3
888.017	8539.44
888.334	8606.78
888.651	8564.29
888.967	8592.99
889.284	8512.09
889.6	8500.57
889.917	8430.29
890.233	8452.89
890.55	8438.42
890.866	8414.92
891.182	8406.33
891.498	8376.5
891.815	8313.45
892.131	8302.15
892.447	8323.4
892.763	8250.4
893.079	8208.37
893.395	8263.06
893.71	8181.71
894.026	8188.49
894.342	8189.16
894.657	8111.88
894.973	8066.23
895.289	8083.18
895.604	8064.87
895.92	8011.31
896.235	8007.25
896.55	7947.36
896.865	7957.3
897.181	7833.01
897.496	7880.7
897.811	7900.36
898.126	7829.85
898.441	7781.94
898.756	7793.47
899.071	7743.75
899.386	7728.84
899.7	7677.76
900.015	7666.01
900.33	7613.59
900.644	7548.73
900.959	7558.67
901.273	7566.58
901.588	7501.5
901.902	7440.03
902.216	7541.27
902.531	7428.51
902.845	7427.38
903.159	7367.49
903.473	7344.44
903.787	7303.99
904.101	7257.89
904.415	7335.63
904.729	7259.92
905.042	7208.4
905.356	7192.81
905.67	7226.25
905.984	7122.75
906.297	7082.07
906.611	7098.57
906.924	7130.21
907.237	7095.86
907.551	7015.18
907.864	7059.48
908.177	7005.01
908.491	6999.36
908.804	6934.73
909.117	6886.15
909.43	6843.44
909.743	6789.43
910.056	6764.34
910.368	6760.5
910.681	6770.9
910.994	6720.95
911.307	6697.45
911.619	6630.11
911.932	6638.7
912.244	6568.87
912.557	6592.6
912.869	6510.79
913.181	6576.55
913.494	6516.66
913.806	6438.02
914.118	6443.9
914.43	6404.13
914.742	6414.07
915.054	6380.85
915.366	6374.52
915.678	6355.09
915.99	6311.7
916.302	6252.49
916.613	6226.5
916.925	6226.95
917.236	6219.27
917.548	6157.58
917.859	6193.28
918.171	6117.13
918.482	6145.15
918.794	6124.13
919.105	6072.38
919.416	5964.14
919.727	5993.51
920.038	6007.07
920.349	5922.56
920.66	5973.63
920.971	5908.32
921.282	5946.96
921.593	5890.92
921.903	5821.09
922.214	5828.77
922.525	5774.54
922.835	5755.78
923.146	5734.99
923.456	5662.45
923.767	5706.29
924.077	5652.05
924.387	5654.31
924.697	5571.6
925.008	5588.1
925.318	5573.86
925.628	5570.93
925.938	5542
926.248	5503.81
926.558	5493.19
926.867	5450.93
927.177	5428.56
927.487	5416.35
927.796	5368.67
928.106	5364.38
928.416	5311.5
928.725	5346.75
929.034	5301.78
929.344	5244.38
929.653	5240.31
929.962	5217.72
930.271	5240.54
930.581	5145.4
930.89	5155.34
931.199	5132.07
931.508	5149.7
931.817	5128.68
932.125	5115.35
932.434	5102.46
932.743	5019.53
933.051	4991.51
933.36	4988.34
933.669	4917.16
933.977	4933.43
934.286	4901.11
934.594	4893.43
934.902	4861.79
935.21	4870.38
935.519	4824.96
935.827	4824.05
936.135	4772.53
936.443	4757.62
936.751	4745.19
937.059	4756.71
937.367	4698.18
937.674	4720.33
937.982	4662.02
938.29	4635.13
938.597	4639.43
938.905	4636.71
939.213	4547.9
939.52	4562.37
939.827	4572.99
940.135	4519.88
940.442	4493.22
940.749	4485.53
941.056	4444.63
941.363	4445.76
941.67	4386.55
941.977	4379.55
942.284	4405.53
942.591	4338.19
942.898	4368.92
943.205	4364.18
943.511	4329.15
943.818	4320.79
944.125	4255.93
944.431	4337.97
944.738	4213.9
945.044	4244.63
945.35	4210.51
945.657	4173.45
945.963	4213.22
946.269	4123.96
946.575	4163.05
946.881	4115.15
947.187	4127.35
947.493	4109.04
947.799	4072.44
948.105	4088.03
948.41	4054.58
948.716	4046.45
949.022	4076.28
949.327	4008.93
949.633	3938.2
949.938	3991.53
950.244	3959.22
950.549	3895.72
950.854	3883.51
951.16	3904.76
951.465	3871.31
951.77	3842.61
952.075	3855.27
952.38	3853.68
952.685	3827.47
952.99	3773.69
953.294	3762.61
953.599	3777.08
953.904	3770.52
954.209	3724.87
954.513	3758.77
954.818	3679
955.122	3659.34
955.426	3638.1
955.731	3673.12
956.035	3637.87
956.339	3690.07
956.643	3633.58
956.948	3561.04
957.252	3556.52
957.556	3565.56
957.86	3562.62
958.163	3570.08
958.467	3552.67
958.771	3514.26
959.075	3485.11
959.378	3432.45
959.682	3449.17
959.985	3450.08
960.289	3434.26
960.592	3373.92
960.896	3362.4
961.199	3386.35
961.502	3416.63
961.805	3338.22
962.108	3331.89
962.411	3340.03
962.714	3298.67
963.017	3280.37
963.32	3259.8
963.623	3284.43
963.926	3257.54
964.228	3254.83
964.531	3234.49
964.833	3204.44
965.136	3175.74
965.438	3170.09
965.741	3167.37
966.043	3159.69
966.345	3106.81
966.648	3148.62
966.95	3104.1
967.252	3130.99
967.554	3086.02
967.856	3075.17
968.158	3038.79
968.46	3036.98
968.761	3053.71
969.063	3008.06
969.365	3035.63
969.666	3034.5
969.968	2993.14
970.269	2961.05
970.571	2936.65
970.872	2947.72
971.174	2902.75
971.475	2923.09
971.776	2926.93
972.077	2885.57
972.378	2869.53
972.679	2877.44
972.98	2855.52
973.281	2865.24
973.582	2830.21
973.883	2815.52
974.183	2827.27
974.484	2794.05
974.785	2758.8
975.085	2763.09
975.386	2776.65
975.686	2736.65
975.986	2731.68
976.287	2735.07
976.587	2714.5
976.887	2688.29
977.187	2699.36
977.487	2696.65
977.787	2689.65
978.087	2662.53
978.387	2676.54
978.687	2620.04
978.987	2628.41
979.286	2639.25
979.586	2594.06
979.885	2586.37
980.185	2570.55
980.484	2582.3
980.784	2536.88
981.083	2564.9
981.382	2519.03
981.682	2539.59
981.981	2519.48
982.28	2525.13
982.579	2472.03
982.878	2477.22
983.177	2455.08
983.475	2491.23
983.774	2431.12
984.073	2417.34
984.372	2401.74
984.67	2424.57
984.969	2397
985.267	2426.15
985.566	2384.34
985.864	2354.97
986.162	2372.14
986.461	2347.06
986.759	2337.11
987.057	2336.66
987.355	2295.31
987.653	2320.16
987.951	2307.28
988.249	2288.75
988.547	2282.2
988.844	2263.67
989.142	2274.97
989.44	2214.86
989.737	2261.18
990.035	2210.79
990.332	2228.19
990.63	2218.92
990.927	2217.79
991.224	2204.91
991.521	2161.75
991.819	2164.01
992.116	2154.97
992.413	2126.5
992.71	2134.86
993.006	2142.09
993.303	2138.47
993.6	2122.2
993.897	2141.64
994.193	2091.02
994.49	2065.93
994.787	2077.91
995.083	2068.65
995.379	2046.73
995.676	2034.97
995.972	2051.92
996.268	2015.09
996.565	2022.55
996.861	2002.43
997.157	2022.77
997.453	1989.33
997.749	1972.6
998.044	1976.67
998.34	1952.94
998.636	1927.86
998.932	1941.19
999.227	1942.32
999.523	1934.64
999.818	1914.75
1000.114	1873.85
1000.409	1879.72
1000.704	1896
1001	1895.77
1001.295	1851.7
1001.59	1843.34
1001.885	1857.8
1002.18	1831.36
1002.475	1817.35
1002.77	1815.09
1003.065	1792.72
1003.359	1799.5
1003.654	1772.61
1003.949	1755.21
1004.243	1785.26
1004.538	1754.08
1004.832	1761.99
1005.127	1757.69
1005.421	1708.66
1005.715	1714.53
1006.009	1701.2
1006.304	1706.4
1006.598	1675.21
1006.892	1686.06
1007.186	1659.84
1007.48	1666.17
1007.773	1667.3
1008.067	1647.64
1008.361	1626.62
1008.655	1626.62
1008.948	1617.81
1009.242	1606.06
1009.535	1576.23
1009.829	1599.28
1010.122	1550.24
1010.415	1586.4
1010.708	1560.41
1011.001	1573.74
1011.295	1510.92
1011.588	1549.34
1011.881	1537.81
1012.173	1560.18
1012.466	1519.96
1012.759	1520.41
1013.052	1497.81
1013.344	1503.92
1013.637	1487.87
1013.93	1462.56
1014.222	1467.31
1014.514	1469.34
1014.807	1433.86
1015.099	1432.73
1015.391	1416.46
1015.683	1421.21
1015.976	1417.14
1016.268	1413.3
1016.56	1409
1016.851	1412.17
1017.143	1368.1
1017.435	1360.42
1017.727	1354.09
1018.018	1339.85
1018.31	1351.6
1018.602	1362.68
1018.893	1340.98
1019.185	1302.34
1019.476	1318.84
1019.767	1328.1
1020.058	1300.3
1020.35	1303.02
1020.641	1271.83
1020.932	1296.24
1021.223	1281.55
1021.514	1246.75
1021.804	1247.88
1022.095	1254.66
1022.386	1223.24
1022.677	1227.09
1022.967	1236.13
1023.258	1221.66
1023.548	1217.14
1023.839	1202.91
1024.129	1198.39
1024.419	1180.31
1024.709	1182.57
1025	1175.56
1025.29	1159.97
1025.58	1159.74
1025.87	1148.9
1026.16	1145.05
1026.449	1145.96
1026.739	1134.43
1027.029	1099.41
1027.319	1106.41
1027.608	1110.25
1027.898	1104.38
1028.187	1063.02
1028.477	1093.53
1028.766	1085.17
1029.055	1061.22
1029.344	1082.46
1029.634	1065.06
1029.923	1050.37
1030.212	1046.07
1030.501	1063.25
1030.79	1033.87
1031.078	1025.51
1031.367	1032.06
1031.656	1012.4
1031.945	1001.78
1032.233	997.94
1032.522	984.83
1032.81	1002.23
1033.099	1026.41
1033.387	956.36
1033.675	968.34
1033.963	977.83
1034.251	978.96
1034.54	968.11
1034.828	923.37
1035.116	958.84
1035.403	939.64
1035.691	912.74
1035.979	938.51
1036.267	948.22
1036.554	897.83
1036.842	887.66
1037.129	911.39
1037.417	904.16
1037.704	907.55
1037.992	889.24
1038.279	912.29
1038.566	873.42
1038.853	873.42
1039.14	873.42
