Data from hue_290_FLMS001491_00081.txt Node
Date: Tue Feb 07 15:53:23 GMT 2017
User: dcchb
Spectrometer: FLMS00149
Trigger mode: 0
Integration Time (sec): 2.000000E-2
Scans to average: 10
Electric dark correction enabled: true
Nonlinearity correction enabled: false
Boxcar width: 0
XAxis mode: Wavelengths
Number of Pixels in Spectrum: 2048
>>>>>Begin Spectral Data<<<<<
341.393	-14.31
341.776	-14.31
342.16	-14.31
342.543	-59.5
342.927	-63.8
343.31	-79.62
343.693	-75.77
344.077	-74.19
344.46	-52.05
344.843	-28.54
345.226	-53.85
345.61	-26.28
345.993	-19.96
346.376	4.45
346.759	-7.53
347.142	23.88
347.525	39.02
347.908	58.46
348.291	86.71
348.674	82.41
349.057	122.86
349.44	128.74
349.823	120.38
350.206	157.21
350.588	186.59
350.971	190.88
351.354	199.92
351.737	235.18
352.119	213.94
352.502	251.45
352.884	266.36
353.267	257.1
353.65	300.71
354.032	287.15
354.414	288.96
354.797	295.29
355.179	306.81
355.562	307.94
355.944	317.66
356.326	329.64
356.709	319.69
357.091	314.72
357.473	327.6
357.855	338.68
358.238	302.07
358.62	321.5
359.002	336.42
359.384	342.75
359.766	321.28
360.148	318.11
360.53	311.11
360.912	315.63
361.294	327.38
361.676	300.49
362.057	324.21
362.439	315.18
362.821	316.31
363.203	338.68
363.584	290.09
363.966	327.38
364.348	325.8
364.729	325.34
365.111	339.58
365.493	316.31
365.874	312.24
366.256	310.66
366.637	302.52
367.019	305.46
367.4	302.52
367.781	306.14
368.163	295.06
368.544	308.17
368.925	310.2
369.306	304.1
369.688	300.94
370.069	324.44
370.45	301.62
370.831	310.2
371.212	310.2
371.593	292.58
371.974	309.98
372.355	298.23
372.736	314.5
373.117	310.66
373.498	312.92
373.879	291.67
374.26	294.84
374.641	304.33
375.021	312.24
375.402	308.4
375.783	304.33
376.163	312.46
376.544	315.18
376.925	309.98
377.305	309.3
377.686	326.47
378.066	323.76
378.447	332.12
378.827	306.81
379.208	329.86
379.588	317.66
379.968	319.69
380.349	345.68
380.729	311.79
381.109	331.22
381.489	321.73
381.87	318.57
382.25	323.08
382.63	310.2
383.01	350.88
383.39	335.74
383.77	317.44
384.15	326.93
384.53	335.74
384.91	345.46
385.29	347.94
385.67	339.58
386.049	346.36
386.429	329.41
386.809	350.65
387.189	357.43
387.568	334.84
387.948	348.62
388.328	352.46
388.707	349.52
389.087	344.1
389.466	348.85
389.846	353.59
390.225	364.89
390.605	337.77
390.984	364.67
391.363	368.28
391.743	378.9
392.122	362.18
392.501	370.77
392.881	370.32
393.26	373.48
393.639	375.06
394.018	383.65
394.397	373.48
394.776	366.25
395.155	370.09
395.534	380.03
395.913	384.33
396.292	398.11
396.671	374.38
397.05	410.31
397.429	400.6
397.808	392.91
398.186	410.54
398.565	403.76
398.944	395.85
399.323	388.62
399.701	407.6
400.08	409.18
400.458	403.53
400.837	428.84
401.215	407.83
401.594	405.12
401.972	392.24
402.351	428.84
402.729	428.17
403.107	432.91
403.486	439.01
403.864	420.71
404.242	444.89
404.62	440.82
404.999	427.04
405.377	447.38
405.755	450.99
406.133	443.08
406.511	436.53
406.889	475.62
407.267	448.28
407.645	481.27
408.023	468.17
408.401	481.27
408.779	486.47
409.156	520.37
409.534	515.85
409.912	483.08
410.29	508.62
410.667	516.07
411.045	495.51
411.422	542.06
411.8	532.8
412.178	537.32
412.555	549.52
412.933	547.49
413.31	567.82
413.687	561.27
414.065	585.22
414.442	598.78
414.819	579.12
415.197	592.91
415.574	615.96
415.951	613.47
416.328	606.02
416.705	616.18
417.082	615.96
417.46	634.04
417.837	615.51
418.214	650.76
418.591	643.75
418.967	655.73
419.344	704.09
419.721	700.25
420.098	666.35
420.475	697.76
420.852	706.8
421.228	716.29
421.605	738.44
421.982	710.65
422.358	753.36
422.735	761.49
423.111	744.32
423.488	777.54
423.864	777.08
424.241	816.41
424.617	801.94
424.994	797.2
425.37	807.14
425.746	803.75
426.123	832
426.499	845.78
426.875	841.49
427.251	848.49
427.627	878.78
428.003	882.84
428.379	891.21
428.756	892.79
429.132	893.47
429.507	926.01
429.883	938.89
430.259	946.35
430.635	951.54
431.011	971.88
431.387	980.69
431.763	1015.5
432.138	1001.48
432.514	1050.3
432.89	1010.3
433.265	1034.03
433.641	1062.95
434.016	1049.62
434.392	1085.32
434.767	1095.95
435.143	1086.45
435.518	1079.68
435.894	1102.5
436.269	1139.79
436.644	1136.62
437.02	1175.27
437.395	1190.86
437.77	1182.95
438.145	1191.99
438.52	1226.79
438.895	1251.87
439.271	1242.61
439.646	1281.48
440.021	1268.6
440.395	1274.02
440.77	1255.26
441.145	1307.01
441.52	1299.56
441.895	1307.69
442.27	1325.77
442.645	1321.02
443.019	1324.87
443.394	1345.43
443.769	1357.63
444.143	1314.25
444.518	1351.53
444.892	1385.43
445.267	1388.14
445.641	1391.76
446.016	1407.35
446.39	1401.7
446.764	1392.44
447.139	1407.35
447.513	1427.01
447.887	1418.88
448.262	1429.72
448.636	1417.75
449.01	1422.49
449.384	1451.87
449.758	1438.54
450.132	1444.19
450.506	1494.13
450.88	1463.85
451.254	1479.89
451.628	1467.01
452.002	1484.86
452.376	1517.63
452.75	1569.15
453.123	1564.63
453.497	1520.34
453.871	1568.93
454.244	1584.97
454.618	1580.68
454.992	1617.97
455.365	1589.72
455.739	1619.1
456.112	1626.55
456.486	1663.61
456.859	1675.37
457.232	1667.46
457.606	1666.1
457.979	1709.04
458.352	1725.31
458.725	1739.09
459.099	1759.66
459.472	1768.7
459.845	1781.35
460.218	1793.78
460.591	1804.18
460.964	1836.94
461.337	1831.29
461.71	1869.03
462.083	1852.99
462.456	1871.74
462.829	1879.2
463.201	1889.15
463.574	1901.35
463.947	1935.02
464.32	1954.45
464.692	1961.46
465.065	1934.34
465.438	1995.81
465.81	2030.61
466.183	2024.73
466.555	2073.77
466.928	2080.33
467.3	2073.77
467.672	2078.74
468.045	2121
468.417	2126.88
468.789	2156.26
469.161	2158.29
469.534	2194
469.906	2236.71
470.278	2219.08
470.65	2279.19
471.022	2301.34
471.394	2315.12
471.766	2339.75
472.138	2332.98
472.51	2411.62
472.882	2410.49
473.253	2434.67
473.625	2437.83
473.997	2499.98
474.369	2493.65
474.74	2521.9
475.112	2557.38
475.484	2560.31
475.855	2618.84
476.227	2615.23
476.598	2666.53
476.97	2725.73
477.341	2754.66
477.713	2795.79
478.084	2802.79
478.455	2815.67
478.827	2876.69
479.198	2882.79
479.569	2924.6
479.94	3006.18
480.311	2993.52
480.682	3019.06
481.053	3086.85
481.424	3103.8
481.795	3152.16
482.166	3194.65
482.537	3180.86
482.908	3244.36
483.279	3275.1
483.65	3326.4
484.021	3379.28
484.391	3367.75
484.762	3388.99
485.133	3423.57
485.503	3427.18
485.874	3507.86
486.244	3524.81
486.615	3610
486.985	3599.61
487.356	3663.79
487.726	3703.11
488.097	3754.86
488.467	3768.64
488.837	3817.91
489.207	3881.86
489.578	3837.34
489.948	3896.78
490.318	3954.63
490.688	3972.25
491.058	3970.67
491.428	4044.34
491.798	4094.96
492.168	4123.21
492.538	4163.21
492.908	4148.52
493.278	4237.78
493.648	4268.74
494.017	4311.45
494.387	4301.06
494.757	4280.95
495.126	4384.22
495.496	4309.87
495.866	4401.4
496.235	4394.84
496.605	4455.63
496.974	4475.97
497.344	4488.17
497.713	4518
498.082	4523.65
498.452	4575.4
498.821	4625.34
499.19	4599.58
499.559	4598.23
499.928	4668.28
500.298	4647.04
500.667	4722.29
501.036	4689.07
501.405	4736.08
501.774	4713.48
502.143	4765
502.512	4863.76
502.88	4795.51
503.249	4787.37
503.618	4858.56
503.987	4861.27
504.356	4821.5
504.724	4871.67
505.093	4905.79
505.462	4884.32
505.83	4911.21
506.199	4920.93
506.567	5001.61
506.936	4942.62
507.304	5033.24
507.672	5000.93
508.041	5062.17
508.409	5110.53
508.777	5132.9
509.145	5154.37
509.514	5125.44
509.882	5141.49
510.25	5141.26
510.618	5197.53
510.986	5136.07
511.354	5198.44
511.722	5268.49
512.09	5249.51
512.458	5237.31
512.826	5262.84
513.193	5283.41
513.561	5328.38
513.929	5326.34
514.297	5404.53
514.664	5416.74
515.032	5403.18
515.4	5430.3
515.767	5504.87
516.135	5416.74
516.502	5422.39
516.869	5480.24
517.237	5486.11
517.604	5440.01
517.972	5575.15
518.339	5538.99
518.706	5555.49
519.073	5607.24
519.44	5581.25
519.808	5622.15
520.175	5574.25
520.542	5656.05
520.909	5672.1
521.276	5659.22
521.643	5758.87
522.009	5683.85
522.376	5722.04
522.743	5763.39
523.11	5858.98
523.477	5842.71
523.843	5899.66
524.21	5889.27
524.577	5921.58
524.943	5952.32
525.31	5976.27
525.676	5990.05
526.043	6027.12
526.409	5979.21
526.776	6108.24
527.142	6073.67
527.508	6160.67
527.874	6179.2
528.241	6174
528.607	6184.17
528.973	6237.96
529.339	6181.24
529.705	6245.19
530.071	6290.61
530.437	6340.33
530.803	6333.55
531.169	6402.92
531.535	6397.28
531.901	6432.3
532.267	6461.45
532.632	6460.32
532.998	6508.68
533.364	6504.62
533.73	6505.97
534.095	6574.22
534.461	6538.97
534.826	6550.72
535.192	6635.01
535.557	6717.94
535.923	6640.88
536.288	6649.02
536.653	6668
537.019	6683.37
537.384	6660.32
537.749	6753.42
538.114	6782.58
538.479	6750.71
538.845	6806.08
539.21	6745.06
539.575	6785.51
539.94	6805.63
540.305	6869.35
540.67	6855.34
541.034	6870.03
541.399	6953.87
541.764	6922.91
542.129	6950.03
542.494	6986.64
542.858	6994.32
543.223	6954.32
543.587	7044.49
543.952	7010.37
544.316	7093.3
544.681	7064.6
545.045	7069.8
545.41	7094.66
545.774	7162.9
546.138	7143.24
546.503	7111.38
546.867	7103.92
547.231	7157.03
547.595	7234.32
547.959	7209.01
548.324	7212.62
548.688	7255.33
549.052	7278.38
549.416	7242.9
549.779	7291.94
550.143	7337.82
550.507	7354.76
550.871	7385.27
551.235	7385.05
551.599	7444.03
551.962	7407.64
552.326	7398.15
552.689	7437.47
553.053	7473.18
553.417	7399.73
553.78	7553.18
554.143	7557.24
554.507	7438.6
554.87	7567.19
555.234	7621.88
555.597	7571.93
555.96	7642.67
556.323	7624.81
556.686	7603.8
557.05	7646.28
557.413	7683.57
557.776	7731.48
558.139	7725.83
558.502	7752.04
558.865	7742.55
559.228	7767.41
559.59	7813.51
559.953	7775.09
560.316	7870.23
560.679	7865.94
561.041	7900.51
561.404	7935.99
561.767	7915.88
562.129	7940.74
562.492	8012.15
562.854	8027.97
563.217	7983.22
563.579	8043.79
563.941	8096.21
564.304	8133.95
564.666	8194.06
565.028	8147.74
565.39	8177.57
565.753	8227.06
566.115	8281.97
566.477	8221.18
566.839	8212.14
567.201	8285.14
567.563	8316.77
567.925	8424.79
568.287	8336.43
568.648	8410.78
569.01	8435.87
569.372	8432.25
569.734	8496.88
570.095	8549.54
570.457	8556.54
570.819	8578.01
571.18	8554.05
571.542	8661.62
571.903	8654.39
572.265	8696.2
572.626	8787.04
572.987	8731.68
573.349	8769.42
573.71	8767.83
574.071	8880.37
574.432	8960.6
574.794	8996.98
575.155	9041.73
575.516	8954.72
575.877	9139.12
576.238	9111.1
576.599	9164.66
576.96	9188.39
577.32	9237.43
577.681	9320.81
578.042	9450.08
578.403	9460.25
578.763	9536.4
579.124	9501.83
579.485	9646.23
579.845	9698.43
580.206	9719.45
580.566	9827.02
580.927	9847.58
581.287	9999.89
581.648	10000.57
582.008	10084.41
582.368	10180.68
582.728	10195.59
583.089	10404.85
583.449	10396.72
583.809	10579.09
584.169	10683.04
584.529	10702.47
584.889	10808.01
585.249	10902.24
585.609	10977.72
585.969	11144.72
586.329	11230.14
586.688	11351.27
587.048	11417.93
587.408	11533.19
587.768	11709.9
588.127	11803.01
588.487	11916.68
588.846	12134.98
589.206	12066.5
589.565	12348.76
589.925	12536.32
590.284	12534.06
590.643	12627.39
591.003	12825.13
591.362	13052.47
591.721	13089.3
592.08	13314.38
592.44	13452.68
592.799	13568.84
593.158	13632.79
593.517	13755.73
593.876	13980.35
594.235	14021.71
594.593	14177.18
594.952	14331.76
595.311	14432.09
595.67	14597.06
596.029	14713.44
596.387	14888.58
596.746	15029.14
597.104	15054.22
597.463	15188.46
597.822	15377.83
598.18	15473.42
598.538	15603.13
598.897	15801.77
599.255	15770.14
599.613	16100.52
599.972	16121.99
600.33	16170.35
600.688	16245.15
601.046	16447.41
601.404	16595.2
601.762	16699.6
602.12	16901.18
602.478	17002.87
602.836	17037.67
603.194	17040.16
603.552	17145.02
603.91	17207.16
604.268	17421.62
604.625	17442.41
604.983	17489.86
605.341	17629.3
605.698	17795.62
606.056	17913.13
606.413	17930.31
606.771	18080.13
607.128	18217.3
607.485	18102.5
607.843	18163.52
608.2	18511.53
608.557	18495.49
608.914	18558.31
609.272	18760.79
609.629	18783.62
609.986	18899.09
610.343	18889.6
610.7	19088.47
611.057	19058.86
611.414	19317.39
611.771	19140.9
612.127	19191.52
612.484	19422.47
612.841	19414.56
613.198	19413.66
613.554	19465.18
613.911	19623.37
614.267	19737.49
614.624	19629.24
614.98	19742.46
615.337	19972.96
615.693	19858.84
616.05	19869.46
616.406	20064.03
616.762	20027.43
617.118	20059.97
617.475	20068.55
617.831	20251.83
618.187	20253.18
618.543	20318.04
618.899	20487.98
619.255	20491.14
619.611	20387.42
619.967	20504.7
620.323	20683.23
620.678	20587.41
621.034	20572.95
621.39	20648.88
621.746	20588.54
622.101	20865.82
622.457	20741.76
622.812	20821.98
623.168	20832.6
623.523	20866.5
623.879	20914.86
624.234	20857.23
624.589	20915.31
624.945	20949.89
625.3	20933.84
625.655	20966.16
626.01	20972.94
626.365	21012.94
626.72	20991.92
627.075	21045.7
627.43	21085.48
627.785	21068.98
628.14	21064.46
628.495	21174.51
628.85	21103.33
629.205	21076.21
629.559	21285.25
629.914	21016.1
630.269	21099.94
630.623	21103.1
630.978	21051.58
631.332	21090.22
631.687	21151.92
632.041	21062.43
632.396	21100.17
632.75	20999.6
633.104	21056.1
633.459	20973.39
633.813	20933.39
634.167	20949.21
634.521	20988.53
634.875	21035.08
635.229	21076.44
635.583	21002.77
635.937	20940.4
636.291	20965.03
636.645	20940.62
636.999	20934.29
637.352	21022.43
637.706	20814.07
638.06	21038.02
638.413	20895.88
638.767	20850.91
639.121	20924.58
639.474	20874.63
639.828	20756.67
640.181	20827.18
640.534	20851.13
640.888	20800.06
641.241	20567.07
641.594	20705.37
641.947	20784.02
642.301	20736.11
642.654	20647.75
643.007	20891.58
643.36	20815.2
643.713	20697.24
644.066	20836.44
644.419	20628.99
644.771	20569.78
645.124	20372.95
645.477	20454.31
645.83	20195.56
646.182	20202.56
646.535	20146.29
646.888	20178.61
647.24	20138.38
647.593	20201.43
647.945	20159.85
648.298	19925.06
648.65	20076.46
649.002	20058.61
649.355	20120.53
649.707	20150.36
650.059	20209.79
650.411	20539.05
650.763	20400.52
651.115	20697.92
651.467	20677.8
651.819	20634.64
652.171	20538.82
652.523	20546.51
652.875	20494.31
653.227	20512.38
653.578	20680.29
653.93	20662.66
654.282	20446.85
654.633	20433.29
654.985	20457.92
655.337	20464.7
655.688	20590.12
656.039	20661.76
656.391	20477.13
656.742	20495.89
657.094	20548.99
657.445	20716.22
657.796	20584.25
658.147	20496.34
658.498	20569.33
658.849	20508.09
659.2	20525.72
659.551	20524.81
659.902	20605.72
660.253	20618.14
660.604	20600.07
660.955	20515.55
661.306	20610.69
661.656	20573.85
662.007	20587.64
662.358	20549.45
662.708	20556.45
663.059	20570.24
663.409	20465.15
663.76	20637.35
664.11	20622.66
664.461	20685.04
664.811	20656.56
665.161	20599.39
665.511	20596
665.862	20606.85
666.212	20631.48
666.562	20757.8
666.912	20655.88
667.262	20702.66
667.612	20659.05
667.962	20606.39
668.312	20581.99
668.662	20656.11
669.011	20656.56
669.361	20552.38
669.711	20604.13
670.06	20679.16
670.41	20558.94
670.76	20571.14
671.109	20636.22
671.459	20601.2
671.808	20498.6
672.157	20588.31
672.507	20393.97
672.856	20482.1
673.205	20457.47
673.554	20556.9
673.904	20393.74
674.253	20474.65
674.602	20495.66
674.951	20169.79
675.3	20143.13
675.649	20344.71
675.998	20308.32
676.346	20384.48
676.695	20455.21
677.044	20342.9
677.393	20338.6
677.741	20318.72
678.09	20223.58
678.438	20326.85
678.787	20297.93
679.135	20354.65
679.484	20093.86
679.832	20131.15
680.181	20093.41
680.529	20114.65
680.877	20061.32
681.225	20024.26
681.573	20139.51
681.922	19970.25
682.27	19856.58
682.618	19910.82
682.966	19870.59
683.314	19944.49
683.661	19861.55
684.009	19737.49
684.357	19762.12
684.705	19721.44
685.053	19719.18
685.4	19728
685.748	19595.12
686.095	19539.08
686.443	19544.5
686.79	19473.99
687.138	19470.15
687.485	19539.98
687.832	19361.91
688.18	19379.98
688.527	19339.99
688.874	19324.39
689.221	19298.63
689.568	19090.5
689.915	19151.74
690.262	19082.14
690.609	19017.73
690.956	18897.51
691.303	18958.3
691.65	18772.32
691.997	18836.5
692.344	18748.59
692.69	18725.31
693.037	18629.04
693.383	18532.78
693.73	18673.79
694.077	18446.22
694.423	18474.25
694.769	18380.01
695.116	18294.36
695.462	18241.94
695.808	18088.04
696.155	18251.65
696.501	17981.15
696.847	18097.76
697.193	17963.07
697.539	18025.9
697.885	17735.73
698.231	17787.71
698.577	17781.16
698.923	17727.6
699.269	17624.55
699.614	17529.64
699.96	17469.98
700.306	17501.62
700.651	17371
700.997	17319.7
701.342	17324.9
701.688	17372.13
702.033	17219.82
702.379	17166.26
702.724	17145.92
703.069	17189.31
703.415	16921.29
703.76	16927.39
704.105	16938.47
704.45	16888.07
704.795	16712.71
705.14	16735.99
705.485	16717
705.83	16604.01
706.175	16698.7
706.52	16567.86
706.865	16522.21
707.209	16519.27
707.554	16387.97
707.899	16392.49
708.243	16364.02
708.588	16234.53
708.932	16199.96
709.277	16190.24
709.621	16193.63
709.966	15994.76
710.31	16014.42
710.654	15940.75
710.998	15916.57
711.342	16004.93
711.687	15872.28
712.031	15827.31
712.375	15811.27
712.719	15814.43
713.063	15764.94
713.407	15726.97
713.75	15701.66
714.094	15565.4
714.438	15608.78
714.782	15667.54
715.125	15466.42
715.469	15539.18
715.812	15462.12
716.156	15376.7
716.499	15404.5
716.843	15460.77
717.186	15310.71
717.53	15346.64
717.873	15395
718.216	15307.1
718.559	15321.33
718.902	15197.95
719.246	15224.39
719.589	15185.07
719.932	15159.76
720.275	15117.5
720.617	15129.7
720.96	15058.97
721.303	15111.4
721.646	15147.1
721.989	15041.34
722.331	15106.42
722.674	14998.63
723.016	15033.88
723.359	15070.72
723.701	14932.42
724.044	14938.52
724.386	14765.87
724.729	14976.94
725.071	14804.74
725.413	14795.47
725.755	14869.82
726.097	14737.85
726.439	14723.84
726.782	14741.91
727.124	14868.69
727.465	14728.13
727.807	14734.91
728.149	14768.81
728.491	14740.56
728.833	14682.03
729.175	14648.13
729.516	14714.34
729.858	14691.75
730.199	14618.3
730.541	14683.39
730.882	14660.56
731.224	14664.4
731.565	14503.73
731.906	14603.84
732.248	14597.06
732.589	14553.9
732.93	14509.38
733.271	14545.31
733.612	14574.69
733.953	14581.24
734.294	14529.49
734.635	14483.62
734.976	14550.06
735.317	14517.97
735.658	14474.8
735.999	14508.47
736.339	14510.96
736.68	14562.48
737.021	14427.35
737.361	14484.52
737.702	14502.37
738.042	14534.24
738.383	14472.09
738.723	14574.24
739.063	14568.13
739.404	14581.69
739.744	14482.03
740.084	14542.6
740.424	14564.29
740.764	14534.69
741.104	14619.88
741.444	14592.31
741.784	14562.48
742.124	14636.83
742.464	14570.17
742.804	14575.82
743.143	14608.81
743.483	14570.62
743.823	14588.47
744.162	14614.91
744.502	14713.21
744.841	14677.96
745.181	14758.64
745.52	14844.74
745.86	14856.49
746.199	14967.45
746.538	14887.9
746.877	14972.64
747.216	14978.29
747.556	15049.48
747.895	15052.64
748.234	15038.63
748.573	15097.61
748.911	15188.91
749.25	15300.77
749.589	15221.22
749.928	15420.31
750.267	15534.44
750.605	15525.62
750.944	15521.1
751.283	15603.81
751.621	15699.4
751.96	15754.09
752.298	15795.9
752.636	15895.78
752.975	15929.23
753.313	15932.39
753.651	16196.34
753.989	16199.73
754.327	16277.69
754.666	16313.4
755.004	16512.49
755.342	16526.73
755.679	16647.18
756.017	16682.43
756.355	16867.73
756.693	16855.76
757.031	17049.88
757.368	17153.15
757.706	17208.29
758.044	17335.97
758.381	17503.42
758.719	17513.59
759.056	17669.52
759.394	17650.54
759.731	17782.74
760.068	17940.7
760.405	18041.49
760.743	17998.33
761.08	18216.17
761.417	18305.89
761.754	18398.32
762.091	18416.85
762.428	18622.04
762.765	18557.86
763.102	18776.38
763.438	18817.29
763.775	18791.3
764.112	19014.12
764.449	19133.21
764.785	19095.92
765.122	19046.43
765.458	19202.36
765.795	19144.51
766.131	19325.07
766.467	19344.73
766.804	19414.56
767.14	19398.29
767.476	19499.3
767.812	19517.83
768.148	19691.39
768.485	19509.47
768.821	19562.13
769.157	19666.53
769.492	19758.73
769.828	19729.13
770.164	19635.8
770.5	19724.61
770.836	19842.35
771.171	19745.85
771.507	19719.41
771.842	19748.34
772.178	19940.87
772.513	19806.87
772.849	19776.36
773.184	19847.54
773.519	19836.7
773.855	19848.67
774.19	19772.52
774.525	19685.51
774.86	19718.96
775.195	19806.87
775.53	19681.22
775.865	19727.32
776.2	19626.31
776.535	19601
776.87	19608
777.205	19593.54
777.539	19480.77
777.874	19559.19
778.209	19391.96
778.543	19382.02
778.878	19366.65
779.212	19409.36
779.547	19292.08
779.881	19469.7
780.215	19254.79
780.55	19349.48
780.884	19171.18
781.218	19132.31
781.552	19161.23
781.886	19147.45
782.22	19011.63
782.554	18915.82
782.888	18821.58
783.222	18767.8
783.556	18719.44
783.889	18716.27
784.223	18703.84
784.557	18640.8
784.89	18683.51
785.224	18580.01
785.557	18495.49
785.891	18487.13
786.224	18501.82
786.558	18417.52
786.891	18313.35
787.224	18249.17
787.557	18176.85
787.891	18204.87
788.224	18234.48
788.557	18154.25
788.89	18139.11
789.223	18069.96
789.556	17987.48
789.888	17971.66
790.221	17914.71
790.554	17708.84
790.887	17776.19
791.219	17778.22
791.552	17794.26
791.884	17632.69
792.217	17633.82
792.549	17500.71
792.882	17305.24
793.214	17414.61
793.546	17390.88
793.879	17346.82
794.211	17165.58
794.543	17276.09
794.875	17209.87
795.207	17198.35
795.539	17189.99
795.871	17169.42
796.203	16965.81
796.535	16947.05
796.867	16817.79
797.198	16836.55
797.53	16816.21
797.862	16760.17
798.193	16787.74
798.525	16562.88
798.856	16678.59
799.188	16505.26
799.519	16451.93
799.85	16326.73
800.182	16379.16
800.513	16393.4
800.844	16261.42
801.175	16380.74
801.506	16207.64
801.837	16227.53
802.168	16112.73
802.499	16169.45
802.83	16009.45
803.161	15956.57
803.491	15953.41
803.822	15928.1
804.153	15894.88
804.483	15743.47
804.814	15727.88
805.145	15761.77
805.475	15700.53
805.805	15599.52
806.136	15640.2
806.466	15522.91
806.796	15552.97
807.126	15390.26
807.457	15416.7
807.787	15456.25
808.117	15327.89
808.447	15322.92
808.777	15310.94
809.107	15258.51
809.436	15223.26
809.766	15229.81
810.096	15132.64
810.426	15064.84
810.755	15060.55
811.085	15003.15
811.414	15035.92
811.744	14902.14
812.073	14915.02
812.403	14915.7
812.732	14848.58
813.061	14843.61
813.39	14773.55
813.719	14683.16
814.049	14774.46
814.378	14657.4
814.707	14603.61
815.036	14609.94
815.365	14582.82
815.693	14449.27
816.022	14492.2
816.351	14451.07
816.68	14348.93
817.008	14437.97
817.337	14303.28
817.665	14316.84
817.994	14285.66
818.322	14264.41
818.651	14240.23
818.979	14187.13
819.307	14209.5
819.636	14150.29
819.964	14091.76
820.292	14112.33
820.62	14166.34
820.948	14005.21
821.276	14116.39
821.604	14024.65
821.932	14038.66
822.259	13998.88
822.587	13988.49
822.915	13954.36
823.243	13974.7
823.57	13968.38
823.898	13970.86
824.225	14034.59
824.553	14063.06
824.88	13967.25
825.207	13943.29
825.535	13951.43
825.862	13948.94
826.189	13965.89
826.516	13940.81
826.843	14028.71
827.17	13993.46
827.497	13987.13
827.824	14131.99
828.151	13941.26
828.478	13940.58
828.805	14081.82
829.131	13978.54
829.458	14006.11
829.785	13860.13
830.111	13859
830.438	14017.64
830.764	13920.92
831.09	14010.86
831.417	13934.48
831.743	13890.64
832.069	13912.11
832.395	13858.32
832.722	13902.16
833.048	13892.9
833.374	13912.11
833.7	13779
834.026	13806.57
834.351	13889.51
834.677	13757.31
835.003	13909.17
835.329	13797.08
835.654	13757.53
835.98	13736.29
836.306	13741.04
836.631	13662.17
836.956	13808.38
837.282	13720.25
837.607	13661.94
837.932	13638.44
838.258	13705.56
838.583	13560.93
838.908	13477.32
839.233	13552.57
839.558	13485.22
839.883	13535.84
840.208	13353.25
840.533	13347.15
840.858	13479.8
841.182	13470.54
841.507	13376.98
841.832	13282.52
842.156	13326.36
842.481	13343.31
842.805	13214.05
843.13	13171.11
843.454	13226.93
843.778	13172.24
844.103	13112.35
844.427	13056.08
844.751	13111
845.075	13054.73
845.399	13028.29
845.723	12908.52
846.047	12928.85
846.371	12831.68
846.695	12871
847.019	12662.65
847.343	12650.67
847.666	12604.8
847.99	12581.07
848.313	12555.98
848.637	12487.51
848.96	12506.27
849.284	12456.78
849.607	12335.42
849.931	12233.73
850.254	12222.88
850.577	12148.31
850.9	12093.62
851.223	12098.82
851.546	12062.21
851.869	12011.36
852.192	12091.81
852.515	11880.29
852.838	11850.69
853.161	11860.41
853.483	11777.92
853.806	11731.82
854.129	11770.24
854.451	11686.85
854.774	11675.78
855.096	11551.26
855.419	11582.45
855.741	11483.02
856.063	11480.76
856.385	11410.7
856.708	11480.76
857.03	11377.94
857.352	11393.08
857.674	11272.18
857.996	11290.25
858.318	11242.12
858.64	11256.58
858.961	11178.17
859.283	11115.12
859.605	11137.26
859.926	11088.45
860.248	11088.23
860.57	11015.23
860.891	11022.69
861.212	10942.47
861.534	10909.47
861.855	10884.84
862.176	10975.01
862.498	10850.49
862.819	10955.12
863.14	10859.08
863.461	10784.96
863.782	10821.11
864.103	10757.61
864.424	10829.25
864.745	10860.21
865.065	10748.35
865.386	10687.33
865.707	10671.74
866.027	10709.48
866.348	10652.53
866.668	10661.57
866.989	10675.35
867.309	10518.52
867.63	10574.79
867.95	10554.23
868.27	10497.28
868.59	10549.03
868.91	10465.42
869.23	10510.16
869.55	10400.56
869.87	10494.57
870.19	10506.32
870.51	10485.76
870.83	10452.99
871.15	10323.73
871.469	10398.53
871.789	10387.45
872.109	10359.88
872.428	10338.41
872.748	10339.32
873.067	10382.26
873.386	10240.79
873.706	10241.92
874.025	10212.99
874.344	10184.52
874.663	10182.03
874.982	10196.5
875.301	10191.98
875.62	10202.37
875.939	10099.1
876.258	10058.42
876.577	10093.22
876.896	10122.6
877.214	10029.04
877.533	10029.04
877.852	10008.03
878.17	10081.25
878.489	9995.82
878.807	10038.76
879.125	9935.26
879.444	9968.71
879.762	9871.76
880.08	9891.19
880.398	9812.33
880.716	9867.24
881.034	9859.56
881.352	9929.61
881.67	9788.15
881.988	9797.19
882.306	9782.72
882.624	9729.17
882.941	9735.72
883.259	9648.49
883.577	9669.28
883.894	9636.06
884.212	9655.49
884.529	9633.35
884.846	9633.57
885.164	9519.23
885.481	9549.51
885.798	9502.73
886.115	9503.18
886.432	9493.69
886.75	9431.55
887.067	9466.35
887.383	9430.87
887.7	9451.21
888.017	9311.55
888.334	9352.9
888.651	9389.29
888.967	9300.7
889.284	9236.97
889.6	9181.61
889.917	9102.29
890.233	9201.27
890.55	9190.65
890.866	9195.62
891.182	9086.7
891.498	9060.03
891.815	9050.99
892.131	9011.67
892.447	8943.88
892.763	8962.41
893.079	8907.72
893.395	8989.52
893.71	8869.75
894.026	8862.07
894.342	8883.54
894.657	8801.05
894.973	8766.7
895.289	8801.51
895.604	8762.41
895.92	8739.81
896.235	8596.31
896.55	8653.71
896.865	8725.8
897.181	8631.34
897.496	8659.36
897.811	8514.51
898.126	8488.29
898.441	8434.74
898.756	8466.37
899.071	8410.78
899.386	8385.92
899.7	8342.53
900.015	8317.22
900.33	8322.65
900.644	8334.4
900.959	8234.52
901.273	8220.28
901.588	8163.56
901.902	8148.19
902.216	8136.21
902.531	8061.19
902.845	8064.35
903.159	8008.53
903.473	7993.39
903.787	7899.16
904.101	7895.77
904.415	7876.78
904.729	7886.73
905.042	7781.42
905.356	7834.53
905.67	7845.6
905.984	7764.7
906.297	7757.24
906.611	7659.61
906.924	7696.68
907.237	7627.07
907.551	7611.25
907.864	7619.39
908.177	7523.35
908.491	7522.67
908.804	7482.9
909.117	7472.95
909.43	7441.54
909.743	7319.51
910.056	7401.32
910.368	7348.21
910.681	7300.53
910.994	7257.14
911.307	7253.3
911.619	7175.33
911.932	7221.66
912.244	7125.62
912.557	7142.11
912.869	7028.67
913.181	7083.81
913.494	6961.55
913.806	7010.82
914.118	6989.8
914.43	6954.55
914.742	6889.47
915.054	6866.64
915.366	6832.07
915.678	6825.29
915.99	6800.65
916.302	6773.08
916.613	6763.59
916.925	6773.54
917.236	6746.87
917.548	6651.28
917.859	6685.63
918.171	6641.79
918.482	6497.61
918.794	6546.65
919.105	6557.95
919.416	6473.88
919.727	6493.54
920.038	6436.37
920.349	6420.1
920.66	6395.24
920.971	6346.66
921.282	6382.13
921.593	6296.71
921.903	6288.58
922.214	6259.88
922.525	6237.73
922.835	6226.43
923.146	6153.44
923.456	6176.49
923.767	6151.41
924.077	6162.71
924.387	6136.27
924.697	6086.1
925.008	6030.05
925.318	6008.58
925.628	5987.12
925.938	6013.78
926.248	5925.65
926.558	5903.5
926.867	5910.51
927.177	5849.95
927.487	5872.32
927.796	5767.01
928.106	5819.66
928.416	5814.24
928.725	5746.67
929.034	5724.07
929.344	5683.4
929.653	5683.4
929.962	5580.35
930.271	5607.47
930.581	5629.84
930.89	5513
931.199	5553
931.508	5537.41
931.817	5536.51
932.125	5499.45
932.434	5428.26
932.743	5399.79
933.051	5351.65
933.36	5373.12
933.669	5348.49
933.977	5297.42
934.286	5337.42
934.594	5294.25
934.902	5233.46
935.21	5269.4
935.519	5235.72
935.827	5207.02
936.135	5191.66
936.443	5097.87
936.751	5157.99
937.059	5115.05
937.367	5063.75
937.674	5109.17
937.982	5092.22
938.29	5072.79
938.597	5053.58
938.905	4998.22
939.213	4967.93
939.52	4957.54
939.827	4948.73
940.135	4870.54
940.442	4892
940.749	4885.9
941.056	4858.78
941.363	4794.61
941.67	4802.97
941.977	4798.9
942.284	4744.21
942.591	4711.22
942.898	4739.92
943.205	4724.1
943.511	4701.27
943.818	4673.7
944.125	4613.59
944.431	4664.89
944.738	4617.21
945.044	4588.96
945.35	4540.6
945.657	4513.93
945.963	4499.02
946.269	4454.05
946.575	4468.06
946.881	4446.37
947.187	4464.67
947.493	4400.04
947.799	4397.33
948.105	4398.91
948.41	4365.01
948.716	4332.02
949.022	4318.46
949.327	4301.51
949.633	4274.17
949.938	4290.89
950.244	4280.27
950.549	4252.47
950.854	4187.39
951.16	4189.65
951.465	4160.95
951.77	4127.28
952.075	4122.53
952.38	4159.37
952.685	4128.86
952.99	4040.95
953.294	4059.94
953.599	4015.19
953.904	4021.52
954.209	3982.65
954.513	4016.55
954.818	3993.95
955.122	3958.24
955.426	3898.58
955.731	3940.39
956.035	3881.86
956.339	3850.9
956.643	3868.08
956.948	3895.65
957.252	3864.01
957.556	3816.1
957.86	3802.77
958.163	3835.76
958.467	3814.74
958.771	3748.08
959.075	3744.92
959.378	3763.45
959.682	3702.43
959.985	3654.3
960.289	3672.15
960.592	3670.12
960.896	3640.74
961.199	3666.5
961.502	3623.56
961.805	3628.53
962.108	3580.17
962.411	3565.94
962.714	3530.01
963.017	3547.41
963.32	3527.29
963.623	3551.02
963.926	3496.11
964.228	3469.89
964.531	3488.65
964.833	3452.49
965.136	3427.86
965.438	3421.53
965.741	3400.29
966.043	3364.81
966.345	3347.41
966.648	3378.37
966.95	3345.15
967.252	3297.47
967.554	3301.31
967.856	3289.33
968.158	3298.6
968.46	3282.78
968.761	3266.06
969.063	3248.66
969.365	3198.72
969.666	3214.76
969.968	3212.5
970.269	3175.44
970.571	3163.24
970.872	3148.55
971.174	3158.49
971.475	3154.2
971.776	3150.81
972.077	3080.07
972.378	3114.88
972.679	3143.35
972.98	3106.97
973.281	3093.63
973.582	3020.41
973.883	3073.29
974.183	3026.74
974.484	3043.47
974.785	2982.45
975.085	2974.99
975.386	2983.35
975.686	2963.92
975.986	2898.61
976.287	2944.94
976.587	2902.23
976.887	2881.66
977.187	2885.5
977.487	2865.39
977.787	2866.29
978.087	2866.07
978.387	2841.21
978.687	2803.47
978.987	2804.15
979.286	2778.61
979.586	2775.45
979.885	2785.17
980.185	2757.15
980.484	2711.72
980.784	2741.78
981.083	2734.09
981.382	2745.85
981.682	2702.23
981.981	2695.23
982.28	2640.09
982.579	2659.97
982.878	2613.87
983.177	2626.75
983.475	2597.38
983.774	2604.15
984.073	2582.01
984.372	2591.73
984.67	2606.19
984.969	2604.61
985.267	2554.66
985.566	2533.42
985.864	2528.22
986.162	2508.11
986.461	2520.77
986.759	2511.95
987.057	2490.94
987.355	2475.57
987.653	2442.58
987.951	2471.73
988.249	2448.68
988.547	2448
988.844	2417.72
989.142	2390.38
989.44	2393.76
989.737	2401.22
990.035	2377.72
990.332	2352.41
990.63	2381.56
990.927	2336.14
991.224	2333.88
991.521	2316.03
991.819	2330.49
992.116	2315.12
992.413	2295.69
992.71	2305.63
993.006	2243.71
993.303	2289.81
993.6	2242.36
993.897	2259.08
994.193	2233.99
994.49	2204.17
994.787	2197.39
995.083	2224.28
995.379	2197.39
995.676	2164.17
995.972	2124.39
996.268	2168.91
996.565	2102.25
996.861	2121
997.157	2094.79
997.453	2077.84
997.749	2089.59
998.044	2069.71
998.34	2101.12
998.636	2048.69
998.932	2016.83
999.227	2033.55
999.523	2017.73
999.818	2034.9
1000.114	2025.86
1000.409	2015.47
1000.704	1978.18
1001	1970.05
1001.295	1938.41
1001.59	1989.03
1001.885	1962.14
1002.18	1937.51
1002.475	1916.04
1002.77	1937.73
1003.065	1879.43
1003.359	1898.18
1003.654	1896.15
1003.949	1881.69
1004.243	1875.59
1004.538	1851.18
1004.832	1857.51
1005.127	1850.28
1005.421	1822.93
1005.715	1809.6
1006.009	1799.66
1006.304	1839.2
1006.598	1827
1006.892	1779.54
1007.186	1769.83
1007.48	1751.75
1007.773	1730.51
1008.067	1731.64
1008.361	1755.82
1008.655	1726.21
1008.948	1716.04
1009.242	1675.59
1009.535	1703.84
1009.829	1691.18
1010.122	1688.7
1010.415	1677.85
1010.708	1641.24
1011.001	1659.09
1011.295	1623.84
1011.588	1596.05
1011.881	1621.58
1012.173	1587.46
1012.466	1577.97
1012.759	1567.12
1013.052	1595.82
1013.344	1582.71
1013.637	1538.42
1013.93	1564.63
1014.222	1534.35
1014.514	1525.76
1014.807	1521.02
1015.099	1530.28
1015.391	1501.36
1015.683	1472.43
1015.976	1500.45
1016.268	1493
1016.56	1477.63
1016.851	1465.2
1017.143	1438.54
1017.435	1427.24
1017.727	1434.92
1018.018	1439.21
1018.31	1419.33
1018.602	1432.21
1018.893	1402.15
1019.185	1365.77
1019.476	1355.83
1019.767	1367.13
1020.058	1344.53
1020.35	1364.64
1020.641	1347.46
1020.932	1334.36
1021.223	1313.34
1021.514	1315.83
1021.804	1285.09
1022.095	1314.7
1022.386	1281.48
1022.677	1282.16
1022.967	1278.54
1023.258	1254.81
1023.548	1250.97
1023.839	1227.47
1024.129	1226.79
1024.419	1258.65
1024.709	1240.57
1025	1210.07
1025.29	1201.48
1025.58	1211.2
1025.87	1189.73
1026.16	1193.57
1026.449	1182.95
1026.739	1150.63
1027.029	1176.85
1027.319	1138.88
1027.608	1156.96
1027.898	1164.42
1028.187	1143.63
1028.477	1121.93
1028.766	1138.66
1029.055	1121.26
1029.344	1118.77
1029.634	1089.84
1029.923	1102.95
1030.212	1102.95
1030.501	1084.87
1030.79	1090.3
1031.078	1077.64
1031.367	1083.52
1031.656	1043.07
1031.945	1022.05
1032.233	1039.22
1032.522	1045.78
1032.81	1036.29
1033.099	1020.47
1033.387	1033.8
1033.675	1008.26
1033.963	1006.68
1034.251	1003.29
1034.54	983.86
1034.828	1006.91
1035.116	981.82
1035.403	978.89
1035.691	956.06
1035.979	959.23
1036.267	938.66
1036.554	922.62
1036.842	936.18
1037.129	948.38
1037.417	929.4
1037.704	919
1037.992	925.55
1038.279	904.09
1038.566	884.65
1038.853	884.65
1039.14	884.65
