Data from hue_22_FLMS001491_00062.txt Node
Date: Tue Feb 07 17:10:28 GMT 2017
User: dcchb
Spectrometer: FLMS00149
Trigger mode: 0
Integration Time (sec): 2.000000E-2
Scans to average: 10
Electric dark correction enabled: true
Nonlinearity correction enabled: false
Boxcar width: 0
XAxis mode: Wavelengths
Number of Pixels in Spectrum: 2048
>>>>>Begin Spectral Data<<<<<
341.393	-31.02
341.776	-31.02
342.16	-31.02
342.543	-67.17
342.927	-70.79
343.31	-68.3
343.693	-65.59
344.077	-79.15
344.46	-65.59
344.843	-60.62
345.226	-33.28
345.61	-33.95
345.993	-21.75
346.376	-2.32
346.759	7.4
347.142	42.2
347.525	63.67
347.908	70
348.291	77.23
348.674	72.26
349.057	97.79
349.44	139.6
349.823	138.47
350.206	128.53
350.588	197.68
350.971	201.75
351.354	210.56
351.737	247.62
352.119	260.28
352.502	260.28
352.884	254.17
353.267	307.51
353.65	283.33
354.032	284.46
354.414	317.9
354.797	300.5
355.179	324
355.562	338.92
355.944	316.55
356.326	317.22
356.709	327.17
357.091	344.57
357.473	333.04
357.855	343.66
358.238	330.33
358.62	340.5
359.002	347.5
359.384	333.27
359.766	351.57
360.148	322.19
360.53	318.13
360.912	341.4
361.294	324.45
361.676	335.3
362.057	318.81
362.439	332.36
362.821	346.38
363.203	339.6
363.584	337.56
363.966	319.48
364.348	347.05
364.729	314.29
365.111	312.48
365.493	308.41
365.874	304.34
366.256	314.51
366.637	330.78
367.019	330.33
367.4	319.94
367.781	330.33
368.163	325.81
368.544	301.63
368.925	293.27
369.306	327.17
369.688	301.18
370.069	312.48
370.45	293.04
370.831	320.84
371.212	313.61
371.593	327.39
371.974	301.86
372.355	309.09
372.736	295.98
373.117	305.02
373.498	326.26
373.879	304.12
374.26	314.74
374.641	316.32
375.021	317.68
375.402	313.61
375.783	335.08
376.163	335.53
376.544	329.2
376.925	319.94
377.305	332.36
377.686	334.17
378.066	350.44
378.447	324.45
378.827	331.23
379.208	342.53
379.588	331.23
379.968	345.02
380.349	337.34
380.729	344.57
381.109	336.66
381.489	350.89
381.87	350.44
382.25	344.57
382.63	342.53
383.01	344.12
383.39	337.79
383.77	361.06
384.15	350.22
384.53	346.15
384.91	354.28
385.29	330.78
385.67	371.23
386.049	361.29
386.429	352.48
386.809	367.84
387.189	357.9
387.568	349.31
387.948	340.5
388.328	367.39
388.707	381.4
389.087	381.4
389.466	340.27
389.846	366.26
390.225	379.37
390.605	361.52
390.984	384.11
391.363	363.55
391.743	400.61
392.122	383.44
392.501	366.94
392.881	395.41
393.26	378.01
393.639	378.01
394.018	384.57
394.397	386.83
394.776	408.75
395.155	380.95
395.534	403.55
395.913	367.62
396.292	405.81
396.671	395.64
397.05	397.9
397.429	397.67
397.808	406.03
398.186	387.73
398.565	405.36
398.944	401.97
399.323	406.26
399.701	422.31
400.08	399.48
400.458	404.9
400.837	417.11
401.215	428.41
401.594	393.38
401.972	390.89
402.351	411.01
402.729	429.31
403.107	394.28
403.486	432.25
403.864	428.18
404.242	439.03
404.62	430.44
404.999	446.03
405.377	451.23
405.755	450.78
406.133	441.74
406.511	428.86
406.889	435.86
407.267	428.18
407.645	462.53
408.023	443.32
408.401	470.89
408.779	462.08
409.156	440.61
409.534	455.3
409.912	466.37
410.29	472.93
410.667	488.07
411.045	485.81
411.422	458.69
411.8	483.32
412.178	476.77
412.555	496.88
412.933	473.38
413.31	496.2
413.687	469.76
414.065	496.88
414.442	506.14
414.819	509.76
415.197	496.43
415.574	518.12
415.951	531.45
416.328	517.9
416.705	510.66
417.082	514.96
417.46	542.08
417.837	526.48
418.214	546.82
418.591	537.33
418.967	558.12
419.344	554.28
419.721	566.26
420.098	543.21
420.475	540.27
420.852	570.32
421.228	580.04
421.605	571
421.982	552.02
422.358	574.17
422.735	572.81
423.111	590.66
423.488	590.44
423.864	599.7
424.241	617.1
424.617	606.03
424.994	592.92
425.37	600.15
425.746	626.37
426.123	631.11
426.499	607.84
426.875	621.85
427.251	631.11
427.627	614.62
428.003	655.52
428.379	629.31
428.756	638.34
429.132	662.3
429.507	660.27
429.883	655.07
430.259	659.36
430.635	676.76
431.011	670.43
431.387	679.25
431.763	702.98
432.138	696.42
432.514	707.27
432.89	737.1
433.265	719.25
433.641	703.2
434.016	717.89
434.392	753.37
434.767	741.84
435.143	727.83
435.518	744.56
435.894	766.7
436.269	747.95
436.644	761.73
437.02	785.91
437.395	774.39
437.77	797.21
438.145	795.63
438.52	776.87
438.895	798.11
439.271	812.8
439.646	832.24
440.021	824.1
440.395	823.42
440.77	827.72
441.145	844.22
441.52	840.6
441.895	809.64
442.27	852.35
442.645	827.94
443.019	846.47
443.394	872.46
443.769	874.95
444.143	874.27
444.518	884.44
444.892	884.21
445.267	907.94
445.641	907.49
446.016	916.98
446.39	895.74
446.764	910.65
447.139	905
447.513	898.68
447.887	957.21
448.262	907.49
448.636	932.35
449.01	920.37
449.384	951.33
449.758	946.13
450.132	972.35
450.506	982.29
450.88	970.54
451.254	987.04
451.628	986.58
452.002	987.71
452.376	1020.03
452.75	1015.06
453.123	1033.59
453.497	1032.68
453.871	1016.64
454.244	1086.92
454.618	1059.12
454.992	1079.46
455.365	1080.59
455.739	1081.05
456.112	1093.93
456.486	1098.67
456.859	1116.75
457.232	1148.39
457.606	1109.29
457.979	1179.12
458.352	1170.76
458.725	1194.94
459.099	1211.44
459.472	1211.21
459.845	1193.13
460.218	1232.23
460.591	1252.57
460.964	1258.44
461.337	1274.94
461.71	1284.2
462.083	1311.1
462.456	1304.54
462.829	1328.27
463.201	1330.3
463.574	1352
463.947	1338.21
464.32	1388.16
464.692	1427.48
465.065	1407.59
465.438	1410.53
465.81	1453.01
466.183	1448.27
466.555	1497.76
466.928	1485.1
467.3	1495.5
467.672	1530.3
468.045	1559.45
468.417	1547.7
468.789	1591.77
469.161	1576.4
469.534	1614.36
469.906	1662.5
470.278	1661.37
470.65	1671.76
471.022	1726.9
471.394	1731.88
471.766	1761.93
472.138	1785.43
472.51	1855.04
472.882	1855.49
473.253	1874.7
473.625	1909.05
473.997	1951.08
474.369	1968.93
474.74	1984.75
475.112	2003.73
475.484	2069.04
475.855	2083.73
476.227	2110.62
476.598	2165.76
476.97	2197.17
477.341	2225.87
477.713	2281.01
478.084	2333.44
478.455	2396.94
478.827	2375.7
479.198	2477.62
479.569	2477.84
479.94	2525.53
480.311	2586.99
480.682	2611.4
481.053	2676.71
481.424	2735.69
481.795	2768.68
482.166	2815.69
482.537	2867.66
482.908	2927.32
483.279	2975.68
483.65	3038.51
484.021	3102.91
484.391	3157.83
484.762	3154.89
485.133	3164.83
485.503	3266.52
485.874	3326.64
486.244	3372.06
486.615	3459.74
486.985	3483.69
487.356	3550.81
487.726	3629.45
488.097	3701.54
488.467	3769.56
488.837	3807.3
489.207	3865.6
489.578	3911.93
489.948	3927.3
490.318	3993.51
490.688	4028.54
491.058	4095.43
491.428	4203
491.798	4200.29
492.168	4306.27
492.538	4301.07
492.908	4372.26
493.278	4442.99
493.648	4473.5
494.017	4489.09
494.387	4573.38
494.757	4624
495.126	4675.98
495.496	4700.84
495.866	4729.31
496.235	4820.38
496.605	4840.27
496.974	4860.83
497.344	4923.88
497.713	4918.01
498.082	4976.08
498.452	5052.24
498.821	5069.87
499.19	5062.18
499.559	5112.13
499.928	5148.06
500.298	5193.48
500.667	5253.36
501.036	5256.75
501.405	5329.52
501.774	5299.24
502.143	5370.2
502.512	5398.22
502.88	5438.22
503.249	5447.03
503.618	5493.36
503.987	5490.19
504.356	5546.01
504.724	5549.18
505.093	5609.51
505.462	5666.91
505.83	5656.07
506.199	5678.66
506.567	5740.13
506.936	5759.11
507.304	5829.39
507.672	5836.17
508.041	5860.81
508.409	5859.68
508.777	5991.65
509.145	5982.16
509.514	5971.54
509.882	6038.2
510.25	6012.21
510.618	6087.24
510.986	6078.88
511.354	6202.49
511.722	6213.11
512.09	6244.07
512.458	6177.63
512.826	6308.93
513.193	6324.07
513.561	6342.83
513.929	6365.43
514.297	6424.41
514.664	6484.07
515.032	6432.09
515.4	6500.11
515.767	6562.48
516.135	6559.55
516.502	6546.44
516.869	6587.11
517.237	6654.68
517.604	6611.3
517.972	6658.98
518.339	6689.49
518.706	6720.9
519.073	6771.52
519.44	6791.4
519.808	6839.54
520.175	6801.12
520.542	6940.55
520.909	6961.34
521.276	6921.12
521.643	7006.76
522.009	7056.71
522.376	7089.7
522.743	7136.03
523.11	7136.48
523.477	7224.61
523.843	7315.46
524.21	7343.71
524.577	7374.21
524.943	7358.39
525.31	7386.42
525.676	7464.15
526.043	7546.64
526.409	7538.95
526.776	7581.67
527.142	7595.45
527.508	7653.98
527.874	7780.53
528.241	7777.82
528.607	7828.21
528.973	7878.15
529.339	7878.61
529.705	7969.9
530.071	7996.8
530.437	8061.88
530.803	8088.54
531.169	8168.77
531.535	8091.93
531.901	8150.01
532.267	8234.76
532.632	8232.72
532.998	8260.29
533.364	8292.61
533.73	8319.5
534.095	8417.8
534.461	8476.56
534.826	8451.92
535.192	8502.54
535.557	8540.74
535.923	8572.6
536.288	8634.29
536.653	8611.24
537.019	8645.82
537.384	8683.33
537.749	8664.57
538.114	8821.86
538.479	8822.31
538.845	8780.28
539.21	8793.38
539.575	8900.05
539.94	8942.31
540.305	8961.29
540.67	8962.87
541.034	9031.8
541.399	9037.67
541.764	9053.94
542.129	9077.22
542.494	9138.01
542.858	9156.09
543.223	9221.85
543.587	9262.3
543.952	9233.83
544.316	9402.18
544.681	9356.31
545.045	9406.93
545.41	9361.96
545.774	9403.76
546.138	9529.64
546.503	9497.09
546.867	9560.14
547.231	9625.23
547.595	9641.95
547.959	9599.69
548.324	9677.88
548.688	9650.09
549.052	9726.92
549.416	9742.29
549.779	9791.32
550.143	9895.28
550.507	9889.63
550.871	9921.26
551.235	9967.82
551.599	9975.05
551.962	9986.8
552.326	9995.39
552.689	10088.04
553.053	10063.18
553.417	10123.75
553.78	10259.79
554.143	10241.48
554.507	10261.14
554.87	10246.23
555.234	10408.26
555.597	10316.96
555.96	10407.81
556.323	10379.78
556.686	10387.69
557.05	10532.1
557.413	10513.11
557.776	10537.07
558.139	10526.67
558.502	10730.28
558.865	10700.68
559.228	10703.84
559.59	10710.85
559.953	10780.45
560.316	10805.76
560.679	10799.43
561.041	10896.61
561.404	11041.69
561.767	11062.48
562.129	10951.52
562.492	11151.51
562.854	11083.72
563.217	11061.12
563.579	11187.45
563.941	11231.74
564.304	11208.46
564.666	11202.36
565.028	11291.62
565.39	11340.44
565.753	11404.84
566.115	11422.24
566.477	11488.91
566.839	11503.6
567.201	11641.9
567.563	11546.98
567.925	11678.28
568.287	11694.55
568.648	11729.58
569.01	11723.7
569.372	11879.63
569.734	11870.14
570.095	11899.29
570.457	12020.64
570.819	11957.37
571.18	12002.34
571.542	12168.66
571.903	12158.27
572.265	12243.01
572.626	12320.75
572.987	12330.01
573.349	12418.83
573.71	12337.92
574.071	12463.12
574.432	12545.15
574.794	12726.84
575.155	12735.2
575.516	12772.49
575.877	12808.65
576.238	12863.79
576.599	13012.71
576.96	13061.75
577.32	13179.71
577.681	13296.09
578.042	13363.66
578.403	13410.44
578.763	13473.71
579.124	13597.55
579.485	13711.22
579.845	13872.12
580.206	13948.96
580.566	14024.43
580.927	14158.89
581.287	14336.52
581.648	14356.4
582.008	14576.74
582.368	14685.21
582.728	14885.43
583.089	15046.1
583.449	15165.87
583.809	15319.09
584.169	15556.14
584.529	15751.85
584.889	16060.76
585.249	16086.53
585.609	16320.19
585.969	16580.52
586.329	16740.75
586.688	17029.33
587.048	17278.13
587.408	17464.8
587.768	17658.24
588.127	17929.42
588.487	18190.43
588.846	18488.95
589.206	18535.5
589.565	18896.17
589.925	19169.61
590.284	19358.08
590.643	19768.46
591.003	20105.18
591.362	20338.39
591.721	20618.16
592.08	20915.55
592.44	21352.6
592.799	21571.58
593.158	21809.99
593.517	22139.02
593.876	22670.76
594.235	22827.37
594.593	23143.97
594.952	23512.55
595.311	23646.55
595.67	24164.73
596.029	24561.78
596.387	24928.1
596.746	25322.89
597.104	25391.14
597.463	25730.34
597.822	26255.3
598.18	26380.04
598.538	26707.72
598.897	27227.93
599.255	27332.78
599.613	27963.73
599.972	28013.9
600.33	28552.19
600.688	28676.25
601.046	29047.99
601.404	29538.83
601.762	29726.85
602.12	30110.56
602.478	30410.44
602.836	30843.43
603.194	30854.27
603.552	31307.14
603.91	31472.56
604.268	31794.81
604.625	31995.49
604.983	32509.6
605.341	32651.97
605.698	33050.6
606.056	33437.48
606.413	33599.51
606.771	33972.61
607.128	34288.99
607.485	34433.16
607.843	34658.69
608.2	35192.92
608.557	35516.3
608.914	35631.77
609.272	35991.09
609.629	36084.42
609.986	36631.52
610.343	36524.63
610.7	36978.86
611.057	37241.45
611.414	37419.75
611.771	37647.09
612.127	37931.83
612.484	38081.43
612.841	38409.78
613.198	38521.87
613.554	38614.97
613.911	38985.36
614.267	39220.16
614.624	39371.79
614.98	39473.48
615.337	40014.26
615.693	40002.28
616.05	40097.19
616.406	40506.9
616.762	40544.19
617.118	40577.63
617.475	40821.24
617.831	41180.1
618.187	41417.16
618.543	41555.24
618.899	41799.97
619.255	41823.02
619.611	41949.12
619.967	42254.2
620.323	42411.26
620.678	42431.82
621.034	42416.91
621.39	42521.76
621.746	42591.37
622.101	43171.01
622.457	42961.53
622.812	43080.17
623.168	43439.48
623.523	43378.92
623.879	43692.58
624.234	43411.91
624.589	43771.67
624.945	43768.51
625.3	43904.33
625.655	43923.53
626.01	43999.24
626.365	44083.08
626.72	44118.11
627.075	44106.58
627.43	44151.1
627.785	44298.21
628.14	44469.28
628.495	44605.55
628.85	44493.46
629.205	44446.68
629.559	44679.67
629.914	44649.16
630.269	44831.08
630.623	44614.36
630.978	44753.34
631.332	44990.85
631.687	45059.32
632.041	44888.48
632.396	44986.11
632.75	44813
633.104	44876.5
633.459	44873.11
633.813	44944.75
634.167	44952.43
634.521	44963.28
634.875	45066.78
635.229	44951.53
635.583	44911.3
635.937	44961.47
636.291	44862.49
636.645	44943.17
636.999	44896.62
637.352	45052.09
637.706	44770.74
638.06	45065.88
638.413	45033.34
638.767	44876.5
639.121	45027.46
639.474	44797.41
639.828	44985.65
640.181	44921.7
640.534	45054.35
640.888	44877.86
641.241	44812.1
641.594	44937.97
641.947	45060.23
642.301	44858.88
642.654	44996.05
643.007	44998.31
643.36	44883.06
643.713	44789.5
644.066	45039.89
644.419	44850.74
644.771	44683.97
645.124	44131.66
645.477	44020.03
645.83	43809.41
646.182	43824.78
646.535	43645.12
646.888	43659.13
647.24	43525.35
647.593	43837.89
647.945	43819.58
648.298	43536.88
648.65	43473.15
649.002	43479.48
649.355	43672.47
649.707	43683.31
650.059	43769.19
650.411	44328.27
650.763	44256.63
651.115	44689.84
651.467	44636.28
651.819	44470.86
652.171	44355.39
652.523	44426.8
652.875	44328.72
653.227	44192.45
653.578	44566.68
653.93	44414.82
654.282	44410.08
654.633	44277.2
654.985	44238.33
655.337	44393.8
655.688	44295.95
656.039	44461.15
656.391	44201.95
656.742	44263.64
657.094	44239.46
657.445	44350.64
657.796	44328.95
658.147	44324.88
658.498	44161.04
658.849	44356.07
659.2	44300.7
659.551	44149.52
659.902	44225
660.253	44153.36
660.604	44180.48
660.955	44068.39
661.306	44223.87
661.656	44122.63
662.007	44115.85
662.358	44104.09
662.708	44136.64
663.059	44184.77
663.409	43823.42
663.76	44168.05
664.11	44151.1
664.461	44249.63
664.811	44152.91
665.161	43974.61
665.511	44007.83
665.862	43882.41
666.212	44147.03
666.562	44080.37
666.912	44089.63
667.262	44085.56
667.612	44058.22
667.962	44170.31
668.312	43996.53
668.662	44109.97
669.011	43985
669.361	44021.61
669.711	43946.58
670.06	43849.86
670.41	43851.22
670.76	43876.3
671.109	43934.38
671.459	43955.4
671.808	43827.94
672.157	43973.25
672.507	43738.91
672.856	43739.81
673.205	43834.95
673.554	43816.64
673.904	43756.99
674.253	43975.28
674.602	43869.52
674.951	43233.83
675.3	42960.85
675.649	43736.19
675.998	43735.52
676.346	43668.4
676.695	43757.21
677.044	43515.64
677.393	43503.43
677.741	43593.15
678.09	43462.53
678.438	43375.07
678.787	43500.95
679.135	43469.08
679.484	43294.4
679.832	43201.75
680.181	43246.49
680.529	43184.12
680.877	43192.25
681.225	43162.88
681.573	43341.4
681.922	43165.36
682.27	42972.6
682.618	43027.06
682.966	42894.18
683.314	42934.63
683.661	42688.76
684.009	42662.78
684.357	42682.66
684.705	42518.6
685.053	42633.62
685.4	42584.36
685.748	42389.79
686.095	42339.85
686.443	42254.88
686.79	42124.49
687.138	42282.67
687.485	42245.84
687.832	42025.96
688.18	42071.83
688.527	41799.3
688.874	41972.85
689.221	41868.45
689.568	41723.59
689.915	41662.35
690.262	41579.87
690.609	41465.75
690.956	41350.95
691.303	41372.87
691.65	41153.89
691.997	41200.67
692.344	40927.23
692.69	40923.16
693.037	41018.98
693.383	40582.61
693.73	40762.49
694.077	40416.28
694.423	40433.46
694.769	40354.59
695.116	40264.42
695.462	40319.11
695.808	40320.24
696.155	40213.8
696.501	39948.27
696.847	39892
697.193	39696.98
697.539	39876.64
697.885	39567.72
698.231	39481.84
698.577	39439.58
698.923	39511.45
699.269	39219.03
699.614	39164.11
699.96	39044.57
700.306	39010.44
700.651	38700.17
700.997	38602.77
701.342	38711.24
701.688	38689.55
702.033	38305.6
702.379	38418.82
702.724	38372.49
703.069	38365.71
703.415	37925.95
703.76	38028.55
704.105	38000.75
704.45	37991.26
704.795	37678.5
705.14	37704.71
705.485	37658.16
705.83	37458.17
706.175	37601.89
706.52	37233.77
706.865	37324.16
707.209	37268.57
707.554	37144.96
707.899	37172.3
708.243	36939.09
708.588	36804.4
708.932	36623.39
709.277	36693.22
709.621	36633.1
709.966	36476.5
710.31	36525.08
710.654	36180.91
710.998	36336.62
711.342	36264.98
711.687	36143.17
712.031	36049.62
712.375	35979.11
712.719	35969.85
713.063	35892.11
713.407	35992.67
713.75	35653.24
714.094	35673.81
714.438	35563.75
714.782	35497.77
715.125	35424.55
715.469	35568.5
715.812	35463.19
716.156	35214.38
716.499	35187.27
716.843	35167.15
717.186	34975.07
717.53	35201.05
717.873	35163.99
718.216	35070.66
718.559	34804
718.902	34696.43
719.246	34801.29
719.589	34756.77
719.932	34558.58
720.275	34470
720.617	34512.03
720.96	34385.25
721.303	34421.64
721.646	34375.31
721.989	34188.2
722.331	34193.17
722.674	34224.58
723.016	34224.13
723.359	34031.59
723.701	34031.82
724.044	33748.66
724.386	33703.24
724.729	33899.62
725.071	33764.93
725.413	33715.44
725.755	33696.23
726.097	33527.2
726.439	33407.43
726.782	33447.43
727.124	33569.23
727.465	33480.87
727.807	33380.08
728.149	33308.9
728.491	33166.98
728.833	33417.6
729.175	33251.95
729.516	33119.75
729.858	33029.13
730.199	33169.69
730.541	33033.2
730.882	33143.48
731.224	33074.33
731.565	32765.86
731.906	32769.25
732.248	32921.56
732.589	32624.4
732.93	32546.21
733.271	32583.72
733.612	32579.65
733.953	32479.99
734.294	32388.24
734.635	32285.42
734.976	32401.35
735.317	32220.79
735.658	32207.68
735.999	32289.72
736.339	32280.9
736.68	32265.08
737.021	32164.07
737.361	32113
737.702	32171.08
738.042	32010.85
738.383	32010.18
738.723	32025.54
739.063	32029.84
739.404	32024.64
739.744	31899.9
740.084	31760.69
740.424	31764.08
740.764	31847.24
741.104	31753.46
741.444	31632.56
741.784	31481.6
742.124	31508.95
742.464	31532.45
742.804	31511.43
743.143	31428.5
743.483	31340.81
743.823	31263.98
744.162	31207.94
744.502	31283.41
744.841	30965.46
745.181	31144.66
745.52	31009.98
745.86	31133.59
746.199	31079.13
746.538	31054.27
746.877	31180.82
747.216	30962.07
747.556	30967.26
747.895	30906.25
748.234	30713.26
748.573	30774.5
748.911	30661.96
749.25	30655.63
749.589	30659.25
749.928	30672.58
750.267	30639.82
750.605	30470.33
750.944	30483.89
751.283	30320.5
751.621	30511.91
751.96	30194.63
752.298	30265.81
752.636	30403.44
752.975	30101.98
753.313	29980.4
753.651	30032.37
753.989	29847.52
754.327	29839.61
754.666	29766.62
755.004	29821.08
755.342	29706.28
755.679	29823.34
756.017	29631.25
756.355	29562.56
756.693	29568.43
757.031	29554.65
757.368	29399.4
757.706	29420.86
758.044	29258.61
758.381	29191.49
758.719	29114.66
759.056	29128.44
759.394	29091.38
759.731	28937.71
760.068	28806.64
760.405	28738.4
760.743	28772.97
761.08	28712.18
761.417	28629.47
761.754	28480.55
762.091	28650.26
762.428	28304.74
762.765	28171.63
763.102	28281.23
763.438	28270.16
763.775	27974.58
764.112	27994.46
764.449	28057.51
764.785	27899.55
765.122	27794.92
765.458	27588.14
765.795	27549.73
766.131	27622.72
766.467	27443.97
766.804	27216.85
767.14	27239.91
767.476	27170.08
767.812	27065.22
768.148	27096.18
768.485	26850.99
768.821	26746.13
769.157	26623.65
769.492	26769.64
769.828	26698.45
770.164	26445.35
770.5	26342.75
770.836	26308.86
771.171	26147.28
771.507	26265.47
771.842	26002.88
772.178	25935.31
772.513	25787.74
772.849	25776.89
773.184	25701.19
773.519	25667.29
773.855	25619.38
774.19	25383.23
774.525	25408.77
774.86	25344.14
775.195	25358.37
775.53	25100.98
775.865	24958.16
776.2	24838.39
776.535	24689.46
776.87	24735.34
777.205	24530.82
777.539	24473.42
777.874	24573.76
778.209	24372.86
778.543	24267.78
778.878	24161.34
779.212	24074.11
779.547	23988.69
779.881	24065.53
780.215	23881.12
780.55	23880.22
780.884	23649.04
781.218	23670.73
781.552	23550.51
781.886	23533.56
782.22	23428.25
782.554	23237.52
782.888	23149.84
783.222	23029.17
783.556	22931.32
783.889	22965.67
784.223	22700.14
784.557	22740.59
784.89	22696.97
785.224	22593.25
785.557	22407.04
785.891	22408.62
786.224	22350.99
786.558	22297.44
786.891	22179.25
787.224	22133.37
787.557	22054.73
787.891	21904.68
788.224	21917.11
788.557	21905.81
788.89	21757.11
789.223	21758.92
789.556	21591.24
789.888	21613.84
790.221	21522.32
790.554	21330.23
790.887	21315.09
791.219	21203.91
791.552	21113.74
791.884	20928.43
792.217	21043.46
792.549	20856.34
792.882	20758.95
793.214	20760.3
793.546	20747.65
793.879	20552.17
794.211	20529.12
794.543	20667.42
794.875	20455.22
795.207	20565.28
795.539	20367.77
795.871	20406.19
796.203	20151.28
796.535	20040.32
796.867	20056.14
797.198	20075.12
797.53	19955.58
797.862	19800.55
798.193	19920.1
798.525	19731.4
798.856	19764.62
799.188	19533.89
799.519	19515.14
799.85	19378.42
800.182	19441.92
800.513	19467.91
800.844	19244.18
801.175	19327.8
801.506	19322.37
801.837	19162.83
802.168	19154.24
802.499	19015.71
802.83	19000.8
803.161	18893.01
803.491	18843.06
803.822	18869.96
804.153	18848.26
804.483	18548.61
804.814	18534.6
805.145	18535.05
805.475	18610.75
805.805	18487.37
806.136	18502.96
806.466	18399.01
806.796	18366.92
807.126	18309.07
807.457	18203.76
807.787	18143.2
808.117	18121.73
808.447	17933.03
808.777	18050.32
809.107	17949.98
809.436	17978.91
809.766	17828.18
810.096	17826.82
810.426	17780.04
810.755	17790.89
811.085	17684.45
811.414	17651.23
811.744	17556.09
812.073	17574.85
812.403	17564.45
812.732	17405.14
813.061	17392.93
813.39	17259.38
813.719	17277.23
814.049	17306.16
814.378	17295.53
814.707	17195.2
815.036	17144.58
815.365	17093.28
815.693	16972.83
816.022	17019.61
816.351	16960.63
816.68	16648.55
817.008	16814.42
817.337	16569.9
817.665	16696.68
817.994	16683.35
818.322	16632.05
818.651	16623.46
818.979	16496.68
819.307	16642.22
819.636	16536.68
819.964	16377.59
820.292	16471.83
820.62	16592.28
820.948	16414.65
821.276	16383.02
821.604	16424.6
821.932	16376.46
822.259	16328.1
822.587	16379.63
822.915	16284.94
823.243	16375.11
823.57	16347.08
823.898	16329.91
824.225	16288.55
824.553	16246.3
824.88	16304.6
825.207	16444.48
825.535	16303.7
825.862	16288.1
826.189	16309.35
826.516	16293.3
826.843	16204.04
827.17	16303.7
827.497	16277.26
827.824	16304.37
828.151	16324.71
828.478	16222.34
828.805	16387.54
829.131	16324.03
829.458	16287.88
829.785	16250.36
830.111	16155
830.438	16257.82
830.764	16318.38
831.09	16239.52
831.417	16181.66
831.743	16193.19
832.069	16228.44
832.395	16163.81
832.722	16211.27
833.048	16081.33
833.374	16170.14
833.7	16067.54
834.026	16058.96
834.351	16096.24
834.677	16087.2
835.003	16058.05
835.329	16110.71
835.654	15990.03
835.98	15960.43
836.306	16037.04
836.631	15938.28
836.956	15897.38
837.282	15976.7
837.607	15926.3
837.932	15798.4
838.258	15902.12
838.583	15759.08
838.908	15746.2
839.233	15658.29
839.558	15716.14
839.883	15676.59
840.208	15594.56
840.533	15633.2
840.858	15690.15
841.182	15568.8
841.507	15661.45
841.832	15434.11
842.156	15487.67
842.481	15400.44
842.805	15433.44
843.13	15448.35
843.454	15353.89
843.778	15262.82
844.103	15317.96
844.427	15275.02
844.751	15209.94
845.075	15155.03
845.399	15145.53
845.723	15085.42
846.047	15104.18
846.371	14904.41
846.695	14921.36
847.019	14792.1
847.343	14783.06
847.666	14646.34
847.99	14540.35
848.313	14608.6
848.637	14489.96
848.96	14527.47
849.284	14489.51
849.607	14301.49
849.931	14343.07
850.254	14208.61
850.577	14115.96
850.9	14013.13
851.223	14042.51
851.546	14007.71
851.869	13883.65
852.192	13943.08
852.515	13778.56
852.838	13796.64
853.161	13699.47
853.483	13695.85
853.806	13580.38
854.129	13613.14
854.451	13585.12
854.774	13485.69
855.096	13446.6
855.419	13428.52
855.741	13452.02
856.063	13322.08
856.385	13304.45
856.708	13285.7
857.03	13212.48
857.352	13252.93
857.674	13075.76
857.996	13061.52
858.318	13019.71
858.64	12984.91
858.961	12978.13
859.283	12931.35
859.605	12901.98
859.926	12897.23
860.248	12889.32
860.57	12767.74
860.891	12825.82
861.212	12776.78
861.534	12726.61
861.855	12705.15
862.176	12662.21
862.498	12669.89
862.819	12656.33
863.14	12481.88
863.461	12605.26
863.782	12584.7
864.103	12513.06
864.424	12468.99
864.745	12457.47
865.065	12443.68
865.386	12365.49
865.707	12326.63
866.027	12359.84
866.348	12291.15
866.668	12304.25
866.989	12303.12
867.309	12208.21
867.63	12239.85
867.95	12248.44
868.27	12174.31
868.59	12097.48
868.91	12137.7
869.23	12117.59
869.55	12031.27
869.87	12085.28
870.19	12046.41
870.51	12107.42
870.83	12091.38
871.15	12007.99
871.469	11990.14
871.789	12048.44
872.109	11940.87
872.428	11857.48
872.748	11866.3
873.067	11897.94
873.386	11976.58
873.706	11896.58
874.025	11805.28
874.344	11799.86
874.663	11817.94
874.982	11753.08
875.301	11769.35
875.62	11703.36
875.939	11694.78
876.258	11777.71
876.577	11669.69
876.896	11735
877.214	11660.2
877.533	11640.32
877.852	11615.01
878.17	11547.89
878.489	11618.62
878.807	11542.92
879.125	11564.39
879.444	11552.18
879.762	11488.23
880.08	11462.92
880.398	11383.6
880.716	11469.7
881.034	11411.39
881.352	11457.04
881.67	11353.09
881.988	11319.42
882.306	11246.2
882.624	11222.7
882.941	11194
883.259	11166.66
883.577	11194.23
883.894	11189.03
884.212	11139.76
884.529	11142.93
884.846	11076.71
885.164	11038.3
885.481	10990.61
885.798	11063.16
886.115	10919.43
886.432	10983.38
886.75	10988.81
887.067	10955.59
887.383	10917.4
887.7	10861.8
888.017	10813.9
888.334	10829.94
888.651	10734.8
888.967	10810.51
889.284	10772.54
889.6	10689.38
889.917	10551.98
890.233	10675.6
890.55	10589.27
890.866	10547.24
891.182	10484.19
891.498	10543.4
891.815	10445.32
892.131	10366.22
892.447	10434.25
892.763	10348.37
893.079	10374.13
893.395	10315.38
893.71	10302.05
894.026	10199.68
894.342	10213.23
894.657	10223.63
894.973	10146.57
895.289	10137.08
895.604	10075.84
895.92	10069.74
896.235	10012.11
896.55	10017.76
896.865	10050.07
897.181	9912
897.496	9922.39
897.811	9940.93
898.126	9871.32
898.441	9797.65
898.756	9770.99
899.071	9713.81
899.386	9764.66
899.7	9651.22
900.015	9617.77
900.33	9542.97
900.644	9519.69
900.959	9537.09
901.273	9492.35
901.588	9456.87
901.902	9395.85
902.216	9399.02
902.531	9382.52
902.845	9314.73
903.159	9265.24
903.473	9225.92
903.787	9204.22
904.101	9125.58
904.415	9144.79
904.729	9069.08
905.042	9100.5
905.356	9048.97
905.67	9061.17
905.984	9104.79
906.297	9005.13
906.611	8922.87
906.924	8911.35
907.237	8858.92
907.551	8869.99
907.864	8786.15
908.177	8752.03
908.491	8749.32
908.804	8674.07
909.117	8689.43
909.43	8599.49
909.743	8562.43
910.056	8598.81
910.368	8495.09
910.681	8422.77
910.994	8439.27
911.307	8428.65
911.619	8358.37
911.932	8347.29
912.244	8312.27
912.557	8274.08
912.869	8196.79
913.181	8157.7
913.494	8190.24
913.806	8165.38
914.118	8077.92
914.43	8020.3
914.742	8051.48
915.054	8002.44
915.366	8009
915.678	7945.72
915.99	7874.99
916.302	7860.08
916.613	7879.74
916.925	7833.86
917.236	7762.68
917.548	7748.21
917.859	7726.07
918.171	7669.57
918.482	7578.5
918.794	7621.89
919.105	7593.42
919.416	7509.35
919.727	7500.09
920.038	7491.05
920.349	7429.8
920.66	7455.57
920.971	7452.85
921.282	7369.02
921.593	7351.39
921.903	7232.97
922.214	7263.26
922.525	7276.81
922.835	7202.24
923.146	7196.59
923.456	7110.04
923.767	7115.01
924.077	7107.55
924.387	7029.14
924.697	7017.61
925.008	6946.43
925.318	6900.1
925.628	6944.85
925.938	6918.63
926.248	6832.08
926.558	6789.82
926.867	6806.54
927.177	6759.77
927.487	6766.77
927.796	6709.82
928.106	6680.45
928.416	6657.85
928.725	6637.96
929.034	6604.74
929.344	6557.29
929.653	6575.36
929.962	6465.31
930.271	6498.98
930.581	6380.11
930.89	6449.72
931.199	6403.16
931.508	6350.96
931.817	6403.84
932.125	6340.57
932.434	6322.72
932.743	6263.28
933.051	6251.53
933.36	6254.02
933.669	6184.41
933.977	6153.23
934.286	6137.86
934.594	6158.2
934.902	6082.04
935.21	6070.07
935.519	6022.61
935.827	6030.52
936.135	5969.5
936.443	5978.09
936.751	5877.3
937.059	5873.01
937.367	5864.87
937.674	5861.94
937.982	5829.17
938.29	5815.38
938.597	5805.89
938.905	5761.6
939.213	5731.77
939.52	5732.9
939.827	5675.5
940.135	5683.64
940.442	5622.39
940.749	5593.02
941.056	5620.36
941.363	5561.15
941.67	5548.72
941.977	5505.56
942.284	5476.18
942.591	5473.02
942.898	5437.99
943.205	5436.64
943.511	5388.95
943.818	5357.54
944.125	5340.37
944.431	5335.62
944.738	5281.39
945.044	5306.02
945.35	5263.76
945.657	5214.72
945.963	5187.83
946.269	5166.81
946.575	5188.96
946.881	5183.08
947.187	5165.91
947.493	5078.68
947.799	5091.11
948.105	5111.67
948.41	5058.57
948.716	5063.09
949.022	4948.29
949.327	4990.55
949.633	4929.08
949.938	4919.14
950.244	4903.09
950.549	4858.35
950.854	4818.12
951.16	4827.61
951.465	4809.76
951.77	4827.16
952.075	4797.33
952.38	4747.39
952.685	4793.04
952.99	4690.44
953.294	4657.22
953.599	4611.35
953.904	4593.5
954.209	4588.98
954.513	4548.98
954.818	4564.12
955.122	4539.03
955.426	4573.16
955.731	4511.46
956.035	4506.04
956.339	4482.54
956.643	4411.58
956.948	4438.7
957.252	4399.38
957.556	4398.92
957.86	4367.51
958.163	4374.52
958.467	4348.08
958.771	4356.67
959.075	4286.61
959.378	4258.81
959.682	4293.16
959.985	4299.04
960.289	4211.58
960.592	4206.84
960.896	4144.24
961.199	4165.94
961.502	4121.64
961.805	4144.92
962.108	4166.61
962.411	4106.05
962.714	4082.77
963.017	4057.69
963.32	4085.03
963.623	4005.49
963.926	4030.8
964.228	4010.91
964.531	3974.08
964.833	3995.54
965.136	3933.85
965.438	3958.03
965.741	3892.72
966.043	3846.62
966.345	3898.15
966.648	3867.86
966.95	3855.66
967.252	3821.54
967.554	3813.18
967.856	3812.5
968.158	3710.58
968.46	3804.59
968.761	3724.59
969.063	3688.43
969.365	3723.69
969.666	3706.74
969.968	3655.89
970.269	3623.13
970.571	3624.71
970.872	3667.87
971.174	3597.59
971.475	3594.65
971.776	3571.38
972.077	3561.43
972.378	3555.1
972.679	3582.9
972.98	3526.63
973.281	3521.88
973.582	3506.07
973.883	3479.63
974.183	3451.38
974.484	3419.51
974.785	3443.47
975.085	3426.52
975.386	3418.16
975.686	3363.24
975.986	3360.99
976.287	3377.03
976.587	3320.31
976.887	3312.4
977.187	3312.85
977.487	3294.77
977.787	3268.11
978.087	3259.07
978.387	3265.39
978.687	3212.74
978.987	3240.08
979.286	3180.42
979.586	3168
979.885	3169.13
980.185	3142.69
980.484	3186.98
980.784	3158.96
981.083	3098.17
981.382	3080.31
981.682	3127.32
981.981	3101.1
982.28	3057.49
982.579	3040.09
982.878	3083.48
983.177	3053.65
983.475	3043.93
983.774	2984.05
984.073	3002.35
984.372	2977.72
984.67	2943.82
984.969	2970.03
985.267	2951.28
985.566	2934.33
985.864	2881
986.162	2900.43
986.461	2904.5
986.759	2860.89
987.057	2838.51
987.355	2899.3
987.653	2792.19
987.951	2836.25
988.249	2802.36
988.547	2811.62
988.844	2795.35
989.142	2784.28
989.44	2787.44
989.737	2736.14
990.035	2702.25
990.332	2730.04
990.63	2709.93
990.927	2688.69
991.224	2697.05
991.521	2651.63
991.819	2679.65
992.116	2635.13
992.413	2623.83
992.71	2613.66
993.006	2599.88
993.303	2601.01
993.6	2594.9
993.897	2540.89
994.193	2570.95
994.49	2532.98
994.787	2551.74
995.083	2497.28
995.379	2512.42
995.676	2496.38
995.972	2484.4
996.268	2449.37
996.565	2474.45
996.861	2429.48
997.157	2441.69
997.453	2436.26
997.749	2409.15
998.044	2420.44
998.34	2388.36
998.636	2381.58
998.932	2398.52
999.227	2359.88
999.523	2322.82
999.818	2359.2
1000.114	2290.96
1000.409	2271.52
1000.704	2248.02
1001	2294.35
1001.295	2277.17
1001.59	2255.03
1001.885	2249.38
1002.18	2229.94
1002.475	2213.67
1002.77	2201.47
1003.065	2170.73
1003.359	2164.41
1003.654	2185.87
1003.949	2136.38
1004.243	2133.45
1004.538	2133.45
1004.832	2136.61
1005.127	2098.65
1005.421	2086.22
1005.715	2061.58
1006.009	2063.84
1006.304	2053
1006.598	2046.44
1006.892	2005.77
1007.186	2027.69
1007.48	1983.17
1007.773	1997.18
1008.067	1989.5
1008.361	1943.85
1008.655	1953.79
1008.948	1944.3
1009.242	1942.27
1009.535	1899.78
1009.829	1940.01
1010.122	1897.75
1010.415	1933.23
1010.708	1886.9
1011.001	1877.18
1011.295	1864.3
1011.588	1848.71
1011.881	1834.92
1012.173	1803.06
1012.466	1806.22
1012.759	1802.38
1013.052	1794.25
1013.344	1801.48
1013.637	1784.98
1013.93	1784.98
1014.222	1751.99
1014.514	1752.21
1014.807	1722.61
1015.099	1732.1
1015.391	1725.32
1015.683	1714.7
1015.976	1685.77
1016.268	1702.95
1016.56	1673.57
1016.851	1644.42
1017.143	1640.13
1017.435	1617.08
1017.727	1608.04
1018.018	1632.44
1018.31	1632.44
1018.602	1602.16
1018.893	1601.94
1019.185	1582.05
1019.476	1572.33
1019.767	1539.79
1020.058	1541.15
1020.35	1559.68
1020.641	1529.85
1020.932	1502.28
1021.223	1511.99
1021.514	1501.6
1021.804	1499.57
1022.095	1483.75
1022.386	1479.23
1022.677	1464.76
1022.967	1439.23
1023.258	1425.44
1023.548	1436.97
1023.839	1431.09
1024.129	1427.25
1024.419	1401.71
1024.709	1398.55
1025	1384.09
1025.29	1381.6
1025.58	1373.01
1025.87	1340.25
1026.16	1352.68
1026.449	1359.46
1026.739	1338.89
1027.029	1322.17
1027.319	1312.68
1027.608	1298.89
1027.898	1280.36
1028.187	1295.5
1028.477	1309.74
1028.766	1262.28
1029.055	1221.38
1029.344	1281.27
1029.634	1245.33
1029.923	1218.89
1030.212	1248.05
1030.501	1228.16
1030.79	1232.68
1031.078	1203.75
1031.367	1201.72
1031.656	1196.75
1031.945	1186.35
1032.233	1199.23
1032.522	1164.43
1032.81	1162.62
1033.099	1155.39
1033.387	1142.96
1033.675	1155.62
1033.963	1133.02
1034.251	1123.53
1034.54	1111.1
1034.828	1112
1035.116	1093.47
1035.403	1087.6
1035.691	1104.77
1035.979	1080.59
1036.267	1079.69
1036.554	1070.65
1036.842	1073.14
1037.129	1046.7
1037.417	1058.22
1037.704	1030.88
1037.992	1053.02
1038.279	1028.17
1038.566	1023.65
1038.853	1023.65
1039.14	1023.65
