Data from hue_190_FLMS001491_00017.txt Node
Date: Tue Feb 07 16:44:55 GMT 2017
User: dcchb
Spectrometer: FLMS00149
Trigger mode: 0
Integration Time (sec): 2.000000E-2
Scans to average: 10
Electric dark correction enabled: true
Nonlinearity correction enabled: false
Boxcar width: 0
XAxis mode: Wavelengths
Number of Pixels in Spectrum: 2048
>>>>>Begin Spectral Data<<<<<
341.393	-3.76
341.776	-3.76
342.16	-3.76
342.543	-67.03
342.927	-57.09
343.31	-78.11
343.693	-63.19
344.077	-54.15
344.46	-43.3
344.843	-60.7
345.226	-52.57
345.61	-13.02
345.993	-7.37
346.376	-7.37
346.759	-1.72
347.142	17.03
347.525	60.87
347.908	48.9
348.291	71.72
348.674	83.25
349.057	99.74
349.44	124.15
349.823	134.54
350.206	144.26
350.588	186.52
350.971	209.34
351.354	220.64
351.737	232.4
352.119	225.39
352.502	282.34
352.884	261.77
353.267	266.52
353.65	269.68
354.032	302.45
354.414	299.74
354.797	312.39
355.179	299.74
355.562	308.33
355.944	336.35
356.326	330.02
356.709	307.87
357.091	341.09
357.473	325.73
357.855	324.14
358.238	343.35
358.62	348.32
359.002	345.84
359.384	345.16
359.766	351.71
360.148	328.44
360.53	351.94
360.912	318.49
361.294	326.86
361.676	300.19
362.057	328.66
362.439	332.28
362.821	319.4
363.203	331.6
363.584	325.95
363.966	338.61
364.348	297.48
364.729	328.66
365.111	343.58
365.493	303.13
365.874	316.23
366.256	307.87
366.637	311.04
367.019	298.38
367.4	303.35
367.781	300.19
368.163	317.14
368.544	305.84
368.925	307.87
369.306	314.88
369.688	295.9
370.069	306.74
370.45	328.89
370.831	315.1
371.212	307.2
371.593	290.92
371.974	306.52
372.355	304.48
372.736	308.1
373.117	301.55
373.498	288.89
373.879	313.07
374.26	307.65
374.641	318.72
375.021	314.43
375.402	318.95
375.783	320.08
376.163	310.13
376.544	309.91
376.925	332.05
377.305	327.76
377.686	319.17
378.066	349
378.447	323.47
378.827	325.5
379.208	335.22
379.588	325.5
379.968	338.61
380.349	339.06
380.729	349.45
381.109	331.38
381.489	314.2
381.87	308.1
382.25	333.64
382.63	353.75
383.01	338.61
383.39	339.06
383.77	327.76
384.15	339.96
384.53	332.51
384.91	343.58
385.29	337.48
385.67	334.99
386.049	345.16
386.429	358.72
386.809	348.32
387.189	353.07
387.568	371.83
387.948	359.62
388.328	353.97
388.707	365.05
389.087	347.65
389.466	350.36
389.846	363.01
390.225	360.98
390.605	354.43
390.984	361.43
391.363	331.15
391.743	376.12
392.122	376.35
392.501	361.21
392.881	376.8
393.26	361.21
393.639	397.59
394.018	387.19
394.397	364.14
394.776	372.5
395.155	379.06
395.534	384.48
395.913	414.09
396.292	396.01
396.671	405.5
397.05	386.52
397.429	387.19
397.808	402.79
398.186	384.93
398.565	389
398.944	397.81
399.323	382.22
399.701	417.7
400.08	412.73
400.458	406.85
400.837	423.35
401.215	415.22
401.594	412.05
401.972	426.51
402.351	429.45
402.729	426.06
403.107	437.36
403.486	448.43
403.864	417.7
404.242	454.31
404.62	434.2
404.999	437.81
405.377	456.12
405.755	459.51
406.133	430.36
406.511	457.25
406.889	473.74
407.267	465.61
407.645	487.3
408.023	463.12
408.401	481.43
408.779	497.47
409.156	512.84
409.534	509.22
409.912	494.76
410.29	507.19
410.667	506.51
411.045	525.72
411.422	517.13
411.8	521.2
412.178	550.35
412.555	558.94
412.933	551.71
413.31	566.62
413.687	581.76
414.065	592.16
414.442	595.55
414.819	595.1
415.197	612.27
415.574	642.78
415.951	659.73
416.328	635.77
416.705	647.75
417.082	638.03
417.46	674.42
417.837	660.18
418.214	653.63
418.591	683.23
418.967	707.86
419.344	695.89
419.721	722.33
420.098	735.21
420.475	728.88
420.852	729.33
421.228	741.99
421.605	757.13
421.982	793.06
422.358	797.58
422.735	796
423.111	795.77
423.488	831.48
423.864	851.81
424.241	864.24
424.617	866.05
424.994	892.72
425.37	871.47
425.746	881.19
426.123	920.96
426.499	926.84
426.875	949.89
427.251	997.35
427.627	1000.06
428.003	986.95
428.379	1028.53
428.756	987.63
429.132	1011.36
429.507	1046.38
429.883	1039.83
430.259	1053.16
430.635	1069.89
431.011	1087.06
431.387	1117.8
431.763	1107.4
432.138	1164.12
432.514	1145.14
432.89	1174.52
433.265	1202.09
433.641	1208.64
434.016	1219.71
434.392	1212.48
434.767	1280.73
435.143	1285.93
435.518	1308.52
435.894	1318.47
436.269	1361.86
436.644	1367.28
437.02	1378.81
437.395	1412.48
437.77	1438.92
438.145	1457.45
438.52	1461.52
438.895	1528.63
439.271	1508.52
439.646	1572.02
440.021	1600.49
440.395	1594.85
440.77	1588.07
441.145	1598.01
441.52	1660.61
441.895	1677.55
442.27	1672.36
442.645	1695.86
443.019	1722.75
443.394	1727.72
443.769	1779.25
444.143	1777.89
444.518	1783.54
444.892	1788.06
445.267	1835.29
445.641	1848.17
446.016	1842.07
446.39	1852.69
446.764	1909.87
447.139	1900.37
447.513	1925.46
447.887	1924.33
448.262	1912.35
448.636	1929.07
449.01	1979.47
449.384	2009.75
449.758	2019.24
450.132	2041.61
450.506	2038.22
450.88	2062.4
451.254	2070.09
451.628	2128.62
452.002	2161.16
452.376	2142.4
452.75	2179.69
453.123	2162.97
453.497	2201.61
453.871	2239.57
454.244	2275.96
454.618	2299.46
454.992	2310.76
455.365	2317.76
455.739	2395.95
456.112	2419
456.486	2423.3
456.859	2440.7
457.232	2477.31
457.606	2510.98
457.979	2518.21
458.352	2613.58
458.725	2610.19
459.099	2635.27
459.472	2682.5
459.845	2688.83
460.218	2756.85
460.591	2748.04
460.964	2748.04
461.337	2817.64
461.71	2894.47
462.083	2941.25
462.456	2932.89
462.829	2939.44
463.201	3019.44
463.574	3041.59
463.947	3048.37
464.32	3135.6
464.692	3156.39
465.065	3245.2
465.438	3187.8
465.81	3289.49
466.183	3331.75
466.555	3380.56
466.928	3406.32
467.3	3432.31
467.672	3482.25
468.045	3580.1
468.417	3538.52
468.789	3631.63
469.161	3683.15
469.534	3709.59
469.906	3798.85
470.278	3823.94
470.65	3872.98
471.022	3943.71
471.394	4016.7
471.766	3999.3
472.138	4111.62
472.51	4156.81
472.882	4256.7
473.253	4272.74
473.625	4350.48
473.997	4446.3
474.369	4506.86
474.74	4540.76
475.112	4577.37
475.484	4691.26
475.855	4781.43
476.227	4789.79
476.598	4967.64
476.97	4989.11
477.341	5154.75
477.713	5216.44
478.084	5221.19
478.455	5390
478.827	5413.95
479.198	5562.65
479.569	5603.78
479.94	5800.84
480.311	5791.8
480.682	5967.39
481.053	6071.11
481.424	6206.7
481.795	6220.26
482.166	6352.69
482.537	6376.87
482.908	6554.04
483.279	6583.87
483.65	6752
484.021	6839
484.391	6950.86
484.762	7012.1
485.133	7097.53
485.503	7160.35
485.874	7338.87
486.244	7398.53
486.615	7526.89
486.985	7689.37
487.356	7759.65
487.726	7848.01
488.097	7968.24
488.467	8052.3
488.837	8170.04
489.207	8279.19
489.578	8389.92
489.948	8546.53
490.318	8568.9
490.688	8633.3
491.058	8665.39
491.428	8831.72
491.798	8938.15
492.168	9057.25
492.538	9124.82
492.908	9211.82
493.278	9304.25
493.648	9309.44
494.017	9431.25
494.387	9534.3
494.757	9619.27
495.126	9669.21
495.496	9675.76
495.866	9787.62
496.235	9865.14
496.605	9927.28
496.974	10028.97
497.344	10078.46
497.713	10074.85
498.082	10186.48
498.452	10241.17
498.821	10281.17
499.19	10261.51
499.559	10330.43
499.928	10439.36
500.298	10486.59
500.667	10555.97
501.036	10506.7
501.405	10598.9
501.774	10692.91
502.143	10652.69
502.512	10703.98
502.88	10757.54
503.249	10806.81
503.618	10835.96
503.987	10816.3
504.356	10842.06
504.724	10954.15
505.093	10987.82
505.462	11011.77
505.83	10983.07
506.199	11080.7
506.567	11067.82
506.936	11069.85
507.304	11243.63
507.672	11244.31
508.041	11306.91
508.409	11302.39
508.777	11425.32
509.145	11465.09
509.514	11432.78
509.882	11406.34
510.25	11390.52
510.618	11477.98
510.986	11461.48
511.354	11579.44
511.722	11513
512.09	11635.94
512.458	11611.98
512.826	11637.52
513.193	11667.8
513.561	11663.73
513.929	11685.2
514.297	11751.41
514.664	11821.24
515.032	11748.93
515.4	11782.6
515.767	11819.21
516.135	11881.13
516.502	11696.95
516.869	11938.08
517.237	11922.03
517.604	11797.97
517.972	11943.73
518.339	11922.03
518.706	11870.06
519.073	11911.64
519.44	11951.41
519.808	11978.75
520.175	11830.73
520.542	12102.82
520.909	11977.4
521.276	11936.27
521.643	12016.72
522.009	12076.38
522.376	12028.7
522.743	12018.98
523.11	12162.48
523.477	12127.68
523.843	12090.84
524.21	12186.66
524.577	12272.08
524.943	12223.94
525.31	12210.61
525.676	12254
526.043	12282.93
526.409	12269.14
526.776	12262.59
527.142	12235.24
527.508	12257.39
527.874	12249.93
528.241	12193.66
528.607	12181.01
528.973	12130.39
529.339	12164.06
529.705	12155.02
530.071	12238.86
530.437	12171.74
530.803	12119.09
531.169	12229.14
531.535	12049.94
531.901	12140.78
532.267	12047.45
532.632	12082.25
532.998	11985.53
533.364	11997.06
533.73	11987.57
534.095	11997.28
534.461	11948.02
534.826	11910.73
535.192	11867.57
535.557	11856.5
535.923	11780.11
536.288	11790.96
536.653	11787.35
537.019	11661.47
537.384	11721.58
537.749	11662.83
538.114	11552.32
538.479	11550.97
538.845	11488.37
539.21	11349.16
539.575	11420.58
539.94	11362.5
540.305	11396.85
540.67	11279.11
541.034	11214.93
541.399	11175.16
541.764	11203.18
542.129	11143.75
542.494	11054.48
542.858	11056.07
543.223	10986.01
543.587	11018.78
543.952	10813.81
544.316	10853.36
544.681	10787.15
545.045	10810.87
545.41	10725.9
545.774	10630.99
546.138	10630.99
546.503	10577.66
546.867	10439.58
547.231	10496.76
547.595	10432.13
547.959	10392.35
548.324	10358
548.688	10328.4
549.052	10204.79
549.416	10174.05
549.779	10139.48
550.143	10169.53
550.507	10238.46
550.871	10104.9
551.235	10015.64
551.599	10017.45
551.962	9946.94
552.326	9865.36
552.689	9926.83
553.053	9774.97
553.417	9747.17
553.78	9811.13
554.143	9776.55
554.507	9690.68
554.87	9637.57
555.234	9708.3
555.597	9642.77
555.96	9543.56
556.323	9557.8
556.686	9489.78
557.05	9512.6
557.413	9512.6
557.776	9462.43
558.139	9442.55
558.502	9406.17
558.865	9349.67
559.228	9384.92
559.59	9300.63
559.953	9316.68
560.316	9308.09
560.679	9244.36
561.041	9288.65
561.404	9268.32
561.767	9315.09
562.129	9248.43
562.492	9345.38
562.854	9236.9
563.217	9256.34
563.579	9188.09
563.941	9284.36
564.304	9277.13
564.666	9280.07
565.028	9248.88
565.39	9245.04
565.753	9264.25
566.115	9172.27
566.477	9186.96
566.839	9148.54
567.201	9189.67
567.563	9229.45
567.925	9260.86
568.287	9217.92
568.648	9142.22
569.01	9250.01
569.372	9260.86
569.734	9196.91
570.095	9259.05
570.457	9176.11
570.819	9195.32
571.18	9156.68
571.542	9314.64
571.903	9189.45
572.265	9210.24
572.626	9231.25
572.987	9225.83
573.349	9213.85
573.71	9236.9
574.071	9272.84
574.432	9193.29
574.794	9287.98
575.155	9229.9
575.516	9227.86
575.877	9247.07
576.238	9326.17
576.599	9223.35
576.96	9260.86
577.32	9176.79
577.681	9254.08
578.042	9183.57
578.403	9195.1
578.763	9187.87
579.124	9214.98
579.485	9195.55
579.845	9217.02
580.206	9215.44
580.566	9203.68
580.927	9179.28
581.287	9175.89
581.648	9147.19
582.008	9156
582.368	9191.03
582.728	9162.78
583.089	9135.66
583.449	9098.83
583.809	9151.71
584.169	9069.68
584.529	9141.99
584.889	9209.11
585.249	9103.35
585.609	9120.3
585.969	9036.68
586.329	9059.51
586.688	9078.94
587.048	9052.73
587.408	9085.5
587.768	9045.5
588.127	9063.35
588.487	8939.06
588.846	9064.48
589.206	9029.68
589.565	8960.75
589.925	9000.75
590.284	8964.14
590.643	9028.77
591.003	8981.54
591.362	9005.5
591.721	8966.85
592.08	8927.76
592.44	8963.69
592.799	8983.8
593.158	8968.66
593.517	8907.87
593.876	8959.17
594.235	8899.29
594.593	8921.66
594.952	8868.78
595.311	8909.91
595.67	8878.95
596.029	8838.5
596.387	8906.97
596.746	8902.45
597.104	8860.19
597.463	8840.98
597.822	8908.33
598.18	8861.32
598.538	8824.94
598.897	8822.68
599.255	8792.4
599.613	8879.85
599.972	8912.39
600.33	8835.33
600.688	8818.61
601.046	8878.72
601.404	8862.45
601.762	8839.85
602.12	8887.76
602.478	8830.36
602.836	8887.99
603.194	8840.3
603.552	8805.5
603.91	8777.26
604.268	8848.44
604.625	8795.33
604.983	8837.82
605.341	8812.06
605.698	8884.82
606.056	8868.33
606.413	8828.1
606.771	8835.78
607.128	8862.9
607.485	8738.61
607.843	8821.77
608.2	8885.73
608.557	8885.95
608.914	8747.65
609.272	8837.82
609.629	8897.93
609.986	8844.15
610.343	8812.51
610.7	8904.03
611.057	8881.21
611.414	8880.3
611.771	8895.22
612.127	8916.46
612.484	8896.8
612.841	8864.94
613.198	8852.06
613.554	8882.11
613.911	8872.85
614.267	8909.91
614.624	8904.48
614.98	8949
615.337	8972.96
615.693	8925.5
616.05	8931.15
616.406	8960.75
616.762	8911.04
617.118	8950.81
617.475	8912.62
617.831	8979.51
618.187	8939.06
618.543	8955.56
618.899	8947.65
619.255	9012.28
619.611	8976.35
619.967	8971.6
620.323	9020.19
620.678	9010.02
621.034	8949.68
621.39	8969.57
621.746	8981.77
622.101	9076.46
622.457	8953.3
622.812	8956.91
623.168	9001.2
623.523	8963.24
623.879	9016.57
624.234	8957.14
624.589	8982.45
624.945	9031.94
625.3	8968.21
625.655	9008.89
626.01	8987.42
626.365	9036.23
626.72	9011.15
627.075	8989.68
627.43	9002.33
627.785	8988.77
628.14	8980.87
628.495	9031.03
628.85	8970.47
629.205	8911.94
629.559	9016.12
629.914	8952.39
630.269	8968.44
630.623	8921.88
630.978	8953.75
631.332	8917.82
631.687	8898.83
632.041	8864.26
632.396	8848.89
632.75	8850.47
633.104	8866.97
633.459	8813.64
633.813	8840.76
634.167	8824.49
634.521	8810.25
634.875	8830.14
635.229	8844.15
635.583	8814.99
635.937	8743.58
636.291	8677.14
636.645	8767.54
636.999	8704.71
637.352	8768.67
637.706	8655.22
638.06	8743.81
638.413	8648.22
638.767	8626.75
639.121	8668.78
639.474	8614.55
639.828	8658.84
640.181	8637.37
640.534	8701.78
640.888	8620.42
641.241	8635.34
641.594	8613.87
641.947	8670.14
642.301	8573.19
642.654	8616.58
643.007	8651.38
643.36	8543.36
643.713	8559.18
644.066	8606.64
644.419	8527.32
644.771	8454.55
645.124	8425.85
645.477	8455.23
645.83	8399.19
646.182	8361.67
646.535	8264.73
646.888	8301.79
647.24	8316.48
647.593	8320.77
647.945	8297.04
648.298	8276.48
648.65	8257.49
649.002	8236.48
649.355	8253.2
649.707	8304.5
650.059	8287.1
650.411	8403.03
650.763	8335.91
651.115	8479.86
651.467	8486.19
651.819	8491.16
652.171	8469.24
652.523	8476.02
652.875	8431.5
653.227	8449.35
653.578	8502.23
653.93	8464.49
654.282	8425.85
654.633	8444.38
654.985	8448.68
655.337	8449.58
655.688	8429.02
656.039	8492.29
656.391	8441.44
656.742	8406.64
657.094	8500.88
657.445	8473.99
657.796	8476.7
658.147	8501.33
658.498	8429.47
658.849	8507.66
659.2	8475.34
659.551	8429.02
659.902	8478.73
660.253	8453.87
660.604	8440.54
660.955	8475.79
661.306	8450.94
661.656	8555.79
662.007	8530.03
662.358	8508.34
662.708	8472.18
663.059	8479.18
663.409	8458.62
663.76	8530.26
664.11	8502.91
664.461	8496.36
664.811	8525.51
665.161	8540.88
665.511	8560.31
665.862	8504.72
666.212	8571.38
666.562	8579.07
666.912	8504.04
667.262	8553.98
667.612	8499.3
667.962	8546.07
668.312	8536.58
668.662	8533.42
669.011	8513.99
669.361	8530.93
669.711	8507.43
670.06	8525.06
670.41	8482.57
670.76	8433.08
671.109	8470.37
671.459	8508.11
671.808	8470.6
672.157	8441.22
672.507	8452.07
672.856	8382.24
673.205	8456.13
673.554	8483.03
673.904	8441.22
674.253	8526.19
674.602	8424.04
674.951	8291.62
675.3	8310.6
675.649	8446.87
675.998	8406.42
676.346	8324.61
676.695	8362.8
677.044	8376.14
677.393	8373.88
677.741	8407.32
678.09	8310.37
678.438	8285.74
678.787	8320.77
679.135	8304.27
679.484	8257.49
679.832	8330.94
680.181	8304.05
680.529	8269.02
680.877	8201.9
681.225	8219.3
681.573	8256.82
681.922	8220.43
682.27	8209.81
682.618	8196.93
682.966	8125.07
683.314	8122.58
683.661	8137.27
684.009	8125.97
684.357	8098.85
684.705	8069.93
685.053	8027.44
685.4	8066.99
685.748	8031.74
686.095	7997.61
686.443	7888.92
686.79	7968.91
687.138	7928.24
687.485	7984.28
687.832	7924.62
688.18	7986.09
688.527	7941.8
688.874	7890.72
689.221	7818.64
689.568	7804.17
689.915	7778.86
690.262	7768.24
690.609	7767.11
690.956	7707.9
691.303	7708.36
691.65	7724.63
691.997	7743.38
692.344	7622.03
692.69	7606.21
693.037	7562.15
693.383	7505.65
693.73	7519.44
694.077	7527.57
694.423	7424.52
694.769	7479.44
695.116	7465.65
695.462	7381.13
695.808	7402.83
696.155	7348.14
696.501	7299.33
696.847	7299.1
697.193	7250.74
697.539	7214.13
697.885	7144.08
698.231	7171.42
698.577	7152.44
698.923	7196.51
699.269	7095.49
699.614	7119.22
699.96	7005.55
700.306	7037.64
700.651	6990.18
700.997	6993.12
701.342	6952.22
701.688	6915.84
702.033	6940.24
702.379	6878.77
702.724	6876.74
703.069	6874.03
703.415	6828.15
703.76	6832
704.105	6797.65
704.45	6735.5
704.795	6712
705.14	6693.47
705.485	6705.45
705.83	6698.44
706.175	6649.18
706.52	6688.72
706.865	6586.58
707.209	6585
707.554	6563.3
707.899	6562.62
708.243	6561.95
708.588	6547.03
708.932	6490.76
709.277	6439.92
709.621	6445.11
709.966	6472
710.31	6475.62
710.654	6390.65
710.998	6387.26
711.342	6418.45
711.687	6340.71
712.031	6339.35
712.375	6337.77
712.719	6350.88
713.063	6328.28
713.407	6332.57
713.75	6341.16
714.094	6316.3
714.438	6282.18
714.782	6228.17
715.125	6205.35
715.469	6233.14
715.812	6220.49
716.156	6187.04
716.499	6177.55
716.843	6207.38
717.186	6143.43
717.53	6172.35
717.873	6183.42
718.216	6113.14
718.559	6132.13
718.902	6068.85
719.246	6135.74
719.589	6126.03
719.932	6086.03
720.275	6028.63
720.617	6112.24
720.96	6103.65
721.303	6054.39
721.646	6086.93
721.989	6059.81
722.331	6093.94
722.674	6029.08
723.016	6065.69
723.359	6036.99
723.701	6055.74
724.044	5975.07
724.386	6005.35
724.729	6026.82
725.071	6003.77
725.413	6029.76
725.755	5994.96
726.097	6017.1
726.439	5956.31
726.782	6000.38
727.124	6014.62
727.465	5971.91
727.807	5949.31
728.149	5958.12
728.491	5948.85
728.833	6026.14
729.175	5995.86
729.516	5963.32
729.858	5943.66
730.199	5963.32
730.541	5965.58
730.882	5971.91
731.224	6012.13
731.565	5930.55
731.906	5942.98
732.248	5962.87
732.589	5962.64
732.93	5949.76
733.271	5944.56
733.612	5961.28
733.953	5959.93
734.294	5891
734.635	5926.03
734.976	5928.74
735.317	5992.24
735.658	5935.75
735.999	5982.3
736.339	6002.19
736.68	5993.83
737.021	5906.37
737.361	5934.62
737.702	6008.97
738.042	5979.59
738.383	5974.84
738.723	5964.67
739.063	5985.24
739.404	5971.91
739.744	6066.82
740.084	6004.9
740.424	6009.42
740.764	6040.83
741.104	6074.95
741.444	6083.31
741.784	6140.71
742.124	6091.22
742.464	6155.4
742.804	6091.22
743.143	6156.08
743.483	6195.85
743.823	6127.38
744.162	6200.83
744.502	6226.36
744.841	6251.45
745.181	6312.01
745.52	6310.43
745.86	6361.05
746.199	6466.81
746.538	6422.29
746.877	6493.7
747.216	6552.68
747.556	6575.05
747.895	6620.48
748.234	6659.57
748.573	6643.53
748.911	6724.2
749.25	6776.4
749.589	6868.15
749.928	6893.24
750.267	7001.71
750.605	7022.95
750.944	7055.94
751.283	7189.5
751.621	7318.31
751.96	7320.34
752.298	7431.08
752.636	7493.22
752.975	7586.33
753.313	7683.27
753.651	7752.42
753.989	7902.48
754.327	7954.9
754.666	8047.33
755.004	8246.2
755.342	8357.61
755.679	8499.07
756.017	8584.94
756.355	8792.85
756.693	8887.76
757.031	9015.89
757.368	9059.73
757.706	9323
758.044	9475.77
758.381	9662.2
758.719	9771.81
759.056	9905.14
759.394	9989.88
759.731	10144.22
760.068	10331.11
760.405	10511.67
760.743	10678.22
761.08	10816.75
761.417	11045.9
761.754	11185.33
762.091	11336.06
762.428	11443.17
762.765	11603.4
763.102	11915.48
763.438	12029.82
763.775	12201.8
764.112	12364.96
764.449	12644.5
764.785	12715.91
765.122	12856.24
765.458	13042.23
765.795	13194.77
766.131	13307.76
766.467	13500.29
766.804	13653.96
767.14	13799.5
767.476	14009.89
767.812	14140.96
768.148	14291.01
768.485	14373.72
768.821	14413.72
769.157	14603.54
769.492	14844.44
769.828	15003.08
770.164	15073.13
770.5	15106.58
770.836	15309.51
771.171	15425.67
771.507	15479.23
771.842	15444.2
772.178	15658.66
772.513	15798.54
772.849	15885.32
773.184	15979.1
773.519	16026.78
773.855	16071.75
774.19	16218.87
774.525	16328.24
774.86	16405.76
775.195	16498.41
775.53	16539.54
775.865	16488.69
776.2	16562.59
776.535	16530.95
776.87	16740.66
777.205	16827.66
777.539	16902.24
777.874	16948.34
778.209	16872.86
778.543	16995.34
778.878	16942.24
779.212	17076.25
779.547	16980.2
779.881	17092.74
780.215	17014.78
780.55	17165.28
780.884	17114.21
781.218	17223.36
781.552	17187.2
781.886	17210.03
782.22	17260.65
782.554	17145.17
782.888	17189.46
783.222	17095
783.556	17177.94
783.889	17166.19
784.223	17160.99
784.557	17009.13
784.89	17215.23
785.224	17160.09
785.557	17206.86
785.891	17141.78
786.224	17179.97
786.558	17145.85
786.891	17109.92
787.224	17057.72
787.557	16984.5
787.891	17055.23
788.224	17128
788.557	17174.55
788.89	17119.41
789.223	17139.07
789.556	17023.14
789.888	17074.89
790.221	16958.06
790.554	16875.8
790.887	16982.46
791.219	16920.09
791.552	16848.46
791.884	16824.73
792.217	16866.76
792.549	16802.35
792.882	16808.91
793.214	16695.92
793.546	16812.3
793.879	16678.97
794.211	16606.43
794.543	16660.21
794.875	16670.83
795.207	16613.89
795.539	16598.29
795.871	16721.68
796.203	16467.45
796.535	16391.74
796.867	16441.69
797.198	16318.53
797.53	16356.04
797.862	16278.98
798.193	16352.88
798.525	16154.69
798.856	16294.12
799.188	16052.09
799.519	15981.59
799.85	16084.18
800.182	16145.65
800.513	16018.65
800.844	15890.74
801.175	15988.59
801.506	15961.25
801.837	15827.69
802.168	15927.35
802.499	15877.41
802.83	15812.55
803.161	15730.07
803.491	15774.59
803.822	15799.9
804.153	15640.13
804.483	15560.13
804.814	15547.25
805.145	15596.96
805.475	15498.89
805.805	15471.99
806.136	15457.08
806.466	15452.11
806.796	15431.09
807.126	15420.02
807.457	15265.67
807.787	15182.06
808.117	15242.17
808.447	15188.16
808.777	15212.79
809.107	15206.69
809.436	15126.69
809.766	15090.08
810.096	14980.71
810.426	15010.54
810.755	15130.31
811.085	15006.24
811.414	14995.85
811.744	14895.74
812.073	14892.35
812.403	14805.8
812.732	14843.76
813.061	14848.73
813.39	14800.83
813.719	14715.86
814.049	14720.38
814.378	14740.94
814.707	14696.42
815.036	14665.46
815.365	14572.13
815.693	14451.46
816.022	14472.92
816.351	14564
816.68	14392.02
817.008	14460.5
817.337	14340.05
817.665	14393.38
817.994	14357.67
818.322	14308.18
818.651	14334.4
818.979	14255.53
819.307	14287.62
819.636	14294.62
819.964	14181.41
820.292	14347.5
820.62	14212.14
820.948	14123.1
821.276	14326.49
821.604	14192.48
821.932	14191.8
822.259	14228.19
822.587	14125.59
822.915	14217.56
823.243	14234.29
823.57	14178.24
823.898	14234.51
824.225	14161.75
824.553	14118.81
824.88	14129.43
825.207	14225.93
825.535	14182.99
825.862	14267.96
826.189	14202.2
826.516	14324.91
826.843	14346.37
827.17	14237.45
827.497	14275.64
827.824	14297.79
828.151	14328.3
828.478	14209.65
828.805	14309.99
829.131	14187.73
829.458	14271.57
829.785	14178.24
830.111	14231.57
830.438	14344.79
830.764	14237.68
831.09	14275.19
831.417	14284.23
831.743	14240.84
832.069	14177.57
832.395	14176.44
832.722	14264.12
833.048	14125.14
833.374	14206.49
833.7	14153.84
834.026	14074.97
834.351	14226.6
834.677	14121.3
835.003	14125.59
835.329	14102.31
835.654	14124.91
835.98	14026.38
836.306	14117.23
836.631	14020.06
836.956	14026.61
837.282	14027.74
837.607	14017.8
837.932	13973.73
838.258	13957.01
838.583	13871.36
838.908	13879.49
839.233	13925.14
839.558	13840.85
839.883	13819.16
840.208	13751.14
840.533	13773.96
840.858	13779.16
841.182	13674.75
841.507	13761.76
841.832	13689.67
842.156	13643.12
842.481	13670.69
842.805	13583
843.13	13590.46
843.454	13534.19
843.778	13536
844.103	13505.49
844.427	13539.16
844.751	13471.82
845.075	13418.04
845.399	13340.52
845.723	13310.02
846.047	13335.55
846.371	13232.05
846.695	13189.57
847.019	13093.3
847.343	13072.74
847.666	13003.58
847.99	12916.58
848.313	13013.08
848.637	12819.63
848.96	12822.35
849.284	12835.45
849.607	12677.04
849.931	12723.82
850.254	12649.47
850.577	12538.51
850.9	12484.73
851.223	12477.95
851.546	12474.78
851.869	12329.25
852.192	12378.29
852.515	12247.67
852.838	12291.74
853.161	12194.79
853.483	12199.54
853.806	12101.24
854.129	12155.25
854.451	12026.21
854.774	12003.16
855.096	11917.06
855.419	11965.42
855.741	11965.42
856.063	11833.22
856.385	11830.28
856.708	11804.29
857.03	11707.35
857.352	11851.75
857.674	11707.12
857.996	11672.09
858.318	11567.46
858.64	11621.02
858.961	11521.59
859.283	11459.44
859.605	11419.22
859.926	11464.64
860.248	11362.5
860.57	11342.84
860.891	11398.88
861.212	11316.17
861.534	11283.18
861.855	11261.26
862.176	11263.52
862.498	11238.43
862.819	11256.96
863.14	11111.43
863.461	11153.24
863.782	11106.46
864.103	11138.55
864.424	11120.47
864.745	11052.45
865.065	11019
865.386	11006.8
865.707	10951.44
866.027	10985.56
866.348	10947.14
866.668	10952.34
866.989	10911.44
867.309	10907.59
867.63	10966.58
867.95	10913.47
868.27	10825.34
868.59	10830.53
868.91	10815.39
869.23	10742.18
869.55	10812.46
869.87	10826.24
870.19	10747.15
870.51	10750.76
870.83	10754.6
871.15	10700.37
871.469	10692.91
871.789	10703.31
872.109	10661.73
872.428	10633.7
872.748	10648.62
873.067	10669.63
873.386	10680.93
873.706	10646.58
874.025	10533.14
874.344	10471.45
874.663	10533.37
874.982	10604.78
875.301	10501.5
875.62	10415.63
875.939	10385.8
876.258	10402.98
876.577	10378.57
876.896	10439.13
877.214	10393.94
877.533	10424.44
877.852	10329.53
878.17	10353.03
878.489	10350.1
878.807	10316.88
879.125	10371.11
879.444	10356.42
879.762	10240.27
880.08	10260.38
880.398	10168.18
880.716	10173.15
881.034	10156.2
881.352	10184
881.67	10197.1
881.988	10121.63
882.306	10079.14
882.624	10040.27
882.941	10038.46
883.259	9984.45
883.577	10056.32
883.894	9916.66
884.212	9915.76
884.529	9952.14
884.846	9950.78
885.164	9923.21
885.481	9815.65
885.798	9838.92
886.115	9865.14
886.432	9804.57
886.75	9802.54
887.067	9824.91
887.383	9740.17
887.7	9727.06
888.017	9718.02
888.334	9777.45
888.651	9626.5
888.967	9671.47
889.284	9569.1
889.6	9566.84
889.917	9509.44
890.233	9496.56
890.55	9464.47
890.866	9520.06
891.182	9461.98
891.498	9414.75
891.815	9421.98
892.131	9299.05
892.447	9340.86
892.763	9304.02
893.079	9286.85
893.395	9214.53
893.71	9200.07
894.026	9196.23
894.342	9173.85
894.657	9080.52
894.973	9101.09
895.289	9124.14
895.604	9045.5
895.92	8952.62
896.235	8916.91
896.55	8903.81
896.865	8931.15
897.181	8898.16
897.496	8837.59
897.811	8812.28
898.126	8768.44
898.441	8750.59
898.756	8713.53
899.071	8668.11
899.386	8655
899.7	8610.93
900.015	8624.04
900.33	8437.6
900.644	8492.52
900.959	8487.32
901.273	8436.02
901.588	8433.54
901.902	8393.31
902.216	8316.7
902.531	8308.34
902.845	8341.79
903.159	8232.86
903.473	8259.08
903.787	8094.11
904.101	8111.28
904.415	8154.67
904.729	8132.3
905.042	8084.84
905.356	8066.54
905.67	8056.14
905.984	8020.66
906.297	8038.52
906.611	7932.98
906.924	7944.06
907.237	7931.63
907.551	7826.77
907.864	7767.79
908.177	7803.95
908.491	7736.6
908.804	7712.42
909.117	7669.49
909.43	7596.27
909.743	7577.74
910.056	7525.08
910.368	7588.59
910.681	7523.95
910.994	7490.96
911.307	7447.57
911.619	7384.07
911.932	7378.65
912.244	7314.24
912.557	7321.7
912.869	7314.69
913.181	7290.29
913.494	7256.62
913.806	7199.67
914.118	7193.79
914.43	7095.94
914.742	7079.22
915.054	7054.59
915.366	7055.94
915.678	7047.36
915.99	6984.53
916.302	7026.11
916.613	6914.71
916.925	6930.3
917.236	6938.21
917.548	6923.74
917.859	6914.93
918.171	6784.09
918.482	6766.69
918.794	6810.08
919.105	6760.13
919.416	6683.75
919.727	6660.02
920.038	6629.06
920.349	6596.97
920.66	6595.39
920.971	6586.35
921.282	6602.17
921.593	6485.56
921.903	6477.65
922.214	6472.91
922.525	6414.15
922.835	6414.83
923.146	6421.16
923.456	6407.37
923.767	6334.83
924.077	6364.44
924.387	6243.99
924.697	6264.78
925.008	6293.7
925.318	6186.81
925.628	6193.37
925.938	6168.06
926.248	6154.73
926.558	6147.27
926.867	6052.81
927.177	6053.26
927.487	6027.95
927.796	5988.4
928.106	6019.59
928.416	5975.97
928.725	6014.62
929.034	5874.73
929.344	5937.1
929.653	5873.38
929.962	5855.98
930.271	5860.27
930.581	5792.02
930.89	5743.44
931.199	5741.63
931.508	5741.4
931.817	5717.22
932.125	5690.56
932.434	5614.4
932.743	5580.5
933.051	5599.94
933.36	5608.52
933.669	5547.96
933.977	5533.27
934.286	5549.77
934.594	5520.62
934.902	5473.61
935.21	5434.52
935.519	5421.41
935.827	5405.82
936.135	5375.76
936.443	5337.57
936.751	5373.28
937.059	5350.9
937.367	5314.3
937.674	5292.15
937.982	5253.96
938.29	5213.96
938.597	5228.42
938.905	5114.53
939.213	5119.95
939.52	5134.64
939.827	5140.51
940.135	5103.23
940.442	5090.12
940.749	5089.89
941.056	5073.85
941.363	4990.91
941.67	4998.37
941.977	4965.38
942.284	4920.86
942.591	4945.04
942.898	4872.72
943.205	4943.91
943.511	4836.57
943.818	4840.18
944.125	4842.67
944.431	4786.63
944.738	4806.06
945.044	4780.07
945.35	4783.24
945.657	4734.2
945.963	4689.68
946.269	4683.13
946.575	4693.07
946.881	4645.84
947.187	4644.26
947.493	4587.08
947.799	4598.83
948.105	4538.04
948.41	4539.4
948.716	4550.47
949.022	4545.05
949.327	4503.92
949.633	4500.31
949.938	4465.96
950.244	4480.87
950.549	4410.82
950.854	4388.67
951.16	4346.41
951.465	4332.4
951.77	4365.85
952.075	4298.5
952.38	4285.17
952.685	4283.81
952.99	4189.13
953.294	4257.6
953.599	4206.08
953.904	4173.08
954.209	4183.25
954.513	4142.8
954.818	4154.1
955.122	4117.26
955.426	4098.96
955.731	4058.96
956.035	4048.11
956.339	4032.07
956.643	4000.88
956.948	3990.04
957.252	4009.02
957.556	4000.43
957.86	3951.85
958.163	3975.8
958.467	3973.09
958.771	3944.84
959.075	3931.51
959.378	3943.71
959.682	3898.74
959.985	3860.77
960.289	3835.92
960.592	3878.63
960.896	3826.2
961.199	3799.76
961.502	3819.65
961.805	3786.65
962.108	3750.95
962.411	3740.78
962.714	3680.44
963.017	3675.02
963.32	3693.77
963.623	3663.04
963.926	3631.63
964.228	3590.05
964.531	3601.57
964.833	3619.2
965.136	3585.75
965.438	3552.76
965.741	3543.49
966.043	3549.37
966.345	3529.03
966.648	3497.62
966.95	3469.15
967.252	3440.67
967.554	3442.03
967.856	3466.21
968.158	3436.6
968.46	3397.74
968.761	3410.16
969.063	3367.91
969.365	3369.94
969.666	3374.91
969.968	3300.34
970.269	3332.65
970.571	3385.31
970.872	3323.61
971.174	3321.58
971.475	3305.99
971.776	3221.02
972.077	3251.07
972.378	3218.76
972.679	3209.72
972.98	3164.97
973.281	3218.76
973.582	3182.6
973.883	3143.73
974.183	3133.11
974.484	3151.87
974.785	3122.26
975.085	3115.03
975.386	3109.61
975.686	3083.85
975.986	3078.65
976.287	3066.22
976.587	3075.03
976.887	2995.49
977.187	3005.2
977.487	3021.7
977.787	3010.4
978.087	2995.03
978.387	2991.64
978.687	2966.79
978.987	2888.6
979.286	2928.37
979.586	2949.84
979.885	2908.93
980.185	2851.54
980.484	2875.94
980.784	2857.18
981.083	2821.25
981.382	2801.59
981.682	2825.77
981.981	2800.24
982.28	2820.35
982.579	2781.71
982.878	2762.95
983.177	2796.17
983.475	2774.25
983.774	2758.43
984.073	2711.88
984.372	2704.19
984.67	2721.14
984.969	2699.45
985.267	2696.74
985.566	2711.2
985.864	2642.28
986.162	2662.39
986.461	2628.72
986.759	2582.62
987.057	2586.91
987.355	2589.62
987.653	2586.23
987.951	2533.13
988.249	2544.42
988.547	2566.57
988.844	2517.31
989.142	2504.2
989.44	2485.67
989.737	2457.2
990.035	2488.38
990.332	2477.31
990.63	2456.74
990.927	2464.65
991.224	2444.99
991.521	2431.89
991.819	2433.24
992.116	2417.65
992.413	2383.07
992.71	2393.69
993.006	2329.74
993.303	2366.58
993.6	2348.5
993.897	2315.28
994.193	2342.62
994.49	2298.33
994.787	2285.22
995.083	2281.83
995.379	2301.49
995.676	2289.74
995.972	2262.17
996.268	2197.09
996.565	2275.73
996.861	2198.22
997.157	2240.03
997.453	2209.07
997.749	2185.11
998.044	2188.05
998.34	2187.37
998.636	2155.73
998.932	2142.4
999.227	2140.82
999.523	2166.13
999.818	2137.2
1000.114	2107.15
1000.409	2103.08
1000.704	2101.72
1001	2091.33
1001.295	2059.47
1001.59	2065.79
1001.885	2047.04
1002.18	2007.26
1002.475	2045.45
1002.77	2028.96
1003.065	2010.43
1003.359	1983.08
1003.654	2002.74
1003.949	1965
1004.243	1974.72
1004.538	1913.71
1004.832	1938.11
1005.127	1910.99
1005.421	1944.44
1005.715	1887.49
1006.009	1877.1
1006.304	1901.73
1006.598	1872.35
1006.892	1843.88
1007.186	1843.43
1007.48	1793.03
1007.773	1809.98
1008.067	1834.39
1008.361	1823.31
1008.655	1803.2
1008.948	1783.09
1009.242	1765.91
1009.535	1736.08
1009.829	1779.02
1010.122	1742.86
1010.415	1735.86
1010.708	1738.57
1011.001	1728.85
1011.295	1688.4
1011.588	1727.04
1011.881	1673.26
1012.173	1671.45
1012.466	1677.78
1012.759	1667.16
1013.052	1649.53
1013.344	1664
1013.637	1604.56
1013.93	1621.96
1014.222	1611.34
1014.514	1600.95
1014.807	1578.35
1015.099	1562.08
1015.391	1595.75
1015.683	1565.69
1015.976	1561.85
1016.268	1556.2
1016.56	1558.01
1016.851	1541.97
1017.143	1529.31
1017.435	1510.1
1017.727	1490.22
1018.018	1480.05
1018.31	1447.73
1018.602	1476.43
1018.893	1465.36
1019.185	1452.93
1019.476	1423.1
1019.767	1418.58
1020.058	1409.99
1020.35	1414.28
1020.641	1419.93
1020.932	1397.56
1021.223	1398.69
1021.514	1373.61
1021.804	1392.82
1022.095	1369.09
1022.386	1360.27
1022.677	1334.06
1022.967	1323.89
1023.258	1316.21
1023.548	1331.8
1023.839	1330.67
1024.129	1318.24
1024.419	1293.16
1024.709	1287.73
1025	1272.14
1025.29	1284.8
1025.58	1264.01
1025.87	1242.99
1026.16	1248.19
1026.449	1258.81
1026.739	1224.23
1027.029	1197.34
1027.319	1228.75
1027.608	1212.03
1027.898	1194.4
1028.187	1198.02
1028.477	1203.89
1028.766	1176.78
1029.055	1142.65
1029.344	1157.12
1029.634	1150.11
1029.923	1138.59
1030.212	1121.86
1030.501	1127.96
1030.79	1104.01
1031.078	1107.4
1031.367	1130.45
1031.656	1113.05
1031.945	1095.88
1032.233	1094.07
1032.522	1081.19
1032.81	1069.66
1033.099	1062.88
1033.387	1062.88
1033.675	1055.65
1033.963	1052.71
1034.251	1038.93
1034.54	1031.02
1034.828	1027.4
1035.116	1014.75
1035.403	1005.48
1035.691	1024.46
1035.979	990.79
1036.267	1004.8
1036.554	985.37
1036.842	967.74
1037.129	989.21
1037.417	951.92
1037.704	983.34
1037.992	949.21
1038.279	943.56
1038.566	932.72
1038.853	932.72
1039.14	932.72
