Data from hue_90_FLMS001491_78.txt Node
Date: Mon Feb 06 15:25:38 GMT 2017
User: dcchb
Spectrometer: FLMS00149
Trigger mode: 0
Integration Time (sec): 2.000000E-2
Scans to average: 10
Electric dark correction enabled: true
Nonlinearity correction enabled: false
Boxcar width: 0
XAxis mode: Wavelengths
Number of Pixels in Spectrum: 2048
>>>>>Begin Spectral Data<<<<<
341.393	-32.88
341.776	-32.88
342.16	-32.88
342.543	-66.33
342.927	-70.39
343.31	-62.26
343.693	-48.47
344.077	-64.07
344.46	-86.21
344.843	-57.96
345.226	-43.05
345.61	-43.05
345.993	-22.71
346.376	-17.74
346.759	9.83
347.142	45.76
347.525	45.76
347.908	56.61
348.291	95.93
348.674	77.85
349.057	113.78
349.44	127.79
349.823	130.96
350.206	163.72
350.588	189.94
350.971	224.29
351.354	210.73
351.737	253.89
352.119	245.76
352.502	243.27
352.884	264.06
353.267	296.15
353.65	292.76
354.032	290.5
354.414	298.41
354.797	317.84
355.179	304.29
355.562	324.4
355.944	327.56
356.326	327.11
356.709	325.98
357.091	321.01
357.473	338.86
357.855	322.59
358.238	341.57
358.62	354.23
359.002	340.67
359.384	355.13
359.766	354.91
360.148	328.92
360.53	330.73
360.912	336.38
361.294	328.47
361.676	327.56
362.057	333.44
362.439	316.26
362.821	326.88
363.203	308.58
363.584	314
363.966	327.11
364.348	299.09
364.729	308.13
365.111	320.78
365.493	321.69
365.874	296.15
366.256	325.3
366.637	304.06
367.019	296.15
367.4	301.57
367.781	305.64
368.163	318.52
368.544	311.97
368.925	338.64
369.306	333.21
369.688	310.16
370.069	291.18
370.45	316.71
370.831	295.7
371.212	311.74
371.593	297.05
371.974	294.34
372.355	312.2
372.736	310.16
373.117	327.34
373.498	317.84
373.879	319.2
374.26	321.23
374.641	323.72
375.021	303.38
375.402	329.14
375.783	325.75
376.163	314
376.544	333.44
376.925	316.04
377.305	324.17
377.686	299.99
378.066	328.24
378.447	310.61
378.827	327.56
379.208	335.47
379.588	319.88
379.968	325.75
380.349	316.04
380.729	312.42
381.109	339.54
381.489	329.6
381.87	334.79
382.25	344.51
382.63	331.18
383.01	327.34
383.39	329.6
383.77	324.85
384.15	351.52
384.53	326.66
384.91	332.08
385.29	353.78
385.67	335.7
386.049	342.7
386.429	371.63
386.809	356.71
387.189	330.95
387.568	343.15
387.948	348.8
388.328	365.75
388.707	370.27
389.087	359.2
389.466	364.62
389.846	366.66
390.225	349.26
390.605	366.66
390.984	361.46
391.363	365.53
391.743	384.74
392.122	372.53
392.501	363.27
392.881	368.24
393.26	386.09
393.639	363.49
394.018	359.43
394.397	364.62
394.776	396.26
395.155	388.58
395.534	362.59
395.913	368.92
396.292	377.28
396.671	375.24
397.05	373.89
397.429	392.87
397.808	376.83
398.186	395.13
398.565	367.56
398.944	386.77
399.323	383.61
399.701	396.94
400.08	368.92
400.458	397.62
400.837	405.53
401.215	400.78
401.594	410.05
401.972	390.39
402.351	397.16
402.729	400.78
403.107	397.16
403.486	395.81
403.864	417.05
404.242	426.09
404.62	411.4
404.999	416.37
405.377	425.41
405.755	417.96
406.133	435.13
406.511	423.15
406.889	420.89
407.267	434
407.645	417.5
408.023	429.93
408.401	431.06
408.779	420.89
409.156	426.77
409.534	434.23
409.912	438.29
410.29	421.57
410.667	426.32
411.045	436.94
411.422	448.91
411.8	448.01
412.178	457.05
412.555	465.19
412.933	467.22
413.31	469.03
413.687	466.77
414.065	485.75
414.442	482.59
414.819	466.54
415.197	479.42
415.574	477.61
415.951	473.55
416.328	489.14
416.705	478.97
417.082	483.94
417.46	485.07
417.837	502.25
418.214	513.77
418.591	496.15
418.967	506.54
419.344	517.61
419.721	507.44
420.098	530.72
420.475	514.68
420.852	497.28
421.228	515.58
421.605	534.56
421.982	538.18
422.358	534.34
422.735	522.59
423.111	530.95
423.488	550.16
423.864	554.22
424.241	552.19
424.617	531.85
424.994	538.86
425.37	543.38
425.746	565.52
426.123	566.65
426.499	579.08
426.875	563.04
427.251	586.99
427.627	569.82
428.003	590.83
428.379	597.84
428.756	600.1
429.132	599.19
429.507	621.34
429.883	638.74
430.259	606.88
430.635	648.46
431.011	629.47
431.387	627.44
431.763	645.52
432.138	649.59
432.514	636.93
432.89	633.54
433.265	654.11
433.641	661.11
434.016	674.67
434.392	687.78
434.767	692.07
435.143	688.23
435.518	692.52
435.894	716.25
436.269	708.12
436.644	671.28
437.02	713.77
437.395	715.35
437.77	755.8
438.145	740.21
438.52	746.31
438.895	749.47
439.271	750.15
439.646	751.51
440.021	771.39
440.395	735.69
440.77	773.43
441.145	760.09
441.52	772.97
441.895	793.99
442.27	805.06
442.645	790.37
443.019	801.22
443.394	808.68
443.769	799.41
444.143	825.18
444.518	795.12
444.892	806.87
445.267	792.18
445.641	832.18
446.016	842.12
446.39	838.28
446.764	835.57
447.139	851.62
447.513	872.86
447.887	848.68
448.262	855.46
448.636	856.59
449.01	872.63
449.384	882.8
449.758	880.32
450.132	887.55
450.506	898.85
450.88	907.43
451.254	925.29
451.628	911.28
452.002	911.28
452.376	925.74
452.75	950.6
453.123	921.9
453.497	959.18
453.871	991.27
454.244	1012.52
454.618	976.81
454.992	993.31
455.365	996.24
455.739	1017.71
456.112	1019.3
456.486	1048
456.859	1034.66
457.232	1063.59
457.606	1086.86
457.979	1085.96
458.352	1105.62
458.725	1089.58
459.099	1109.69
459.472	1143.81
459.845	1151.5
460.218	1151.04
460.591	1187.88
460.964	1180.19
461.337	1217.48
461.71	1211.83
462.083	1223.13
462.456	1236.46
462.829	1252.06
463.201	1269.46
463.574	1266.97
463.947	1294.32
464.32	1290.25
464.692	1317.37
465.065	1341.77
465.438	1358.72
465.81	1386.29
466.183	1425.84
466.555	1427.42
466.928	1441.43
467.3	1452.05
467.672	1498.6
468.045	1498.38
468.417	1532.95
468.789	1528.43
469.161	1578.15
469.534	1573.4
469.906	1643.46
470.278	1623.12
470.65	1659.73
471.022	1712.61
471.394	1749.9
471.766	1756.68
472.138	1810.01
472.51	1854.08
472.882	1892.27
473.253	1888.42
473.625	1948.76
473.997	1994.41
474.369	2007.29
474.74	2026.27
475.112	2091.36
475.484	2140.17
475.855	2183.33
476.227	2259.94
476.598	2322.76
476.97	2376.55
477.341	2402.08
477.713	2460.39
478.084	2532.25
478.455	2573.83
478.827	2635.98
479.198	2739.93
479.569	2721.62
479.94	2852.69
480.311	2934.95
480.682	3022.63
481.053	3117.32
481.424	3203.87
481.795	3212.46
482.166	3328.39
482.537	3440.47
482.908	3516.63
483.279	3637.76
483.65	3696.29
484.021	3756.62
484.391	3898.77
484.762	3922.27
485.133	4044.07
485.503	4130.4
485.874	4211.75
486.244	4383.05
486.615	4503.95
486.985	4582.37
487.356	4702.59
487.726	4816.26
488.097	4958.4
488.467	5026.65
488.837	5158.4
489.207	5315
489.578	5379.41
489.948	5481.1
490.318	5636.57
490.688	5708.21
491.058	5858.49
491.428	6030.46
491.798	6122.89
492.168	6254.41
492.538	6322.43
492.908	6451.92
493.278	6574.86
493.648	6664.12
494.017	6833.15
494.387	6914.73
494.757	7052.81
495.126	7173.71
495.496	7220.26
495.866	7349.52
496.235	7475.17
496.605	7586.81
496.974	7714.26
497.344	7871.54
497.713	7962.16
498.082	7983.63
498.452	8125.78
498.821	8236.96
499.19	8295.04
499.559	8392.43
499.928	8503.62
500.298	8585.2
500.667	8726.66
501.036	8790.39
501.405	8897.51
501.774	8950.39
502.143	9050.5
502.512	9109.93
502.88	9245.07
503.249	9248.01
503.618	9360.77
503.987	9470.82
504.356	9509.92
504.724	9523.03
505.093	9646.86
505.462	9711.5
505.83	9855.9
506.199	9868.78
506.567	9989.68
506.936	10036.91
507.304	10132.73
507.672	10128.66
508.041	10243.01
508.409	10261.99
508.777	10305.15
509.145	10451.59
509.514	10413.85
509.882	10597.8
510.25	10562.77
510.618	10657.91
510.986	10676.44
511.354	10834.63
511.722	10882.54
512.09	10940.16
512.458	10990.78
512.826	11068.3
513.193	11116.88
513.561	11066.94
513.929	11060.84
514.297	11254.96
514.664	11257.9
515.032	11367.72
515.4	11445.69
515.767	11408.4
516.135	11471.9
516.502	11338.12
516.869	11573.37
517.237	11552.58
517.604	11511.67
517.972	11613.14
518.339	11674.38
518.706	11736.75
519.073	11699.69
519.44	11727.04
519.808	11841.16
520.175	11793.02
520.542	11939.91
520.909	11995.73
521.276	11930.19
521.643	11991.44
522.009	12130.19
522.376	12160.47
522.743	12150.53
523.11	12188.27
523.477	12284.99
523.843	12304.42
524.21	12433.91
524.577	12410.63
524.943	12451.76
525.31	12421.71
525.676	12519.56
526.043	12570.18
526.409	12513
526.776	12634.81
527.142	12597.07
527.508	12646.33
527.874	12759.55
528.241	12700.57
528.607	12706.22
528.973	12819.21
529.339	12735.82
529.705	12788.03
530.071	12800.91
530.437	12852.88
530.803	12858.08
531.169	12882.26
531.535	12849.27
531.901	12746.67
532.267	12855.59
532.632	12816.95
532.998	12849.49
533.364	12823.73
533.73	12732.89
534.095	12857.63
534.461	12840
534.826	12830.51
535.192	12901.24
535.557	12915.03
535.923	12859.44
536.288	12807.91
536.653	12753.9
537.019	12807.01
537.384	12801.13
537.749	12822.83
538.114	12784.64
538.479	12691.76
538.845	12854.46
539.21	12772.66
539.575	12680.91
539.94	12719.55
540.305	12738.76
540.67	12584.87
541.034	12658.09
541.399	12693.79
541.764	12607.69
542.129	12611.31
542.494	12605.88
542.858	12519.11
543.223	12525.21
543.587	12531.76
543.952	12434.14
544.316	12508.48
544.681	12461.93
545.045	12432.78
545.41	12480.69
545.774	12477.3
546.138	12356.17
546.503	12450.41
546.867	12328.38
547.231	12332.67
547.595	12301.71
547.959	12280.24
548.324	12306.68
548.688	12217.42
549.052	12227.59
549.416	12230.98
549.779	12132.45
550.143	12188.04
550.507	12187.59
550.871	12160.25
551.235	12095.39
551.599	12077.54
551.962	12114.14
552.326	12054.49
552.689	12101.72
553.053	12039.12
553.417	11957.54
553.78	12063.98
554.143	12018.55
554.507	12002.96
554.87	12022.62
555.234	12124.54
555.597	11961.83
555.96	11912.34
556.323	12010.87
556.686	11887.03
557.05	11952.12
557.413	11904.66
557.776	11936.97
558.139	11943.53
558.502	11911.21
558.865	11970.65
559.228	11951.89
559.59	11949.4
559.953	11850.2
560.316	12014.03
560.679	11900.14
561.041	12022.4
561.404	11980.59
561.767	12033.92
562.129	11986.46
562.492	12079.57
562.854	12052
563.217	12003.64
563.579	11994.37
563.941	12050.42
564.304	11993.7
564.666	12141.04
565.028	12029.63
565.39	12058.55
565.753	12047.48
566.115	12112.34
566.477	12127.03
566.839	12135.16
567.201	12182.62
567.563	12196.63
567.925	12250.41
568.287	12162.73
568.648	12220.36
569.01	12273.24
569.372	12330.18
569.734	12278.66
570.095	12305.1
570.457	12383.97
570.819	12353.69
571.18	12367.7
571.542	12339
571.903	12374.25
572.265	12410.18
572.626	12411.31
572.987	12365.44
573.349	12399.11
573.71	12452.21
574.071	12443.18
574.432	12498.54
574.794	12473.01
575.155	12432.1
575.516	12430.07
575.877	12515.94
576.238	12527.24
576.599	12547.35
576.96	12553.68
577.32	12423.06
577.681	12535.83
578.042	12534.25
578.403	12546.22
578.763	12482.04
579.124	12497.64
579.485	12591.65
579.845	12607.47
580.206	12524.53
580.566	12536.73
580.927	12614.7
581.287	12543.74
581.648	12526.56
582.008	12518.65
582.368	12530.86
582.728	12560.69
583.089	12555.94
583.449	12533.79
583.809	12551.65
584.169	12498.09
584.529	12542.83
584.889	12648.59
585.249	12553.23
585.609	12546.9
585.969	12594.58
586.329	12541.93
586.688	12568.82
587.048	12494.7
587.408	12484.53
587.768	12506.22
588.127	12461.93
588.487	12382.84
588.846	12586.9
589.206	12487.24
589.565	12415.83
589.925	12434.81
590.284	12410.41
590.643	12440.24
591.003	12385.55
591.362	12474.14
591.721	12427.81
592.08	12429.16
592.44	12472.1
592.799	12409.5
593.158	12410.63
593.517	12431.42
593.876	12440.69
594.235	12381.71
594.593	12309.17
594.952	12357.3
595.311	12360.92
595.67	12369.28
596.029	12424.87
596.387	12401.59
596.746	12347.13
597.104	12350.97
597.463	12336.96
597.822	12396.85
598.18	12360.47
598.538	12328.38
598.897	12411.99
599.255	12322.5
599.613	12444.76
599.972	12382.39
600.33	12411.76
600.688	12299.68
601.046	12391.65
601.404	12381.26
601.762	12366.79
602.12	12404.76
602.478	12399.11
602.836	12417.64
603.194	12352.78
603.552	12351.43
603.91	12351.65
604.268	12364.99
604.625	12274.14
604.983	12339.9
605.341	12317.98
605.698	12319.79
606.056	12343.29
606.413	12368.6
606.771	12395.95
607.128	12431.88
607.485	12278.89
607.843	12401.37
608.2	12490.41
608.557	12404.76
608.914	12388.26
609.272	12478.65
609.629	12482.27
609.986	12572.44
610.343	12500.8
610.7	12545.09
611.057	12454.93
611.414	12411.76
611.771	12506.9
612.127	12552.55
612.484	12439.11
612.841	12558.43
613.198	12429.62
613.554	12481.14
613.911	12690.63
614.267	12639.33
614.624	12569.95
614.98	12552.1
615.337	12633.68
615.693	12637.07
616.05	12586.22
616.406	12644.53
616.762	12611.76
617.118	12507.81
617.475	12556.84
617.831	12626
618.187	12619.89
618.543	12639.78
618.899	12713.45
619.255	12719.33
619.611	12703.28
619.967	12688.14
620.323	12805.88
620.678	12665.99
621.034	12628.93
621.39	12712.55
621.746	12572.66
622.101	12821.02
622.457	12626
622.812	12697.86
623.168	12752.09
623.523	12802.26
623.879	12780.12
624.234	12634.81
624.589	12712.55
624.945	12710.06
625.3	12709.38
625.655	12698.76
626.01	12721.59
626.365	12712.32
626.72	12730.85
627.075	12668.25
627.43	12667.58
627.785	12638.42
628.14	12673.9
628.495	12755.26
628.85	12670.51
629.205	12621.48
629.559	12722.72
629.914	12665.99
630.269	12720
630.623	12626.67
630.978	12599.33
631.332	12628.93
631.687	12616.73
632.041	12600.69
632.396	12637.75
632.75	12561.14
633.104	12596.84
633.459	12580.35
633.813	12446.11
634.167	12506.22
634.521	12472.1
634.875	12514.59
635.229	12527.69
635.583	12437.07
635.937	12433.01
636.291	12358.21
636.645	12391.2
636.999	12368.15
637.352	12362.73
637.706	12358.21
638.06	12362.73
638.413	12390.52
638.767	12262.16
639.121	12376.96
639.474	12293.58
639.828	12253.8
640.181	12314.14
640.534	12289.96
640.888	12249.51
641.241	12258.32
641.594	12289.28
641.947	12252.22
642.301	12213.35
642.654	12267.59
643.007	12251.77
643.36	12171.77
643.713	12197.08
644.066	12300.81
644.419	12083.64
644.771	12050.19
645.124	12056.29
645.477	11961.83
645.83	11897.2
646.182	11836.41
646.535	11878.9
646.888	11812.01
647.24	11656.08
647.593	11824.21
647.945	11760.26
648.298	11674.38
648.65	11717.09
649.002	11659.69
649.355	11694.95
649.707	11732.69
650.059	11740.6
650.411	11943.75
650.763	11844.77
651.115	12052.23
651.467	12013.81
651.819	11965.67
652.171	12080.25
652.523	11943.75
652.875	11928.84
653.227	11890.2
653.578	12039.8
653.93	12054.71
654.282	11851.78
654.633	11827.82
654.985	11887.71
655.337	11927.48
655.688	11950.76
656.039	11995.05
656.391	11889.52
656.742	11915.05
657.094	11940.36
657.445	12004.54
657.796	11943.75
658.147	12046.12
658.498	11936.97
658.849	11963.41
659.2	11941.95
659.551	11936.75
659.902	11921.61
660.253	12007.48
660.604	12021.72
660.955	11947.14
661.306	11993.24
661.656	11967.93
662.007	11904.88
662.358	11972.23
662.708	11970.65
663.059	12034.37
663.409	11907.6
663.76	12066.91
664.11	12006.58
664.461	12044.54
664.811	11992.11
665.161	12034.82
665.511	11990.08
665.862	11960.02
666.212	12045.22
666.562	12078.67
666.912	12024.88
667.262	11968.39
667.612	11988.27
667.962	11977.65
668.312	11989.4
668.662	12066.01
669.011	12014.94
669.361	11960.02
669.711	11997.31
670.06	11956.18
670.41	11891.33
670.76	11960.7
671.109	11930.19
671.459	11987.59
671.808	11989.18
672.157	11923.87
672.507	11802.51
672.856	11940.36
673.205	11787.15
673.554	11944.21
673.904	11830.76
674.253	11911.66
674.602	11901.49
674.951	11710.99
675.3	11644.55
675.649	11832.34
675.998	11870.76
676.346	11805.9
676.695	11990.08
677.044	11779.69
677.393	11758
677.741	11767.94
678.09	11770.65
678.438	11770.2
678.787	11774.49
679.135	11692.01
679.484	11715.96
679.832	11735.4
680.181	11672.8
680.529	11616.98
680.877	11687.26
681.225	11579.24
681.573	11659.24
681.922	11605.46
682.27	11532.24
682.618	11558.68
682.966	11499.92
683.314	11561.39
683.661	11488.4
684.009	11443.88
684.357	11454.73
684.705	11466.25
685.053	11457.44
685.4	11424.22
685.748	11366.14
686.095	11301.51
686.443	11311.23
686.79	11264.9
687.138	11202.53
687.485	11290.44
687.832	11162.53
688.18	11156.88
688.527	11156.66
688.874	11126.15
689.221	11124.57
689.568	11099.93
689.915	11074.62
690.262	10987.17
690.609	11008.86
690.956	10929.77
691.303	10964.57
691.65	10812.48
691.997	10884.35
692.344	10837.34
692.69	10791.69
693.037	10775.65
693.383	10650.45
693.73	10694.07
694.077	10703.56
694.423	10759.6
694.769	10636.67
695.116	10548.08
695.462	10577.69
695.808	10470.8
696.155	10490.68
696.501	10456.11
696.847	10449.33
697.193	10313.29
697.539	10433.74
697.885	10272.84
698.231	10245.04
698.577	10219.73
698.923	10180.18
699.269	10098.15
699.614	10021.77
699.96	10077.81
700.306	10070.36
700.651	10000.08
700.997	9958.04
701.342	9944.71
701.688	9915.56
702.033	9844.6
702.379	9847.09
702.724	9880.98
703.069	9833.3
703.415	9644.15
703.76	9746.3
704.105	9754.88
704.45	9656.58
704.795	9652.06
705.14	9619.07
705.485	9536.36
705.83	9535.23
706.175	9516.47
706.52	9486.42
706.865	9523.93
707.209	9444.38
707.554	9453.2
707.899	9392.63
708.243	9380.21
708.588	9322.35
708.932	9301.56
709.277	9241
709.621	9293.43
709.966	9245.52
710.31	9199.19
710.654	9098.63
710.998	9110.83
711.342	9145.64
711.687	9163.94
712.031	9075.35
712.375	9071.74
712.719	8997.62
713.063	9043.49
713.407	9040.55
713.75	8922.36
714.094	8925.75
714.438	8938.18
714.782	8942.02
715.125	8924.85
715.469	8911.29
715.812	8888.01
716.156	8799.2
716.499	8837.62
716.843	8853.67
717.186	8816.15
717.53	8820.67
717.873	8854.34
718.216	8836.94
718.559	8837.85
718.902	8698.87
719.246	8716.95
719.589	8715.59
719.932	8671.3
720.275	8635.82
720.617	8688.47
720.96	8682.37
721.303	8658.64
721.646	8616.61
721.989	8595.82
722.331	8594.46
722.674	8621.36
723.016	8619.32
723.359	8639.21
723.701	8582.94
724.044	8501.58
724.386	8492.55
724.729	8524.41
725.071	8514.92
725.413	8549.27
725.755	8500.68
726.097	8478.53
726.439	8436.5
726.782	8452.55
727.124	8490.06
727.465	8396.28
727.807	8412.32
728.149	8448.25
728.491	8480.12
728.833	8478.76
729.175	8424.75
729.516	8438.54
729.858	8434.24
730.199	8421.81
730.541	8394.02
730.882	8418.87
731.224	8441.47
731.565	8335.49
731.906	8400.12
732.248	8372.55
732.589	8350.4
732.93	8373
733.271	8383.85
733.612	8388.82
733.953	8406.9
734.294	8415.94
734.635	8393.34
734.976	8335.71
735.317	8361.48
735.658	8357.63
735.999	8376.62
736.339	8347.92
736.68	8390.4
737.021	8339.33
737.361	8401.93
737.702	8394.24
738.042	8314.7
738.383	8346.11
738.723	8418.2
739.063	8395.6
739.404	8382.94
739.744	8415.94
740.084	8434.69
740.424	8457.74
740.764	8375.94
741.104	8465.43
741.444	8399.89
741.784	8428.37
742.124	8536.39
742.464	8491.42
742.804	8442.6
743.143	8448.25
743.483	8535.71
743.823	8512.88
744.162	8486.9
744.502	8572.32
744.841	8515.37
745.181	8655.93
745.52	8584.07
745.86	8646.44
746.199	8694.12
746.538	8688.25
746.877	8750.39
747.216	8775.48
747.556	8736.38
747.895	8871.52
748.234	8907.68
748.573	8879.88
748.911	8949.93
749.25	9064.28
749.589	8980.22
749.928	9106.09
750.267	9168.91
750.605	9178.63
750.944	9287.55
751.283	9310.38
751.621	9407.55
751.96	9472.41
752.298	9501.11
752.636	9658.62
752.975	9727.31
753.313	9716.92
753.651	9864.49
753.989	9938.61
754.327	10069.9
754.666	10064.03
755.004	10167.76
755.342	10326.62
755.679	10499.5
756.017	10461.08
756.355	10654.97
756.693	10645.48
757.031	10797.12
757.368	10907.17
757.706	11072.59
758.044	11135.64
758.381	11316.2
758.719	11410.89
759.056	11552.13
759.394	11630.09
759.731	11807.71
760.068	11840.03
760.405	12107.82
760.743	12157.31
761.08	12341.71
761.417	12469.16
761.754	12552.1
762.091	12715.48
762.428	12808.82
762.765	12868.93
763.102	13027.34
763.438	13199.77
763.775	13286.77
764.112	13422.58
764.449	13636.14
764.785	13578.51
765.122	13743.93
765.458	13823.93
765.795	13948.22
766.131	14080.87
766.467	14194.77
766.804	14282
767.14	14345.05
767.476	14513.63
767.812	14599.5
768.148	14741.19
768.485	14800.18
768.821	14809.89
769.157	14986.61
769.492	15016.67
769.828	15142.54
770.164	15178.47
770.5	15343.44
770.836	15456.88
771.171	15414.17
771.507	15491.91
771.842	15542.53
772.178	15598.12
772.513	15702.75
772.849	15701.17
773.184	15649.42
773.519	15955.17
773.855	15874.72
774.19	15959.69
774.525	16059.13
774.86	16022.97
775.195	16129.18
775.53	16189.74
775.865	16148.39
776.2	16092.12
776.535	16003.31
776.87	16184.55
777.205	16135.28
777.539	16240.82
777.874	16295.73
778.209	16146.81
778.543	16206.47
778.878	16233.58
779.212	16262.06
779.547	16219.8
779.881	16311.77
780.215	16272.68
780.55	16286.01
780.884	16210.99
781.218	16292.11
781.552	16382.73
781.886	16319.23
782.22	16170.08
782.554	16235.62
782.888	16130.31
783.222	16130.54
783.556	16098.22
783.889	16146.81
784.223	16071.55
784.557	16029.3
784.89	16151.33
785.224	16075.17
785.557	16042.4
785.891	16052.57
786.224	16115.17
786.558	16003.31
786.891	15908.62
787.224	15950.88
787.557	15906.36
787.891	15917.66
788.224	15820.71
788.557	15872.69
788.89	15872.24
789.223	15925.8
789.556	15782.75
789.888	15782.52
790.221	15782.3
790.554	15632.02
790.887	15651.23
791.219	15672.7
791.552	15676.31
791.884	15517.22
792.217	15522.87
792.549	15551.79
792.882	15389.09
793.214	15411.46
793.546	15351.8
793.879	15360.39
794.211	15282.2
794.543	15321.07
794.875	15272.71
795.207	15310.44
795.539	15219.15
795.871	15293.5
796.203	15075.65
796.535	15080.62
796.867	15044.69
797.198	15055.31
797.53	15011.02
797.862	14945.03
798.193	14940.96
798.525	14908.87
798.856	14952.04
799.188	14812.15
799.519	14782.32
799.85	14602.89
800.182	14768.31
800.513	14719.05
800.844	14601.99
801.175	14715.88
801.506	14677.69
801.837	14513.18
802.168	14511.37
802.499	14473.18
802.83	14457.36
803.161	14392.95
803.491	14355.67
803.822	14405.84
804.153	14265.27
804.483	14166.07
804.814	14153.41
805.145	14108.89
805.475	14125.39
805.805	14125.39
806.136	14113.41
806.466	14056.69
806.796	14010.14
807.126	14038.39
807.457	13908.45
807.787	13987.54
808.117	13912.52
808.447	13816.7
808.777	13867.54
809.107	13880.2
809.436	13793.42
809.766	13770.37
810.096	13710.26
810.426	13646.31
810.755	13702.8
811.085	13692.86
811.414	13555.24
811.744	13545.29
812.073	13526.76
812.403	13428.01
812.732	13381.91
813.061	13453.32
813.39	13393.21
813.719	13375.58
814.049	13415.81
814.378	13381
814.707	13308.69
815.036	13292.42
815.365	13199.99
815.693	13116.15
816.022	13156.6
816.351	13128.58
816.68	13036.83
817.008	13057.85
817.337	13071.41
817.665	13001.13
817.994	13000.22
818.322	13019.21
818.651	12960.45
818.979	12887.23
819.307	12961.35
819.636	12908.02
819.964	12806.33
820.292	12853.79
820.62	12808.82
820.948	12847.23
821.276	12859.44
821.604	12802.49
821.932	12840
822.259	12796.61
822.587	12825.31
822.915	12848.14
823.243	12881.81
823.57	12750.51
823.898	12859.21
824.225	12773.79
824.553	12776.5
824.88	12775.37
825.207	12896.27
825.535	12754.81
825.862	12837.29
826.189	12774.92
826.516	12844.52
826.843	12876.61
827.17	12871.64
827.497	12852.66
827.824	12841.58
828.151	12864.63
828.478	12784.64
828.805	12952.99
829.131	12872.09
829.458	12826.89
829.785	12739.44
830.111	12743.28
830.438	12764.3
830.764	12872.77
831.09	12819.44
831.417	12726.56
831.743	12804.07
832.069	12776.5
832.395	12718.87
832.722	12840.91
833.048	12700.34
833.374	12808.14
833.7	12724.98
834.026	12683.62
834.351	12727.91
834.677	12670.06
835.003	12659.44
835.329	12682.94
835.654	12652.66
835.98	12628.26
836.306	12689.27
836.631	12513.46
836.956	12583.06
837.282	12600.91
837.607	12513.46
837.932	12534.47
838.258	12470.07
838.583	12484.98
838.908	12472.1
839.233	12462.16
839.558	12447.24
839.883	12399.56
840.208	12370.18
840.533	12391.43
840.858	12359.79
841.182	12409.73
841.507	12377.41
841.832	12259.45
842.156	12242.28
842.481	12313.24
842.805	12161.38
843.13	12199.57
843.454	12141.26
843.778	12172.45
844.103	12045.9
844.427	12057.88
844.751	12085.67
845.075	12039.34
845.399	12024.43
845.723	11943.3
846.047	11935.62
846.371	11826.92
846.695	11860.82
847.019	11788.5
847.343	11746.02
847.666	11685.91
847.99	11569.53
848.313	11580.6
848.637	11549.19
848.96	11472.35
849.284	11505.57
849.607	11356.65
849.931	11293.83
850.254	11243.43
850.577	11203.66
850.9	11139.93
851.223	11143.77
851.546	11137.67
851.869	10994.17
852.192	11089.31
852.515	10905.59
852.838	10895.19
853.161	11014.74
853.483	10886.61
853.806	10795.54
854.129	10807.29
854.451	10730.23
854.774	10768.64
855.096	10728.19
855.419	10626.27
855.741	10626.05
856.063	10572.49
856.385	10595.09
856.708	10487.97
857.03	10485.26
857.352	10524.13
857.674	10413.62
857.996	10441.65
858.318	10338.15
858.64	10383.57
858.961	10279.39
859.283	10229.67
859.605	10206.17
859.926	10181.09
860.248	10170.69
860.57	10160.75
860.891	10163.69
861.212	10167.08
861.534	10147.64
861.855	10090.92
862.176	10081.66
862.498	10085.27
862.819	10074.65
863.14	9991.49
863.461	10026.52
863.782	9913.75
864.103	10010.7
864.424	9921.66
864.745	9926.86
865.065	9935.9
865.386	9847.76
865.707	9895.67
866.027	9854.77
866.348	9815
866.668	9843.7
866.989	9807.54
867.309	9719.41
867.63	9686.41
867.95	9717.6
868.27	9683.02
868.59	9714.21
868.91	9676.24
869.23	9674.43
869.55	9622.01
869.87	9646.86
870.19	9653.42
870.51	9591.27
870.83	9641.89
871.15	9614.55
871.469	9514.89
871.789	9591.73
872.109	9571.16
872.428	9507.89
872.748	9479.64
873.067	9492.07
873.386	9485.74
873.706	9466.08
874.025	9422.01
874.344	9408.91
874.663	9473.31
874.982	9418.62
875.301	9369.13
875.62	9389.02
875.939	9346.99
876.258	9277.16
876.577	9237.84
876.896	9280.77
877.214	9246.65
877.533	9290.26
877.852	9255.91
878.17	9291.17
878.489	9246.88
878.807	9250.04
879.125	9122.13
879.444	9193.32
879.762	9150.61
880.08	9178.18
880.398	9136.14
880.716	9090.04
881.034	9116.71
881.352	9089.59
881.67	9071.51
881.988	9062.7
882.306	9029.48
882.624	8986.77
882.941	8907.22
883.259	8905.87
883.577	8912.2
883.894	8926.66
884.212	8910.39
884.529	8874
884.846	8881.69
885.164	8810.05
885.481	8827
885.798	8840.56
886.115	8728.92
886.432	8769.37
886.75	8714.91
887.067	8792.65
887.383	8755.81
887.7	8699.55
888.017	8621.36
888.334	8673.78
888.651	8605.08
888.967	8562.37
889.284	8525.54
889.6	8496.84
889.917	8506.1
890.233	8503.17
890.55	8406.22
890.866	8455.94
891.182	8377.29
891.498	8397.41
891.815	8383.85
892.131	8333.91
892.447	8310.4
892.763	8309.5
893.079	8266.79
893.395	8230.18
893.71	8215.94
894.026	8200.58
894.342	8161.71
894.657	8141.82
894.973	8123.29
895.289	8103.18
895.604	8080.8
895.92	8072.44
896.235	7936.63
896.55	8045.33
896.865	7976.17
897.181	7899.34
897.496	7913.35
897.811	7954.25
898.126	7840.58
898.441	7858.21
898.756	7784.09
899.071	7810.08
899.386	7675.17
899.7	7717.65
900.015	7678.33
900.33	7618.67
900.644	7622.51
900.959	7617.77
901.273	7513.36
901.588	7499.12
901.902	7534.83
902.216	7469.07
902.531	7416.87
902.845	7446.02
903.159	7356.53
903.473	7366.92
903.787	7345.91
904.101	7284.67
904.415	7259.13
904.729	7270.2
905.042	7179.59
905.356	7170.55
905.67	7176.2
905.984	7163.09
906.297	7113.6
906.611	7067.95
906.924	7102.53
907.237	7046.26
907.551	7023.43
907.864	6999.25
908.177	6949.08
908.491	6950.44
908.804	6923.09
909.117	6936.43
909.43	6829.76
909.743	6796.09
910.056	6786.38
910.368	6754.96
910.681	6773.04
910.994	6733.04
911.307	6681.75
911.619	6639.71
911.932	6651.01
912.244	6641.75
912.557	6606.04
912.869	6547.96
913.181	6498.47
913.494	6514.52
913.806	6455.99
914.118	6454.63
914.43	6372.6
914.742	6381.19
915.054	6320.4
915.366	6331.02
915.678	6333.28
915.99	6340.74
916.302	6265.26
916.613	6263.45
916.925	6185.26
917.236	6242.89
917.548	6201.53
917.859	6168.54
918.171	6111.14
918.482	6117.01
918.794	6089.22
919.105	6041.76
919.416	6008.77
919.727	5939.84
920.038	5990.46
920.349	5953.63
920.66	5929.22
920.971	5890.13
921.282	5865.72
921.593	5854.2
921.903	5787.53
922.214	5792.96
922.525	5792.96
922.835	5761.77
923.146	5698.72
923.456	5707.76
923.767	5712.05
924.077	5725.84
924.387	5663.69
924.697	5644.71
925.008	5572.17
925.318	5610.81
925.628	5602.45
925.938	5512.06
926.248	5442
926.558	5474.09
926.867	5453.3
927.177	5470.7
927.487	5405.39
927.796	5417.37
928.106	5322.23
928.416	5416.02
928.725	5341.89
929.034	5297.6
929.344	5329.01
929.653	5304.83
929.962	5277.49
930.271	5187.1
930.581	5220.31
930.89	5199.07
931.199	5153.2
931.508	5153.88
931.817	5137.61
932.125	5108.68
932.434	5070.94
932.743	5024.61
933.051	5037.95
933.36	5023.71
933.669	5009.25
933.977	4955.24
934.286	4917.05
934.594	4913.66
934.902	4872.98
935.21	4870.27
935.519	4860.1
935.827	4857.61
936.135	4787.56
936.443	4812.64
936.751	4789.37
937.059	4835.24
937.367	4719.08
937.674	4760.44
937.982	4699.2
938.29	4701.46
938.597	4731.74
938.905	4631.63
939.213	4595.02
939.52	4597.05
939.827	4604.06
940.135	4560.22
940.442	4559.54
940.749	4564.96
941.056	4554.12
941.363	4471.63
941.67	4518.86
941.977	4460.79
942.284	4415.59
942.591	4422.14
942.898	4457.85
943.205	4404.97
943.511	4365.65
943.818	4373.11
944.125	4325.87
944.431	4307.34
944.738	4299.21
945.044	4295.59
945.35	4279.1
945.657	4232.09
945.963	4272.77
946.269	4203.84
946.575	4235.03
946.881	4144.18
947.187	4156.39
947.493	4130.4
947.799	4149.38
948.105	4119.1
948.41	4075.94
948.716	4089.72
949.022	4030.74
949.327	4042.04
949.633	3994.81
949.938	3996.62
950.244	3987.8
950.549	3942.83
950.854	3937.64
951.16	3929.05
951.465	3924.76
951.77	3905.55
952.075	3874.59
952.38	3851.99
952.685	3875.04
952.99	3832.1
953.294	3815.83
953.599	3795.95
953.904	3779.45
954.209	3771.09
954.513	3753.46
954.818	3771.09
955.122	3739.9
955.426	3714.37
955.731	3691.54
956.035	3692.22
956.339	3653.8
956.643	3627.36
956.948	3620.81
957.252	3601.83
957.556	3607.48
957.86	3584.2
958.163	3586.91
958.467	3552.11
958.771	3567.7
959.075	3523.64
959.378	3539.68
959.682	3514.6
959.985	3490.64
960.289	3445.9
960.592	3434.82
960.896	3427.82
961.199	3446.8
961.502	3374.71
961.805	3368.16
962.108	3383.75
962.411	3341.04
962.714	3366.13
963.017	3318.44
963.32	3338.33
963.623	3295.39
963.926	3286.81
964.228	3301.27
964.531	3275.96
964.833	3215.4
965.136	3239.12
965.438	3193.93
965.741	3216.75
966.043	3174.94
966.345	3156.41
966.648	3167.49
966.95	3148.73
967.252	3132.91
967.554	3124.1
967.856	3089.3
968.158	3103.31
968.46	3131.78
968.761	3070.09
969.063	3056.53
969.365	3071.9
969.666	3061.05
969.968	2991.67
970.269	3015.4
970.571	2991.67
970.872	2980.37
971.174	2972.69
971.475	2962.29
971.776	2941.73
972.077	2904.67
972.378	2882.75
972.679	2914.84
972.98	2898.57
973.281	2834.39
973.582	2890.88
973.883	2846.14
974.183	2880.04
974.484	2795.29
974.785	2847.27
975.085	2822.64
975.386	2806.59
975.686	2818.8
975.986	2740.61
976.287	2761.62
976.587	2743.77
976.887	2722.3
977.187	2734.73
977.487	2683.43
977.787	2688.18
978.087	2674.39
978.387	2668.29
978.687	2680.95
978.987	2624.22
979.286	2656.54
979.586	2584.68
979.885	2637.78
980.185	2621.96
980.484	2577.67
980.784	2590.78
981.083	2585.13
981.382	2587.39
981.682	2561.85
981.981	2566.37
982.28	2518.46
982.579	2489.31
982.878	2462.2
983.177	2480.05
983.475	2464
983.774	2454.96
984.073	2461.29
984.372	2435.08
984.67	2431.91
984.969	2417
985.267	2424.46
985.566	2421.29
985.864	2395.08
986.162	2385.14
986.461	2402.76
986.759	2398.47
987.057	2355.98
987.355	2367.06
987.653	2346.94
987.951	2334.29
988.249	2332.71
988.547	2318.47
988.844	2286.38
989.142	2276.44
989.44	2258.36
989.737	2260.39
990.035	2259.94
990.332	2242.77
990.63	2204.57
990.927	2172.26
991.224	2224.69
991.521	2179.49
991.819	2173.84
992.116	2186.95
992.413	2190.11
992.71	2174.07
993.006	2150.11
993.303	2146.27
993.6	2133.62
993.897	2118.93
994.193	2131.58
994.49	2099.04
994.787	2097.68
995.083	2058.82
995.379	2084.58
995.676	2065.82
995.972	2043.9
996.268	2062.66
996.565	2050.91
996.861	2028.76
997.157	2016.56
997.453	1998.7
997.749	2023.11
998.044	1970.46
998.34	1977.24
998.636	1968.2
998.932	1955.54
999.227	1938.82
999.523	1941.08
999.818	1930.46
1000.114	1910.8
1000.409	1941.3
1000.704	1857.92
1001	1870.12
1001.295	1869.44
1001.59	1868.99
1001.885	1857.24
1002.18	1839.84
1002.475	1840.97
1002.77	1810.46
1003.065	1806.62
1003.359	1829.44
1003.654	1796.68
1003.949	1795.55
1004.243	1767.52
1004.538	1768.2
1004.832	1744.02
1005.127	1743.12
1005.421	1737.02
1005.715	1734.3
1006.009	1750.58
1006.304	1721.42
1006.598	1671.48
1006.892	1699.73
1007.186	1711.48
1007.48	1647.53
1007.773	1679.16
1008.067	1630.13
1008.361	1621.09
1008.655	1672.61
1008.948	1632.61
1009.242	1593.52
1009.535	1620.64
1009.829	1627.87
1010.122	1589
1010.415	1585.83
1010.708	1577.47
1011.001	1572.95
1011.295	1578.83
1011.588	1548.55
1011.881	1555.33
1012.173	1525.72
1012.466	1543.35
1012.759	1509.45
1013.052	1511.49
1013.344	1494.09
1013.637	1478.94
1013.93	1500.64
1014.222	1482.33
1014.514	1462.67
1014.807	1450.24
1015.099	1450.24
1015.391	1462
1015.683	1445.95
1015.976	1423.35
1016.268	1408.66
1016.56	1400.75
1016.851	1387.65
1017.143	1406.86
1017.435	1366.18
1017.727	1377.03
1018.018	1366.86
1018.31	1346.07
1018.602	1354.88
1018.893	1348.55
1019.185	1328.67
1019.476	1308.33
1019.767	1332.51
1020.058	1311.94
1020.35	1315.33
1020.641	1284.6
1020.932	1306.29
1021.223	1279.4
1021.514	1282.79
1021.804	1253.19
1022.095	1260.42
1022.386	1226.07
1022.677	1218.16
1022.967	1204.6
1023.258	1229.91
1023.548	1221.32
1023.839	1220.19
1024.129	1203.92
1024.419	1185.39
1024.709	1192.17
1025	1186.52
1025.29	1187.65
1025.58	1149.24
1025.87	1131.38
1026.16	1140.2
1026.449	1143.59
1026.739	1124.38
1027.029	1144.04
1027.319	1127.99
1027.608	1118.5
1027.898	1079.41
1028.187	1074.21
1028.477	1080.76
1028.766	1060.65
1029.055	1078.73
1029.344	1073.31
1029.634	1051.61
1029.923	1049.58
1030.212	1057.49
1030.501	1062.01
1030.79	1053.42
1031.078	1043.7
1031.367	1034.89
1031.656	1013.42
1031.945	1024.72
1032.233	1012.52
1032.522	1011.61
1032.81	1006.87
1033.099	962.57
1033.387	985.62
1033.675	971.61
1033.963	952.4
1034.251	944.72
1034.54	943.37
1034.828	939.98
1035.116	957.15
1035.403	945.17
1035.691	917.38
1035.979	940.2
1036.267	930.03
1036.554	916.25
1036.842	896.36
1037.129	916.93
1037.417	901.56
1037.704	903.59
1037.992	916.93
1038.279	876.02
1038.566	881.22
1038.853	881.22
1039.14	881.22
