Data from hue_30_FLMS001491_24.txt Node
Date: Mon Feb 06 15:04:56 GMT 2017
User: dcchb
Spectrometer: FLMS00149
Trigger mode: 0
Integration Time (sec): 2.000000E-2
Scans to average: 10
Electric dark correction enabled: true
Nonlinearity correction enabled: false
Boxcar width: 0
XAxis mode: Wavelengths
Number of Pixels in Spectrum: 2048
>>>>>Begin Spectral Data<<<<<
341.393	-11.67
341.776	-11.67
342.16	-11.67
342.543	-48.05
342.927	-53.93
343.31	-76.52
343.693	-76.07
344.077	-66.35
344.46	-54.83
344.843	-39.69
345.226	-26.81
345.61	-30.2
345.993	-23.19
346.376	-10.08
346.759	6.19
347.142	30.14
347.525	40.08
347.908	49.12
348.291	75.34
348.674	91.61
349.057	111.27
349.44	128.22
349.823	142
350.206	158.27
350.588	205.73
350.971	225.16
351.354	238.72
351.737	233.52
352.119	256.58
352.502	272.62
352.884	248.44
353.267	283.47
353.65	297.48
354.032	309.23
354.414	299.29
354.797	299.51
355.179	335.44
355.562	322.56
355.944	321.21
356.326	318.49
356.709	349.68
357.091	351.04
357.473	336.8
357.855	324.37
358.238	325.5
358.62	336.57
359.002	348.1
359.384	345.16
359.766	366.85
360.148	334.54
360.53	335.44
360.912	306.29
361.294	342.9
361.676	348.55
362.057	318.95
362.439	341.77
362.821	341.54
363.203	318.72
363.584	346.06
363.966	336.35
364.348	336.12
364.729	313.3
365.111	323.47
365.493	323.01
365.874	307.87
366.256	307.2
366.637	324.6
367.019	314.2
367.4	317.36
367.781	329.57
368.163	321.66
368.544	314.43
368.925	289.79
369.306	325.73
369.688	313.75
370.069	314.88
370.45	300.42
370.831	339.51
371.212	335.44
371.593	324.6
371.974	328.21
372.355	309.68
372.736	334.54
373.117	330.92
373.498	326.4
373.879	322.11
374.26	325.27
374.641	321.66
375.021	312.39
375.402	327.08
375.783	334.09
376.163	337.48
376.544	330.02
376.925	312.84
377.305	325.27
377.686	327.53
378.066	310.59
378.447	330.47
378.827	319.4
379.208	340.19
379.588	317.36
379.968	330.47
380.349	346.97
380.729	331.6
381.109	334.31
381.489	345.16
381.87	349.68
382.25	336.8
382.63	364.82
383.01	330.02
383.39	340.87
383.77	320.75
384.15	353.52
384.53	331.83
384.91	356.69
385.29	356.46
385.67	360.08
386.049	354.43
386.429	363.69
386.809	365.27
387.189	382.22
387.568	366.18
387.948	355.1
388.328	346.29
388.707	361.88
389.087	367.53
389.466	354.88
389.846	359.62
390.225	365.05
390.605	387.87
390.984	348.55
391.363	353.97
391.743	387.19
392.122	369.79
392.501	373.63
392.881	370.92
393.26	381.54
393.639	393.75
394.018	368.44
394.397	338.83
394.776	375.44
395.155	394.2
395.534	391.03
395.913	391.49
396.292	384.71
396.671	404.14
397.05	375.67
397.429	384.26
397.808	419.28
398.186	387.19
398.565	391.49
398.944	406.18
399.323	408.21
399.701	412.28
400.08	392.84
400.458	413.86
400.837	407.76
401.215	407.08
401.594	402.11
401.972	413.18
402.351	414.99
402.729	404.14
403.107	414.09
403.486	410.7
403.864	408.66
404.242	417.7
404.62	410.7
404.999	417.02
405.377	429.68
405.755	418.83
406.133	424.03
406.511	426.74
406.889	451.37
407.267	451.37
407.645	449.79
408.023	432.84
408.401	431.71
408.779	429.9
409.156	451.82
409.534	450.24
409.912	453.63
410.29	434.65
410.667	455.21
411.045	465.61
411.422	459.51
411.8	454.76
412.178	473.52
412.555	484.37
412.933	470.35
413.31	469.22
413.687	487.3
414.065	467.19
414.442	474.2
414.819	496.79
415.197	490.69
415.574	507.64
415.951	485.27
416.328	513.29
416.705	500.41
417.082	503.8
417.46	497.47
417.837	543.12
418.214	504.48
418.591	510.58
418.967	499.73
419.344	534.76
419.721	532.27
420.098	505.61
420.475	521.65
420.852	534.53
421.228	480.98
421.605	532.5
421.982	534.31
422.358	551.26
422.735	554.42
423.111	525.95
423.488	549.45
423.864	581.09
424.241	585.38
424.617	561.2
424.994	577.02
425.37	563.46
425.746	560.3
426.123	571.82
426.499	559.62
426.875	593.29
427.251	583.8
427.627	595.55
428.003	578.37
428.379	571.14
428.756	591.93
429.132	633.06
429.507	605.27
429.883	609.11
430.259	629.22
430.635	620.63
431.011	652.27
431.387	621.54
431.763	638.49
432.138	633.51
432.514	650.46
432.89	673.74
433.265	677.81
433.641	660.86
434.016	667.41
434.392	661.76
434.767	701.08
435.143	708.54
435.518	714.19
435.894	683
436.269	692.72
436.644	708.54
437.02	720.74
437.395	735.66
437.77	734.98
438.145	729.78
438.52	743.12
438.895	756
439.271	771.14
439.646	774.08
440.021	760.74
440.395	759.84
440.77	774.53
441.145	753.74
441.52	783.57
441.895	750.12
442.27	764.58
442.645	765.71
443.019	778.14
443.394	784.02
443.769	793.96
444.143	786.28
444.518	791.7
444.892	796
445.267	807.3
445.641	812.04
446.016	813.62
446.39	840.97
446.764	825.83
447.139	821.31
447.513	830.8
447.887	831.25
448.262	841.64
448.636	849.1
449.01	852.27
449.384	843
449.758	861.98
450.132	884.81
450.506	871.7
450.88	840.29
451.254	885.26
451.628	901.08
452.002	900.4
452.376	895.2
452.75	906.95
453.123	920.74
453.497	932.94
453.871	929.55
454.244	948.08
454.618	922.09
454.992	960.51
455.365	963.45
455.739	983.56
456.112	987.4
456.486	993.73
456.859	998.48
457.232	1017.91
457.606	1033.5
457.979	1042.32
458.352	1048.42
458.725	1011.13
459.099	1048.87
459.472	1090.45
459.845	1085.48
460.218	1116.21
460.591	1098.13
460.964	1098.59
461.337	1148.3
461.71	1136.33
462.083	1150.56
462.456	1181.97
462.829	1185.36
463.201	1195.08
463.574	1185.36
463.947	1194.86
464.32	1257
464.692	1247.74
465.065	1274.85
465.438	1273.27
465.81	1272.14
466.183	1333.61
466.555	1339.26
466.928	1307.17
467.3	1322.99
467.672	1372.93
468.045	1386.26
468.417	1416.32
468.789	1419.48
469.161	1427.62
469.534	1478.24
469.906	1476.2
470.278	1482.76
470.65	1495.64
471.022	1525.47
471.394	1570.66
471.766	1566.6
472.138	1605.24
472.51	1633.71
472.882	1683.88
473.253	1661.28
473.625	1697.89
473.997	1751.68
474.369	1751.23
474.74	1794.61
475.112	1835.06
475.484	1876.19
475.855	1896.98
476.227	1921.16
476.598	1961.62
476.97	2008.85
477.341	2056.53
477.713	2093.36
478.084	2139.24
478.455	2167.94
478.827	2216.98
479.198	2273.7
479.569	2272.12
479.94	2365.45
480.311	2394.6
480.682	2445.22
481.053	2490.41
481.424	2539
481.795	2624.42
482.166	2628.04
482.537	2725.21
482.908	2783.97
483.279	2792.33
483.65	2861.93
484.021	2943.74
484.391	2983.06
484.762	3012.66
485.133	3091.08
485.503	3153.45
485.874	3261.47
486.244	3285.42
486.615	3295.37
486.985	3415.14
487.356	3458.07
487.726	3497.85
488.097	3612.65
488.467	3623.04
488.837	3778.29
489.207	3825.07
489.578	3889.25
489.948	3925.41
490.318	3949.81
490.688	4017.83
491.058	4112.29
491.428	4169.92
491.798	4188.9
492.168	4321.33
492.538	4345.96
492.908	4443.36
493.278	4498.27
493.648	4517.71
494.017	4604.26
494.387	4690.81
494.757	4766.74
495.126	4797.92
495.496	4833.18
495.866	4909.56
496.235	4941.65
496.605	5047.41
496.974	5074.75
497.344	5095.32
497.713	5150.46
498.082	5181.87
498.452	5251.7
498.821	5266.84
499.19	5324.24
499.559	5440.17
499.928	5510
500.298	5519.94
500.667	5568.75
501.036	5564.46
501.405	5636.09
501.774	5654.4
502.143	5728.52
502.512	5772.36
502.88	5858.24
503.249	5855.3
503.618	5929.65
503.987	5923.32
504.356	5955.86
504.724	6010.1
505.093	6060.49
505.462	6086.48
505.83	6162.41
506.199	6199.92
506.567	6323.31
506.936	6234.05
507.304	6375.74
507.672	6390.65
508.041	6334.16
508.409	6436.3
508.777	6499.8
509.145	6545
509.514	6512.23
509.882	6532.34
510.25	6603.53
510.618	6611.44
510.986	6645.56
511.354	6701.38
511.722	6817.76
512.09	6815.05
512.458	6772.34
512.826	6868.38
513.193	6868.6
513.561	6972.78
513.929	6974.59
514.297	6996.96
514.664	7062.27
515.032	7059.33
515.4	7132.78
515.767	7150.86
516.135	7213.45
516.502	7158.09
516.869	7271.31
517.237	7269.95
517.604	7275.15
517.972	7344.75
518.339	7306.56
518.706	7380.68
519.073	7438.53
519.44	7377.97
519.808	7475.14
520.175	7488.93
520.542	7598.3
520.909	7652.99
521.276	7636.04
521.643	7652.76
522.009	7723.05
522.376	7795.81
522.743	7832.87
523.11	7857.51
523.477	7988.12
523.843	7930.95
524.21	8084.62
524.577	8048.91
524.943	8043.26
525.31	8073.32
525.676	8288.45
526.043	8244.84
526.409	8170.04
526.776	8371.84
527.142	8361.9
527.508	8411.39
527.874	8489.58
528.241	8516.02
528.607	8531.84
528.973	8558.96
529.339	8559.41
529.705	8636.69
530.071	8715.56
530.437	8693.64
530.803	8757.82
531.169	8807.54
531.535	8873.52
531.901	8833.07
532.267	8956.69
532.632	9055.67
532.998	8978.83
533.364	9060.41
533.73	9048.21
534.095	9132.27
534.461	9169.34
534.826	9236
535.192	9284.59
535.557	9324.81
535.923	9331.82
536.288	9375.43
536.653	9397.8
537.019	9327.75
537.384	9449.55
537.749	9520.06
538.114	9576.33
538.479	9561.19
538.845	9620.85
539.21	9632.83
539.575	9674.18
539.94	9716.89
540.305	9787.17
540.67	9883.44
541.034	9849.32
541.399	9892.25
541.764	9948.75
542.129	9915.3
542.494	9972.93
542.858	10020.61
543.223	10099.03
543.587	10225.58
543.952	10186.71
544.316	10189.42
544.681	10158.01
545.045	10262.19
545.41	10304.67
545.774	10367.27
546.138	10392.35
546.503	10452.01
546.867	10456.98
547.231	10569.07
547.595	10523.88
547.959	10590.99
548.324	10632.12
548.688	10692.01
549.052	10754.38
549.416	10764.1
549.779	10797.09
550.143	10786.47
550.507	10865.34
550.871	10960.02
551.235	10896.07
551.599	11040.92
551.962	10987.82
552.326	11031.89
552.689	11078.21
553.053	11027.82
553.417	11052.22
553.78	11297.64
554.143	11130.87
554.507	11216.74
554.87	11191.2
555.234	11396.62
555.597	11349.62
555.96	11358.43
556.323	11421.71
556.686	11464.87
557.05	11436.17
557.413	11452.66
557.776	11583.51
558.139	11597.75
558.502	11585.99
558.865	11682.04
559.228	11771.98
559.59	11760.68
559.953	11766.1
560.316	11860.11
560.679	11896.27
561.041	11967.23
561.404	12014.01
561.767	12035.47
562.129	12016.27
562.492	12109.37
562.854	12225.75
563.217	12101.69
563.579	12176.71
563.941	12326.31
564.304	12331.51
564.666	12420.78
565.028	12449.25
565.39	12471.17
565.753	12530.38
566.115	12548.46
566.477	12613.76
566.839	12642.69
567.201	12628
567.563	12716.13
567.925	12797.26
568.287	12756.13
568.648	12850.59
569.01	12887.66
569.372	13037.93
569.734	12879.07
570.095	13069.57
570.457	13063.92
570.819	13097.82
571.18	13187.31
571.542	13309.34
571.903	13250.81
572.265	13357.47
572.626	13429.56
572.987	13504.59
573.349	13459.84
573.71	13674.75
574.071	13656.67
574.432	13731.7
574.794	13967.63
575.155	13995.87
575.516	13977.12
575.877	14104.35
576.238	14177.34
576.599	14299.37
576.96	14413.49
577.32	14331.46
577.681	14639.02
578.042	14724.22
578.403	14740.04
578.763	14881.73
579.124	15049.63
579.485	15190.42
579.845	15357.42
580.206	15413.46
580.566	15520.81
580.927	15651.2
581.287	15952.21
581.648	16048.48
582.008	16317.4
582.368	16466.54
582.728	16589.25
583.089	16830.83
583.449	17066.53
583.809	17120.99
584.169	17489.34
584.529	17517.59
584.889	17917.13
585.249	18025.15
585.609	18099.04
585.969	18518.47
586.329	18647.96
586.688	18976.53
587.048	19151.45
587.408	19428.73
587.768	19562.51
588.127	19862.84
588.487	20233.9
588.846	20538.53
589.206	20663.72
589.565	21029.14
589.925	21371.5
590.284	21538.28
590.643	21865.27
591.003	22170.12
591.362	22494.86
591.721	22771.46
592.08	23063.66
592.44	23240.38
592.799	23619.35
593.158	23789.29
593.517	24194.25
593.876	24376.84
594.235	24618.87
594.593	24959.43
594.952	25279.87
595.311	25552.86
595.67	25888.22
596.029	26282.11
596.387	26662.43
596.746	26953.95
597.104	27115.08
597.463	27383.32
597.822	27856.75
598.18	27812.46
598.538	28236.4
598.897	28764.3
599.255	28664.19
599.613	29336.94
599.972	29314.34
600.33	29699.19
600.688	29854.44
601.046	30343.69
601.404	30619.84
601.762	30837.01
602.12	31184.8
602.478	31493.27
602.836	31552.93
603.194	31743.88
603.552	32165.79
603.91	32142.97
604.268	32522.39
604.625	32660.24
604.983	33003.28
605.341	33031.31
605.698	33665.19
606.056	33734.56
606.413	33955.35
606.771	34199.64
607.128	34425.39
607.485	34534.09
607.843	34721.66
608.2	35112.16
608.557	35300.17
608.914	35415.65
609.272	35853.38
609.629	36034.17
609.986	36304.44
610.343	36236.42
610.7	36736.97
611.057	36717.54
611.414	36977.42
611.771	37106.91
612.127	37403.85
612.484	37422.15
612.841	37630.28
613.198	37705.08
613.554	37841.8
613.911	38145.3
614.267	38262.13
614.624	38360.21
614.98	38530.6
615.337	38976.24
615.693	38882
616.05	39006.52
616.406	39351.14
616.762	39306.62
617.118	39487.18
617.475	39581.19
617.831	39924.01
618.187	39797
618.543	39976.66
618.899	40315.63
619.255	40412.13
619.611	40403.09
619.967	40570.32
620.323	40710.2
620.678	40626.59
621.034	40820.71
621.39	40940.48
621.746	40761.95
622.101	41276.29
622.457	41105.22
622.812	41158.78
623.168	41392.67
623.523	41355.38
623.879	41583.85
624.234	41471.99
624.589	41750.85
624.945	41797.86
625.3	41864.52
625.655	41836.95
626.01	42017.06
626.365	41996.04
626.72	42020.22
627.075	42190.84
627.43	41898.19
627.785	42076.27
628.14	42243.04
628.495	42303.61
628.85	42306.09
629.205	42201.46
629.559	42496.14
629.914	42363.49
630.269	42380.89
630.623	42290.72
630.978	42253.89
631.332	42388.12
631.687	42511.51
632.041	42364.62
632.396	42463.83
632.75	42284.62
633.104	42558.97
633.459	42263.83
633.813	42289.82
634.167	42383.38
634.521	42394.9
634.875	42658.85
635.229	42397.16
635.583	42341.34
635.937	42337.5
636.291	42256.83
636.645	42230.39
636.999	42258.63
637.352	42378.86
637.706	42160.11
638.06	42283.49
638.413	42318.07
638.767	42231.74
639.121	42204.4
639.474	42069.04
639.828	42173.21
640.181	42195.13
640.534	42206.66
640.888	42171.41
641.241	41933.9
641.594	42096.6
641.947	42220.9
642.301	42080.56
642.654	42156.26
643.007	41951.98
643.36	41994.01
643.713	42047.57
644.066	42056.83
644.419	41783.84
644.771	41638.31
645.124	41353.35
645.477	41253.69
645.83	41107.48
646.182	40869.07
646.535	40809.86
646.888	40884.66
647.24	40736.87
647.593	40996.07
647.945	40777.77
648.298	40653.48
648.65	40693.93
649.002	40488.74
649.355	40676.53
649.707	40587.94
650.059	40669.75
650.411	41239.45
650.763	41319.45
651.115	41766.67
651.467	41551.99
651.819	41552.21
652.171	41515.6
652.523	41417.75
652.875	41383.86
653.227	41172.56
653.578	41442.16
653.93	41360.35
654.282	41285.1
654.633	41125.11
654.985	41252.79
655.337	41333.46
655.688	41345.89
656.039	41340.01
656.391	41135.27
656.742	41110.42
657.094	41166.69
657.445	41242.84
657.796	41160.13
658.147	41102.28
658.498	41077.42
658.849	41197.87
659.2	41085.11
659.551	40970.53
659.902	41259.56
660.253	41130.08
660.604	41183.18
660.955	40892.79
661.306	41119.23
661.656	40949.74
662.007	40961.49
662.358	40952.23
662.708	40998.55
663.059	40972.79
663.409	40827.49
663.76	41026.58
664.11	40841.95
664.461	41047.82
664.811	40976.18
665.161	40961.04
665.511	40896.41
665.862	40888.05
666.212	41047.37
666.562	40952.68
666.912	40818.22
667.262	40729.86
667.612	41067.93
667.962	41036.29
668.312	40852.34
668.662	41109.51
669.011	40870.65
669.361	40798.56
669.711	40905
670.06	40766.02
670.41	40667.72
670.76	40687.6
671.109	40862.97
671.459	40831.33
671.808	40704.55
672.157	40873.59
672.507	40604.21
672.856	40542.3
673.205	40579.13
673.554	40681.27
673.904	40565.12
674.253	40680.15
674.602	40634.04
674.951	39996.32
675.3	39841.07
675.649	40457.78
675.998	40385.69
676.346	40462.52
676.695	40473.14
677.044	40335.52
677.393	40440.15
677.741	40302.3
678.09	40050.56
678.438	40092.36
678.787	40183.89
679.135	40462.07
679.484	40052.36
679.832	40250.78
680.181	39960.16
680.529	40038.13
680.877	39894.63
681.225	39997.68
681.573	40142.31
681.922	39759.94
682.27	39747.74
682.618	39639.72
682.966	39748.19
683.314	39872.71
683.661	39561.53
684.009	39433.85
684.357	39440.63
684.705	39312.72
685.053	39408.77
685.4	39250.35
685.748	39048.55
686.095	39177.81
686.443	38998.16
686.79	38885.84
687.138	39033.18
687.485	38959.29
687.832	38723.59
688.18	38821.66
688.527	38520.88
688.874	38640.65
689.221	38514.78
689.568	38540.31
689.915	38356.36
690.262	38362.24
690.609	38259.64
690.956	38024.85
691.303	37916.15
691.65	37893.78
691.997	37800.45
692.344	37730.62
692.69	37610.85
693.037	37625.99
693.383	37359.1
693.73	37586.67
694.077	37352.55
694.423	37382.83
694.769	37263.51
695.116	37097.19
695.462	36936.29
695.808	36905.56
696.155	37000.92
696.501	36671.21
696.847	36746.01
697.193	36431.9
697.539	36639.8
697.885	36329.07
698.231	36298.57
698.577	36063.32
698.923	36109.19
699.269	35977.44
699.614	35670.11
699.96	35765.47
700.306	35836.66
700.651	35567.74
700.997	35593.5
701.342	35490.23
701.688	35447.51
702.033	35350.57
702.379	35250.91
702.724	35120.29
703.069	35222.89
703.415	34784.03
703.76	34944.02
704.105	34786.06
704.45	34808.44
704.795	34647.08
705.14	34427.2
705.485	34532.51
705.83	34238.96
706.175	34278.51
706.52	34191.73
706.865	34118.51
707.209	34054.56
707.554	34017.72
707.899	34057.04
708.243	33892.07
708.588	33807.56
708.932	33579.31
709.277	33561.91
709.621	33662.48
709.966	33375.93
710.31	33451.63
710.654	33111.53
710.998	33310.62
711.342	33179.55
711.687	33008.48
712.031	32857.3
712.375	32852.33
712.719	32985.66
713.063	32706.12
713.407	32874.47
713.75	32642.62
714.094	32605.56
714.438	32580.47
714.782	32542.51
715.125	32505.67
715.469	32401.72
715.812	32355.84
716.156	32284.66
716.499	32149.52
716.843	32139.8
717.186	32050.54
717.53	32165.34
717.873	32040.6
718.216	31999.92
718.559	31869.53
718.902	31782.53
719.246	31762.19
719.589	31563.32
719.932	31522.19
720.275	31581.18
720.617	31509.31
720.96	31312.93
721.303	31353.61
721.646	31379.15
721.989	31188.87
722.331	31246.27
722.674	31206.72
723.016	31192.03
723.359	30982.55
723.701	31065.26
724.044	31008.76
724.386	30728.99
724.729	31018.7
725.071	30722.67
725.413	30762.67
725.755	30861.87
726.097	30669.11
726.439	30476.35
726.782	30593.4
727.124	30703.46
727.465	30324.49
727.807	30492.39
728.149	30464.37
728.491	30356.12
728.833	30403.81
729.175	30190.7
729.516	30154.77
729.858	30238.84
730.199	30053.08
730.541	30116.58
730.882	30109.58
731.224	30047.88
731.565	29827.55
731.906	29876.14
732.248	30118.39
732.589	29815.57
732.93	29722.24
733.271	29679.98
733.612	29621.45
733.953	29670.27
734.294	29449.93
734.635	29521.34
734.976	29680.43
735.317	29477.28
735.658	29403.38
735.999	29452.19
736.339	29326.55
736.68	29463.26
737.021	29296.49
737.361	29278.64
737.702	29267.56
738.042	29181.69
738.383	29140.34
738.723	29121.58
739.063	28990.51
739.404	29119.77
739.744	28953.22
740.084	28908.7
740.424	29037.51
740.764	28856.95
741.104	28923.17
741.444	28743.06
741.784	28680.69
742.124	28760.46
742.464	28637.98
742.804	28581.03
743.143	28485.89
743.483	28577.64
743.823	28387.59
744.162	28457.19
744.502	28487.47
744.841	28329.96
745.181	28416.74
745.52	28344.88
745.86	28364.31
746.199	28226.01
746.538	28146.46
746.877	28318.44
747.216	28228.5
747.556	28107.59
747.895	28209.29
748.234	27990.08
748.573	28028.05
748.911	28063.53
749.25	27936.75
749.589	27789.41
749.928	27904.89
750.267	27861.05
750.605	27756.64
750.944	27657.21
751.283	27689.07
751.621	27694.72
751.96	27642.3
752.298	27518.91
752.636	27521.17
752.975	27371.57
753.313	27273.72
753.651	27321.63
753.989	27256.54
754.327	27142.42
754.666	27116.66
755.004	27153.5
755.342	27208.41
755.679	27152.82
756.017	26836.67
756.355	26943.56
756.693	26791.02
757.031	27012.03
757.368	26742.66
757.706	26750.57
758.044	26637.58
758.381	26668.08
758.719	26505.6
759.056	26534.3
759.394	26520.29
759.731	26388.09
760.068	26359.39
760.405	26187.64
760.743	26211.37
761.08	26288.21
761.417	26011.6
761.754	26164.37
762.091	25913.53
762.428	25918.73
762.765	25677.38
763.102	25835.56
763.438	25646.19
763.775	25497.04
764.112	25584.04
764.449	25422.92
764.785	25384.28
765.122	25233.32
765.458	25028.58
765.795	25209.59
766.131	25028.35
766.467	25037.62
766.804	24768.47
767.14	24736.84
767.476	24678.08
767.812	24695.25
768.148	24680.34
768.485	24422.95
768.821	24444.19
769.157	24404.64
769.492	24225.21
769.828	24314.93
770.164	24032
770.5	24024.76
770.836	23876.29
771.171	23879.91
771.507	23774.37
771.842	23639.01
772.178	23567.37
772.513	23535.96
772.849	23519.92
773.184	23416.42
773.519	23413.25
773.855	23247.61
774.19	23210.1
774.525	23091.68
774.86	23034.06
775.195	23008.07
775.53	22923.1
775.865	22681.97
776.2	22692.82
776.535	22519.04
776.87	22629.55
777.205	22425.03
777.539	22245.38
777.874	22452.83
778.209	22180.29
778.543	22112.5
778.878	21957.25
779.212	22026.85
779.547	21814.65
779.881	21867.98
780.215	21645.62
780.55	21649.46
780.884	21508.22
781.218	21553.42
781.552	21599.52
781.886	21427.77
782.22	21232.07
782.554	21292.86
782.888	21051.06
783.222	20914.56
783.556	20782.82
783.889	20870.72
784.223	20681.35
784.557	20614.68
784.89	20680.67
785.224	20524.06
785.557	20447.46
785.891	20438.19
786.224	20363.39
786.558	20277.52
786.891	20098.31
787.224	20071.87
787.557	20065.09
787.891	19998.65
788.224	19947.36
788.557	19869.17
788.89	19929.96
789.223	19841.6
789.556	19587.59
789.888	19664.2
790.221	19541.27
790.554	19457.65
790.887	19380.37
791.219	19282.52
791.552	19198.9
791.884	19183.08
792.217	19168.85
792.549	19048.85
792.882	18807.05
793.214	18946.48
793.546	18856.99
793.879	18786.71
794.211	18603.21
794.543	18813.38
794.875	18589.2
795.207	18690.21
795.539	18510.78
795.871	18419.49
796.203	18368.19
796.535	18317.12
796.867	18252.49
797.198	18168.42
797.53	18118.93
797.862	18127.07
798.193	18100.63
798.525	17966.17
798.856	17972.04
799.188	17761.88
799.519	17681.43
799.85	17633.29
800.182	17670.81
800.513	17610.7
800.844	17462.22
801.175	17555.56
801.506	17475.33
801.837	17410.25
802.168	17272.17
802.499	17277.37
802.83	17221.78
803.161	17139.52
803.491	17184.72
803.822	17184.72
804.153	17037.38
804.483	16902.47
804.814	16836.7
805.145	16803.26
805.475	16758.74
805.805	16804.84
806.136	16727.1
806.466	16639.65
806.796	16736.14
807.126	16492.76
807.457	16481.46
807.787	16545.19
808.117	16354.01
808.447	16254.35
808.777	16342.25
809.107	16339.77
809.436	16132.32
809.766	16206.89
810.096	16193.78
810.426	16147.46
810.755	16163.5
811.085	16042.83
811.414	16067.23
811.744	15938.65
812.073	15915.37
812.403	15888.71
812.732	15748.15
813.061	15810.29
813.39	15714.93
813.719	15729.39
814.049	15697.07
814.378	15678.32
814.707	15615.72
815.036	15580.69
815.365	15433.13
815.693	15361.04
816.022	15423.63
816.351	15266.12
816.68	15199.91
817.008	15248.5
817.337	15131.21
817.665	15093.02
817.994	15124.43
818.322	15132.12
818.651	15103.42
818.979	14965.57
819.307	15057.99
819.636	15009.18
819.964	14849.86
820.292	14951.56
820.62	14886.47
820.948	14831.33
821.276	14924.44
821.604	14835.63
821.932	14800.6
822.259	14889.18
822.587	14876.53
822.915	14792.92
823.243	14905
823.57	14805.57
823.898	14847.6
824.225	14780.26
824.553	14754.5
824.88	14782.52
825.207	14725.12
825.535	14736.19
825.862	14850.99
826.189	14716.99
826.516	14794.05
826.843	14842.18
827.17	14806.7
827.497	14748.17
827.824	14713.82
828.151	14786.81
828.478	14705.91
828.805	14809.19
829.131	14703.2
829.458	14742.97
829.785	14609.42
830.111	14716.76
830.438	14784.55
830.764	14712.24
831.09	14743.43
831.417	14605.58
831.743	14747.49
832.069	14675.18
832.395	14587.95
832.722	14693.03
833.048	14576.88
833.374	14621.4
833.7	14588.85
834.026	14599.47
834.351	14515.41
834.677	14555.63
835.003	14708.17
835.329	14582.53
835.654	14619.81
835.98	14448.29
836.306	14522.41
836.631	14378.69
836.956	14441.96
837.282	14531.91
837.607	14424.79
837.932	14362.19
838.258	14387.28
838.583	14363.32
838.908	14307.28
839.233	14348.86
839.558	14237.68
839.883	14141.18
840.208	14163.33
840.533	14206.94
840.858	14169.66
841.182	14152.26
841.507	14101.86
841.832	14033.61
842.156	14054.86
842.481	14023.67
842.805	13936.22
843.13	13981.41
843.454	13986.38
843.778	13898.02
844.103	13806.05
844.427	13769.89
844.751	13797.01
845.075	13802.21
845.399	13692.15
845.723	13691.25
846.047	13681.98
846.371	13552.04
846.695	13433.63
847.019	13465.95
847.343	13364.71
847.666	13357.25
847.99	13292.16
848.313	13277.93
848.637	13151.38
848.96	13199.96
849.284	13109.8
849.607	13070.25
849.931	12957.94
850.254	12887.88
850.577	12799.75
850.9	12722.91
851.223	12733.54
851.546	12625.97
851.869	12624.84
852.192	12671.39
852.515	12600.66
852.838	12425.29
853.161	12458.74
853.483	12396.37
853.806	12347.1
854.129	12361.12
854.451	12253.32
854.774	12221.91
855.096	12244.73
855.419	12150.95
855.741	12083.38
856.063	12017.17
856.385	12134.23
856.708	11962.26
857.03	11982.59
857.352	12039.77
857.674	11958.64
857.996	11778.53
858.318	11748.48
858.64	11780.11
858.961	11794.8
859.283	11743.96
859.605	11652.89
859.926	11699.66
860.248	11626.45
860.57	11651.08
860.891	11597.75
861.212	11525.88
861.534	11486.34
861.855	11561.59
862.176	11479.56
862.498	11454.25
862.819	11462.38
863.14	11336.28
863.461	11402.95
863.782	11313.46
864.103	11342.16
864.424	11292.67
864.745	11351.88
865.065	11292.9
865.386	11300.58
865.707	11190.07
866.027	11198.21
866.348	11251.54
866.668	11206.57
866.989	11127.02
867.309	11015.16
867.63	11048.61
867.95	11077.76
868.27	11007.25
868.59	10982.85
868.91	11069.85
869.23	11006.8
869.55	10964.54
869.87	10958.44
870.19	10957.76
870.51	10887.48
870.83	10936.29
871.15	10841.61
871.469	10836.64
871.789	10855.17
872.109	10860.59
872.428	10822.85
872.748	10781.04
873.067	10806.13
873.386	10793.47
873.706	10769.97
874.025	10732.91
874.344	10723.64
874.663	10742.85
874.982	10654.04
875.301	10614.49
875.62	10599.13
875.939	10540.82
876.258	10605.23
876.577	10605.46
876.896	10580.15
877.214	10501.96
877.533	10539.47
877.852	10477.78
878.17	10532.01
878.489	10504.22
878.807	10506.02
879.125	10480.94
879.444	10478
879.762	10372.47
880.08	10421.05
880.398	10343.99
880.716	10403.88
881.034	10323.66
881.352	10365.01
881.67	10203.43
881.988	10295.86
882.306	10302.64
882.624	10245.47
882.941	10228.06
883.259	10195.07
883.577	10148.74
883.894	10052.02
884.212	10105.13
884.529	10085.02
884.846	9998.47
885.164	9989.43
885.481	10027.62
885.798	9998.01
886.115	9921.86
886.432	9906.49
886.75	9842.54
887.067	9927.51
887.383	9864.68
887.7	9859.26
888.017	9774.29
888.334	9829.43
888.651	9797.34
888.967	9741.3
889.284	9723.44
889.6	9658.36
889.917	9632.6
890.233	9663.33
890.55	9606.84
890.866	9568.65
891.182	9495.2
891.498	9543.11
891.815	9506.28
892.131	9470.8
892.447	9379.95
892.763	9413.85
893.079	9400.52
893.395	9384.02
893.71	9344.25
894.026	9311.48
894.342	9279.39
894.657	9256.56
894.973	9202.78
895.289	9263.8
895.604	9280.52
895.92	9120.07
896.235	9099.96
896.55	9083.24
896.865	9113.52
897.181	9028.32
897.496	8985.84
897.811	9025.38
898.126	8958.27
898.441	8868.78
898.756	8874.2
899.071	8845.28
899.386	8827.65
899.7	8759.18
900.015	8736.58
900.33	8669.91
900.644	8691.61
900.959	8684.83
901.273	8619.07
901.588	8641.44
901.902	8553.08
902.216	8475.79
902.531	8553.76
902.845	8452.97
903.159	8388.11
903.473	8396.25
903.787	8377.27
904.101	8311.28
904.415	8348.79
904.729	8301.11
905.042	8242.35
905.356	8223.82
905.67	8182.92
905.984	8139.76
906.297	8151.06
906.611	8116.48
906.924	8103.37
907.237	8025.86
907.551	7985.41
907.864	7981.8
908.177	7963.72
908.491	7984.28
908.804	7912.65
909.117	7888.92
909.43	7851.4
909.743	7745.42
910.056	7839.2
910.368	7694.35
910.681	7663.61
910.994	7611.41
911.307	7616.83
911.619	7584.07
911.932	7605.31
912.244	7501.36
912.557	7507.68
912.869	7418.87
913.181	7429.72
913.494	7415.26
913.806	7331.42
914.118	7397.18
914.43	7290.97
914.742	7325.77
915.054	7217.07
915.366	7213.91
915.678	7180.23
915.99	7223.85
916.302	7043.74
916.613	7045.55
916.925	7094.81
917.236	7068.83
917.548	7006.68
917.859	6977.3
918.171	6920.13
918.482	6921.26
918.794	6908.38
919.105	6885.78
919.416	6763.97
919.727	6854.59
920.038	6734.37
920.349	6754.71
920.66	6720.36
920.971	6742.73
921.282	6664.54
921.593	6648.95
921.903	6646.24
922.214	6588.84
922.525	6525.79
922.835	6505.45
923.146	6496.19
923.456	6515.39
923.767	6459.58
924.077	6413.48
924.387	6408.28
924.697	6305.68
925.008	6366.25
925.318	6305.23
925.628	6345.23
925.938	6231.56
926.248	6227.04
926.558	6233.37
926.867	6188.62
927.177	6163.54
927.487	6119.47
927.796	6042.86
928.106	6038.34
928.416	6062.98
928.725	6094.84
929.034	6016.65
929.344	6061.39
929.653	5988.18
929.962	5930.55
930.271	5894.85
930.581	5876.99
930.89	5848.74
931.199	5794.96
931.508	5782.98
931.817	5784.79
932.125	5747.5
932.434	5749.99
932.743	5624.12
933.051	5645.36
933.36	5659.6
933.669	5568.98
933.977	5596.32
934.286	5592.03
934.594	5492.82
934.902	5500.28
935.21	5474.97
935.519	5470.9
935.827	5442.88
936.135	5468.42
936.443	5384.12
936.751	5370.79
937.059	5329.21
937.367	5346.16
937.674	5313.17
937.982	5284.69
938.29	5272.04
938.597	5241.53
938.905	5195.2
939.213	5200.63
939.52	5143
939.827	5156.33
940.135	5126.96
940.442	5138.25
940.749	5084.24
941.056	5069.78
941.363	4989.33
941.67	5007.86
941.977	5013.06
942.284	4945.49
942.591	4940.29
942.898	4916.57
943.205	4908.66
943.511	4894.42
943.818	4912.72
944.125	4807.87
944.431	4827.98
944.738	4832.95
945.044	4793.86
945.35	4779.62
945.657	4761.32
945.963	4751.37
946.269	4698.94
946.575	4682.22
946.881	4651.49
947.187	4648.1
947.493	4607.87
947.799	4601.55
948.105	4601.55
948.41	4545.73
948.716	4571.26
949.022	4527.65
949.327	4526.97
949.633	4465.96
949.938	4500.31
950.244	4441.55
950.549	4425.73
950.854	4403.81
951.16	4376.69
951.465	4381.44
951.77	4336.47
952.075	4352.74
952.38	4323.13
952.685	4324.72
952.99	4267.54
953.294	4311.61
953.599	4244.72
953.904	4230.93
954.209	4209.24
954.513	4158.17
954.818	4173.31
955.122	4150.48
955.426	4079.3
955.731	4119.3
956.035	4092.18
956.339	4081.11
956.643	4046.08
956.948	4045.85
957.252	4058.06
957.556	3963.82
957.86	3990.94
958.163	4013.31
958.467	3885.86
958.771	3968.57
959.075	3943.26
959.378	3933.77
959.682	3905.52
959.985	3865.75
960.289	3865.52
960.592	3828.46
960.896	3832.3
961.199	3830.04
961.502	3760.89
961.805	3792.75
962.108	3752.75
962.411	3751.4
962.714	3738.52
963.017	3689.25
963.32	3697.84
963.623	3669.59
963.926	3703.72
964.228	3629.59
964.531	3623.94
964.833	3614.23
965.136	3585.98
965.438	3578.3
965.741	3570.84
966.043	3531.52
966.345	3551.63
966.648	3536.71
966.95	3505.76
967.252	3459.43
967.554	3491.29
967.856	3452.2
968.158	3434.12
968.46	3433.67
968.761	3446.1
969.063	3389.15
969.365	3355.25
969.666	3349.6
969.968	3348.25
970.269	3331.52
970.571	3305.08
970.872	3300.56
971.174	3326.32
971.475	3274.8
971.776	3267.8
972.077	3249.04
972.378	3235.93
972.679	3215.82
972.98	3235.48
973.281	3208.14
973.582	3170.4
973.883	3177.18
974.183	3161.13
974.484	3153.9
974.785	3122.04
975.085	3107.35
975.386	3126.33
975.686	3080.68
975.986	3052.66
976.287	3053.56
976.587	3034.58
976.887	3014.24
977.187	3037.29
977.487	3031.87
977.787	3019.67
978.087	2981.48
978.387	2965.88
978.687	2949.39
978.987	2953
979.286	2956.62
979.586	2906.45
979.885	2888.14
980.185	2886.79
980.484	2826.45
980.784	2838.2
981.083	2845.66
981.382	2872.1
981.682	2815.6
981.981	2828.71
982.28	2810.86
982.579	2780.8
982.878	2748.71
983.177	2783.06
983.475	2714.36
983.774	2745.55
984.073	2753.23
984.372	2699.9
984.67	2704.19
984.969	2701.71
985.267	2701.48
985.566	2668.72
985.864	2647.7
986.162	2663.74
986.461	2616.06
986.759	2641.37
987.057	2597.3
987.355	2579.9
987.653	2600.92
987.951	2584.2
988.249	2604.08
988.547	2546.91
988.844	2550.98
989.142	2533.58
989.44	2481.6
989.737	2511.21
990.035	2506.46
990.332	2460.36
990.63	2464.88
990.927	2430.53
991.224	2429.4
991.521	2440.47
991.819	2438.89
992.116	2445.67
992.413	2412.22
992.71	2367.48
993.006	2376.97
993.303	2344.66
993.6	2332.45
993.897	2360.02
994.193	2310.08
994.49	2330.64
994.787	2304.66
995.083	2288.39
995.379	2268.05
995.676	2279.12
995.972	2246.81
996.268	2248.84
996.565	2215.85
996.861	2216.75
997.157	2204.32
997.453	2271.44
997.749	2216.07
998.044	2160.25
998.34	2176.3
998.636	2173.36
998.932	2169.52
999.227	2157.54
999.523	2125.45
999.818	2133.81
1000.114	2108.5
1000.409	2101.27
1000.704	2073.7
1001	2075.74
1001.295	2041.16
1001.59	2069.86
1001.885	2049.3
1002.18	2040.71
1002.475	2027.38
1002.77	1982.86
1003.065	1969.52
1003.359	2038.45
1003.654	2007.72
1003.949	1978.11
1004.243	1989.64
1004.538	1982.86
1004.832	1934.95
1005.127	1953.93
1005.421	1946.25
1005.715	1930.43
1006.009	1938.79
1006.304	1916.19
1006.598	1912.35
1006.892	1884.33
1007.186	1836.19
1007.48	1867.15
1007.773	1847.49
1008.067	1829.19
1008.361	1834.16
1008.655	1808.62
1008.948	1750.32
1009.242	1790.55
1009.535	1774.95
1009.829	1774.95
1010.122	1763.43
1010.415	1743.09
1010.708	1733.6
1011.001	1732.69
1011.295	1688.63
1011.588	1715.52
1011.881	1687.05
1012.173	1669.87
1012.466	1655.63
1012.759	1677.33
1013.052	1662.19
1013.344	1653.37
1013.637	1621.06
1013.93	1642.75
1014.222	1626.26
1014.514	1600.95
1014.807	1599.36
1015.099	1607.95
1015.391	1586.94
1015.683	1559.82
1015.976	1585.13
1016.268	1540.38
1016.56	1508.97
1016.851	1526.82
1017.143	1502.87
1017.435	1527.5
1017.727	1488.41
1018.018	1504
1018.31	1501.74
1018.602	1464.9
1018.893	1462.19
1019.185	1456.77
1019.476	1457.9
1019.767	1468.29
1020.058	1436.88
1020.35	1415.41
1020.641	1433.49
1020.932	1408.41
1021.223	1401.86
1021.514	1396.21
1021.804	1328.64
1022.095	1369.54
1022.386	1376.32
1022.677	1342.2
1022.967	1346.49
1023.258	1339.94
1023.548	1347.17
1023.839	1330.9
1024.129	1288.41
1024.419	1290.45
1024.709	1293.38
1025	1271.24
1025.29	1267.4
1025.58	1285.47
1025.87	1227.62
1026.16	1245.25
1026.449	1228.75
1026.739	1229.66
1027.029	1247.28
1027.319	1235.08
1027.608	1201.18
1027.898	1226.27
1028.187	1185.14
1028.477	1200.05
1028.766	1184.91
1029.055	1168.64
1029.344	1179.04
1029.634	1163.9
1029.923	1159.15
1030.212	1146.27
1030.501	1152.37
1030.79	1126.83
1031.078	1105.82
1031.367	1131.13
1031.656	1091.81
1031.945	1082.99
1032.233	1054.97
1032.522	1092.71
1032.81	1069.89
1033.099	1059.04
1033.387	1072.15
1033.675	1068.76
1033.963	1052.03
1034.251	1065.37
1034.54	1036.89
1034.828	1043.67
1035.116	1027.85
1035.403	1034.63
1035.691	1035.09
1035.979	995.76
1036.267	1012.71
1036.554	1007.06
1036.842	1003.9
1037.129	965.94
1037.417	955.09
1037.704	951.7
1037.992	948.76
1038.279	937.91
1038.566	972.71
1038.853	972.71
1039.14	972.71
