Data from hue_290_FLMS001491_00046.txt Node
Date: Tue Feb 07 15:52:48 GMT 2017
User: dcchb
Spectrometer: FLMS00149
Trigger mode: 0
Integration Time (sec): 2.000000E-2
Scans to average: 10
Electric dark correction enabled: true
Nonlinearity correction enabled: false
Boxcar width: 0
XAxis mode: Wavelengths
Number of Pixels in Spectrum: 2048
>>>>>Begin Spectral Data<<<<<
341.393	-9.07
341.776	-9.07
342.16	-9.07
342.543	-66.69
342.927	-66.02
343.31	-82.06
343.693	-75.73
344.077	-73.02
344.46	-53.13
344.843	-56.75
345.226	-25.34
345.61	-29.18
345.993	-1.16
346.376	1.55
346.759	12.63
347.142	23.25
347.525	38.16
347.908	69.35
348.291	67.54
348.674	94.43
349.057	89.46
349.44	107.77
349.823	132.17
350.206	141.66
350.588	195.22
350.971	212.62
351.354	197.03
351.737	232.06
352.119	249.46
352.502	252.85
352.884	280.64
353.267	274.77
353.65	269.12
354.032	274.31
354.414	293.3
354.797	309.79
355.179	301.21
355.562	303.24
355.944	316.8
356.326	302.56
356.709	325.84
357.091	336.01
357.473	319.74
357.855	324.03
358.238	315.22
358.62	336.01
359.002	335.1
359.384	351.15
359.766	350.02
360.148	321.55
360.53	336.46
360.912	332.39
361.294	331.49
361.676	332.62
362.057	330.36
362.439	340.3
362.821	312.73
363.203	314.99
363.584	333.75
363.966	297.37
364.348	309.34
364.729	316.35
365.111	298.72
365.493	323.35
365.874	325.84
366.256	310.92
366.637	327.19
367.019	313.18
367.4	310.7
367.781	302.11
368.163	310.02
368.544	317.7
368.925	312.51
369.306	334.43
369.688	324.93
370.069	316.12
370.45	310.25
370.831	315.67
371.212	300.08
371.593	307.31
371.974	310.25
372.355	315.9
372.736	324.26
373.117	316.57
373.498	306.4
373.879	324.93
374.26	290.13
374.641	318.16
375.021	329.23
375.402	314.99
375.783	319.29
376.163	317.03
376.544	334.88
376.925	316.57
377.305	315.9
377.686	328.1
378.066	321.32
378.447	317.25
378.827	331.04
379.208	320.64
379.588	317.93
379.968	339.62
380.349	324.93
380.729	331.26
381.109	326.52
381.489	338.49
381.87	336.69
382.25	332.84
382.63	336.01
383.01	343.01
383.39	348.21
383.77	324.93
384.15	347.31
384.53	329.91
384.91	350.7
385.29	362.9
385.67	372.62
386.049	346.63
386.429	343.69
386.809	351.6
387.189	354.09
387.568	350.02
387.948	349.57
388.328	348.89
388.707	369.45
389.087	373.52
389.466	362.9
389.846	375.56
390.225	365.61
390.605	371.49
390.984	369
391.363	383.69
391.743	376.01
392.122	369
392.501	387.53
392.881	397.48
393.26	398.61
393.639	385.72
394.018	373.07
394.397	393.63
394.776	381.66
395.155	388.44
395.534	404.71
395.913	403.58
396.292	394.76
396.671	427.31
397.05	380.98
397.429	385.05
397.808	409
398.186	414.65
398.565	392.5
398.944	408.55
399.323	407.87
399.701	412.62
400.08	411.26
400.458	424.82
400.837	424.59
401.215	411.49
401.594	420.53
401.972	443.35
402.351	424.37
402.729	439.73
403.107	423.01
403.486	431.15
403.864	437.25
404.242	455.78
404.62	457.36
404.999	468.21
405.377	465.04
405.755	497.81
406.133	458.04
406.511	467.08
406.889	468.89
407.267	474.99
407.645	485.38
408.023	476.12
408.401	487.64
408.779	480.19
409.156	516.34
409.534	519.96
409.912	495.55
410.29	538.94
410.667	535.32
411.045	544.36
411.422	551.37
411.8	552.73
412.178	565.15
412.555	563.35
412.933	576.68
413.31	571.03
413.687	581.88
414.065	578.26
414.442	610.35
414.819	615.32
415.197	608.32
415.574	627.53
415.951	637.02
416.328	677.02
416.705	652.61
417.082	683.12
417.46	697.81
417.837	693.96
418.214	711.82
418.591	698.26
418.967	696.45
419.344	705.94
419.721	706.62
420.098	726.05
420.475	726.28
420.852	733.74
421.228	746.17
421.605	755.66
421.982	775.54
422.358	760.4
422.735	786.84
423.111	794.08
423.488	791.59
423.864	820.74
424.241	831.59
424.617	830.68
424.994	828.2
425.37	851.47
425.746	832.04
426.123	857.12
426.499	895.99
426.875	889.89
427.251	905.94
427.627	921.98
428.003	961.53
428.379	953.39
428.756	959.49
429.132	929.66
429.507	969.66
429.883	959.95
430.259	977.8
430.635	984.13
431.011	1028.65
431.387	1040.4
431.763	1063.9
432.138	1067.51
432.514	1059.38
432.89	1090.79
433.265	1091.24
433.641	1104.12
434.016	1150.22
434.392	1152.03
434.767	1164.46
435.143	1164.23
435.518	1179.15
435.894	1198.36
436.269	1211.92
436.644	1227.96
437.02	1240.17
437.395	1275.64
437.77	1274.51
438.145	1285.36
438.52	1293.27
438.895	1323.78
439.271	1312.48
439.646	1333.04
440.021	1337.56
440.395	1337.34
440.77	1343.21
441.145	1336.21
441.52	1362.87
441.895	1346.38
442.27	1393.16
442.645	1386.83
443.019	1420.27
443.394	1414.62
443.769	1418.69
444.143	1421.4
444.518	1474.96
444.892	1421.86
445.267	1467.28
445.641	1466.6
446.016	1458.46
446.39	1472.48
446.764	1498.24
447.139	1480.61
447.513	1486.49
447.887	1521.29
448.262	1484
448.636	1502.76
449.01	1531.46
449.384	1519.03
449.758	1541.4
450.132	1588.63
450.506	1571
450.88	1580.95
451.254	1594.73
451.628	1588.86
452.002	1589.31
452.376	1637.67
452.75	1633.15
453.123	1621.62
453.497	1649.42
453.871	1654.84
454.244	1678.57
454.618	1701.85
454.992	1727.38
455.365	1684.45
455.739	1769.87
456.112	1759.47
456.486	1775.97
456.859	1775.29
457.232	1828.85
457.606	1805.35
457.979	1839.7
458.352	1845.57
458.725	1858
459.099	1890.32
459.472	1901.62
459.845	1890.32
460.218	1922.41
460.591	1952.01
460.964	1912.24
461.337	1977.55
461.71	1987.26
462.083	1995.85
462.456	2027.49
462.829	2048.73
463.201	2087.83
463.574	2054.16
463.947	2080.14
464.32	2085.79
464.692	2121.27
465.065	2141.38
465.438	2167.82
465.81	2200.59
466.183	2189.07
466.555	2235.39
466.928	2266.35
467.3	2245.34
467.672	2308.61
468.045	2344.54
468.417	2330.76
468.789	2327.82
469.161	2373.02
469.534	2391.77
469.906	2414.82
470.278	2407.59
470.65	2470.64
471.022	2488.49
471.394	2520.81
471.766	2542.73
472.138	2569.62
472.51	2571.88
472.882	2622.5
473.253	2627.02
473.625	2687.58
473.997	2725.55
474.369	2745.44
474.74	2735.49
475.112	2796.96
475.484	2821.37
475.855	2894.81
476.227	2871.31
476.598	2944.53
476.97	2995.83
477.341	3015.94
477.713	3038.08
478.084	3029.27
478.455	3114.24
478.827	3155.37
479.198	3207.57
479.569	3196.05
479.94	3243.5
480.311	3291.86
480.682	3326.89
481.053	3389.94
481.424	3444.85
481.795	3480.56
482.166	3483.27
482.537	3542.03
482.908	3631.97
483.279	3663.6
483.65	3703.38
484.021	3746.99
484.391	3764.17
484.762	3766.43
485.133	3798.06
485.503	3815.92
485.874	3932.52
486.244	3943.82
486.615	3995.12
486.985	4011.39
487.356	4092.75
487.726	4102.91
488.097	4179.3
488.467	4154.21
488.837	4265.4
489.207	4309.91
489.578	4339.97
489.948	4367.31
490.318	4397.82
490.688	4431.49
491.058	4505.62
491.428	4550.36
491.798	4564.37
492.168	4607.08
492.538	4603.92
492.908	4708.77
493.278	4728.43
493.648	4716.01
494.017	4756.23
494.387	4822.22
494.757	4809.56
495.126	4843.91
495.496	4892.72
495.866	4882.33
496.235	4990.35
496.605	4994.19
496.974	5012.95
497.344	5005.04
497.713	5052.04
498.082	5095.66
498.452	5137.24
498.821	5127.75
499.19	5139.72
499.559	5200.96
499.928	5163.68
500.298	5253.39
500.667	5260.17
501.036	5252.94
501.405	5301.75
501.774	5302.43
502.143	5347.63
502.512	5361.41
502.88	5426.27
503.249	5453.84
503.618	5415.87
503.987	5459.26
504.356	5465.14
504.724	5493.39
505.093	5500.84
505.462	5562.99
505.83	5584.91
506.199	5607.06
506.567	5656.55
506.936	5633.5
507.304	5641.18
507.672	5658.58
508.041	5730.67
508.409	5742.87
508.777	5767.5
509.145	5821.51
509.514	5816.77
509.882	5822.42
510.25	5820.16
510.618	5833.94
510.986	5861.06
511.354	5881.4
511.722	5948.97
512.09	6002.98
512.458	5938.8
512.826	6040.72
513.193	6009.76
513.561	6012.24
513.929	6079.59
514.297	6141.28
514.664	6140.38
515.032	6176.76
515.4	6164.1
515.767	6176.31
516.135	6217.66
516.502	6176.98
516.869	6274.61
517.237	6274.61
517.604	6259.02
517.972	6316.42
518.339	6303.53
518.706	6339.24
519.073	6325.46
519.44	6393.25
519.808	6466.02
520.175	6434.6
520.542	6452.68
520.909	6531.78
521.276	6453.14
521.643	6510.76
522.009	6583.75
522.376	6586.92
522.743	6580.82
523.11	6688.61
523.477	6665.79
523.843	6753.92
524.21	6790.98
524.577	6799.12
524.943	6802.28
525.31	6929.06
525.676	6906.68
526.043	6903.52
526.409	6889.73
526.776	7034.59
527.142	7023.52
527.508	7021.48
527.874	7121.37
528.241	7087.02
528.607	7118.65
528.973	7163.85
529.339	7148.71
529.705	7182.38
530.071	7286.11
530.437	7290.18
530.803	7395.03
531.169	7388.25
531.535	7409.72
531.901	7411.75
532.267	7412.43
532.632	7489.94
532.998	7510.28
533.364	7545.31
533.73	7616.49
534.095	7550.06
534.461	7567.23
534.826	7669.37
535.192	7663.73
535.557	7690.84
535.923	7723.16
536.288	7768.58
536.653	7718.64
537.019	7750.73
537.384	7721.58
537.749	7827.11
538.114	7838.18
538.479	7880.44
538.845	7885.19
539.21	7911.63
539.575	7893.32
539.94	7963.6
540.305	7961.57
540.67	7957.95
541.034	7956.37
541.399	8072.08
541.764	8034.11
542.129	8103.71
542.494	8054.68
542.858	8124.96
543.223	8134.22
543.587	8153.2
543.952	8177.38
544.316	8203.15
544.681	8220.55
545.045	8215.8
545.41	8276.82
545.774	8306.19
546.138	8297.38
546.503	8310.94
546.867	8228.68
547.231	8384.61
547.595	8406.76
547.959	8431.61
548.324	8424.38
548.688	8433.65
549.052	8470.71
549.416	8503.93
549.779	8504.38
550.143	8464.83
550.507	8612.85
550.871	8576.02
551.235	8590.25
551.599	8718.84
551.962	8669.57
552.326	8655.34
552.689	8675.45
553.053	8717.48
553.417	8738.27
553.78	8813.07
554.143	8763.81
554.507	8765.17
554.87	8846.97
555.234	8900.08
555.597	8774.88
555.96	8833.64
556.323	8930.81
556.686	8918.83
557.05	8977.14
557.413	8890.59
557.776	8967.65
558.139	9005.38
558.502	8994.99
558.865	9030.02
559.228	9016.91
559.59	9105.95
559.953	9103.91
560.316	9139.62
560.679	9159.96
561.041	9115.21
561.404	9298.94
561.767	9264.59
562.129	9318.37
562.492	9375.32
562.854	9347.07
563.217	9376.67
563.579	9381.65
563.941	9470.23
564.304	9405.37
564.666	9580.06
565.028	9508.65
565.39	9625.93
565.753	9563.11
566.115	9640.17
566.477	9714.07
566.839	9633.62
567.201	9681.75
567.563	9774.86
567.925	9760.39
568.287	9835.87
568.648	9796.55
569.01	9843.78
569.372	9881.07
569.734	9902.76
570.095	10030.22
570.457	9913.84
570.819	10065.47
571.18	10153.83
571.542	10157.44
571.903	10213.26
572.265	10161.74
572.626	10156.99
572.987	10194.51
573.349	10236.09
573.71	10382.3
574.071	10422.3
574.432	10354.05
574.794	10540.26
575.155	10538.45
575.516	10550.43
575.877	10625.91
576.238	10650.99
576.599	10766.69
576.96	10883.08
577.32	10807.37
577.681	10894.6
578.042	10918.78
578.403	11056.63
578.763	11009.85
579.124	11114.93
579.485	11212.78
579.845	11295.49
580.206	11288.94
580.566	11407.58
580.927	11444.42
581.287	11524.87
581.648	11608.93
582.008	11694.58
582.368	11797.18
582.728	11862.94
583.089	11965.31
583.449	12027.45
583.809	12168.01
584.169	12338.63
584.529	12366.88
584.889	12544.73
585.249	12561
585.609	12596.7
585.969	12836.7
586.329	12882.12
586.688	13074.88
587.048	13088.89
587.408	13233.75
587.768	13359.17
588.127	13398.94
588.487	13555.32
588.846	13753.96
589.206	13884.8
589.565	13871.47
589.925	14110.56
590.284	14280.05
590.643	14396.88
591.003	14527.05
591.362	14703.99
591.721	14862.41
592.08	14969.52
592.44	15115.51
592.799	15254.03
593.158	15301.26
593.517	15546.91
593.876	15661.93
594.235	15812.21
594.593	15905.54
594.952	16067.35
595.311	16144.18
595.67	16344.4
596.029	16621
596.387	16691.28
596.746	16861.68
597.104	16935.12
597.463	16914.56
597.822	17122.69
598.18	17167.66
598.538	17388.67
598.897	17607.42
599.255	17562.9
599.613	17830.46
599.972	17888.31
600.33	18010.57
600.688	18083.79
601.046	18215.09
601.404	18330.11
601.762	18372.14
602.12	18635.19
602.478	18674.51
602.836	18897.1
603.194	18866.59
603.552	18938.68
603.91	18928.74
604.268	19220.94
604.625	19183.87
604.983	19354.94
605.341	19341.84
605.698	19591.55
606.056	19708.61
606.413	19750.86
606.771	19853.24
607.128	19900.24
607.485	19899.34
607.843	20077.86
608.2	20153.79
608.557	20260.46
608.914	20328.93
609.272	20513.78
609.629	20494.8
609.986	20710.61
610.343	20608.7
610.7	20853.43
611.057	21003.26
611.414	21011.62
611.771	21019.53
612.127	21112.64
612.484	21175.23
612.841	21345.85
613.198	21287.32
613.554	21300.2
613.911	21458.62
614.267	21592.62
614.624	21533.42
614.98	21666.29
615.337	21789.91
615.693	21740.87
616.05	21794.65
616.406	21950.58
616.762	21883.46
617.118	21955.78
617.475	21993.29
617.831	22051.6
618.187	22174.3
618.543	22213.85
618.899	22471.92
619.255	22342.66
619.611	22325.03
619.967	22441.42
620.323	22523.22
620.678	22443.68
621.034	22410.46
621.39	22574.97
621.746	22459.72
622.101	22770.67
622.457	22635.76
622.812	22717.34
623.168	22748.53
623.523	22779.49
623.879	22908.75
624.234	22762.54
624.589	22818.13
624.945	22740.39
625.3	22882.31
625.655	22779.94
626.01	22959.14
626.365	22906.04
626.72	22898.8
627.075	22997.11
627.43	22954.85
627.785	22922.08
628.14	22831.24
628.495	23024.68
628.85	22986.26
629.205	22831.69
629.559	23120.04
629.914	22937.67
630.269	23014.28
630.623	22902.87
630.978	22999.59
631.332	23094.51
631.687	23139.93
632.041	22954.85
632.396	23023.32
632.75	22969.99
633.104	23071.46
633.459	22858.35
633.813	22934.96
634.167	22910.33
634.521	22960.72
634.875	23043.89
635.229	23025.36
635.583	22844.79
635.937	22953.94
636.291	22780.62
636.645	22859.48
636.999	22833.72
637.352	22824.68
637.706	22733.16
638.06	22805.7
638.413	22838.47
638.767	22675.53
639.121	22808.64
639.474	22622.88
639.828	22764.12
640.181	22681.64
640.534	22654.29
640.888	22627.63
641.241	22705.82
641.594	22629.21
641.947	22725.93
642.301	22669.88
642.654	22700.84
643.007	22712.37
643.36	22621.52
643.713	22566.61
644.066	22809.09
644.419	22566.84
644.771	22453.62
645.124	22295.2
645.477	22246.84
645.83	22036.45
646.182	22042.56
646.535	21884.37
646.888	22065.15
647.24	21799.62
647.593	21941.99
647.945	21876.46
648.298	21765.05
648.65	21804.6
649.002	21642.11
649.355	21953.97
649.707	21817.03
650.059	21983.8
650.411	22202.55
650.763	22201.42
651.115	22568.87
651.467	22408.42
651.819	22380.85
652.171	22409.78
652.523	22445.48
652.875	22318.48
653.227	22153.97
653.578	22445.94
653.93	22421.08
654.282	22399.83
654.633	22265.38
654.985	22402.77
655.337	22336.79
655.688	22330.91
656.039	22514.86
656.391	22281.87
656.742	22323.68
657.094	22261.53
657.445	22453.84
657.796	22392.6
658.147	22287.75
658.498	22400.96
658.849	22460.62
659.2	22405.03
659.551	22384.92
659.902	22395.32
660.253	22362.32
660.604	22419.72
660.955	22246.62
661.306	22501.08
661.656	22456.78
662.007	22413.39
662.358	22421.76
662.708	22471.47
663.059	22385.6
663.409	22384.02
663.76	22529.55
664.11	22446.16
664.461	22536.78
664.811	22445.71
665.161	22453.84
665.511	22322.32
665.862	22404.81
666.212	22525.48
666.562	22405.03
666.912	22419.95
667.262	22366.16
667.612	22409.1
667.962	22457.01
668.312	22377.69
668.662	22579.27
669.011	22416.11
669.361	22344.24
669.711	22346.5
670.06	22203.91
670.41	22471.02
670.76	22332.27
671.109	22374.75
671.459	22313.28
671.808	22191.48
672.157	22360.51
672.507	22166.39
672.856	22158.94
673.205	22236.9
673.554	22316.45
673.904	22242.32
674.253	22398.03
674.602	22174.98
674.951	21892.05
675.3	21791.49
675.649	22089.79
675.998	22060.63
676.346	22113.97
676.695	22325.03
677.044	22124.14
677.393	22058.15
677.741	22111.25
678.09	22035.78
678.438	21971.6
678.787	22015.21
679.135	22050.92
679.484	21814.31
679.832	22004.59
680.181	21818.61
680.529	21766.18
680.877	21707.65
681.225	21781.55
681.573	21896.12
681.922	21756.46
682.27	21636.46
682.618	21596.69
682.966	21542
683.314	21592.4
683.661	21540.2
684.009	21643.92
684.357	21436.92
684.705	21459.97
685.053	21502.46
685.4	21469.69
685.748	21274.21
686.095	21304.95
686.443	21266.98
686.79	21087.1
687.138	21196.7
687.485	21122.35
687.832	21025.86
688.18	21112.86
688.527	20976.6
688.874	21012.75
689.221	20884.62
689.568	20805.75
689.915	20756.04
690.262	20747.22
690.609	20612.09
690.956	20609.83
691.303	20616.38
691.65	20415.48
691.997	20455.48
692.344	20268.59
692.69	20328.02
693.037	20288.93
693.383	20083.96
693.73	20223.62
694.077	20030.41
694.423	19947.47
694.769	19994.25
695.116	19844.42
695.462	19815.27
695.808	19818.89
696.155	19780.02
696.501	19772.11
696.847	19688.95
697.193	19566.01
697.539	19640.59
697.885	19330.99
698.231	19368.73
698.577	19324.89
698.923	19309.07
699.269	19118.57
699.614	19017.1
699.96	18996.31
700.306	19056.42
700.651	18909.53
700.997	18884.22
701.342	18897.1
701.688	18862.75
702.033	18707.73
702.379	18572.36
702.724	18602.65
703.069	18667.28
703.415	18509.77
703.76	18499.6
704.105	18468.41
704.45	18321.98
704.795	18206.27
705.14	18239.04
705.485	18121.98
705.83	18012.38
706.175	18144.81
706.52	18015.09
706.865	17983.45
707.209	17871.59
707.554	17807.41
707.899	17892.61
708.243	17734.65
708.588	17731.93
708.932	17541.43
709.277	17611.94
709.621	17592.96
709.966	17474.54
710.31	17463.69
710.654	17356.13
710.998	17352.96
711.342	17391.15
711.687	17300.31
712.031	17156.81
712.375	17124.49
712.719	17203.36
713.063	17085.4
713.407	17136.24
713.75	17052.86
714.094	17006.76
714.438	16992.97
714.782	16995.01
715.125	16928.57
715.469	17056.7
715.812	16799.53
716.156	16787.78
716.499	16826.2
716.843	16768.57
717.186	16750.04
717.53	16785.07
717.873	16775.58
718.216	16812.64
718.559	16696.03
718.902	16521.8
719.246	16595.92
719.589	16451.06
719.932	16479.54
720.275	16462.14
720.617	16465.53
720.96	16424.85
721.303	16463.27
721.646	16428.01
721.989	16328.13
722.331	16334.46
722.674	16327.68
723.016	16310.96
723.359	16319.32
723.701	16285.42
724.044	16213.33
724.386	16065.31
724.729	16192.77
725.071	16208.36
725.413	16129.04
725.755	16171.52
726.097	16082.26
726.439	15911.64
726.782	16053.11
727.124	16045.2
727.465	16045.88
727.807	15965.2
728.149	15948.93
728.491	15960.23
728.833	16017.86
729.175	15938.08
729.516	15985.09
729.858	15921.36
730.199	15951.64
730.541	15907.8
730.882	15854.7
731.224	15925.2
731.565	15891.08
731.906	15868.93
732.248	15922.72
732.589	15825.54
732.93	15811.08
733.271	15899.21
733.612	15912.32
733.953	15788.94
734.294	15777.64
734.635	15839.1
734.976	15768.6
735.317	15658.54
735.658	15719.78
735.999	15836.62
736.339	15722.27
736.68	15772.66
737.021	15782.61
737.361	15731.76
737.702	15813.79
738.042	15807.01
738.383	15767.92
738.723	15781.48
739.063	15730.63
739.404	15886.79
739.744	15758.43
740.084	15756.85
740.424	15881.14
740.764	15783.96
741.104	15958.42
741.444	15877.07
741.784	15739.22
742.124	15809.27
742.464	15890.18
742.804	15927.01
743.143	15802.49
743.483	15886.79
743.823	15867.13
744.162	15796.17
744.502	15983.51
744.841	15936.28
745.181	16101.7
745.52	15956.61
745.86	16043.39
746.199	16011.08
746.538	16016.27
746.877	16236.83
747.216	16191.18
747.556	16183.95
747.895	16213.56
748.234	16247
748.573	16367
748.911	16379.65
749.25	16486.32
749.589	16454.23
749.928	16590.72
750.267	16799.76
750.605	16727.22
750.944	16789.36
751.283	16720.21
751.621	16986.64
751.96	16976.25
752.298	17080.2
752.636	17186.41
752.975	17182.12
753.313	17213.98
753.651	17466.86
753.989	17422.79
754.327	17606.29
754.666	17685.61
755.004	17745.49
755.342	17869.56
755.679	17954.98
756.017	17949.33
756.355	18193.62
756.693	18223.9
757.031	18375.08
757.368	18362.88
757.706	18543.44
758.044	18648.07
758.381	18751.34
758.719	18828.4
759.056	18983.88
759.394	19087.61
759.731	19122.41
760.068	19216.19
760.405	19387.71
760.743	19315.17
761.08	19570.76
761.417	19584.77
761.754	19690.75
762.091	19822.73
762.428	19843.07
762.765	19903.86
763.102	20067.24
763.438	20053.23
763.775	20084.42
764.112	20295.48
764.449	20415.71
764.785	20416.38
765.122	20444.63
765.458	20531.86
765.795	20579.54
766.131	20732.31
766.467	20592.88
766.804	20692.76
767.14	20691.18
767.476	20841.46
767.812	20916.94
768.148	20904.05
768.485	20930.27
768.821	20852.3
769.157	20878.97
769.492	20933.43
769.828	21032.41
770.164	20973.21
770.5	21101.34
770.836	21067.89
771.171	21076.25
771.507	21172.75
771.842	20917.39
772.178	21101.11
772.513	21092.75
772.849	20999.19
773.184	21049.36
773.519	21143.6
773.855	21104.95
774.19	21069.93
774.525	21016.37
774.86	21102.24
775.195	21037.16
775.53	21054.33
775.865	20947.9
776.2	20841.46
776.535	20765.75
776.87	20789.03
777.205	20826.32
777.539	20799.65
777.874	20878.29
778.209	20635.14
778.543	20697.28
778.878	20579.32
779.212	20597.4
779.547	20490.28
779.881	20621.35
780.215	20524.18
780.55	20570.05
780.884	20330.51
781.218	20474.46
781.552	20431.3
781.886	20405.54
782.22	20241.7
782.554	20208.93
782.888	20055.94
783.222	20190.85
783.556	20047.81
783.889	19985.66
784.223	19904.76
784.557	19900.69
784.89	19897.75
785.224	19836.96
785.557	19792.9
785.891	19651.21
786.224	19562.62
786.558	19693.24
786.891	19469.29
787.224	19485.11
787.557	19446.69
787.891	19345.23
788.224	19366.02
788.557	19365.79
788.89	19320.59
789.223	19314.72
789.556	19156.98
789.888	19079.24
790.221	18984.11
790.554	18864.33
790.887	18898.68
791.219	18838.57
791.552	18831.57
791.884	18659.59
792.217	18782.53
792.549	18716.77
792.882	18561.07
793.214	18415.08
793.546	18545.47
793.879	18350.45
794.211	18326.04
794.543	18350.9
794.875	18278.59
795.207	18343.22
795.539	18239.27
795.871	18297.8
796.203	18016.9
796.535	17960.86
796.867	18093.96
797.198	17881.54
797.53	17868.65
797.862	17732.16
798.193	17820.29
798.525	17651.49
798.856	17578.94
799.188	17469.79
799.519	17426.86
799.85	17366.75
800.182	17388.89
800.513	17462.56
800.844	17304.83
801.175	17444.03
801.506	17366.75
801.837	17197.03
802.168	17251.95
802.499	17171.05
802.83	17043.14
803.161	17004.04
803.491	17027.32
803.822	17056.7
804.153	16949.13
804.483	16872.07
804.814	16832.07
805.145	16727.44
805.475	16727.44
805.805	16705.3
806.136	16626.43
806.466	16569.25
806.796	16508.92
807.126	16414.23
807.457	16413.1
807.787	16413.1
808.117	16341.69
808.447	16261.69
808.777	16281.58
809.107	16163.84
809.436	16202.03
809.766	16147.8
810.096	16151.19
810.426	16021.92
810.755	16076.84
811.085	16064.63
811.414	15980.34
811.744	15856.96
812.073	15830.06
812.403	15883.17
812.732	15749.16
813.061	15850.18
813.39	15738.09
813.719	15586
814.049	15776.96
814.378	15665.32
814.707	15588.49
815.036	15559.79
815.365	15482.73
815.693	15355.95
816.022	15394.82
816.351	15315.05
816.68	15232.11
817.008	15319.79
817.337	15122.29
817.665	15146.01
817.994	15165.22
818.322	15147.82
818.651	15041.84
818.979	15042.97
819.307	15230.76
819.636	14977.66
819.964	14940.82
820.292	15055.62
820.62	14957.77
820.948	14951.44
821.276	14986.24
821.604	15002.97
821.932	14950.77
822.259	14935.4
822.587	14883.2
822.915	14855.85
823.243	14861.95
823.57	14811.79
823.898	14885.46
824.225	14755.74
824.553	14821.05
824.88	14807.49
825.207	14904.89
825.535	14795.74
825.862	14804.33
826.189	14806.59
826.516	14901.5
826.843	14911.67
827.17	14891.33
827.497	14926.36
827.824	14982.63
828.151	14944.44
828.478	14764.56
828.805	14903.08
829.131	14841.84
829.458	14893.37
829.785	14792.35
830.111	14883.2
830.438	14913.7
830.764	14814.05
831.09	14891.11
831.417	14803.2
831.743	14824.67
832.069	14809.3
832.395	14743.99
832.722	14789.19
833.048	14776.53
833.374	14790.77
833.7	14684.33
834.026	14776.31
834.351	14708.51
834.677	14654.5
835.003	14701.96
835.329	14649.76
835.654	14621.51
835.98	14614.73
836.306	14599.36
836.631	14664.44
836.956	14545.58
837.282	14543.09
837.607	14461.51
837.932	14481.4
838.258	14476.65
838.583	14448.63
838.908	14400.72
839.233	14482.75
839.558	14310.56
839.883	14288.64
840.208	14227.62
840.533	14242.99
840.858	14261.29
841.182	14211.35
841.507	14288.41
841.832	14171.35
842.156	14127.28
842.481	14209.32
842.805	14145.14
843.13	14048.42
843.454	14027.4
843.778	14000.06
844.103	13917.35
844.427	13960.96
844.751	13905.59
845.075	13955.31
845.399	13788.99
845.723	13767.07
846.047	13786.05
846.371	13744.92
846.695	13722.77
847.019	13542.67
847.343	13397.36
847.666	13437.58
847.99	13429.9
848.313	13332.05
848.637	13254.99
848.96	13144.94
849.284	13252.5
849.607	13139.97
849.931	13157.14
850.254	12980.65
850.577	12969.35
850.9	12850.71
851.223	12922.57
851.546	12855.23
851.869	12746.3
852.192	12811.84
852.515	12703.14
852.838	12615.91
853.161	12627.66
853.483	12542.69
853.806	12504.05
854.129	12471.73
854.451	12454.33
854.774	12395.58
855.096	12320.33
855.419	12260.67
855.741	12243.27
856.063	12217.28
856.385	12173.21
856.708	12181.12
857.03	12049.82
857.352	12088.92
857.674	12029.71
857.996	11971.18
858.318	11934.8
858.64	11902.26
858.961	11933.22
859.283	11925.53
859.605	11748.59
859.926	11855.71
860.248	11835.37
860.57	11642.15
860.891	11748.59
861.212	11750.17
861.534	11627.01
861.855	11620.91
862.176	11628.59
862.498	11616.16
862.819	11541.36
863.14	11575.71
863.461	11529.84
863.782	11445.77
864.103	11496.84
864.424	11420.01
864.745	11449.61
865.065	11358.32
865.386	11335.72
865.707	11380.46
866.027	11384.53
866.348	11344.08
866.668	11346.11
866.989	11279.45
867.309	11132.11
867.63	11204.87
867.95	11220.02
868.27	11143.41
868.59	11188.6
868.91	11104.54
869.23	11170.3
869.55	11110.19
869.87	11089.85
870.19	11072.67
870.51	11050.08
870.83	11047.59
871.15	10987.03
871.469	10903.19
871.789	11035.39
872.109	10972.56
872.428	10901.61
872.748	10949.74
873.067	10954.71
873.386	10953.13
873.706	10878.33
874.025	10855.05
874.344	10800.14
874.663	10911.55
874.982	10785.45
875.301	10874.26
875.62	10775.73
875.939	10742.06
876.258	10761.5
876.577	10747.03
876.896	10535.51
877.214	10642.86
877.533	10702.52
877.852	10693.25
878.17	10628.62
878.489	10602.63
878.807	10637.43
879.125	10570.09
879.444	10569.41
879.762	10495.29
880.08	10572.58
880.398	10495.51
880.716	10516.31
881.034	10380.49
881.352	10427.49
881.67	10433.37
881.988	10448.06
882.306	10413.26
882.624	10338.01
882.941	10312.92
883.259	10270.21
883.577	10281.51
883.894	10194.05
884.212	10242.19
884.529	10273.37
884.846	10218.46
885.164	10210.1
885.481	10138.91
885.798	10162.64
886.115	10024.79
886.432	10064.57
886.75	10040.61
887.067	10008.07
887.383	9969.2
887.7	10012.59
888.017	9898.47
888.334	9895.08
888.651	9890.11
888.967	9813.27
889.284	9842.65
889.6	9771.92
889.917	9733.95
890.233	9797.45
890.55	9641.75
890.866	9681.98
891.182	9622.77
891.498	9602.88
891.815	9482.66
892.131	9596.1
892.447	9544.35
892.763	9501.87
893.079	9498.03
893.395	9421.42
893.71	9440.63
894.026	9417.58
894.342	9360.18
894.657	9284.7
894.973	9383.91
895.289	9326.28
895.604	9191.59
895.92	9229.33
896.235	9159.05
896.55	9207.19
896.865	9118.15
897.181	9109.79
897.496	9048.77
897.811	9044.25
898.126	9016.91
898.441	8959.74
898.756	8958.38
899.071	8896.46
899.386	8906.63
899.7	8799.51
900.015	8746.41
900.33	8736.01
900.644	8672.96
900.959	8723.81
901.273	8669.8
901.588	8626.19
901.902	8553.19
902.216	8590.03
902.531	8568.79
902.845	8578.28
903.159	8464.38
903.473	8454.66
903.787	8453.99
904.101	8356.81
904.415	8394.55
904.729	8315.46
905.042	8300.54
905.356	8282.69
905.67	8233.88
905.984	8225.97
906.297	8186.65
906.611	8192.07
906.924	8143.94
907.237	8132.87
907.551	8047.22
907.864	8035.47
908.177	8009.48
908.491	8038.4
908.804	7952.08
909.117	7860.78
909.43	7890.39
909.743	7900.1
910.056	7809.48
910.368	7813.33
910.681	7767.9
910.994	7761.58
911.307	7730.39
911.619	7647.45
911.932	7682.26
912.244	7572.43
912.557	7578.3
912.869	7501.24
913.181	7497.85
913.494	7500.57
913.806	7383.05
914.118	7418.08
914.43	7353.22
914.742	7312.77
915.054	7306.45
915.366	7305.77
915.678	7218.09
915.99	7312.32
916.302	7218.99
916.613	7143.29
916.925	7129.5
917.236	7039.56
917.548	7121.82
917.859	7005.89
918.171	7022.39
918.482	7020.13
918.794	6889.96
919.105	6917.53
919.416	6849.96
919.727	6864.2
920.038	6799.79
920.349	6780.36
920.66	6773.8
920.971	6833.92
921.282	6756.86
921.593	6662.62
921.903	6673.24
922.214	6613.13
922.525	6580.36
922.835	6543.53
923.146	6448.62
923.456	6556.41
923.767	6507.6
924.077	6468.95
924.387	6464.21
924.697	6423.53
925.008	6415.17
925.318	6396.19
925.628	6373.36
925.938	6340.14
926.248	6289.3
926.558	6238.45
926.867	6180.83
927.177	6223.54
927.487	6180.15
927.796	6134.73
928.106	6130.43
928.416	6070.77
928.725	6150.09
929.034	6084.78
929.344	6045.46
929.653	6011.57
929.962	5965.01
930.271	5942.87
930.581	5928.63
930.89	5911.23
931.199	5840.27
931.508	5840.27
931.817	5828.97
932.125	5766.37
932.434	5761.18
932.743	5687.05
933.051	5716.21
933.36	5704
933.669	5646.15
933.977	5647.05
934.286	5611.58
934.594	5659.94
934.902	5600.73
935.21	5575.42
935.519	5531.13
935.827	5522.54
936.135	5498.58
936.443	5420.17
936.751	5465.59
937.059	5420.85
937.367	5377.23
937.674	5417.68
937.982	5340.85
938.29	5331.13
938.597	5322.32
938.905	5257.01
939.213	5241.42
939.52	5172.27
939.827	5198.48
940.135	5171.59
940.442	5104.24
940.749	5143.79
941.056	5148.99
941.363	5096.11
941.67	5052.27
941.977	5057.01
942.284	5014.53
942.591	5008.2
942.898	5005.49
943.205	4970.91
943.511	4977.02
943.818	4938.6
944.125	4912.84
944.431	4906.06
944.738	4862.22
945.044	4819.73
945.35	4808.88
945.657	4797.81
945.963	4761.65
946.269	4738.83
946.575	4734.99
946.881	4713.29
947.187	4714.2
947.493	4657.02
947.799	4658.83
948.105	4645.27
948.41	4671.71
948.716	4592.62
949.022	4569.57
949.327	4547.42
949.633	4480.76
949.938	4536.12
950.244	4487.99
950.549	4469.46
950.854	4464.71
951.16	4440.53
951.465	4434.21
951.77	4401.21
952.075	4392.62
952.38	4355.79
952.685	4371.61
952.99	4274.66
953.294	4269.69
953.599	4287.77
953.904	4287.09
954.209	4216.13
954.513	4222.91
954.818	4230.59
955.122	4198.51
955.426	4182.23
955.731	4133.42
956.035	4117.38
956.339	4082.8
956.643	4113.31
956.948	4083.71
957.252	4016.14
957.556	4043.71
957.86	4030.6
958.163	4029.24
958.467	3965.29
958.771	3933.43
959.075	3980.21
959.378	3926.87
959.682	3946.08
959.985	3971.17
960.289	3902.47
960.592	3845.97
960.896	3857.72
961.199	3879.42
961.502	3834.45
961.805	3818.18
962.108	3754
962.411	3765.75
962.714	3740.21
963.017	3767.56
963.32	3738.4
963.623	3680.55
963.926	3724.85
964.228	3664.51
964.531	3661.12
964.833	3652.31
965.136	3629.48
965.438	3645.07
965.741	3592.42
966.043	3577.28
966.345	3562.82
966.648	3548.8
966.95	3564.17
967.252	3475.36
967.554	3519.43
967.856	3472.42
968.158	3498.41
968.46	3462.71
968.761	3468.58
969.063	3429.49
969.365	3431.07
969.666	3394.68
969.968	3361.01
970.269	3403.72
970.571	3344.74
970.872	3335.7
971.174	3331.41
971.475	3331.64
971.776	3322.14
972.077	3286.89
972.378	3265.2
972.679	3268.81
972.98	3269.94
973.281	3230.85
973.582	3174.58
973.883	3212.77
974.183	3164.63
974.484	3189.94
974.785	3163.73
975.085	3136.84
975.386	3157.18
975.686	3097.07
975.986	3113.11
976.287	3088.48
976.587	3065.88
976.887	3016.16
977.187	3049.16
977.487	3019.55
977.787	2998.76
978.087	3009.61
978.387	3003.73
978.687	2950.18
978.987	2957.63
979.286	2947.69
979.586	2936.62
979.885	2911.08
980.185	2921.25
980.484	2889.16
980.784	2922.61
981.083	2889.39
981.382	2849.39
981.682	2846.22
981.981	2847.58
982.28	2782.5
982.579	2806.9
982.878	2813.01
983.177	2754.25
983.475	2770.75
983.774	2756.06
984.073	2729.62
984.372	2705.21
984.67	2708.38
984.969	2738.88
985.267	2679
985.566	2681.94
985.864	2652.56
986.162	2685.55
986.461	2664.31
986.759	2625.67
987.057	2632.22
987.355	2596.29
987.653	2579.11
987.951	2598.32
988.249	2554.93
988.547	2589.96
988.844	2563.52
989.142	2540.92
989.44	2519.45
989.737	2527.59
990.035	2485.33
990.332	2486.23
990.63	2485.1
990.927	2447.82
991.224	2497.76
991.521	2466.12
991.819	2434.26
992.116	2453.92
992.413	2419.34
992.71	2430.87
993.006	2360.14
993.303	2349.51
993.6	2399
993.897	2354.03
994.193	2343.41
994.49	2348.38
994.787	2314.71
995.083	2276.97
995.379	2281.49
995.676	2292.34
995.972	2280.59
996.268	2277.2
996.565	2240.36
996.861	2224.32
997.157	2235.85
997.453	2180.71
997.749	2199.46
998.044	2199.24
998.34	2194.26
998.636	2167.15
998.932	2144.77
999.227	2136.64
999.523	2114.04
999.818	2158.79
1000.114	2090.99
1000.409	2091.89
1000.704	2094.61
1001	2085.79
1001.295	2096.19
1001.59	2063.65
1001.885	2051.44
1002.18	2042.63
1002.475	2008.05
1002.77	2020.94
1003.065	2014.83
1003.359	2021.84
1003.654	1961.73
1003.949	1999.47
1004.243	1948.4
1004.538	1975.96
1004.832	1930.77
1005.127	1924.21
1005.421	1906.14
1005.715	1906.14
1006.009	1865.91
1006.304	1902.29
1006.598	1885.57
1006.892	1860.71
1007.186	1839.92
1007.48	1850.54
1007.773	1857.78
1008.067	1824.78
1008.361	1814.61
1008.655	1791.79
1008.948	1787.04
1009.242	1789.53
1009.535	1786.82
1009.829	1734.84
1010.122	1749.98
1010.415	1741.85
1010.708	1719.02
1011.001	1709.08
1011.295	1721.06
1011.588	1718.12
1011.881	1674.28
1012.173	1675.63
1012.466	1675.86
1012.759	1667.95
1013.052	1692.81
1013.344	1670.66
1013.637	1632.92
1013.93	1612.36
1014.222	1602.87
1014.514	1584.34
1014.807	1613.26
1015.099	1569.2
1015.391	1565.81
1015.683	1583.88
1015.976	1556.54
1016.268	1566.71
1016.56	1519.25
1016.851	1544.11
1017.143	1513.15
1017.435	1521.06
1017.727	1480.61
1018.018	1476.54
1018.31	1487.39
1018.602	1499.37
1018.893	1498.01
1019.185	1459.37
1019.476	1436.32
1019.767	1461.85
1020.058	1429.31
1020.35	1409.65
1020.641	1427.28
1020.932	1396.77
1021.223	1407.84
1021.514	1360.61
1021.804	1370.33
1022.095	1378.92
1022.386	1387.05
1022.677	1349.54
1022.967	1318.36
1023.258	1308.64
1023.548	1342.99
1023.839	1349.99
1024.129	1291.92
1024.419	1277.23
1024.709	1279.26
1025	1276.55
1025.29	1276.55
1025.58	1261.86
1025.87	1266.61
1026.16	1232.93
1026.449	1247.17
1026.739	1244.68
1027.029	1219.6
1027.319	1209.43
1027.608	1184.12
1027.898	1207.4
1028.187	1191.13
1028.477	1191.35
1028.766	1163.56
1029.055	1179.6
1029.344	1150.68
1029.634	1124.69
1029.923	1123.33
1030.212	1153.84
1030.501	1133.95
1030.79	1126.04
1031.078	1090.79
1031.367	1114.07
1031.656	1083.11
1031.945	1098.02
1032.233	1082.88
1032.522	1075.42
1032.81	1088.08
1033.099	1087.63
1033.387	1055.99
1033.675	1060.06
1033.963	1039.04
1034.251	1040.85
1034.54	1021.19
1034.828	1035.42
1035.116	1008.31
1035.403	995.43
1035.691	1016.44
1035.979	1003.79
1036.267	1004.47
1036.554	991.58
1036.842	991.81
1037.129	974.41
1037.417	994.07
1037.704	959.49
1037.992	937.35
1038.279	932.83
1038.566	937.8
1038.853	937.8
1039.14	937.8
