Data from hue_38_FLMS001491_00045.txt Node
Date: Tue Feb 07 17:31:33 GMT 2017
User: dcchb
Spectrometer: FLMS00149
Trigger mode: 0
Integration Time (sec): 2.000000E-2
Scans to average: 10
Electric dark correction enabled: true
Nonlinearity correction enabled: false
Boxcar width: 0
XAxis mode: Wavelengths
Number of Pixels in Spectrum: 2048
>>>>>Begin Spectral Data<<<<<
341.393	-18.57
341.776	-18.57
342.16	-18.57
342.543	-68.06
342.927	-64.9
343.31	-80.27
343.693	-57.89
344.077	-58.57
344.46	-66.03
344.843	-60.83
345.226	-49.53
345.61	-47.27
345.993	-26.03
346.376	1.09
346.759	13.06
347.142	35.21
347.525	47.87
347.908	72.95
348.291	74.31
348.674	89.22
349.057	112.72
349.44	144.59
349.823	153.4
350.206	172.61
350.588	201.08
350.971	211.25
351.354	239.73
351.737	251.48
352.119	230.69
352.502	274.75
352.884	275.43
353.267	302.1
353.65	291.93
354.032	298.03
354.414	300.97
354.797	322.66
355.179	296.67
355.562	322.44
355.944	343.68
356.326	351.36
356.709	340.97
357.091	345.94
357.473	346.62
357.855	340.06
358.238	360.17
358.62	345.94
359.002	341.64
359.384	327.18
359.766	354.07
360.148	338.71
360.53	345.26
360.912	341.87
361.294	346.16
361.676	336.67
362.057	345.71
362.439	330.34
362.821	327.86
363.203	351.59
363.584	335.77
363.966	318.82
364.348	337.35
364.729	321.31
365.111	312.72
365.493	316.33
365.874	323.79
366.256	326.28
366.637	324.69
367.019	311.14
367.4	312.49
367.781	313.17
368.163	315.88
368.544	303.9
368.925	332.15
369.306	336.22
369.688	314.75
370.069	327.63
370.45	288.54
370.831	299.16
371.212	331.02
371.593	310.91
371.974	327.63
372.355	320.4
372.736	313.85
373.117	315.43
373.498	312.49
373.879	321.08
374.26	321.08
374.641	335.77
375.021	326.5
375.402	329.89
375.783	331.93
376.163	331.93
376.544	327.41
376.925	318.59
377.305	298.71
377.686	321.76
378.066	329.44
378.447	323.56
378.827	328.76
379.208	321.98
379.588	326.95
379.968	331.02
380.349	325.82
380.729	350.91
381.109	321.08
381.489	353.85
381.87	359.95
382.25	339.84
382.63	332.38
383.01	334.64
383.39	365.6
383.77	338.71
384.15	343.68
384.53	347.52
384.91	349.55
385.29	343.23
385.67	359.95
386.049	358.59
386.429	370.12
386.809	367.86
387.189	352.72
387.568	371.25
387.948	373.96
388.328	347.52
388.707	382.09
389.087	372.83
389.466	359.72
389.846	362.43
390.225	367.86
390.605	345.49
390.984	372.15
391.363	372.38
391.743	363.79
392.122	380.96
392.501	366.5
392.881	385.48
393.26	348.42
393.639	387.74
394.018	374.86
394.397	385.94
394.776	392.94
395.155	402.43
395.534	396.78
395.913	384.35
396.292	381.19
396.671	394.75
397.05	366.95
397.429	379.83
397.808	380.51
398.186	383.9
398.565	403.56
398.944	386.61
399.323	387.52
399.701	397.24
400.08	392.04
400.458	375.77
400.837	413.51
401.215	416.67
401.594	401.75
401.972	382.32
402.351	398.37
402.729	428.87
403.107	404.69
403.486	406.73
403.864	413.51
404.242	417.57
404.62	423.45
404.999	413.73
405.377	415.09
405.755	435.65
406.133	421.42
406.511	422.32
406.889	439.95
407.267	420.96
407.645	436.56
408.023	443.34
408.401	436.56
408.779	422.55
409.156	455.09
409.534	475.2
409.912	444.01
410.29	462.77
410.667	461.64
411.045	455.99
411.422	453.05
411.8	462.54
412.178	478.14
412.555	467.06
412.933	452.83
413.31	499.15
413.687	481.07
414.065	462.32
414.442	492.6
414.819	483.56
415.197	505.48
415.574	487.18
415.951	497.8
416.328	489.21
416.705	483.33
417.082	488.98
417.46	490.79
417.837	523.56
418.214	488.31
418.591	520.17
418.967	510.68
419.344	540.73
419.721	510.9
420.098	529.21
420.475	509.32
420.852	533.28
421.228	528.08
421.605	517.68
421.982	552.26
422.358	546.38
422.735	551.58
423.111	554.75
423.488	541.19
423.864	547.29
424.241	568.3
424.617	575.31
424.994	553.39
425.37	560.17
425.746	563.78
426.123	573.05
426.499	591.81
426.875	561.3
427.251	572.37
427.627	563.11
428.003	600.85
428.379	592.48
428.756	592.71
429.132	590
429.507	612.6
429.883	632.48
430.259	634.97
430.635	646.49
431.011	653.05
431.387	643.33
431.763	629.32
432.138	615.31
432.514	667.51
432.89	633.39
433.265	659.6
433.641	637.68
434.016	678.13
434.392	673.61
434.767	671.13
435.143	687.62
435.518	705.7
435.894	699.83
436.269	704.35
436.644	700.28
437.02	706.15
437.395	710.45
437.77	736.89
438.145	710.45
438.52	707.06
438.895	725.81
439.271	694.85
439.646	765.36
440.021	755.19
440.395	742.76
440.77	726.49
441.145	749.32
441.52	776.43
441.895	770.56
442.27	777.34
442.645	775.08
443.019	766.04
443.394	782.31
443.769	792.25
444.143	773.95
444.518	815.76
444.892	784.57
445.267	809.88
445.641	827.73
446.016	788.19
446.39	828.18
446.764	792.03
447.139	819.15
447.513	803.78
447.887	810.33
448.262	851.91
448.636	818.47
449.01	808.98
449.384	856.88
449.758	860.27
450.132	860.27
450.506	861.4
450.88	863.66
451.254	864.57
451.628	871.35
452.002	868.18
452.376	898.24
452.75	898.47
453.123	890.33
453.497	942.98
453.871	929.42
454.244	921.06
454.618	943.89
454.992	950.44
455.365	942.53
455.739	983.43
456.112	957.45
456.486	961.06
456.859	1017.11
457.232	990.67
457.606	1000.61
457.979	1018.91
458.352	1041.96
458.725	1037.67
459.099	1046.48
459.472	1043.32
459.845	1062.53
460.218	1081.51
460.591	1088.06
460.964	1086.48
461.337	1123.09
461.71	1151.57
462.083	1167.16
462.456	1179.14
462.829	1165.12
463.201	1206.93
463.574	1168.06
463.947	1205.12
464.32	1238.12
464.692	1253.26
465.065	1268.4
465.438	1242.18
465.81	1295.97
466.183	1314.73
466.555	1333.48
466.928	1357.66
467.3	1345.91
467.672	1363.54
468.045	1382.07
468.417	1395.4
468.789	1409.19
469.161	1451.67
469.534	1428.62
469.906	1496.64
470.278	1534.61
470.65	1532.57
471.022	1553.82
471.394	1594.49
471.766	1625.9
472.138	1648.05
472.51	1695.28
472.882	1736.18
473.253	1744.09
473.625	1772.11
473.997	1821.6
474.369	1836.07
474.74	1845.78
475.112	1912
475.484	1969.17
475.855	2018.66
476.227	2056.4
476.598	2083.29
476.97	2116.96
477.341	2180.24
477.713	2252.78
478.084	2248.26
478.455	2344.98
478.827	2393.57
479.198	2458.42
479.569	2503.17
479.94	2585.43
480.311	2635.59
480.682	2720.34
481.053	2767.34
481.424	2853.44
481.795	2919.65
482.166	2977.05
482.537	3023.38
482.908	3166.88
483.279	3187.22
483.65	3292.75
484.021	3370.94
484.391	3506.08
484.762	3525.06
485.133	3643.48
485.503	3698.39
485.874	3805.51
486.244	3903.36
486.615	4002.34
486.985	4086.86
487.356	4206.4
487.726	4312.61
488.097	4412.27
488.467	4498.37
488.837	4567.3
489.207	4676.67
489.578	4833.28
489.948	4907.85
490.318	5006.38
490.688	5099.48
491.058	5177.22
491.428	5353.49
491.798	5455.18
492.168	5607.27
492.538	5629.87
492.908	5786.47
493.278	5857.88
493.648	5947.6
494.017	6061.04
494.387	6152.11
494.757	6220.59
495.126	6352.11
495.496	6452.44
495.866	6566.79
496.235	6698.09
496.605	6731.53
496.974	6886.33
497.344	6947.57
497.713	7055.14
498.082	7159.32
498.452	7322.93
498.821	7404.06
499.19	7437.5
499.559	7583.49
499.928	7687.89
500.298	7793.43
500.667	7851.28
501.036	7891.28
501.405	8032.97
501.774	8072.97
502.143	8174.43
502.512	8245.62
502.88	8372.17
503.249	8420.53
503.618	8510.24
503.987	8528.09
504.356	8650.8
504.724	8740.74
505.093	8769.9
505.462	8902.32
505.83	8996.33
506.199	9042.43
506.567	9225.25
506.936	9204.69
507.304	9305.7
507.672	9449.88
508.041	9383.21
508.409	9568.29
508.777	9605.81
509.145	9730.78
509.514	9731.68
509.882	9809.19
510.25	9876.08
510.618	10022.07
510.986	10053.93
511.354	10101.61
511.722	10237.65
512.09	10308.84
512.458	10339.8
512.826	10350.42
513.193	10505.9
513.561	10543.64
513.929	10596.52
514.297	10724.65
514.664	10790.41
515.032	10804.19
515.4	10930.07
515.767	10961.03
516.135	11055.94
516.502	11059.55
516.869	11254.35
517.237	11300.9
517.604	11201.25
517.972	11393.56
518.339	11415.48
518.706	11530.28
519.073	11556.04
519.44	11642.14
519.808	11741.57
520.175	11791.74
520.542	11970.26
520.909	12007.55
521.276	12027.66
521.643	12090.04
522.009	12240.77
522.376	12231.5
522.743	12382.91
523.11	12355.11
523.477	12531.38
523.843	12572.06
524.21	12843.91
524.577	12801.65
524.943	12866.96
525.31	12922.56
525.676	13071.48
526.043	13127.75
526.409	13151.02
526.776	13395.76
527.142	13373.39
527.508	13319.16
527.874	13537.45
528.241	13589.88
528.607	13714.85
528.973	13809.09
529.339	13740.61
529.705	13919.59
530.071	14011.34
530.437	14035.75
530.803	14198
531.169	14279.81
531.535	14280.49
531.901	14289.07
532.267	14423.31
532.632	14428.5
532.998	14478.9
533.364	14621.49
533.73	14660.82
534.095	14766.12
534.461	14842.73
534.826	14936.74
535.192	14942.16
535.557	15055.38
535.923	15025.33
536.288	15139.45
536.653	15240.91
537.019	15157.07
537.384	15358.42
537.749	15374.92
538.114	15379.21
538.479	15494.69
538.845	15556.16
539.21	15606.78
539.575	15641.35
539.94	15659.88
540.305	15801.35
540.67	15771.52
541.034	15851.74
541.399	15962.7
541.764	16005.86
542.129	16012.42
542.494	16120.89
542.858	16209.02
543.223	16113.21
543.587	16290.83
543.952	16269.81
544.316	16394.33
544.681	16384.39
545.045	16518.62
545.41	16679.07
545.774	16642.46
546.138	16728.78
546.503	16663.25
546.867	16795.9
547.231	16947.53
547.595	16988.21
547.959	17004.03
548.324	16994.09
548.688	17137.59
549.052	17109.79
549.416	17132.61
549.779	17267.07
550.143	17309.11
550.507	17371.7
550.871	17481.31
551.235	17444.47
551.599	17566.95
551.962	17584.35
552.326	17655.54
552.689	17814.63
553.053	17644.47
553.417	17657.35
553.78	17965.13
554.143	17952.93
554.507	17992.7
554.87	18081.06
555.234	18233.15
555.597	18103.44
555.96	18246.03
556.323	18352.92
556.686	18451.68
557.05	18420.26
557.413	18580.49
557.776	18495.52
558.139	18622.29
558.502	18753.36
558.865	18747.04
559.228	18980.48
559.59	18962.17
559.953	18930.08
560.316	19199.45
560.679	19159.23
561.041	19263.18
561.404	19401.03
561.767	19435.38
562.129	19373.23
562.492	19589.5
562.854	19559.9
563.217	19545.66
563.579	19635.6
563.941	19782.94
564.304	19882.82
564.666	20008.7
565.028	20057.96
565.39	20037.17
565.753	20244.4
566.115	20282.81
566.477	20325.07
566.839	20494.56
567.201	20576.82
567.563	20596.48
567.925	20710.83
568.287	20732.29
568.648	20756.47
569.01	20954.89
569.372	20975.68
569.734	21012.74
570.095	21168.89
570.457	21230.59
570.819	21309.91
571.18	21361.43
571.542	21593.06
571.903	21568.88
572.265	21556.45
572.626	21725.26
572.987	21833.28
573.349	21881.19
573.71	21999.61
574.071	21975.2
574.432	22139.04
574.794	22329.99
575.155	22385.58
575.516	22382.42
575.877	22597.1
576.238	22662.86
576.599	22932.24
576.96	22929.07
577.32	22903.08
577.681	23146.02
578.042	23258.33
578.403	23376.52
578.763	23443.18
579.124	23666.23
579.485	23773.34
579.845	24045.43
580.206	24089.95
580.566	24177.63
580.927	24445.87
581.287	24672.53
581.648	24639.31
582.008	24905.52
582.368	25039.98
582.728	25249.46
583.089	25296.92
583.449	25395.67
583.809	25681.09
584.169	25883.34
584.529	25986.84
584.889	26281.07
585.249	26472.26
585.609	26533.95
585.969	26828.86
586.329	26923.77
586.688	27277.21
587.048	27328.73
587.408	27631.77
587.768	27715.61
588.127	27926.23
588.487	28129.61
588.846	28526.67
589.206	28529.38
589.565	28728.02
589.925	28903.6
590.284	29184.28
590.643	29425.17
591.003	29694.09
591.362	29981.99
591.721	30092.73
592.08	30251.14
592.44	30572.26
592.799	30633.05
593.158	30857.45
593.517	31022.64
593.876	31290.43
594.235	31430.09
594.593	31622.4
594.952	31985.56
595.311	31956.86
595.67	32370.18
596.029	32608.82
596.387	32825.54
596.746	33024.85
597.104	32927.23
597.463	33242.93
597.822	33541.67
598.18	33688.11
598.538	33795.45
598.897	34096.69
599.255	34063.69
599.613	34716.78
599.972	34576
600.33	34849.66
600.688	34854.41
601.046	35197
601.404	35370.55
601.762	35540.04
602.12	35838.56
602.478	35965.57
602.836	36045.11
603.194	36066.13
603.552	36189.97
603.91	36300.02
604.268	36759.22
604.625	36644.64
604.983	36883.73
605.341	36815.03
605.698	37143.61
606.056	37407.11
606.413	37464.06
606.771	37759.42
607.128	37723.26
607.485	37799.87
607.843	37794.9
608.2	38217.71
608.557	38316.01
608.914	38245.28
609.272	38551.03
609.629	38728.88
609.986	39026.95
610.343	39044.13
610.7	39182.43
611.057	39200.51
611.414	39359.15
611.771	39391.46
612.127	39744.68
612.484	39706.48
612.841	39831.45
613.198	39812.47
613.554	40007.95
613.911	40243.42
614.267	40365.45
614.624	40402.29
614.98	40528.84
615.337	40772.67
615.693	40685.22
616.05	40780.35
616.406	41075.94
616.762	40841.14
617.118	41000.69
617.475	41347.8
617.831	41352.32
618.187	41482.26
618.543	41407
618.899	41800.89
619.255	41743.04
619.611	41768.58
619.967	41931.51
620.323	42042.02
620.678	41985.97
621.034	41956.37
621.39	42105.97
621.746	42004.05
622.101	42458.73
622.457	42184.39
622.812	42359.75
623.168	42636.58
623.523	42436.36
623.879	42817.59
624.234	42445.85
624.589	42677.71
624.945	42692.39
625.3	42736.69
625.655	42679.06
626.01	42806.74
626.365	42868.43
626.72	42893.52
627.075	42833.63
627.43	42878.38
627.785	42979.62
628.14	43067.53
628.495	42997.7
628.85	42846.74
629.205	42767.42
629.559	43046.06
629.914	43046.74
630.269	43154.3
630.623	42998.15
630.978	42797.25
631.332	43167.86
631.687	43258.03
632.041	43107.98
632.396	43097.58
632.75	43049.67
633.104	43184.13
633.459	43149.56
633.813	43025.27
634.167	43085.15
634.521	42950.01
634.875	43222.55
635.229	43116.11
635.583	42978.04
635.937	43022.78
636.291	42937.13
636.645	43041.54
636.999	42892.39
637.352	43030.24
637.706	42710.92
638.06	42919.06
638.413	42746.86
638.767	42807.42
639.121	42760.87
639.474	42678.61
639.828	42688.78
640.181	42792.73
640.534	42767.65
640.888	42627.31
641.241	42480.65
641.594	42570.14
641.947	42746.86
642.301	42578.5
642.654	42706.86
643.007	42659.85
643.36	42609.01
643.713	42567.43
644.066	42718.83
644.419	42343.03
644.771	42082.69
645.124	41729.48
645.477	41866.65
645.83	41539.2
646.182	41512.09
646.535	41265.99
646.888	41441.13
647.24	41225.99
647.593	41581.92
647.945	41393.9
648.298	41243.62
648.65	41112.1
649.002	41080.23
649.355	41374.69
649.707	41273.67
650.059	41396.61
650.411	41769.48
650.763	41786.66
651.115	42205.63
651.467	41995.46
651.819	41973.32
652.171	41898.74
652.523	41939.42
652.875	41931.06
653.227	41729.03
653.578	42046.54
653.93	42013.32
654.282	41762.93
654.633	41737.17
654.985	41845.19
655.337	41832.53
655.688	41802.47
656.039	42020.1
656.391	41649.26
656.742	41771.51
657.094	41729.48
657.445	41742.36
657.796	41770.16
658.147	41722.02
658.498	41620.11
658.849	41810.38
659.2	41708.24
659.551	41552.31
659.902	41808.12
660.253	41651.74
660.604	41686.77
660.955	41645.64
661.306	41692.87
661.656	41695.58
662.007	41719.54
662.358	41717.96
662.708	41631.41
663.059	41593.44
663.409	41500.56
663.76	41704.17
664.11	41571.07
664.461	41703.95
664.811	41596.6
665.161	41478.64
665.511	41376.95
665.862	41480.67
666.212	41604.51
666.562	41644.06
666.912	41395.25
667.262	41411.3
667.612	41447
667.962	41581.24
668.312	41420.56
668.662	41671.4
669.011	41484.06
669.361	41344.63
669.711	41427.79
670.06	41455.82
670.41	41317.29
670.76	41261.25
671.109	41361.13
671.459	41370.62
671.808	41227.57
672.157	41350.73
672.507	41047.47
672.856	41109.61
673.205	41187.8
673.554	41311.19
673.904	41222.6
674.253	41452.88
674.602	41273.9
674.951	40729.96
675.3	40552.56
675.649	41174.24
675.998	41082.95
676.346	41200.91
676.695	41233.22
677.044	40913.68
677.393	41059.67
677.741	41093.34
678.09	40886.34
678.438	40909.84
678.787	41007.47
679.135	40952.55
679.484	40710.98
679.832	40978.32
680.181	40662.39
680.529	40797.08
680.877	40589.4
681.225	40534.71
681.573	40689.51
681.922	40515.73
682.27	40421.72
682.618	40427.82
682.966	40259.24
683.314	40312.34
683.661	40226.7
684.009	40054.72
684.357	39953.94
684.705	39923.2
685.053	40028.96
685.4	39913.26
685.748	39801.62
686.095	39718.46
686.443	39706.94
686.79	39658.35
687.138	39770.66
687.485	39694.06
687.832	39540.61
688.18	39631.68
688.527	39555.3
688.874	39302.65
689.221	39278.47
689.568	39101.3
689.915	39084.13
690.262	39059.27
690.609	39064.02
690.956	38888.88
691.303	38854.53
691.65	38666.29
691.997	38616.8
692.344	38558.27
692.69	38346.52
693.037	38467.65
693.383	38058.17
693.73	38211.83
694.077	38132.97
694.423	38137.26
694.769	37860.43
695.116	37914.67
695.462	37778.17
695.808	37744.28
696.155	37683.03
696.501	37465.87
696.847	37476.71
697.193	37261.58
697.539	37499.31
697.885	37055.25
698.231	37097.97
698.577	37129.38
698.923	36861.36
699.269	36742.49
699.614	36671.54
699.96	36620.24
700.306	36584.08
700.651	36453.69
700.997	36381.6
701.342	36310.42
701.688	36236.97
702.033	36210.98
702.379	36035.85
702.724	35936.64
703.069	35952.68
703.415	35584.56
703.76	35700.94
704.105	35584.56
704.45	35529.87
704.795	35414.85
705.14	35317
705.485	35300.5
705.83	35148.86
706.175	35130.11
706.52	35072.93
706.865	34908.64
707.209	34819.83
707.554	34752.26
707.899	34783
708.243	34572.16
708.588	34740.74
708.932	34412.39
709.277	34472.95
709.621	34528.99
709.966	34278.6
710.31	34239.28
710.654	34093.75
710.998	34140.75
711.342	34104.15
711.687	33932.4
712.031	33838.62
712.375	33738.73
712.719	33646.98
713.063	33557.27
713.407	33700.54
713.75	33584.84
714.094	33471.39
714.438	33352.53
714.782	33308.23
715.125	33254.45
715.469	33285.86
715.812	33063.5
716.156	32924.52
716.499	32914.35
716.843	33025.3
717.186	32802.03
717.53	32840.22
717.873	32909.37
718.216	32752.99
718.559	32856.95
718.902	32491.76
719.246	32652.21
719.589	32377.19
719.932	32334.25
720.275	32342.84
720.617	32220.81
720.96	32294.02
721.303	32210.86
721.646	32244.08
721.989	31938.1
722.331	32124.31
722.674	31966.12
723.016	32085.67
723.359	31906.69
723.701	31930.42
724.044	31700.37
724.386	31645
724.729	31793.02
725.071	31737.43
725.413	31603.87
725.755	31621.95
726.097	31355.52
726.439	31360.49
726.782	31288.17
727.124	31545.12
727.465	31314.61
727.807	31296.54
728.149	31274.16
728.491	31175.64
728.833	31214.96
729.175	31061.06
729.516	31076.88
729.858	30930.44
730.199	31060.84
730.541	30958.92
730.882	30864.46
731.224	30877.34
731.565	30782.65
731.906	30731.35
732.248	30751.69
732.589	30673.95
732.93	30370.68
733.271	30582.88
733.612	30602.54
733.953	30559.38
734.294	30412.49
734.635	30231.25
734.976	30270.12
735.317	30218.15
735.658	30196
735.999	30173.4
736.339	30055.89
736.68	30141.31
737.021	30020.19
737.361	29937.48
737.702	30140.41
738.042	29937.25
738.383	29924.14
738.723	29977.93
739.063	29843.69
739.404	29787.87
739.744	29793.07
740.084	29636.47
740.424	29709.91
740.764	29558.73
741.104	29718.5
741.444	29490.48
741.784	29568.45
742.124	29594.43
742.464	29338.4
742.804	29389.92
743.143	29242.13
743.483	29315.35
743.823	29141.79
744.162	29197.83
744.502	29277.38
744.841	29104.73
745.181	29353.76
745.52	28981.57
745.86	29113.54
746.199	29063.83
746.538	29028.8
746.877	29010.95
747.216	28891.85
747.556	28825.64
747.895	28884.4
748.234	28717.17
748.573	28690.05
748.911	28632.2
749.25	28704.51
749.589	28490.28
749.928	28563.05
750.267	28440.79
750.605	28255.71
750.944	28293
751.283	28186.79
751.621	28170.52
751.96	28097.75
752.298	28169.16
752.636	28114.47
752.975	27903.18
753.313	27920.35
753.651	27997.64
753.989	27838.1
754.327	27871.32
754.666	27734.14
755.004	27790.19
755.342	27859.11
755.679	27693.01
756.017	27519.23
756.355	27524.66
756.693	27452.8
757.031	27438.78
757.368	27378.67
757.706	27370.31
758.044	27265.68
758.381	27172.35
758.719	27194.72
759.056	27194.04
759.394	27066.82
759.731	26907.72
760.068	26920.83
760.405	26760.61
760.743	26660.73
761.08	26742.08
761.417	26671.35
761.754	26547.73
762.091	26421.86
762.428	26326.05
762.765	26273.17
763.102	26208.99
763.438	26165.37
763.775	26011.48
764.112	25894.64
764.449	26088.76
764.785	25892.16
765.122	25631.15
765.458	25490.36
765.795	25559.74
766.131	25536.24
766.467	25447.65
766.804	25256.47
767.14	25048.34
767.476	25208.11
767.812	25028.23
768.148	25140.77
768.485	24871.39
768.821	24752.53
769.157	24684.96
769.492	24680.21
769.828	24755.01
770.164	24437.51
770.5	24466.66
770.836	24367
771.171	24310.73
771.507	24264.4
771.842	24029.83
772.178	24071.64
772.513	23975.37
772.849	24006.56
773.184	23825.55
773.519	23774.25
773.855	23623.52
774.19	23535.61
774.525	23580.13
774.86	23541.49
775.195	23374.26
775.53	23336.52
775.865	23198.44
776.2	23029.41
776.535	22922.07
776.87	22917.77
777.205	22794.16
777.539	22776.99
777.874	22747.16
778.209	22551
778.543	22540.61
778.878	22396.88
779.212	22389.88
779.547	22279.6
779.881	22330.9
780.215	22193.05
780.55	22164.57
780.884	21948.31
781.218	21926.84
781.552	21910.12
781.886	21739.27
782.22	21721.65
782.554	21603.46
782.888	21375.21
783.222	21261.77
783.556	21172.28
783.889	21236.46
784.223	20961.67
784.557	20838.05
784.89	21118.95
785.224	20966.86
785.557	20781.33
785.891	20752.41
786.224	20704.95
786.558	20648.68
786.891	20498.18
787.224	20466.76
787.557	20401.91
787.891	20283.04
788.224	20351.74
788.557	20283.27
788.89	20143.61
789.223	20176.83
789.556	19974.57
789.888	20003.27
790.221	19831.98
790.554	19822.04
790.887	19810.96
791.219	19644.64
791.552	19685.77
791.884	19478.99
792.217	19435.38
792.549	19408.94
792.882	19282.39
793.214	19189.51
793.546	19189.74
793.879	19008.95
794.211	18950.65
794.543	19020.02
794.875	18961.72
795.207	18899.35
795.539	18773.48
795.871	18871.55
796.203	18686.7
796.535	18544.55
796.867	18599.69
797.198	18564.67
797.53	18442.86
797.862	18364.45
798.193	18404.67
798.525	18253.26
798.856	18278.57
799.188	18089.65
799.519	18048.3
799.85	17926.49
800.182	17913.16
800.513	17886.04
800.844	17772.15
801.175	17992.25
801.506	17900.73
801.837	17706.38
802.168	17627.29
802.499	17554.98
802.83	17562.66
803.161	17448.76
803.491	17531.93
803.822	17466.39
804.153	17372.38
804.483	17229.79
804.814	17182.33
805.145	17154.08
805.475	17114.08
805.805	17056.91
806.136	17101.43
806.466	17078.83
806.796	17006.29
807.126	16827.99
807.457	16725.17
807.787	16828.44
808.117	16711.61
808.447	16683.36
808.777	16699.86
809.107	16538.96
809.436	16512.29
809.766	16615.11
810.096	16498.05
810.426	16434.78
810.755	16443.37
811.085	16301
811.414	16339.87
811.744	16160.21
812.073	16123.15
812.403	16154.56
812.732	16063.26
813.061	16086.99
813.39	16041.34
813.719	15893.78
814.049	16023.94
814.378	15889.71
814.707	15842.03
815.036	15793.67
815.365	15733.1
815.693	15635.93
816.022	15623.73
816.351	15588.25
816.68	15552.77
817.008	15528.36
817.337	15408.59
817.665	15415.37
817.994	15476.61
818.322	15440.91
818.651	15310.29
818.979	15268.93
819.307	15275.71
819.636	15303.51
819.964	15141.03
820.292	15206.79
820.62	15258.09
820.948	15167.02
821.276	15127.02
821.604	15207.47
821.932	15189.39
822.259	15169.5
822.587	15135.6
822.915	15056.74
823.243	15120.92
823.57	15084.08
823.898	15148.03
824.225	14960.02
824.553	15106.68
824.88	14989.39
825.207	15096.74
825.535	15058.77
825.862	15060.58
826.189	15031.2
826.516	15065.55
826.843	15160.24
827.17	15078.88
827.497	15104.42
827.824	15140.12
828.151	15119.33
828.478	15045.21
828.805	15127.24
829.131	15007.7
829.458	14951.43
829.785	15015.16
830.111	14981.03
830.438	15069.17
830.764	14988.94
831.09	15077.08
831.417	14919.34
831.743	14962.28
832.069	14956.85
832.395	14894.71
832.722	15013.35
833.048	14849.51
833.374	14882.73
833.7	14835.73
834.026	14889.28
834.351	14859.45
834.677	14833.01
835.003	14852.67
835.329	14889.74
835.654	14848.38
835.98	14750.53
836.306	14779.23
836.631	14788.04
836.956	14766.12
837.282	14767.03
837.607	14704.43
837.932	14629.18
838.258	14637.54
838.583	14635.28
838.908	14572.23
839.233	14555.96
839.558	14584.66
839.883	14453.81
840.208	14380.82
840.533	14482.06
840.858	14354.83
841.182	14450.2
841.507	14360.03
841.832	14362.52
842.156	14281.62
842.481	14332.69
842.805	14170.88
843.13	14181.73
843.454	14173.37
843.778	14180.15
844.103	14164.78
844.427	14127.95
844.751	14096.76
845.075	14078.23
845.399	13990.32
845.723	13886.15
846.047	13959.36
846.371	13805.47
846.695	13796.66
847.019	13663.78
847.343	13595.76
847.666	13595.08
847.99	13437.8
848.313	13504.46
848.637	13404.35
848.96	13371.36
849.284	13407.51
849.607	13186.28
849.931	13274.18
850.254	13140.86
850.577	13072.83
850.9	12992.38
851.223	13060.63
851.546	12932.27
851.869	12884.36
852.192	12947.19
852.515	12772.28
852.838	12730.92
853.161	12755.78
853.483	12667.65
853.806	12590.36
854.129	12621.09
854.451	12466.52
854.774	12543.36
855.096	12402.34
855.419	12391.5
855.741	12318.73
856.063	12212.07
856.385	12291.84
856.708	12247.55
857.03	12235.57
857.352	12221.11
857.674	12182.69
857.996	12097.49
858.318	12058.62
858.64	12018.17
858.961	12020.43
859.283	11906.09
859.605	11906.54
859.926	11897.27
860.248	11871.06
860.57	11847.1
860.891	11829.7
861.212	11798.97
861.534	11644.4
861.855	11721.68
862.176	11729.37
862.498	11652.53
862.819	11613.66
863.14	11565.3
863.461	11638.75
863.782	11565.98
864.103	11543.61
864.424	11535.25
864.745	11575.92
865.065	11500.9
865.386	11402.37
865.707	11456.83
866.027	11442.59
866.348	11416.83
866.668	11365.99
866.989	11324.18
867.309	11330.51
867.63	11383.39
867.95	11212.09
868.27	11220.23
868.59	11294.35
868.91	11183.84
869.23	11215.03
869.55	11107.46
869.87	11199.66
870.19	11251.19
870.51	11236.5
870.83	11269.49
871.15	11135.48
871.469	11030.18
871.789	11048.25
872.109	11093.68
872.428	11022.04
872.748	11068.82
873.067	10986.79
873.386	11076.28
873.706	11042.38
874.025	11040.57
874.344	10932.1
874.663	10899.33
874.982	10872.89
875.301	10910.86
875.62	10873.8
875.939	10855.04
876.258	10848.26
876.577	10775.04
876.896	10801.93
877.214	10760.8
877.533	10831.09
877.852	10758.77
878.17	10770.3
878.489	10686
878.807	10684.65
879.125	10636.29
879.444	10650.07
879.762	10606.46
880.08	10645.78
880.398	10586.8
880.716	10548.15
881.034	10527.14
881.352	10581.37
881.67	10518.33
881.988	10476.52
882.306	10457.99
882.624	10509.74
882.941	10322.17
883.259	10362.4
883.577	10349.29
883.894	10300.48
884.212	10350.65
884.529	10285.79
884.846	10366.92
885.164	10241.95
885.481	10213.93
885.798	10267.71
886.115	10116.08
886.432	10141.39
886.75	10124.44
887.067	10128.5
887.383	10111.78
887.7	10091.9
888.017	10073.14
888.334	10048.96
888.651	10025.91
888.967	9935.52
889.284	9902.07
889.6	9870.88
889.917	9800.6
890.233	9808.74
890.55	9834.28
890.866	9795.41
891.182	9765.12
891.498	9699.36
891.815	9735.75
892.131	9706.14
892.447	9707.72
892.763	9615.75
893.079	9616.2
893.395	9592.25
893.71	9526.03
894.026	9465.7
894.342	9455.3
894.657	9410.33
894.973	9396.55
895.289	9422.99
895.604	9440.61
895.92	9297.57
896.235	9299.15
896.55	9176.21
896.865	9189.09
897.181	9243.33
897.496	9256.21
897.811	9123.11
898.126	9139.38
898.441	9068.42
898.756	9078.14
899.071	9041.75
899.386	8972.6
899.7	8945.03
900.015	8894.19
900.33	8818.93
900.644	8827.07
900.959	8860.74
901.273	8743.23
901.588	8689.45
901.902	8725.6
902.216	8704.59
902.531	8645.15
902.845	8593.63
903.159	8599.96
903.473	8498.27
903.787	8511.82
904.101	8495.33
904.415	8486.06
904.729	8434.54
905.042	8440.41
905.356	8486.74
905.67	8337.14
905.984	8421.43
906.297	8265.95
906.611	8306.86
906.924	8268.44
907.237	8242
907.551	8239.74
907.864	8149.8
908.177	8124.26
908.491	8162.68
908.804	8035
909.117	8076.36
909.43	8032.29
909.743	7950.94
910.056	7910.94
910.368	7818.96
910.681	7847.43
910.994	7816.48
911.307	7741.22
911.619	7690.15
911.932	7727.89
912.244	7669.59
912.557	7646.08
912.869	7597.5
913.181	7525.41
913.494	7631.85
913.806	7472.98
914.118	7464.62
914.43	7439.08
914.742	7461.68
915.054	7395.7
915.366	7351.85
915.678	7359.76
915.99	7308.69
916.302	7244.29
916.613	7221.91
916.925	7162.71
917.236	7201.12
917.548	7168.13
917.859	7197.06
918.171	7137.4
918.482	7113.89
918.794	7089.04
919.105	7044.07
919.416	7041.81
919.727	6992.99
920.038	6956.61
920.349	6857.4
920.66	6880.45
920.971	6873.68
921.282	6840.23
921.593	6762.27
921.903	6755.26
922.214	6739.22
922.525	6663.96
922.835	6651.31
923.146	6590.07
923.456	6572.44
923.767	6583.29
924.077	6558.66
924.387	6491.99
924.697	6538.99
925.008	6515.49
925.318	6384.87
925.628	6450.86
925.938	6428.94
926.248	6325.44
926.558	6302.84
926.867	6282.05
927.177	6239.34
927.487	6228.95
927.796	6150.53
928.106	6180.13
928.416	6179
928.725	6213.58
929.034	6129.74
929.344	6103.53
929.653	6042.28
929.962	6033.7
930.271	6000.48
930.581	5978.78
930.89	5967.03
931.199	5913.93
931.508	5877.77
931.817	5885.23
932.125	5876.87
932.434	5888.16
932.743	5807.04
933.051	5739.69
933.36	5717.55
933.669	5703.76
933.977	5695.4
934.286	5672.8
934.594	5672.12
934.902	5594.39
935.21	5609.98
935.519	5589.64
935.827	5516.42
936.135	5519.81
936.443	5513.94
936.751	5487.95
937.059	5445.24
937.367	5420.61
937.674	5430.1
937.982	5410.21
938.29	5374.05
938.597	5377.9
938.905	5349.42
939.213	5284.34
939.52	5315.98
939.827	5277.78
940.135	5240.72
940.442	5213.15
940.749	5218.35
941.056	5157.79
941.363	5130.67
941.67	5157.56
941.977	5132.03
942.284	5107.39
942.591	5112.82
942.898	5020.16
943.205	5045.93
943.511	5019.94
943.818	4989.2
944.125	5001.18
944.431	4931.35
944.738	4908.98
945.044	4870.34
945.35	4854.29
945.657	4824.01
945.963	4839.83
946.269	4778.14
946.575	4822.2
946.881	4786.95
947.187	4757.12
947.493	4660.4
947.799	4733.62
948.105	4701.53
948.41	4645.03
948.716	4642.55
949.022	4645.03
949.327	4617.24
949.633	4560.52
949.938	4563.91
950.244	4624.69
950.549	4517.58
950.854	4468.09
951.16	4495.66
951.465	4434.42
951.77	4477.35
952.075	4432.61
952.38	4396.23
952.685	4387.41
952.99	4369.33
953.294	4365.49
953.599	4345.15
953.904	4305.16
954.209	4273.74
954.513	4312.16
954.818	4276.46
955.122	4234.42
955.426	4226.06
955.731	4242.11
956.035	4201.66
956.339	4178.6
956.643	4139.28
956.948	4180.86
957.252	4091.15
957.556	4099.28
957.86	4031.26
958.163	4056.8
958.467	4080.08
958.771	4050.25
959.075	4004.6
959.378	3978.16
959.682	3972.28
959.985	3970.93
960.289	3950.36
960.592	3897.26
960.896	3896.35
961.199	3914.88
961.502	3855.45
961.805	3824.94
962.108	3803.93
962.411	3826.3
962.714	3763.25
963.017	3783.36
963.32	3840.53
963.623	3732.74
963.926	3739.29
964.228	3720.31
964.531	3695.23
964.833	3675.79
965.136	3668.34
965.438	3676.25
965.741	3655.23
966.043	3633.08
966.345	3572.52
966.648	3591.5
966.95	3567.55
967.252	3522.58
967.554	3581.78
967.856	3538.17
968.158	3492.52
968.46	3539.75
968.761	3491.17
969.063	3468.12
969.365	3454.56
969.666	3458.17
969.968	3412.52
970.269	3396.7
970.571	3412.07
970.872	3416.82
971.174	3370.26
971.475	3317.61
971.776	3362.58
972.077	3316.93
972.378	3313.99
972.679	3299.31
972.98	3285.52
973.281	3288.91
973.582	3221.12
973.883	3229.03
974.183	3215.92
974.484	3224.28
974.785	3186.99
975.085	3185.41
975.386	3200.78
975.686	3151.06
975.986	3159.42
976.287	3149.71
976.587	3108.12
976.887	3063.83
977.187	3052.98
977.487	3082.14
977.787	3072.19
978.087	3078.29
978.387	3035.81
978.687	3010.05
978.987	3015.92
979.286	3004.62
979.586	2949.71
979.885	2967.79
980.185	2936.38
980.484	2901.58
980.784	2896.83
981.083	2909.26
981.382	2918.3
981.682	2899.54
981.981	2884.85
982.28	2881.46
982.579	2877.85
982.878	2825.19
983.177	2840.11
983.475	2825.87
983.774	2781.81
984.073	2774.35
984.372	2745.87
984.67	2770.96
984.969	2797.4
985.267	2733.22
985.566	2756.04
985.864	2737.96
986.162	2700.68
986.461	2682.15
986.759	2657.51
987.057	2643.73
987.355	2632.2
987.653	2627.69
987.951	2624.52
988.249	2617.74
988.547	2615.03
988.844	2601.25
989.142	2605.99
989.44	2568.48
989.737	2560.12
990.035	2551.75
990.332	2519.21
990.63	2515.37
990.927	2525.99
991.224	2469.95
991.521	2482.15
991.819	2479.89
992.116	2440.12
992.413	2472.43
992.71	2450.51
993.006	2434.02
993.303	2436.05
993.6	2406.22
993.897	2396.96
994.193	2457.75
994.49	2365.77
994.787	2356.51
995.083	2365.09
995.379	2325.09
995.676	2338.43
995.972	2330.74
996.268	2314.02
996.565	2302.27
996.861	2302.27
997.157	2271.08
997.453	2261.14
997.749	2243.51
998.044	2227.92
998.34	2213.68
998.636	2232.67
998.932	2226.11
999.227	2191.54
999.523	2176.4
999.818	2167.36
1000.114	2154.03
1000.409	2162.61
1000.704	2135.95
1001	2128.94
1001.295	2090.07
1001.59	2130.07
1001.885	2096.63
1002.18	2076.29
1002.475	2099.34
1002.77	2040.36
1003.065	2081.71
1003.359	2035.61
1003.654	2019.79
1003.949	2027.93
1004.243	2015.27
1004.538	1987.02
1004.832	1997.19
1005.127	1981.83
1005.421	1954.71
1005.715	1928.95
1006.009	1954.48
1006.304	1932.11
1006.598	1911.77
1006.892	1937.76
1007.186	1893.47
1007.48	1913.35
1007.773	1893.47
1008.067	1850.3
1008.361	1837.42
1008.655	1836.07
1008.948	1870.64
1009.242	1826.58
1009.535	1832.68
1009.829	1819.12
1010.122	1803.53
1010.415	1769.85
1010.708	1763.08
1011.001	1778.67
1011.295	1737.31
1011.588	1752.23
1011.881	1746.58
1012.173	1746.35
1012.466	1716.3
1012.759	1694.83
1013.052	1697.99
1013.344	1688.95
1013.637	1699.57
1013.93	1667.03
1014.222	1649.18
1014.514	1667.48
1014.807	1616.19
1015.099	1614.83
1015.391	1668.16
1015.683	1627.94
1015.976	1586.13
1016.268	1579.58
1016.56	1571.89
1016.851	1565.11
1017.143	1550.2
1017.435	1568.73
1017.727	1547.94
1018.018	1519.01
1018.31	1519.92
1018.602	1505.45
1018.893	1525.57
1019.185	1499.35
1019.476	1457.09
1019.767	1455.51
1020.058	1448.73
1020.35	1434.72
1020.641	1440.82
1020.932	1425
1021.223	1393.59
1021.514	1410.54
1021.804	1416.19
1022.095	1393.37
1022.386	1361.5
1022.677	1399.24
1022.967	1388.4
1023.258	1393.59
1023.548	1340.04
1023.839	1329.64
1024.129	1351.33
1024.419	1315.18
1024.709	1326.93
1025	1311.56
1025.29	1279.25
1025.58	1277.44
1025.87	1276.76
1026.16	1268.17
1026.449	1267.72
1026.739	1247.16
1027.029	1252.13
1027.319	1212.81
1027.608	1222.07
1027.898	1234.73
1028.187	1228.17
1028.477	1242.18
1028.766	1204.22
1029.055	1179.81
1029.344	1187.72
1029.634	1191.34
1029.923	1171.45
1030.212	1170.55
1030.501	1149.08
1030.79	1163.32
1031.078	1126.71
1031.367	1155.63
1031.656	1112.02
1031.945	1130.1
1032.233	1106.82
1032.522	1119.25
1032.81	1105.24
1033.099	1091.23
1033.387	1086.26
1033.675	1094.39
1033.963	1052.36
1034.251	1069.53
1034.54	1062.98
1034.828	1040.16
1035.116	1042.87
1035.403	1046.71
1035.691	1043.77
1035.979	1029.31
1036.267	1027.5
1036.554	1005.13
1036.842	1013.49
1037.129	992.93
1037.417	975.75
1037.704	977.79
1037.992	973.72
1038.279	995.41
1038.566	964
1038.853	964
1039.14	964
