Data from hue_130_FLMS001491_00040.txt Node
Date: Tue Feb 07 16:57:32 GMT 2017
User: dcchb
Spectrometer: FLMS00149
Trigger mode: 0
Integration Time (sec): 2.000000E-2
Scans to average: 10
Electric dark correction enabled: true
Nonlinearity correction enabled: false
Boxcar width: 0
XAxis mode: Wavelengths
Number of Pixels in Spectrum: 2048
>>>>>Begin Spectral Data<<<<<
341.393	-13.59
341.776	-13.59
342.16	-13.59
342.543	-76.41
342.927	-65.79
343.31	-75.28
343.693	-81.38
344.077	-73.47
344.46	-70.08
344.843	-63.53
345.226	-40.48
345.61	-29.41
345.993	-13.81
346.376	-9.52
346.759	18.73
347.142	22.12
347.525	40.87
347.908	57.82
348.291	85.62
348.674	96.01
349.057	135.79
349.44	123.36
349.823	145.05
350.206	170.81
350.588	183.02
350.971	208.33
351.354	225.28
351.737	249.91
352.119	228.67
352.502	257.59
352.884	262.79
353.267	278.16
353.65	282.9
354.032	281.09
354.414	299.62
354.797	312.51
355.179	316.12
355.562	319.29
355.944	322
356.326	324.71
356.709	350.02
357.091	329.91
357.473	339.17
357.855	338.27
358.238	344.14
358.62	328.78
359.002	350.25
359.384	335.78
359.766	326.97
360.148	332.62
360.53	329.45
360.912	334.65
361.294	321.09
361.676	337.82
362.057	342.11
362.439	334.65
362.821	324.71
363.203	327.87
363.584	345.05
363.966	309.34
364.348	315.44
364.729	324.48
365.111	319.96
365.493	319.74
365.874	290.13
366.256	325.39
366.637	321.09
367.019	333.07
367.4	309.79
367.781	302.11
368.163	306.86
368.544	319.06
368.925	314.54
369.306	302.79
369.688	319.29
370.069	333.3
370.45	338.72
370.831	300.53
371.212	308.66
371.593	326.97
371.974	310.02
372.355	329.91
372.736	306.18
373.117	309.79
373.498	325.16
373.879	329.68
374.26	320.87
374.641	307.31
375.021	302.34
375.402	320.87
375.783	333.75
376.163	307.76
376.544	322.68
376.925	317.03
377.305	319.29
377.686	305.5
378.066	326.06
378.447	320.64
378.827	304.82
379.208	321.55
379.588	309.34
379.968	324.48
380.349	350.25
380.729	333.52
381.109	316.8
381.489	312.05
381.87	320.19
382.25	336.23
382.63	336.01
383.01	328.32
383.39	350.92
383.77	332.62
384.15	356.35
384.53	336.69
384.91	342.56
385.29	329.45
385.67	325.61
386.049	342.56
386.429	344.82
386.809	354.76
387.189	363.58
387.568	355.67
387.948	344.82
388.328	355.44
388.707	373.52
389.087	336.91
389.466	352.05
389.846	379.85
390.225	365.84
390.605	371.49
390.984	388.66
391.363	355.22
391.743	369
392.122	374.88
392.501	363.35
392.881	376.23
393.26	361.54
393.639	388.44
394.018	359.06
394.397	374.65
394.776	388.21
395.155	387.08
395.534	385.27
395.913	367.42
396.292	393.63
396.671	366.06
397.05	392.96
397.429	385.72
397.808	394.76
398.186	384.14
398.565	381.88
398.944	390.47
399.323	381.2
399.701	402
400.08	398.83
400.458	395.22
400.837	406.29
401.215	418.49
401.594	420.07
401.972	406.97
402.351	395.89
402.729	396.8
403.107	416.01
403.486	410.81
403.864	408.77
404.242	407.64
404.62	425.95
404.999	425.05
405.377	410.13
405.755	434.54
406.133	416.46
406.511	434.99
406.889	438.15
407.267	440.41
407.645	458.04
408.023	446.29
408.401	443.12
408.779	445.61
409.156	433.18
409.534	447.19
409.912	438.83
410.29	451.71
410.667	444.25
411.045	450.36
411.422	473.63
411.8	465.95
412.178	479.28
412.555	466.63
412.933	480.64
413.31	475.44
413.687	492.39
414.065	484.48
414.442	490.35
414.819	491.26
415.197	507.08
415.574	473.18
415.951	492.16
416.328	486.74
416.705	487.19
417.082	514.53
417.46	522.44
417.837	530.13
418.214	529.68
418.591	521.54
418.967	547.53
419.344	524.48
419.721	545.72
420.098	537.36
420.475	543.69
420.852	541.2
421.228	544.36
421.605	542.1
421.982	540.97
422.358	550.69
422.735	535.55
423.111	564.7
423.488	573.06
423.864	554.08
424.241	580.75
424.617	575.32
424.994	601.09
425.37	571.93
425.746	574.42
426.123	575.32
426.499	584.59
426.875	585.27
427.251	608.09
427.627	620.75
428.003	615.77
428.379	617.13
428.756	602.67
429.132	630.92
429.507	646.06
429.883	629.79
430.259	647.41
430.635	649.9
431.011	646.06
431.387	646.06
431.763	669.11
432.138	698.71
432.514	679.95
432.89	686.06
433.265	691.03
433.641	698.48
434.016	707.75
434.392	728.09
434.767	733.51
435.143	726.28
435.518	707.52
435.894	727.18
436.269	752.27
436.644	734.42
437.02	769.22
437.395	732.83
437.77	757.47
438.145	775.09
438.52	770.8
438.895	801.08
439.271	787.75
439.646	788.2
440.021	801.53
440.395	801.98
440.77	794.08
441.145	812.38
441.52	827.07
441.895	817.13
442.27	832.49
442.645	837.46
443.019	846.28
443.394	834.75
443.769	830.91
444.143	852.83
444.518	861.64
444.892	858.03
445.267	874.07
445.641	867.29
446.016	891.25
446.39	891.7
446.764	862.77
447.139	894.64
447.513	898.03
447.887	909.55
448.262	910.68
448.636	895.09
449.01	933.73
449.384	920.17
449.758	928.53
450.132	937.35
450.506	933.96
450.88	962.21
451.254	958.82
451.628	976.22
452.002	976.9
452.376	976.9
452.75	975.99
453.123	997.01
453.497	1035.88
453.871	1027.52
454.244	1026.61
454.618	1050.34
454.992	1023.67
455.365	1041.98
455.739	1075.2
456.112	1107.97
456.486	1098.93
456.859	1097.12
457.232	1137.79
457.606	1138.47
457.979	1148.42
458.352	1156.55
458.725	1190.67
459.099	1186.61
459.472	1208.3
459.845	1187.51
460.218	1215.08
460.591	1234.29
460.964	1223.22
461.337	1295.08
461.71	1301.41
462.083	1317.9
462.456	1301.41
462.829	1314.29
463.201	1352.03
463.574	1330.11
463.947	1394.74
464.32	1403.55
464.692	1408.3
465.065	1429.31
465.438	1432.25
465.81	1446.94
466.183	1509.31
466.555	1534.62
466.928	1552.25
467.3	1582.53
467.672	1597.9
468.045	1611.68
468.417	1640.15
468.789	1653.49
469.161	1696.65
469.534	1722.41
469.906	1731.68
470.278	1767.83
470.65	1792.47
471.022	1841.05
471.394	1890.32
471.766	1909.3
472.138	1923.99
472.51	1966.47
472.882	2017.09
473.253	2069.3
473.625	2102.29
473.997	2138.45
474.369	2223.19
474.74	2240.14
475.112	2279.69
475.484	2333.47
475.855	2356.07
476.227	2431.32
476.598	2501.83
476.97	2561.26
477.341	2647.13
477.713	2698.66
478.084	2770.52
478.455	2857.52
478.827	2891.2
479.198	3001.93
479.569	3066.56
479.94	3089.38
480.311	3174.8
480.682	3300.45
481.053	3438.75
481.424	3472.2
481.795	3523.27
482.166	3638.97
482.537	3776.82
482.908	3854.79
483.279	3912.41
483.65	4045.06
484.021	4190.82
484.391	4250.03
484.762	4375.22
485.133	4504.26
485.503	4524.37
485.874	4676.23
486.244	4850.01
486.615	4985.83
486.985	5024.47
487.356	5182.21
487.726	5309.44
488.097	5462.2
488.467	5556.66
488.837	5757.33
489.207	5837.56
489.578	6008.85
489.948	6135.4
490.318	6285.46
490.688	6308.05
491.058	6532.91
491.428	6634.83
491.798	6779.68
492.168	6997.53
492.538	7111.65
492.908	7204.08
493.278	7369.04
493.648	7465.09
494.017	7597.06
494.387	7743.95
494.757	7892.19
495.126	8049.25
495.496	8096.48
495.866	8254.22
496.235	8383.71
496.605	8476.36
496.974	8574.21
497.344	8733.98
497.713	8851.94
498.082	9009.68
498.452	9124.25
498.821	9190.24
499.19	9271.37
499.559	9360.18
499.928	9569.66
500.298	9593.84
500.667	9788.19
501.036	9803.1
501.405	9908.86
501.774	9948.18
502.143	10079.48
502.512	10234.5
502.88	10318.8
503.249	10368.74
503.618	10454.39
503.987	10540.26
504.356	10669.07
504.724	10716.75
505.093	10747.71
505.462	10874.26
505.83	11006.24
506.199	11068.38
506.567	11131.2
506.936	11290.3
507.304	11301.37
507.672	11413.91
508.041	11440.8
508.409	11528.48
508.777	11628.59
509.145	11669.04
509.514	11808.02
509.882	11848.7
510.25	11840.79
510.618	11906.78
510.986	11980.67
511.354	12111.29
511.722	12177.05
512.09	12174.57
512.458	12267.45
512.826	12234
513.193	12371.62
513.561	12415.46
513.929	12520.55
514.297	12544.95
514.664	12643.48
515.032	12702.69
515.4	12758.28
515.767	12797.15
516.135	12800.09
516.502	12743.37
516.869	12960.08
517.237	12965.51
517.604	12961.21
517.972	13086.18
518.339	12949.24
518.706	13075.56
519.073	13149.91
519.44	13183.58
519.808	13268.32
520.175	13139.51
520.542	13341.32
520.909	13377.7
521.276	13355.1
521.643	13474.65
522.009	13473.06
522.376	13527.07
522.743	13586.73
523.11	13746.5
523.477	13670.12
523.843	13671.48
524.21	13851.13
524.577	13804.35
524.943	13902.66
525.31	13848.2
525.676	13909.66
526.043	14065.14
526.409	14010.9
526.776	14038.92
527.142	14098.13
527.508	14156.21
527.874	14127.74
528.241	14126.15
528.607	14213.38
528.973	14317.79
529.339	14156.89
529.705	14249.99
530.071	14261.74
530.437	14304
530.803	14339.03
531.169	14341.29
531.535	14250.22
531.901	14254.29
532.267	14205.47
532.632	14292.93
532.998	14226.26
533.364	14298.58
533.73	14278.92
534.095	14400.72
534.461	14336.32
534.826	14291.12
535.192	14314.62
535.557	14349.65
535.923	14287.28
536.288	14282.08
536.653	14351.01
537.019	14247.51
537.384	14191.69
537.749	14207.96
538.114	14236.43
538.479	14112.37
538.845	14108.98
539.21	14046.61
539.575	14058.81
539.94	14078.02
540.305	14021.52
540.67	14003.45
541.034	14044.8
541.399	13978.36
541.764	14045.25
542.129	13996.44
542.494	13873.73
542.858	13863.11
543.223	13872.83
543.587	13837.12
543.952	13786.95
544.316	13736.11
544.681	13665.15
545.045	13754.19
545.41	13772.72
545.774	13704.24
546.138	13749.44
546.503	13663.57
546.867	13639.84
547.231	13713.51
547.595	13617.01
547.959	13575.43
548.324	13500.41
548.688	13452.5
549.052	13496.79
549.416	13434.42
549.779	13427.64
550.143	13368.66
550.507	13461.54
550.871	13374.54
551.235	13273.97
551.599	13319.4
551.962	13259.51
552.326	13215.67
552.689	13308.77
553.053	13201.21
553.417	13112.85
553.78	13235.1
554.143	13098.61
554.507	13123.02
554.87	13138.38
555.234	13174.09
555.597	13124.6
555.96	13134.32
556.323	13085.5
556.686	13073.53
557.05	13103.81
557.413	13090.25
557.776	13078.5
558.139	13056.13
558.502	13097.48
558.865	13033.98
559.228	13089.57
559.59	13046.63
559.953	13128.89
560.316	13111.49
560.679	13119.85
561.041	13106.07
561.404	13124.82
561.767	13179.29
562.129	13163.02
562.492	13200.75
562.854	13162.11
563.217	13113.3
563.579	13061.1
563.941	13139.51
564.304	13149.46
564.666	13242.11
565.028	13195.33
565.39	13229.23
565.753	13191.49
566.115	13278.94
566.477	13254.76
566.839	13147.42
567.201	13325.27
567.563	13300.64
567.925	13324.82
568.287	13383.8
568.648	13341.99
569.01	13388.77
569.372	13431.71
569.734	13297.93
570.095	13360.52
570.457	13392.16
570.819	13483.01
571.18	13411.14
571.542	13497.02
571.903	13475.78
572.265	13521.42
572.626	13554.19
572.987	13457.02
573.349	13558.26
573.71	13571.59
574.071	13496.11
574.432	13570.91
574.794	13655.88
575.155	13624.25
575.516	13562.33
575.877	13526.17
576.238	13584.02
576.599	13594.87
576.96	13603.91
577.32	13570.69
577.681	13565.94
578.042	13679.39
578.403	13561.88
578.763	13647.75
579.124	13597.35
579.485	13609.11
579.845	13658.82
580.206	13652.04
580.566	13606.17
580.927	13677.58
581.287	13683.45
581.648	13598.94
582.008	13644.58
582.368	13658.37
582.728	13674.87
583.089	13675.77
583.449	13618.6
583.809	13609.11
584.169	13666.96
584.529	13580.18
584.889	13642.55
585.249	13553.74
585.609	13579.28
585.969	13616.79
586.329	13627.86
586.688	13563
587.048	13567.75
587.408	13512.61
587.768	13500.86
588.127	13443.69
588.487	13493.18
588.846	13607.07
589.206	13395.1
589.565	13428.32
589.925	13469.9
590.284	13466.51
590.643	13497.47
591.003	13417.47
591.362	13535.89
591.721	13370.69
592.08	13455.21
592.44	13487.98
592.799	13454.08
593.158	13408.66
593.517	13443.23
593.876	13444.14
594.235	13427.87
594.593	13421.09
594.952	13467.41
595.311	13362.78
595.67	13380.64
596.029	13465.61
596.387	13457.25
596.746	13410.69
597.104	13400.98
597.463	13334.99
597.822	13399.62
598.18	13325.72
598.538	13317.59
598.897	13468.54
599.255	13286.63
599.613	13493.63
599.972	13389.68
600.33	13318.94
600.688	13269
601.046	13362.33
601.404	13400.75
601.762	13317.59
602.12	13452.95
602.478	13323.01
602.836	13394.2
603.194	13309.45
603.552	13397.81
603.91	13251.6
604.268	13308.55
604.625	13236.46
604.983	13321.2
605.341	13273.52
605.698	13366.63
606.056	13334.08
606.413	13295.22
606.771	13438.04
607.128	13366.17
607.485	13320.07
607.843	13283.01
608.2	13405.49
608.557	13416.12
608.914	13343.58
609.272	13490.24
609.629	13473.29
609.986	13490.92
610.343	13394.42
610.7	13467.87
611.057	13468.32
611.414	13452.5
611.771	13463.35
612.127	13538.15
612.484	13569.33
612.841	13550.8
613.198	13579.05
613.554	13577.47
613.911	13664.47
614.267	13591.93
614.624	13603.23
614.98	13633.51
615.337	13641.65
615.693	13606.39
616.05	13549.45
616.406	13650.01
616.762	13592.83
617.118	13701.98
617.475	13664.02
617.831	13648.88
618.187	13716.67
618.543	13780.85
618.899	13759.16
619.255	13678.93
619.611	13701.31
619.967	13705.6
620.323	13788.76
620.678	13744.02
621.034	13697.92
621.39	13719.84
621.746	13785.6
622.101	13918.48
622.457	13721.19
622.812	13731.36
623.168	13737.01
623.523	13798.48
623.879	13770.91
624.234	13687.07
624.589	13823.34
624.945	13765.71
625.3	13862.21
625.655	13773.17
626.01	13785.6
626.365	13781.98
626.72	13740.18
627.075	13728.2
627.43	13766.84
627.785	13644.13
628.14	13795.77
628.495	13749.44
628.85	13709.44
629.205	13684.36
629.559	13883.45
629.914	13783.11
630.269	13693.62
630.623	13643.45
630.978	13636
631.332	13633.06
631.687	13739.95
632.041	13613.85
632.396	13676.45
632.75	13587.64
633.104	13556.45
633.459	13584.7
633.813	13562.55
634.167	13511.71
634.521	13558.03
634.875	13496.11
635.229	13577.24
635.583	13454.76
635.937	13415.44
636.291	13542.44
636.645	13441.2
636.999	13450.24
637.352	13479.17
637.706	13322.56
638.06	13352.62
638.413	13394.42
638.767	13316.91
639.121	13301.77
639.474	13204.82
639.828	13293.63
640.181	13304.03
640.534	13244.37
640.888	13226.74
641.241	13149.91
641.594	13252.73
641.947	13326.63
642.301	13196.46
642.654	13276.01
643.007	13228.1
643.36	13175.9
643.713	13207.08
644.066	13231.26
644.419	13138.61
644.771	13046.41
645.124	12966.86
645.477	12946.3
645.83	12906.75
646.182	12839.63
646.535	12720.32
646.888	12887.99
647.24	12723.03
647.593	12835.57
647.945	12776.58
648.298	12744.27
648.65	12612.52
649.002	12606.19
649.355	12728.9
649.707	12795.12
650.059	12814.1
650.411	12969.35
650.763	12971.83
651.115	13062
651.467	12973.87
651.819	12954.21
652.171	12923.25
652.523	12990.14
652.875	12965.96
653.227	12964.83
653.578	13012.06
653.93	12937.26
654.282	12931.16
654.633	12875.79
654.985	13029.23
655.337	12909.91
655.688	13007.77
656.039	12909.91
656.391	12941.78
656.742	12961.89
657.094	12976.81
657.445	13028.78
657.796	12946.52
658.147	12898.62
658.498	12959.63
658.849	12995.11
659.2	13038.27
659.551	13016.58
659.902	12999.4
660.253	13032.4
660.604	13000.31
660.955	12946.52
661.306	13041.66
661.656	13005.51
662.007	12970.7
662.358	13030.82
662.708	13053.87
663.059	13030.59
663.409	12941.55
663.76	13031.95
664.11	12965.73
664.461	13089.12
664.811	13018.39
665.161	13057.48
665.511	13050.48
665.862	12984.49
666.212	13111.04
666.562	13094.54
666.912	13117.37
667.262	13061.78
667.612	13073.3
667.962	13050.02
668.312	13068.55
668.662	13097.03
669.011	13108.1
669.361	12971.61
669.711	13012.74
670.06	13022
670.41	12892.74
670.76	12945.39
671.109	12921.89
671.459	12957.15
671.808	13037.6
672.157	13040.31
672.507	12910.37
672.856	12926.64
673.205	12981.1
673.554	13001.66
673.904	12968.44
674.253	12967.99
674.602	12963.25
674.951	12792.4
675.3	12705.63
675.649	12923.02
675.998	12887.32
676.346	12896.58
676.695	12856.36
677.044	12808.45
677.393	12800.31
677.741	12828.79
678.09	12757.83
678.438	12793.31
678.787	12759.64
679.135	12790.37
679.484	12690.71
679.832	12736.81
680.181	12676.93
680.529	12693.2
680.877	12629.7
681.225	12638.28
681.573	12690.49
681.922	12611.17
682.27	12598.06
682.618	12536.37
682.966	12479.42
683.314	12532.52
683.661	12470.6
684.009	12342.47
684.357	12330.27
684.705	12384.05
685.053	12439.42
685.4	12454.33
685.748	12345.86
686.095	12295.02
686.443	12313.32
686.79	12255.47
687.138	12217.5
687.485	12242.59
687.832	12204.4
688.18	12164.85
688.527	12095.02
688.874	12113.78
689.221	12051.63
689.568	12021.8
689.915	11954.91
690.262	11966.21
690.609	11973.22
690.956	11841.02
691.303	11839.89
691.65	11785.88
691.997	11776.16
692.344	11753.11
692.69	11659.55
693.037	11732.32
693.383	11575.03
693.73	11696.61
694.077	11556.28
694.423	11528.71
694.769	11471.08
695.116	11512.66
695.462	11383.63
695.808	11320.58
696.155	11447.13
696.501	11310.18
696.847	11270.86
697.193	11326.23
697.539	11268.15
697.885	11133.24
698.231	11073.8
698.577	11090.75
698.923	11055.27
699.269	10973.47
699.614	10938.22
699.96	10891.44
700.306	10914.71
700.651	10805.11
700.997	10829.07
701.342	10743.64
701.688	10720.37
702.033	10812.12
702.379	10642.4
702.724	10612.8
703.069	10577.32
703.415	10487.83
703.76	10551.11
704.105	10494.84
704.45	10485.12
704.795	10432.47
705.14	10392.92
705.485	10371.9
705.83	10364.67
706.175	10340.72
706.52	10180.72
706.865	10259.14
707.209	10196.09
707.554	10187.5
707.899	10229.76
708.243	10159.03
708.588	10108.63
708.932	10113.38
709.277	10077.67
709.621	9935.3
709.966	9926.49
710.31	9994.29
710.654	9920.39
710.998	9934.17
711.342	9971.91
711.687	9827.74
712.031	9864.12
712.375	9811.92
712.719	9730.11
713.063	9823.67
713.407	9776.89
713.75	9748.19
714.094	9695.54
714.438	9646.95
714.782	9714.52
715.125	9635.42
715.469	9689.21
715.812	9648.53
716.156	9558.36
716.499	9566.05
716.843	9496.67
717.186	9495.54
717.53	9548.42
717.873	9580.51
718.216	9554.07
718.559	9484.02
718.902	9459.84
719.246	9499.38
719.589	9405.83
719.932	9359.73
720.275	9360.18
720.617	9413.74
720.96	9358.14
721.303	9312.72
721.646	9336.9
721.989	9283.12
722.331	9316.11
722.674	9284.25
723.016	9319.27
723.359	9321.76
723.701	9269.11
724.044	9249.22
724.386	9187.07
724.729	9285.6
725.071	9266.62
725.413	9283.57
725.755	9207.19
726.097	9211.71
726.439	9189.33
726.782	9136.91
727.124	9238.6
727.465	9161.99
727.807	9143.69
728.149	9156.57
728.491	9146.17
728.833	9173.97
729.175	9118.83
729.516	9135.1
729.858	9130.81
730.199	9099.17
730.541	9114.76
730.882	9123.57
731.224	9070.24
731.565	9093.07
731.906	9108.43
732.248	9129.45
732.589	9062.11
732.93	9058.04
733.271	9085.16
733.612	9130.35
733.953	9138.04
734.294	9057.13
734.635	9023.24
734.976	9069.79
735.317	9037.93
735.658	9080.18
735.999	9081.77
736.339	9016.23
736.68	9134.87
737.021	9042.67
737.361	9023.69
737.702	9139.39
738.042	9037.93
738.383	9059.17
738.723	9147.3
739.063	9018.94
739.404	9094.2
739.744	9126.96
740.084	9111.37
740.424	9160.63
740.764	9149.56
741.104	9237.24
741.444	9125.61
741.784	9121.09
742.124	9140.97
742.464	9192.5
742.804	9171.48
743.143	9251.25
743.483	9236.11
743.823	9178.49
744.162	9267.98
744.502	9321.53
744.841	9343.23
745.181	9371.48
745.52	9378.93
745.86	9472.49
746.199	9441.31
746.538	9539.16
746.877	9552.04
747.216	9613.28
747.556	9684.91
747.895	9692.37
748.234	9638.14
748.573	9813.27
748.911	9768.98
749.25	9870.45
749.589	9942.31
749.928	10014.62
750.267	10046.94
750.605	10127.16
750.944	10212.36
751.283	10220.49
751.621	10364.44
751.96	10369.42
752.298	10479.92
752.636	10570.99
752.975	10640.6
753.313	10684.89
753.651	10865.9
753.989	10874.04
754.327	11055.05
754.666	11050.75
755.004	11234.25
755.342	11415.04
755.679	11577.97
756.017	11601.93
756.355	11699.33
756.693	11855.93
757.031	12064.06
757.368	12117.85
757.706	12241.23
758.044	12473.77
758.381	12482.58
758.719	12725.06
759.056	12799.18
759.394	12958.95
759.731	13051.83
760.068	13227.19
760.405	13289.57
760.743	13450.69
761.08	13636.9
761.417	13791.02
761.754	13942.2
762.091	14054.29
762.428	14252.25
762.765	14346.04
763.102	14576.99
763.438	14743.76
763.775	14889.07
764.112	15029.63
764.449	15275.73
764.785	15412
765.122	15392.34
765.458	15505.78
765.795	15633.46
766.131	15865.54
766.467	15965.65
766.804	16030.28
767.14	16110.28
767.476	16335.81
767.812	16437.28
768.148	16618.52
768.485	16632.98
768.821	16668.69
769.157	16772.19
769.492	16941.67
769.828	17062.35
770.164	17188.9
770.5	17142.8
770.836	17359.74
771.171	17276.13
771.507	17440.19
771.842	17474.77
772.178	17662.78
772.513	17771.03
772.849	17756.79
773.184	17887.41
773.519	17867.98
773.855	17945.49
774.19	17924.92
774.525	18011.48
774.86	18128.76
775.195	18120.4
775.53	18243.79
775.865	18186.39
776.2	18190.23
776.535	18215.99
776.87	18333.95
777.205	18332.15
777.539	18383.67
777.874	18368.75
778.209	18346.61
778.543	18342.09
778.878	18431.58
779.212	18406.04
779.547	18402.43
779.881	18481.29
780.215	18421.63
780.55	18535.98
780.884	18461.63
781.218	18420.05
781.552	18549.09
781.886	18494.63
782.22	18410.11
782.554	18495.98
782.888	18471.8
783.222	18368.08
783.556	18425.02
783.889	18340.05
784.223	18303.9
784.557	18248.98
784.89	18306.38
785.224	18277.01
785.557	18215.54
785.891	18300.96
786.224	18271.13
786.558	18270.45
786.891	18185.93
787.224	18032.94
787.557	18058.93
787.891	18122.66
788.224	18026.84
788.557	18065.71
788.89	18175.31
789.223	18175.31
789.556	17983.23
789.888	17957.24
790.221	17884.02
790.554	17846.28
790.887	17839.05
791.219	17791.82
791.552	17782.1
791.884	17685.16
792.217	17631.82
792.549	17688.77
792.882	17532.17
793.214	17488.33
793.546	17588.21
793.879	17457.82
794.211	17397.25
794.543	17440.87
794.875	17347.31
795.207	17489.23
795.539	17329.01
795.871	17335.11
796.203	17204.27
796.535	17131.95
796.867	17107.09
797.198	17132.85
797.53	17121.1
797.862	16989.36
798.193	17110.71
798.525	16949.13
798.856	17015.12
799.188	16761.79
799.519	16768.34
799.85	16649.7
800.182	16684.05
800.513	16682.24
800.844	16581
801.175	16562.93
801.506	16698.06
801.837	16485.41
802.168	16524.51
802.499	16411.07
802.83	16443.16
803.161	16437.05
803.491	16404.74
803.822	16390.05
804.153	16303.5
804.483	16200.22
804.814	16220.11
805.145	16129.04
805.475	16039.78
805.805	15970.4
806.136	16056.5
806.466	15999.55
806.796	16012.21
807.126	15943.28
807.457	15862.15
807.787	15903.51
808.117	15785.32
808.447	15736.06
808.777	15773.12
809.107	15770.63
809.436	15603.63
809.766	15765.88
810.096	15692.44
810.426	15561.37
810.755	15609.05
811.085	15579.45
811.414	15512.56
811.744	15359.34
812.073	15415.61
812.403	15373.13
812.732	15311.66
813.061	15338.55
813.39	15235.5
813.719	15294.48
814.049	15310.53
814.378	15192.57
814.707	15210.42
815.036	15167.71
815.365	15122.06
815.693	14895.4
816.022	14932.69
816.351	14941.73
816.68	14856.98
817.008	14955.06
817.337	14711.9
817.665	14854.04
817.994	14809.07
818.322	14771.11
818.651	14645.46
818.979	14677.78
819.307	14765.01
819.636	14701.28
819.964	14597.78
820.292	14603.66
820.62	14644.33
820.948	14545.13
821.276	14570.44
821.604	14579.93
821.932	14547.39
822.259	14639.13
822.587	14579.48
822.915	14521.17
823.243	14635.07
823.57	14600.27
823.898	14623.32
824.225	14490.21
824.553	14530.44
824.88	14578.35
825.207	14581.28
825.535	14596.2
825.862	14570.66
826.189	14446.37
826.516	14646.14
826.843	14654.28
827.17	14580.83
827.497	14637.78
827.824	14646.82
828.151	14601.4
828.478	14642.98
828.805	14618.12
829.131	14581.28
829.458	14501.74
829.785	14556.43
830.111	14604.79
830.438	14649.53
830.764	14616.99
831.09	14577.22
831.417	14551.68
831.743	14648.85
832.069	14592.81
832.395	14516.43
832.722	14555.75
833.048	14547.39
833.374	14519.59
833.7	14459.93
834.026	14564.11
834.351	14533.6
834.677	14548.97
835.003	14609.98
835.329	14478.01
835.654	14472.13
835.98	14430.1
836.306	14451.8
836.631	14394.85
836.956	14441.4
837.282	14407.28
837.607	14308.75
837.932	14298.35
838.258	14301.52
838.583	14365.92
838.908	14193.27
839.233	14243.89
839.558	14208.86
839.883	14138.36
840.208	14067.62
840.533	14126.15
840.858	14102.2
841.182	14149.2
841.507	14087.74
841.832	13984.24
842.156	13991.69
842.481	13915.54
842.805	14060.17
843.13	13920.96
843.454	13926.39
843.778	13760.97
844.103	13800.29
844.427	13779.27
844.751	13745.83
845.075	13723.68
845.399	13744.7
845.723	13560.52
846.047	13673.51
846.371	13583.12
846.695	13533.4
847.019	13396
847.343	13413.4
847.666	13292.73
847.99	13164.37
848.313	13241.43
848.637	13166.18
848.96	13146.74
849.284	13027.65
849.607	13008.9
849.931	12959.63
850.254	12896.13
850.577	12812.29
850.9	12732.74
851.223	12659.98
851.546	12641.67
851.869	12627.21
852.192	12644.39
852.515	12517.83
852.838	12464.28
853.161	12391.51
853.483	12392.19
853.806	12371.62
854.129	12306.99
854.451	12257.5
854.774	12208.24
855.096	12168.92
855.419	12200.1
855.741	12103.16
856.063	12052.54
856.385	12094.12
856.708	12102.7
857.03	11962.14
857.352	11988.36
857.674	11908.36
857.996	11852.77
858.318	11721.47
858.64	11823.16
858.961	11777.52
859.283	11721.02
859.605	11658.42
859.926	11641.47
860.248	11693
860.57	11563.51
860.891	11621.81
861.212	11532.32
861.534	11518.76
861.855	11484.19
862.176	11486
862.498	11528.71
862.819	11480.57
863.14	11374.36
863.461	11387.92
863.782	11319.45
864.103	11392.21
864.424	11323.52
864.745	11250.3
865.065	11251.2
865.386	11152.45
865.707	11246.46
866.027	11178.66
866.348	11210.52
866.668	11186.8
866.989	11147.7
867.309	11177.08
867.63	11129.17
867.95	11022.28
868.27	11051.21
868.59	11074.03
868.91	11010.98
869.23	10991.1
869.55	10949.29
869.87	11052.79
870.19	10998.55
870.51	11041.26
870.83	10992.45
871.15	10857.31
871.469	10867.71
871.789	10927.59
872.109	10886.01
872.428	10809.86
872.748	10903.87
873.067	10806.69
873.386	10816.18
873.706	10768.05
874.025	10691.44
874.344	10755.4
874.663	10757.88
874.982	10673.36
875.301	10651.67
875.62	10653.7
875.939	10709.75
876.258	10665.91
876.577	10584.55
876.896	10639.92
877.214	10592.46
877.533	10546.36
877.852	10564.44
878.17	10554.5
878.489	10514.05
878.807	10500.26
879.125	10502.07
879.444	10490.09
879.762	10447.38
880.08	10464.56
880.398	10442.18
880.716	10372.81
881.034	10420.04
881.352	10375.97
881.67	10342.52
881.988	10292.13
882.306	10308.63
882.624	10283.77
882.941	10176.65
883.259	10179.37
883.577	10132.59
883.894	10150.44
884.212	10200.16
884.529	10081.29
884.846	10097.79
885.164	10133.94
885.481	9997.22
885.798	10020.05
886.115	10012.82
886.432	10006.49
886.75	9879.94
887.067	9967.17
887.383	9910.22
887.7	9879.03
888.017	9884.23
888.334	9827.28
888.651	9756.1
888.967	9779.6
889.284	9697.8
889.6	9804.91
889.917	9688.08
890.233	9681.53
890.55	9626.61
890.866	9635.42
891.182	9571.25
891.498	9539.38
891.815	9545.26
892.131	9557.01
892.447	9516.11
892.763	9392.27
893.079	9391.82
893.395	9404.24
893.71	9375.54
894.026	9322.21
894.342	9342.1
894.657	9237.24
894.973	9245.6
895.289	9194.08
895.604	9248.99
895.92	9196.34
896.235	9093.74
896.55	9055.55
896.865	9014.65
897.181	9051.94
897.496	9019.62
897.811	8973.97
898.126	8987.31
898.441	8960.19
898.756	8905.27
899.071	8793.19
899.386	8846.97
899.7	8747.54
900.015	8739.4
900.33	8658.5
900.644	8705.73
900.959	8674.09
901.273	8638.61
901.588	8577.83
901.902	8531.05
902.216	8491.73
902.531	8544.83
902.845	8490.14
903.159	8458.05
903.473	8405.17
903.787	8380.32
904.101	8301.9
904.415	8299.64
904.729	8295.8
905.042	8245.63
905.356	8177.61
905.67	8160.21
905.984	8196.59
906.297	8159.98
906.611	8111.4
906.924	8079.76
907.237	8024.62
907.551	7950.72
907.864	7998.63
908.177	7940.1
908.491	7932.87
908.804	7807.45
909.117	7828.47
909.43	7775.13
909.743	7807
910.056	7707.57
910.368	7714.57
910.681	7625.08
910.994	7652.88
911.307	7573.33
911.619	7536.5
911.932	7585.54
912.244	7514.8
912.557	7467.35
912.869	7414.24
913.181	7401.36
913.494	7429.83
913.806	7374.02
914.118	7346.45
914.43	7301.7
914.742	7272.77
915.054	7269.84
915.366	7209.05
915.678	7201.14
915.99	7203.85
916.302	7114.36
916.613	7083.18
916.925	7054.02
917.236	7052.89
917.548	7006.57
917.859	6983.74
918.171	6937.87
918.482	6915.04
918.794	6899.23
919.105	6864.2
919.416	6821.94
919.727	6830.53
920.038	6760.47
920.349	6748.72
920.66	6734.71
920.971	6701.49
921.282	6694.71
921.593	6647.93
921.903	6612.91
922.214	6604.54
922.525	6554.6
922.835	6561.16
923.146	6543.75
923.456	6483.42
923.767	6417.66
924.077	6484.32
924.387	6419.46
924.697	6358.9
925.008	6357.09
925.318	6385.11
925.628	6285.46
925.938	6225.34
926.248	6235.74
926.558	6215.85
926.867	6171.33
927.177	6105.57
927.487	6129.08
927.796	6076.87
928.106	6080.04
928.416	6069.87
928.725	6041.39
929.034	6015.86
929.344	6015.86
929.653	5947.16
929.962	5931.34
930.271	5889.31
930.581	5920.49
930.89	5869.42
931.199	5843.66
931.508	5816.77
931.817	5852.7
932.125	5755.3
932.434	5826.49
932.743	5717.56
933.051	5672.36
933.36	5663.1
933.669	5673.72
933.977	5580.39
934.286	5631.91
934.594	5565.02
934.902	5544.91
935.21	5567.28
935.519	5536.78
935.827	5503.56
936.135	5476.21
936.443	5423.78
936.751	5419.49
937.059	5391.47
937.367	5347.18
937.674	5351.7
937.982	5347.63
938.29	5313.5
938.597	5297.01
938.905	5238.03
939.213	5227.18
939.52	5204.81
939.827	5207.74
940.135	5173.85
940.442	5151.02
940.749	5154.86
941.056	5138.82
941.363	5052.27
941.67	5096.56
941.977	5052.49
942.284	5040.97
942.591	4974.98
942.898	4997.58
943.205	4965.26
943.511	4936.79
943.818	4897.24
944.125	4900.86
944.431	4926.4
944.738	4847.75
945.044	4835.78
945.35	4793.07
945.657	4815.44
945.963	4794.87
946.269	4731.15
946.575	4773.18
946.881	4666.06
947.187	4716.68
947.493	4689.11
947.799	4662.22
948.105	4625.16
948.41	4619.96
948.716	4590.59
949.022	4573.86
949.327	4608.21
949.633	4537.48
949.938	4482.79
950.244	4523.02
950.549	4495.22
950.854	4489.12
951.16	4499.29
951.465	4437.14
951.77	4353.3
952.075	4414.32
952.38	4353.98
952.685	4369.35
952.99	4317.6
953.294	4332.29
953.599	4290.93
953.904	4277.37
954.209	4219.97
954.513	4215.23
954.818	4235.57
955.122	4183.82
955.426	4200.31
955.731	4182.69
956.035	4181.1
956.339	4101.33
956.643	4104.95
956.948	4083.25
957.252	4075.57
957.556	4089.81
957.86	4062.01
958.163	4040.32
958.467	4001.9
958.771	3994.89
959.075	3974.1
959.378	3963.48
959.682	3954.67
959.985	3923.03
960.289	3941.34
960.592	3889.14
960.896	3882.58
961.199	3843.71
961.502	3851.85
961.805	3826.31
962.108	3805.97
962.411	3800.55
962.714	3756.26
963.017	3765.75
963.32	3752.64
963.623	3718.97
963.926	3710.61
964.228	3664.73
964.531	3703.83
964.833	3688.46
965.136	3629.93
965.438	3652.53
965.741	3600.56
966.043	3606.66
966.345	3573.21
966.648	3576.83
966.95	3565.98
967.252	3519.43
967.554	3529.6
967.856	3515.81
968.158	3467.23
968.46	3496.6
968.761	3480.33
969.063	3463.16
969.365	3425.87
969.666	3435.36
969.968	3382.48
970.269	3403.5
970.571	3368.92
970.872	3330.28
971.174	3307.23
971.475	3272.65
971.776	3290.28
972.077	3276.5
972.378	3281.47
972.679	3277.4
972.98	3276.5
973.281	3215.03
973.582	3224.75
973.883	3202.15
974.183	3212.32
974.484	3187.23
974.785	3135.48
975.085	3095.03
975.386	3174.8
975.686	3122.15
975.986	3094.81
976.287	3080.79
976.587	3065.43
976.887	3063.62
977.187	3073.79
977.487	3047.8
977.787	3012.32
978.087	2995.6
978.387	3022.49
978.687	3014.58
978.987	2979.55
979.286	2977.75
979.586	2965.77
979.885	2932.32
980.185	2931.65
980.484	2917.64
980.784	2847.35
981.083	2897.52
981.382	2865.66
981.682	2880.12
981.981	2811.42
982.28	2828.6
982.579	2817.75
982.878	2828.82
983.177	2824.98
983.475	2782.72
983.774	2780.24
984.073	2766
984.372	2741.37
984.67	2728.04
984.969	2710.86
985.267	2693.69
985.566	2692.56
985.864	2689.17
986.162	2707.7
986.461	2689.39
986.759	2662.5
987.057	2634.25
987.355	2636.29
987.653	2603.07
987.951	2638.09
988.249	2588.15
988.547	2553.8
988.844	2559.45
989.142	2562.16
989.44	2580.47
989.737	2554.48
990.035	2528.04
990.332	2513.58
990.63	2486.01
990.927	2488.27
991.224	2446.24
991.521	2462.73
991.819	2431.77
992.116	2441.26
992.413	2437.42
992.71	2420.7
993.006	2419.34
993.303	2371.89
993.6	2365.33
993.897	2383.41
994.193	2344.09
994.49	2335.05
994.787	2329.18
995.083	2342.06
995.379	2334.37
995.676	2308.39
995.972	2317.2
996.268	2285.56
996.565	2286.24
996.861	2272
997.157	2255.96
997.453	2228.61
997.749	2226.81
998.044	2220.7
998.34	2220.48
998.636	2201.5
998.932	2195.17
999.227	2149.75
999.523	2182.29
999.818	2148.62
1000.114	2140.71
1000.409	2123.98
1000.704	2107.71
1001	2098
1001.295	2102.52
1001.59	2089.18
1001.885	2084.66
1002.18	2036.98
1002.475	2046.02
1002.77	2034.72
1003.065	2022.97
1003.359	2035.17
1003.654	2000.15
1003.949	2018.22
1004.243	1991.78
1004.538	2010.31
1004.832	1928.96
1005.127	1953.37
1005.421	1915.18
1005.715	1931.45
1006.009	1925.12
1006.304	1921.28
1006.598	1880.15
1006.892	1893.71
1007.186	1863.2
1007.48	1858.68
1007.773	1843.77
1008.067	1845.35
1008.361	1851.45
1008.655	1850.77
1008.948	1842.86
1009.242	1825.69
1009.535	1787.95
1009.829	1822.3
1010.122	1762.86
1010.415	1747.04
1010.708	1746.82
1011.001	1733.94
1011.295	1718.57
1011.588	1721.06
1011.881	1719.02
1012.173	1681.06
1012.466	1711.34
1012.759	1690.55
1013.052	1670.21
1013.344	1653.04
1013.637	1670.66
1013.93	1661.17
1014.222	1652.58
1014.514	1600.61
1014.807	1611.68
1015.099	1606.03
1015.391	1594.28
1015.683	1576.88
1015.976	1608.52
1016.268	1564.45
1016.56	1533.04
1016.851	1563.09
1017.143	1541.17
1017.435	1534.39
1017.727	1498.69
1018.018	1514.51
1018.31	1451.23
1018.602	1506.37
1018.893	1477.22
1019.185	1453.94
1019.476	1456.66
1019.767	1446.26
1020.058	1441.29
1020.35	1429.54
1020.641	1429.54
1020.932	1419.14
1021.223	1430.67
1021.514	1406.04
1021.804	1371.24
1022.095	1345.02
1022.386	1357
1022.677	1354.96
1022.967	1365.36
1023.258	1338.92
1023.548	1335.3
1023.839	1317
1024.129	1321.29
1024.419	1287.17
1024.709	1298.92
1025	1294.85
1025.29	1275.19
1025.58	1295.3
1025.87	1262.76
1026.16	1277.9
1026.449	1249.2
1026.739	1261.86
1027.029	1237
1027.319	1229.77
1027.608	1210.11
1027.898	1215.31
1028.187	1180.96
1028.477	1198.81
1028.766	1204.23
1029.055	1169.21
1029.344	1201.75
1029.634	1181.86
1029.923	1141.86
1030.212	1146.61
1030.501	1147.51
1030.79	1134.18
1031.078	1118.13
1031.367	1112.94
1031.656	1108.42
1031.945	1113.61
1032.233	1106.84
1032.522	1084.24
1032.81	1074.75
1033.099	1112.26
1033.387	1085.82
1033.675	1097.34
1033.963	1056.44
1034.251	1048.08
1034.54	1058.47
1034.828	1046.27
1035.116	1014.86
1035.403	1043.11
1035.691	1012.6
1035.979	1020.74
1036.267	1003.11
1036.554	1044.01
1036.842	1016.89
1037.129	983.9
1037.417	997.91
1037.704	985.03
1037.992	971.7
1038.279	968.99
1038.566	961.53
1038.853	961.53
1039.14	961.53
