Data from hue_200_FLMS001491_00013.txt Node
Date: Tue Feb 07 16:42:52 GMT 2017
User: dcchb
Spectrometer: FLMS00149
Trigger mode: 0
Integration Time (sec): 2.000000E-2
Scans to average: 10
Electric dark correction enabled: true
Nonlinearity correction enabled: false
Boxcar width: 0
XAxis mode: Wavelengths
Number of Pixels in Spectrum: 2048
>>>>>Begin Spectral Data<<<<<
341.393	-10.62
341.776	-10.62
342.16	-10.62
342.543	-68.47
342.927	-66.89
343.31	-50.85
343.693	-72.09
344.077	-86.55
344.46	-69.38
344.843	-46.78
345.226	-52.43
345.61	-45.42
345.993	-19.66
346.376	-2.71
346.759	20.79
347.142	45.2
347.525	27.34
347.908	63.28
348.291	89.04
348.674	94.91
349.057	105.31
349.44	129.49
349.823	146.66
350.206	175.36
350.588	181.46
350.971	178.07
351.354	228.24
351.737	240.22
352.119	247.23
352.502	269.15
352.884	272.08
353.267	286.09
353.65	284.06
354.032	302.36
354.414	286.55
354.797	297.85
355.179	304.85
355.562	285.87
355.944	314.79
356.326	327.67
356.709	339.43
357.091	338.3
357.473	345.3
357.855	344.62
358.238	357.28
358.62	336.26
359.002	352.08
359.384	332.87
359.766	325.42
360.148	330.84
360.53	355.7
360.912	332.42
361.294	331.97
361.676	312.31
362.057	315.47
362.439	337.62
362.821	320.44
363.203	332.87
363.584	311.18
363.966	307.11
364.348	315.7
364.729	311.18
365.111	311.18
365.493	300.11
365.874	334.45
366.256	324.29
366.637	306.43
367.019	318.18
367.4	301.69
367.781	318.64
368.163	316.83
368.544	307.34
368.925	336.04
369.306	307.11
369.688	319.77
370.069	317.73
370.45	296.72
370.831	310.27
371.212	306.43
371.593	302.59
371.974	299.88
372.355	291.29
372.736	312.31
373.117	315.47
373.498	320.44
373.879	325.19
374.26	291.74
374.641	310.5
375.021	311.4
375.402	305.53
375.783	318.64
376.163	320.44
376.544	308.69
376.925	348.69
377.305	320.22
377.686	308.92
378.066	338.75
378.447	314.34
378.827	324.06
379.208	314.12
379.588	332.65
379.968	334
380.349	339.43
380.729	312.99
381.109	331.52
381.489	328.8
381.87	332.87
382.25	327.45
382.63	330.61
383.01	339.43
383.39	323.38
383.77	307.11
384.15	359.76
384.53	327.22
384.91	344.4
385.29	342.36
385.67	341.01
386.049	343.72
386.429	337.62
386.809	330.39
387.189	343.27
387.568	333.78
387.948	350.05
388.328	348.92
388.707	355.24
389.087	344.62
389.466	362.25
389.846	365.87
390.225	369.26
390.605	373.78
390.984	376.49
391.363	359.99
391.743	369.71
392.122	352.08
392.501	378.75
392.881	371.29
393.26	380.78
393.639	376.26
394.018	369.03
394.397	365.41
394.776	381.23
395.155	383.49
395.534	399.54
395.913	385.3
396.292	368.58
396.671	388.46
397.05	388.92
397.429	397.73
397.808	382.14
398.186	404.28
398.565	398.41
398.944	403.38
399.323	420.55
399.701	394.34
400.08	419.88
400.458	404.06
400.837	439.99
401.215	421.91
401.594	411.51
401.972	409.71
402.351	409.48
402.729	410.38
403.107	438.41
403.486	425.75
403.864	457.16
404.242	443.83
404.62	465.98
404.999	463.04
405.377	463.72
405.755	457.16
406.133	481.34
406.511	470.04
406.889	440.89
407.267	483.15
407.645	476.37
408.023	498.97
408.401	490.16
408.779	495.13
409.156	487.67
409.534	514.11
409.912	508.69
410.29	528.8
410.667	531.29
411.045	519.99
411.422	549.36
411.8	574.9
412.178	577.39
412.555	581.23
412.933	588.01
413.31	589.82
413.687	618.74
414.065	613.54
414.442	608.12
414.819	634.11
415.197	632.75
415.574	663.49
415.951	638.63
416.328	671.39
416.705	696.25
417.082	676.37
417.46	686.54
417.837	703.26
418.214	698.74
418.591	698.74
418.967	720.88
419.344	715.91
419.721	769.02
420.098	761.34
420.475	793.2
420.852	759.08
421.228	794.1
421.605	809.7
421.982	833.88
422.358	830.03
422.735	849.92
423.111	856.93
423.488	892.86
423.864	880.2
424.241	922.91
424.617	935.34
424.994	937.6
425.37	972.4
425.746	938.05
426.123	974.66
426.499	987.77
426.875	1004.27
427.251	1016.47
427.627	1039.52
428.003	1080.88
428.379	1091.72
428.756	1092.4
429.132	1088.33
429.507	1106.64
429.883	1121.55
430.259	1140.99
430.635	1167.65
431.011	1161.55
431.387	1190.48
431.763	1216.69
432.138	1225.28
432.514	1231.61
432.89	1266.41
433.265	1289.01
433.641	1322.68
434.016	1325.61
434.392	1348.21
434.767	1406.52
435.143	1396.8
435.518	1436.12
435.894	1451.49
436.269	1460.98
436.644	1539.17
437.02	1529.45
437.395	1555.89
437.77	1599.05
438.145	1624.59
438.52	1658.04
438.895	1668.2
439.271	1675.66
439.646	1699.16
440.021	1738.49
440.395	1759.05
440.77	1749.11
441.145	1799.73
441.52	1843.57
441.895	1832.49
442.27	1887.41
442.645	1866.17
443.019	1909.33
443.394	1938.71
443.769	1958.59
444.143	1943.68
444.518	1987.29
444.892	1990.91
445.267	2009.66
445.641	2054.18
446.016	2065.26
446.39	2079.27
446.764	2095.76
447.139	2067.29
447.513	2124.69
447.887	2109.32
448.262	2132.15
448.636	2190.9
449.01	2206.72
449.384	2201.75
449.758	2228.19
450.132	2243.78
450.506	2276.1
450.88	2290.56
451.254	2294.63
451.628	2312.93
452.002	2366.27
452.376	2363.78
452.75	2401.07
453.123	2445.36
453.497	2475.87
453.871	2474.96
454.244	2555.64
454.618	2535.53
454.992	2562.19
455.365	2573.72
455.739	2659.59
456.112	2680.16
456.486	2663.21
456.859	2728.74
457.232	2760.38
457.606	2746.59
457.979	2808.29
458.352	2803.99
458.725	2913.14
459.099	2900.71
459.472	2966.02
459.845	2963.76
460.218	3003.99
460.591	3013.25
460.964	3033.14
461.337	3098.22
461.71	3139.35
462.083	3229.52
462.456	3194.94
462.829	3204.89
463.201	3329.18
463.574	3283.98
463.947	3334.38
464.32	3388.84
464.692	3391.55
465.065	3489.17
465.438	3517.87
465.81	3549.51
466.183	3575.05
466.555	3674.25
466.928	3667.02
467.3	3636.74
467.672	3734.82
468.045	3848.03
468.417	3886.23
468.789	3898.43
469.161	3933.68
469.534	3956.28
469.906	4083.06
470.278	4054.81
470.65	4102.04
471.022	4185.2
471.394	4308.81
471.766	4300
472.138	4339.55
472.51	4403.95
472.882	4473.1
473.253	4497.28
473.625	4567.34
473.997	4669.93
474.369	4681.91
474.74	4704.96
475.112	4831.51
475.484	4944.73
475.855	4999.19
476.227	5050.94
476.598	5159.19
476.97	5151.5
477.341	5296.36
477.713	5336.36
478.084	5332.06
478.455	5552.4
478.827	5567.54
479.198	5678.04
479.569	5698.38
479.94	5857.02
480.311	5938.15
480.682	6039.39
481.053	6163
481.424	6260.17
481.795	6224.24
482.166	6340.4
482.537	6377.01
482.908	6556.44
483.279	6617.45
483.65	6692.48
484.021	6826.94
484.391	6929.31
484.762	6983.09
485.133	7032.58
485.503	7136.54
485.874	7268.06
486.244	7314.38
486.615	7429.18
486.985	7480.71
487.356	7566.58
487.726	7711.89
488.097	7779
488.467	7795.28
488.837	8009.51
489.207	8046.79
489.578	8163.63
489.948	8134.02
490.318	8338.54
490.688	8331.31
491.058	8426.9
491.428	8495.14
491.798	8623.5
492.168	8637.29
492.538	8763.61
492.908	8809.71
493.278	8929.03
493.648	8955.92
494.017	9019.2
494.387	9106.88
494.757	9152.08
495.126	9185.07
495.496	9235.01
495.866	9289.47
496.235	9379.19
496.605	9436.14
496.974	9466.19
497.344	9529.01
497.713	9614.66
498.082	9596.81
498.452	9754.55
498.821	9679.75
499.19	9749.8
499.559	9831.83
499.928	9839.52
500.298	9872.96
500.667	9920.64
501.036	9918.38
501.405	9996.8
501.774	9984.6
502.143	10057.81
502.512	10101.66
502.88	10137.13
503.249	10159.73
503.618	10242.67
503.987	10192.27
504.356	10299.16
504.724	10275.44
505.093	10268.66
505.462	10413.06
505.83	10372.61
506.199	10467.52
506.567	10604.01
506.936	10454.87
507.304	10554.52
507.672	10577.35
508.041	10600.17
508.409	10620.06
508.777	10701.41
509.145	10705.93
509.514	10674.97
509.882	10730.34
510.25	10654.41
510.618	10757.23
510.986	10714.52
511.354	10783.22
511.722	10924.46
512.09	10978.24
512.458	10899.37
512.826	10928.75
513.193	11015.3
513.561	10954.29
513.929	11011.69
514.297	11009.43
514.664	11084.23
515.032	11026.15
515.4	11137.11
515.767	11154.96
516.135	11160.61
516.502	11095.3
516.869	11222.53
517.237	11206.49
517.604	11118.13
517.972	11226.37
518.339	11208.74
518.706	11131.46
519.073	11228.63
519.44	11244.45
519.808	11336.65
520.175	11221.63
520.542	11328.97
520.909	11252.81
521.276	11271.12
521.643	11332.81
522.009	11313.37
522.376	11330.78
522.743	11366.25
523.11	11406.25
523.477	11513.14
523.843	11477.44
524.21	11460.72
524.577	11548.85
524.943	11533.93
525.31	11527.61
525.676	11562.41
526.043	11653.7
526.409	11625.01
526.776	11650.54
527.142	11596.08
527.508	11589.3
527.874	11594.27
528.241	11542.52
528.607	11506.59
528.973	11632.01
529.339	11582.29
529.705	11627.94
530.071	11688.73
530.437	11580.71
530.803	11598.34
531.169	11593.59
531.535	11482.41
531.901	11466.37
532.267	11432.69
532.632	11457.78
532.998	11415.29
533.364	11512.92
533.73	11441.96
534.095	11453.71
534.461	11360.83
534.826	11420.72
535.192	11398.8
535.557	11321.28
535.923	11335.52
536.288	11279.93
536.653	11307.73
537.019	11216.65
537.384	11144.11
537.749	11180.5
538.114	11093.72
538.479	11095.53
538.845	11085.13
539.21	11002.42
539.575	11005.13
539.94	10945.25
540.305	10985.47
540.67	10846.04
541.034	10887.4
541.399	10868.64
541.764	10768.08
542.129	10738.7
542.494	10717.23
542.858	10688.53
543.223	10641.3
543.587	10626.39
543.952	10570.34
544.316	10536.67
544.681	10440.86
545.045	10505.03
545.41	10466.39
545.774	10391.37
546.138	10327.41
546.503	10283.8
546.867	10303.91
547.231	10176
547.595	10162.9
547.959	10078.15
548.324	10036.57
548.688	10105.05
549.052	10037.25
549.416	10046.06
549.779	9961.55
550.143	9880.42
550.507	9869.57
550.871	9857.37
551.235	9794.32
551.599	9846.97
551.962	9754.09
552.326	9747.31
552.689	9738.28
553.053	9645.62
553.417	9585.96
553.78	9669.12
554.143	9580.31
554.507	9577.15
554.87	9531.73
555.234	9505.74
555.597	9515.46
555.96	9426.87
556.323	9419.64
556.686	9356.14
557.05	9348.68
557.413	9335.35
557.776	9309.36
558.139	9337.16
558.502	9336.93
558.865	9306.65
559.228	9290.38
559.59	9276.14
559.953	9267.33
560.316	9283.37
560.679	9280.43
561.041	9283.82
561.404	9209.25
561.767	9161.79
562.129	9218.51
562.492	9198.18
562.854	9172.19
563.217	9160.89
563.579	9161.12
563.941	9141.45
564.304	9182.36
564.666	9186.88
565.028	9221.9
565.39	9166.99
565.753	9229.36
566.115	9174.67
566.477	9162.47
566.839	9240.89
567.201	9209.48
567.563	9227.55
567.925	9229.14
568.287	9132.19
568.648	9185.07
569.01	9170.15
569.372	9210.61
569.734	9169.25
570.095	9196.37
570.457	9198.63
570.819	9150.04
571.18	9135.35
571.542	9174
571.903	9183.49
572.265	9185.97
572.626	9168.12
572.987	9210.15
573.349	9216.48
573.71	9190.72
574.071	9167.89
574.432	9193.43
574.794	9275.91
575.155	9183.49
575.516	9194.79
575.877	9282.02
576.238	9248.57
576.599	9229.59
576.96	9177.39
577.32	9187.78
577.681	9206.54
578.042	9245.86
578.403	9216.25
578.763	9185.07
579.124	9294.22
579.485	9284.5
579.845	9283.82
580.206	9234.11
580.566	9243.6
580.927	9258.97
581.287	9259.64
581.648	9218.29
582.008	9213.54
582.368	9205.63
582.728	9269.13
583.089	9247.44
583.449	9263.94
583.809	9239.31
584.169	9225.52
584.529	9212.87
584.889	9329.25
585.249	9196.37
585.609	9165.41
585.969	9246.54
586.329	9190.72
586.688	9193.2
587.048	9147.33
587.408	9113.43
587.768	9155.69
588.127	9086.77
588.487	9125.86
588.846	9141.45
589.206	9100.1
589.565	9037.05
589.925	9099.2
590.284	9115.01
590.643	9088.35
591.003	9133.77
591.362	9047.45
591.721	9101.23
592.08	9079.76
592.44	9080.89
592.799	9084.05
593.158	9022.36
593.517	9078.18
593.876	9132.42
594.235	8979.88
594.593	9068.91
594.952	9068.01
595.311	8990.5
595.67	9007.67
596.029	9061.91
596.387	8934.23
596.746	9074.34
597.104	9037.28
597.463	8920.22
597.822	9041.8
598.18	8987.79
598.538	8968.58
598.897	9005.64
599.255	8970.84
599.613	9074.79
599.972	8992.53
600.33	9062.81
600.688	8975.58
601.046	9027.56
601.404	9031.17
601.762	8975.13
602.12	9046.54
602.478	8975.81
602.836	9027.79
603.194	8971.74
603.552	8991.63
603.91	8933.32
604.268	9078.41
604.625	8926.09
604.983	8964.51
605.341	8907.79
605.698	9012.19
606.056	8993.89
606.413	8933.55
606.771	9014
607.128	9003.83
607.485	8887
607.843	8974.23
608.2	8955.02
608.557	9008.35
608.914	8979.42
609.272	9089.93
609.629	9018.97
609.986	9087.67
610.343	9008.35
610.7	9109.59
611.057	8997.96
611.414	9010.38
611.771	9011.29
612.127	9102.59
612.484	9073.21
612.841	9062.36
613.198	9066.65
613.554	9077.05
613.911	9100.33
614.267	9029.82
614.624	9113.43
614.98	9099.87
615.337	9158.18
615.693	9126.54
616.05	9145.07
616.406	9157.95
616.762	9106.88
617.118	9083.83
617.475	9101.91
617.831	9145.75
618.187	9143.49
618.543	9203.6
618.899	9202.24
619.255	9192.75
619.611	9167.89
619.967	9118.18
620.323	9229.59
620.678	9196.14
621.034	9152.98
621.39	9143.49
621.746	9089.48
622.101	9195.46
622.457	9129.93
622.812	9176.71
623.168	9210.15
623.523	9177.16
623.879	9213.32
624.234	9138.06
624.589	9175.13
624.945	9082.93
625.3	9130.61
625.655	9102.13
626.01	9192.07
626.365	9144.17
626.72	9124.73
627.075	9127.44
627.43	9142.36
627.785	9078.63
628.14	9143.49
628.495	9135.8
628.85	9079.99
629.205	9114.56
629.559	9136.03
629.914	9026.66
630.269	9085.41
630.623	9090.38
630.978	9039.99
631.332	9119.53
631.687	9100.78
632.041	8983.49
632.396	9056.71
632.75	8990.27
633.104	9021.01
633.459	9010.61
633.813	8990.27
634.167	8958.86
634.521	8980.1
634.875	9013.1
635.229	9044.73
635.583	8881.57
635.937	8854.68
636.291	8846.55
636.645	8896.04
636.999	8857.17
637.352	8873.66
637.706	8811.07
638.06	8880.44
638.413	8783.5
638.767	8850.61
639.121	8781.92
639.474	8760.9
639.828	8803.84
640.181	8784.85
640.534	8784.63
640.888	8757.74
641.241	8731.07
641.594	8740.56
641.947	8743.05
642.301	8710.96
642.654	8698.75
643.007	8726.1
643.36	8661.92
643.713	8655.82
644.066	8717.28
644.419	8701.24
644.771	8660.79
645.124	8618.98
645.477	8493.79
645.83	8513.45
646.182	8413.11
646.535	8481.81
646.888	8462.15
647.24	8442.26
647.593	8486.78
647.945	8437.52
648.298	8369.72
648.65	8311.65
649.002	8373.57
649.355	8353.9
649.707	8456.5
650.059	8448.37
650.411	8547.35
650.763	8560.45
651.115	8587.12
651.467	8582.37
651.819	8626.44
652.171	8589.15
652.523	8673.22
652.875	8636.38
653.227	8530.4
653.578	8569.27
653.93	8583.05
654.282	8499.44
654.633	8551.41
654.985	8607.01
655.337	8567.91
655.688	8541.02
656.039	8666.66
656.391	8575.82
656.742	8549.61
657.094	8578.31
657.445	8611.52
657.796	8569.49
658.147	8638.42
658.498	8582.37
658.849	8631.64
659.2	8620.56
659.551	8587.8
659.902	8657.17
660.253	8567.01
660.604	8638.87
660.955	8585.09
661.306	8697.62
661.656	8618.53
662.007	8631.86
662.358	8692.88
662.708	8665.08
663.059	8692.43
663.409	8639.77
663.76	8676.83
664.11	8682.48
664.461	8645.65
664.811	8716.83
665.161	8655.14
665.511	8665.53
665.862	8678.19
666.212	8694.23
666.562	8740.34
666.912	8701.47
667.262	8710.28
667.612	8674.35
667.962	8704.18
668.312	8660.56
668.662	8697.85
669.011	8689.94
669.361	8676.83
669.711	8696.04
670.06	8682.94
670.41	8666.89
670.76	8607.23
671.109	8638.64
671.459	8670.51
671.808	8660.56
672.157	8690.84
672.507	8595.71
672.856	8624.63
673.205	8624.86
673.554	8658.53
673.904	8583.05
674.253	8596.16
674.602	8647.23
674.951	8414.02
675.3	8496.95
675.649	8583.28
675.998	8556.61
676.346	8564.75
676.695	8510.74
677.044	8493.79
677.393	8494.69
677.741	8476.39
678.09	8449.5
678.438	8510.74
678.787	8526.33
679.135	8522.26
679.484	8365.88
679.832	8461.47
680.181	8531.53
680.529	8386.45
680.877	8387.58
681.225	8404.75
681.573	8443.17
681.922	8369.27
682.27	8326.56
682.618	8311.19
682.966	8319.1
683.314	8297.86
683.661	8264.42
684.009	8217.19
684.357	8260.8
684.705	8198.65
685.053	8289.5
685.4	8272.32
685.748	8153.91
686.095	8109.84
686.443	8068.71
686.79	8167.92
687.138	8130.63
687.485	8050.18
687.832	8076.85
688.18	8124.76
688.527	7997.3
688.874	8033.01
689.221	8001.82
689.568	7957.08
689.915	7904.42
690.262	7899
690.609	7933.35
690.956	7877.53
691.303	7886.57
691.65	7786.69
691.997	7838.89
692.344	7756.86
692.69	7707.37
693.037	7656.52
693.383	7640.03
693.73	7721.6
694.077	7610.87
694.423	7603.87
694.769	7567.71
695.116	7585.79
695.462	7519.58
695.808	7524.77
696.155	7536.07
696.501	7390.54
696.847	7425.79
697.193	7345.34
697.539	7425.57
697.885	7341.5
698.231	7317.55
698.577	7293.59
698.923	7334.27
699.269	7196.87
699.614	7200.49
699.96	7108.97
700.306	7176.99
700.651	7134.05
700.997	7112.81
701.342	7080.72
701.688	7075.97
702.033	7049.76
702.379	7027.39
702.724	6947.84
703.069	6954.62
703.415	6860.38
703.76	6876.66
704.105	6848.41
704.45	6916.88
704.795	6883.89
705.14	6863.32
705.485	6797.79
705.83	6762.08
706.175	6757.79
706.52	6735.64
706.865	6666.04
707.209	6698.13
707.554	6602.09
707.899	6586.04
708.243	6614.97
708.588	6604.35
708.932	6575.19
709.277	6556.89
709.621	6579.94
709.966	6530.9
710.31	6509.43
710.654	6486.84
710.998	6451.13
711.342	6491.81
711.687	6444.12
712.031	6421.07
712.375	6452.71
712.719	6454.97
713.063	6405.48
713.407	6407.29
713.75	6364.8
714.094	6365.71
714.438	6301.53
714.782	6377.69
715.125	6290.23
715.469	6315.77
715.812	6346.05
716.156	6219.95
716.499	6269.67
716.843	6270.8
717.186	6200.06
717.53	6230.8
717.873	6236.67
718.216	6209.1
718.559	6163.68
718.902	6152.61
719.246	6161.87
719.589	6156.9
719.932	6125.26
720.275	6139.5
720.617	6146.51
720.96	6142.89
721.303	6085.49
721.646	6177.01
721.989	6057.24
722.331	6113.06
722.674	6111.93
723.016	6080.07
723.359	6056.79
723.701	6096.34
724.044	6083.91
724.386	6049.33
724.729	6049.56
725.071	5995.77
725.413	6062.44
725.755	6081.65
726.097	6074.19
726.439	5985.38
726.782	5990.58
727.124	6043.68
727.465	5996.9
727.807	6022.67
728.149	6019.73
728.491	6022.89
728.833	6005.04
729.175	6023.57
729.516	6052.04
729.858	5999.39
730.199	5987.64
730.541	5969.33
730.882	5984.25
731.224	6024.02
731.565	6022.21
731.906	5967.07
732.248	6000.52
732.589	6021.54
732.93	6014.76
733.271	6018.82
733.612	6018.6
733.953	5991.48
734.294	6017.69
734.635	5964.81
734.976	6042.1
735.317	6035.1
735.658	5995.32
735.999	6057.02
736.339	5957.36
736.68	6019.5
737.021	6038.94
737.361	6060.18
737.702	6058.37
738.042	5990.8
738.383	6036.23
738.723	6053.85
739.063	6041.88
739.404	6049.56
739.744	6065.83
740.084	6095.43
740.424	6097.69
740.764	6055.66
741.104	6103.57
741.444	6144.7
741.784	6126.17
742.124	6173.4
742.464	6159.39
742.804	6204.81
743.143	6252.26
743.483	6198.71
743.823	6254.3
744.162	6266.28
744.502	6338.36
744.841	6306.95
745.181	6351.02
745.52	6349.44
745.86	6417.91
746.199	6505.59
746.538	6455.42
746.877	6527.96
747.216	6597.57
747.556	6653.61
747.895	6638.24
748.234	6640.96
748.573	6721.18
748.911	6854.51
749.25	6861.74
749.589	6917.11
749.928	6981.29
750.267	7110.32
750.605	7106.03
750.944	7207.04
751.283	7262.86
751.621	7349.41
751.96	7417.21
752.298	7487.49
752.636	7614.94
752.975	7671.89
753.313	7752.79
753.651	7864.2
753.989	7974.25
754.327	8119.33
754.666	8181.25
755.004	8306
755.342	8425.99
755.679	8591.41
756.017	8650.39
756.355	8785.53
756.693	8923.83
757.031	9126.77
757.368	9214
757.706	9337.61
758.044	9483.14
758.381	9632.97
758.719	9812.4
759.056	10010.81
759.394	10171.03
759.731	10191.37
760.068	10445.6
760.405	10539.61
760.743	10706.61
761.08	10940.05
761.417	11070.44
761.754	11233.15
762.091	11352.7
762.428	11614.16
762.765	11676.3
763.102	11952.91
763.438	12110.42
763.775	12198.32
764.112	12420.24
764.449	12613.91
764.785	12743.17
765.122	12853.22
765.458	13003.73
765.795	13152.2
766.131	13408.69
766.467	13534.33
766.804	13649.58
767.14	13751.73
767.476	13938.62
767.812	14124.6
768.148	14328.21
768.485	14353.52
768.821	14409.34
769.157	14566.4
769.492	14694.3
769.828	14949.21
770.164	14960.28
770.5	15065.37
770.836	15221.75
771.171	15259.26
771.507	15389.43
771.842	15439.14
772.178	15570.89
772.513	15613.15
772.849	15692.47
773.184	15785.35
773.519	15945.34
773.855	15970.2
774.19	16054.49
774.525	16159.58
774.86	16273.24
775.195	16400.02
775.53	16346.46
775.865	16347.14
776.2	16423.52
776.535	16442.96
776.87	16469.62
777.205	16559.34
777.539	16571.09
777.874	16686.57
778.209	16649.96
778.543	16676.85
778.878	16780.12
779.212	16809.95
779.547	16736.06
779.881	16913.45
780.215	16894.7
780.55	16986.45
780.884	16795.04
781.218	16891.53
781.552	17076.39
781.886	16988.03
782.22	16845.43
782.554	16995.94
782.888	17003.62
783.222	16851.31
783.556	16925.2
783.889	16906.9
784.223	16854.25
784.557	16841.82
784.89	17016.73
785.224	16870.97
785.557	16873.45
785.891	16793.68
786.224	16904.41
786.558	17038.65
786.891	16734.93
787.224	16743.06
787.557	16827.35
787.891	16828.03
788.224	16817.18
788.557	16832.55
788.89	16802.72
789.223	16695.61
789.556	16758.88
789.888	16866.9
790.221	16659.22
790.554	16646.34
790.887	16681.82
791.219	16569.06
791.552	16712.55
791.884	16480.24
792.217	16501.26
792.549	16474.6
792.882	16403.18
793.214	16375.39
793.546	16416.74
793.879	16342.85
794.211	16333.13
794.543	16392.34
794.875	16354.15
795.207	16305.56
795.539	16331.32
795.871	16344.65
796.203	16175.85
796.535	16104.44
796.867	16084.1
797.198	16061.5
797.53	16115.51
797.862	15963.42
798.193	16186.02
798.525	15980.37
798.856	15956.42
799.188	15793.03
799.519	15820.6
799.85	15723.2
800.182	15688.85
800.513	15804.56
800.844	15581.51
801.175	15764.78
801.506	15661.74
801.837	15667.84
802.168	15651.11
802.499	15628.52
802.83	15472.59
803.161	15549.42
803.491	15537.67
803.822	15457.67
804.153	15445.24
804.483	15385.81
804.814	15280.73
805.145	15155.76
805.475	15305.59
805.805	15238.92
806.136	15243.67
806.466	15106.27
806.796	15243.22
807.126	15032.83
807.457	15025.82
807.787	15052.49
808.117	14980.17
808.447	14840.74
808.777	14970.91
809.107	14863.34
809.436	14809.33
809.766	14912.83
810.096	14768.88
810.426	14701.99
810.755	14730.91
811.085	14781.08
811.414	14664.25
811.744	14541.54
812.073	14569.79
812.403	14575.21
812.732	14514.19
813.061	14481.2
813.39	14499.73
813.719	14422.22
814.049	14505.61
814.378	14407.53
814.707	14456.57
815.036	14429
815.365	14322.11
815.693	14201.43
816.022	14298.16
816.351	14207.76
816.68	14165.73
817.008	14226.29
817.337	14105.84
817.665	14070.82
817.994	14028.33
818.322	14065.62
818.651	14046.86
818.979	13901.1
819.307	14094.32
819.636	14043.02
819.964	13879.64
820.292	13944.49
820.62	13942.23
820.948	13877.83
821.276	13900.65
821.604	13878.96
821.932	13972.06
822.259	13943.81
822.587	13963.47
822.915	13883.7
823.243	13968.67
823.57	13910.59
823.898	13829.24
824.225	13824.72
824.553	13836.25
824.88	13881.67
825.207	13995.11
825.535	13852.29
825.862	13954.89
826.189	13865.62
826.516	13985.85
826.843	13881.44
827.17	13936.58
827.497	13966.41
827.824	13982.01
828.151	13971.16
828.478	13936.81
828.805	13992.4
829.131	13956.02
829.458	13911.27
829.785	13809.35
830.111	13895.91
830.438	13930.93
830.764	13939.07
831.09	13999.86
831.417	13895.45
831.743	13897.71
832.069	13947.66
832.395	13813.87
832.722	13975.45
833.048	13849.13
833.374	13949.24
833.7	13832.18
834.026	13835.34
834.351	13852.74
834.677	13810.71
835.003	13829.47
835.329	13843.03
835.654	13742.69
835.98	13720.32
836.306	13828.56
836.631	13693.88
836.956	13788.11
837.282	13729.81
837.607	13722.35
837.932	13613.2
838.258	13704.5
838.583	13601.68
838.908	13587.67
839.233	13628.79
839.558	13606.2
839.883	13540.43
840.208	13520.55
840.533	13517.16
840.858	13556.25
841.182	13487.33
841.507	13498.18
841.832	13436.71
842.156	13379.99
842.481	13369.82
842.805	13287.56
843.13	13356.71
843.454	13342.47
843.778	13261.57
844.103	13229.48
844.427	13186.77
844.751	13207.79
845.075	13151.74
845.399	13076.27
845.723	12995.36
846.047	13054.35
846.371	12917.4
846.695	12895.48
847.019	12838.31
847.343	12774.13
847.666	12707.91
847.99	12736.39
848.313	12736.16
848.637	12547.01
848.96	12583.4
849.284	12528.71
849.607	12447.13
849.931	12425.89
850.254	12326.68
850.577	12268.38
850.9	12188.38
851.223	12126.91
851.546	12168.49
851.869	12042.17
852.192	12103.64
852.515	11976.41
852.838	12007.37
853.161	11962.4
853.483	11890.99
853.806	11850.54
854.129	11733.02
854.451	11670.2
854.774	11744.78
855.096	11636.98
855.419	11623.2
855.741	11613.71
856.063	11572.35
856.385	11502.97
856.708	11470.43
857.03	11495.52
857.352	11519.7
857.674	11389.31
857.996	11357.22
858.318	11314.96
858.64	11292.36
858.961	11288.52
859.283	11238.35
859.605	11272.02
859.926	11226.82
860.248	11144.34
860.57	11110.67
860.891	11136.88
861.212	11127.62
861.534	10982.08
861.855	11042.87
862.176	11001.52
862.498	11065.92
862.819	10997.22
863.14	10920.84
863.461	10946.15
863.782	10828.64
864.103	10866.15
864.424	10841.3
864.745	10837
865.065	10860.28
865.386	10777.12
865.707	10718.14
866.027	10756.33
866.348	10728.08
866.668	10750
866.989	10761.07
867.309	10703.45
867.63	10689.89
867.95	10660.51
868.27	10568.76
868.59	10645.37
868.91	10575.99
869.23	10542.55
869.55	10538.71
869.87	10618.48
870.19	10546.39
870.51	10533.06
870.83	10541.64
871.15	10492.38
871.469	10507.29
871.789	10504.36
872.109	10372.16
872.428	10387.98
872.748	10430.46
873.067	10447.18
873.386	10365.6
873.706	10471.82
874.025	10310.01
874.344	10378.71
874.663	10307.98
874.982	10288.32
875.301	10339.62
875.62	10229.56
875.939	10181.88
876.258	10287.19
876.577	10214.87
876.896	10195.44
877.214	10223.23
877.533	10140.07
877.852	10150.69
878.17	10084.03
878.489	10115.44
878.807	10088.1
879.125	10143.46
879.444	10084.71
879.762	10031.6
880.08	10074.76
880.398	10005.39
880.716	10006.74
881.034	9964.26
881.352	9992.96
881.67	9898.72
881.988	9987.08
882.306	9895.56
882.624	9915.45
882.941	9823.24
883.259	9810.36
883.577	9764.49
883.894	9752.06
884.212	9750.93
884.529	9714.32
884.846	9669.35
885.164	9664.38
885.481	9655.11
885.798	9714.32
886.115	9541.22
886.432	9576.25
886.75	9545.51
887.067	9534.66
887.383	9526.76
887.7	9571.73
888.017	9488.79
888.334	9477.04
888.651	9422.58
888.967	9383.93
889.284	9362.69
889.6	9351.17
889.917	9286.76
890.233	9356.82
890.55	9227.33
890.866	9243.82
891.182	9265.07
891.498	9188.01
891.815	9131.06
892.131	9106.88
892.447	9158.63
892.763	9075.69
893.079	9030.5
893.395	9042.7
893.71	9060.33
894.026	8908.92
894.342	8974
894.657	8922.7
894.973	8948.24
895.289	8908.24
895.604	8856.72
895.92	8795.25
896.235	8758.64
896.55	8812.42
896.865	8733.78
897.181	8658.3
897.496	8670.51
897.811	8637.06
898.126	8537.18
898.441	8538.53
898.756	8482.71
899.071	8460.34
899.386	8518.65
899.7	8387.35
900.015	8345.54
900.33	8301.02
900.644	8350.97
900.959	8294.92
901.273	8336.96
901.588	8259.44
901.902	8156.17
902.216	8118.43
902.531	8171.99
902.845	8138.77
903.159	8055.83
903.473	8068.04
903.787	8020.13
904.101	7991.65
904.415	7944.65
904.729	7930.64
905.042	7909.4
905.356	7932.45
905.67	7835.95
905.984	7818.1
906.297	7809.96
906.611	7780.59
906.924	7753.92
907.237	7685
907.551	7749.63
907.864	7625.56
908.177	7602.29
908.491	7578.78
908.804	7543.76
909.117	7482.06
909.43	7494.72
909.743	7464.89
910.056	7444.1
910.368	7404.1
910.681	7356.42
910.994	7361.16
911.307	7348.06
911.619	7277.1
911.932	7305.57
912.244	7223.76
912.557	7168.4
912.869	7072.36
913.181	7182.64
913.494	7101.51
913.806	7098.12
914.118	7037.33
914.43	7009.31
914.742	6983.32
915.054	6993.26
915.366	6929.54
915.678	6864.9
915.99	6839.59
916.302	6803.44
916.613	6792.82
916.925	6745.13
917.236	6780.16
917.548	6680.05
917.859	6725.92
918.171	6625.81
918.482	6660.39
918.794	6599.6
919.105	6626.72
919.416	6548.3
919.727	6497
920.038	6563.44
920.349	6477.12
920.66	6494.29
920.971	6469.66
921.282	6445.03
921.593	6404.35
921.903	6410
922.214	6356.67
922.525	6295.43
922.835	6376.33
923.146	6244.36
923.456	6252.26
923.767	6209.55
924.077	6133.4
924.387	6177.69
924.697	6052.5
925.008	6107.18
925.318	6090.01
925.628	6105.83
925.938	6047.3
926.248	6002.55
926.558	5980.41
926.867	5962.78
927.177	5923.69
927.487	5895.44
927.796	5857.25
928.106	5854.31
928.416	5816.8
928.725	5798.27
929.034	5739.28
929.344	5817.25
929.653	5743.35
929.962	5706.29
930.271	5675.11
930.581	5674.43
930.89	5655.22
931.199	5584.49
931.508	5547.65
931.817	5606.18
932.125	5545.62
932.434	5574.09
932.743	5509.69
933.051	5472.62
933.36	5455.45
933.669	5418.16
933.977	5434.66
934.286	5428.56
934.594	5412.97
934.902	5375.9
935.21	5343.59
935.519	5320.31
935.827	5286.87
936.135	5260.43
936.443	5202.35
936.751	5209.35
937.059	5218.62
937.367	5194.21
937.674	5182.24
937.982	5139.53
938.29	5077.61
938.597	5100.2
938.905	5042.58
939.213	5003.03
939.52	5001.68
939.827	5029.25
940.135	5012.98
940.442	4996.25
940.749	4979.76
941.056	4951.96
941.363	4923.94
941.67	4895.69
941.977	4879.42
942.284	4847.33
942.591	4832.87
942.898	4765.52
943.205	4779.99
943.511	4780.67
943.818	4777.05
944.125	4724.4
944.431	4704.96
944.738	4759.65
945.044	4660.67
945.35	4642.82
945.657	4583.61
945.963	4610.5
946.269	4575.7
946.575	4585.87
946.881	4540.45
947.187	4512.88
947.493	4494.12
947.799	4523.72
948.105	4474.46
948.41	4412.99
948.716	4479.2
949.022	4415.03
949.327	4408.92
949.633	4347.46
949.938	4371.41
950.244	4305.2
950.549	4302.49
950.854	4319.89
951.16	4258.65
951.465	4269.04
951.77	4243.05
952.075	4214.8
952.38	4229.27
952.685	4203.73
952.99	4180
953.294	4148.59
953.599	4150.4
953.904	4103.85
954.209	4036.05
954.513	4071.76
954.818	4051.87
955.122	4049.84
955.426	4001.48
955.731	4017.75
956.035	4036.05
956.339	3981.14
956.643	3971.2
956.948	3931.42
957.252	3924.64
957.556	3928.94
957.86	3944.76
958.163	3928.03
958.467	3906.79
958.771	3858.88
959.075	3855.27
959.378	3775.72
959.682	3820.01
959.985	3800.35
960.289	3749.05
960.592	3737.53
960.896	3773.91
961.199	3736.4
961.502	3711.99
961.805	3689.62
962.108	3700.47
962.411	3688.26
962.714	3641.71
963.017	3667.25
963.32	3587.25
963.623	3588.83
963.926	3579.57
964.228	3615.95
964.531	3550.87
964.833	3536.86
965.136	3490.53
965.438	3508.16
965.741	3500.02
966.043	3443.07
966.345	3455.28
966.648	3430.19
966.95	3452.11
967.252	3413.47
967.554	3384.54
967.856	3373.92
968.158	3360.59
968.46	3341.16
968.761	3361.95
969.063	3342.06
969.365	3340.93
969.666	3323.98
969.968	3272
970.269	3265.45
970.571	3257.32
970.872	3242.63
971.174	3198.11
971.475	3237.2
971.776	3192.01
972.077	3202.4
972.378	3192.46
972.679	3156.08
972.98	3139.8
973.281	3175.74
973.582	3127.6
973.883	3099.35
974.183	3077.89
974.484	3083.76
974.785	3093.7
975.085	3052.12
975.386	3045.12
975.686	3034.95
975.986	3055.51
976.287	2959.02
976.587	2949.53
976.887	2910.21
977.187	2985.91
977.487	2940.49
977.787	2923.31
978.087	2926.25
978.387	2907.95
978.687	2900.04
978.987	2866.82
979.286	2901.39
979.586	2851.68
979.885	2829.76
980.185	2843.77
980.484	2789.31
980.784	2814.62
981.083	2834.73
981.382	2812.81
981.682	2771
981.981	2727.39
982.28	2760.15
982.579	2716.54
982.878	2712.92
983.177	2704.56
983.475	2690.32
983.774	2669.53
984.073	2662.53
984.372	2677.9
984.67	2613.26
984.969	2634.96
985.267	2652.81
985.566	2615.3
985.864	2599.48
986.162	2546.83
986.461	2592.93
986.759	2577.33
987.057	2547.28
987.355	2536.66
987.653	2532.81
987.951	2540.5
988.249	2503.66
988.547	2472.03
988.844	2495.08
989.142	2481.06
989.44	2456.88
989.737	2462.31
990.035	2437.45
990.332	2421.63
990.63	2369.66
990.927	2405.13
991.224	2394.29
991.521	2367.4
991.819	2375.76
992.116	2389.77
992.413	2337.34
992.71	2328.3
993.006	2316.1
993.303	2315.87
993.6	2288.3
993.897	2312.03
994.193	2295.76
994.49	2291.01
994.787	2240.39
995.083	2258.25
995.379	2249.66
995.676	2223.22
995.972	2213.05
996.268	2222.09
996.565	2193.16
996.861	2197
997.157	2202.43
997.453	2179.15
997.749	2130.79
998.044	2146.38
998.34	2168.08
998.636	2131.02
998.932	2099.61
999.227	2121.98
999.523	2089.89
999.818	2079.27
1000.114	2022.32
1000.409	2080.4
1000.704	2022.32
1001	2022.09
1001.295	2015.09
1001.59	2042.43
1001.885	2002.89
1002.18	1990.91
1002.475	1972.38
1002.77	1968.76
1003.065	1973.96
1003.359	1972.15
1003.654	1953.17
1003.949	1915.88
1004.243	1924.7
1004.538	1889.67
1004.832	1896.67
1005.127	1913.85
1005.421	1880.85
1005.715	1875.66
1006.009	1847.64
1006.304	1849.89
1006.598	1849.22
1006.892	1841.31
1007.186	1803.34
1007.48	1802.21
1007.773	1800.86
1008.067	1785.49
1008.361	1771.48
1008.655	1771.93
1008.948	1732.38
1009.242	1743.01
1009.535	1754.3
1009.829	1716.79
1010.122	1696
1010.415	1710.46
1010.708	1698.94
1011.001	1664.36
1011.295	1660.75
1011.588	1647.41
1011.881	1662.56
1012.173	1653.06
1012.466	1625.49
1012.759	1645.83
1013.052	1613.29
1013.344	1636.12
1013.637	1604.48
1013.93	1593.63
1014.222	1580.75
1014.514	1576.23
1014.807	1546.63
1015.099	1556.12
1015.391	1550.92
1015.683	1557.93
1015.976	1543.01
1016.268	1531.03
1016.56	1498.72
1016.851	1491.49
1017.143	1467.31
1017.435	1495.55
1017.727	1458.49
1018.018	1481.09
1018.31	1468.44
1018.602	1453.97
1018.893	1434.31
1019.185	1430.92
1019.476	1427.31
1019.767	1417.59
1020.058	1408.1
1020.35	1351.15
1020.641	1384.14
1020.932	1347.99
1021.223	1377.14
1021.514	1372.85
1021.804	1351.38
1022.095	1366.29
1022.386	1340.53
1022.677	1312.96
1022.967	1308.89
1023.258	1307.99
1023.548	1287.2
1023.839	1299.85
1024.129	1287.65
1024.419	1279.29
1024.709	1238.84
1025	1260.08
1025.29	1230.02
1025.58	1227.99
1025.87	1221.21
1026.16	1242.45
1026.449	1217.82
1026.739	1219.18
1027.029	1204.49
1027.319	1208.1
1027.608	1198.39
1027.898	1207.65
1028.187	1205.62
1028.477	1165.62
1028.766	1162.68
1029.055	1150.7
1029.344	1132.17
1029.634	1126.3
1029.923	1143.92
1030.212	1115.9
1030.501	1114.55
1030.79	1094.89
1031.078	1096.47
1031.367	1095.11
1031.656	1078.39
1031.945	1099.18
1032.233	1063.02
1032.522	1039.75
1032.81	1085.85
1033.099	1026.64
1033.387	1062.57
1033.675	1040.65
1033.963	1030.03
1034.251	1026.41
1034.54	1045.62
1034.828	994.55
1035.116	1013.53
1035.403	989.58
1035.691	996.13
1035.979	992.74
1036.267	978.96
1036.554	978.51
1036.842	976.7
1037.129	943.03
1037.417	941.44
1037.704	933.31
1037.992	958.84
1038.279	947.32
1038.566	930.6
1038.853	930.6
1039.14	930.6
