Data from hue_90_FLMS001491_52.txt Node
Date: Mon Feb 06 15:25:19 GMT 2017
User: dcchb
Spectrometer: FLMS00149
Trigger mode: 0
Integration Time (sec): 2.000000E-2
Scans to average: 10
Electric dark correction enabled: true
Nonlinearity correction enabled: false
Boxcar width: 0
XAxis mode: Wavelengths
Number of Pixels in Spectrum: 2048
>>>>>Begin Spectral Data<<<<<
341.393	-3.02
341.776	-3.02
342.16	-3.02
342.543	-78.5
342.927	-86.64
343.31	-77.6
343.693	-75.79
344.077	-62.23
344.46	-51.83
344.843	-42.34
345.226	-31.04
345.61	-22.01
345.993	-23.13
346.376	3.53
346.759	-4.83
347.142	24.77
347.525	31.55
347.908	48.95
348.291	79.91
348.674	91.66
349.057	110.42
349.44	122.4
349.823	145.9
350.206	148.39
350.588	186.35
350.971	199.46
351.354	201.04
351.737	218.44
352.119	228.38
352.502	243.75
352.884	267.7
353.267	268.61
353.65	288.95
354.032	286.69
354.414	290.98
354.797	300.92
355.179	304.77
355.562	322.84
355.944	317.42
356.326	297.08
356.709	317.87
357.091	316.52
357.473	337.76
357.855	327.36
358.238	308.38
358.62	323.75
359.002	351.54
359.384	320.36
359.766	311.77
360.148	315.61
360.53	348.15
360.912	339.79
361.294	331.88
361.676	323.3
362.057	328.27
362.439	326.01
362.821	314.48
363.203	295.05
363.584	314.71
363.966	294.14
364.348	319.45
364.729	305.22
365.111	303.41
365.493	302.96
365.874	307.03
366.256	297.08
366.637	316.97
367.019	301.15
367.4	306.8
367.781	314.94
368.163	290.08
368.544	307.7
368.925	301.83
369.306	307.48
369.688	279.46
370.069	325.56
370.45	307.7
370.831	307.03
371.212	298.66
371.593	313.13
371.974	303.41
372.355	316.07
372.736	313.81
373.117	302.05
373.498	315.39
373.879	309.06
374.26	305.67
374.641	319.23
375.021	295.27
375.402	302.96
375.783	314.94
376.163	320.36
376.544	320.36
376.925	318.32
377.305	316.97
377.686	288.72
378.066	310.42
378.447	331.21
378.827	323.52
379.208	321.04
379.588	320.81
379.968	314.26
380.349	330.53
380.729	330.3
381.109	330.3
381.489	332.34
381.87	314.03
382.25	318.55
382.63	311.55
383.01	321.26
383.39	328.04
383.77	340.02
384.15	319
384.53	335.73
384.91	333.92
385.29	343.41
385.67	334.37
386.049	340.47
386.429	323.97
386.809	340.7
387.189	341.38
387.568	355.16
387.948	361.26
388.328	333.92
388.707	354.93
389.087	347.7
389.466	352
389.846	349.06
390.225	362.62
390.605	363.52
390.984	368.04
391.363	333.69
391.743	333.69
392.122	358.55
392.501	370.3
392.881	361.26
393.26	364.65
393.639	334.14
394.018	367.14
394.397	373.69
394.776	354.48
395.155	339.57
395.534	358.1
395.913	373.01
396.292	393.13
396.671	382.73
397.05	374.59
397.429	376.63
397.808	368.95
398.186	353.58
398.565	373.46
398.944	380.92
399.323	377.53
399.701	406.91
400.08	384.76
400.458	392
400.837	398.32
401.215	387.48
401.594	390.87
401.972	393.35
402.351	383.41
402.729	377.53
403.107	387.02
403.486	401.03
403.864	399.9
404.242	416.85
404.62	397.64
404.999	391.77
405.377	405.33
405.755	411.66
406.133	410.75
406.511	397.19
406.889	405.55
407.267	417.08
407.645	419.11
408.023	418.21
408.401	446.91
408.779	394.26
409.156	419.11
409.534	434.03
409.912	457.76
410.29	418.21
410.667	419.57
411.045	417.98
411.422	423.18
411.8	448.04
412.178	442.84
412.555	439.45
412.933	450.52
413.31	469.73
413.687	479.9
414.065	462.5
414.442	461.6
414.819	472.9
415.197	456.4
415.574	463.86
415.951	474.03
416.328	479.22
416.705	481.94
417.082	474.71
417.46	454.82
417.837	493.46
418.214	483.52
418.591	489.62
418.967	495.5
419.344	525.33
419.721	494.14
420.098	493.69
420.475	500.02
420.852	500.47
421.228	513.8
421.605	517.42
421.982	535.95
422.358	519.68
422.735	533.01
423.111	553.57
423.488	526.46
423.864	527.13
424.241	548.15
424.617	533.69
424.994	520.81
425.37	544.53
425.746	570.52
426.123	535.04
426.499	538.66
426.875	547.47
427.251	574.82
427.627	574.82
428.003	539.34
428.379	591.31
428.756	578.21
429.132	593.12
429.507	582.5
429.883	579.34
430.259	581.59
430.635	594.93
431.011	576.62
431.387	590.86
431.763	614.81
432.138	632.44
432.514	619.33
432.89	634.25
433.265	634.7
433.641	649.16
434.016	660.24
434.392	661.14
434.767	680.35
435.143	646.45
435.518	666.34
435.894	667.24
436.269	663.17
436.644	688.71
437.02	663.4
437.395	701.14
437.77	697.75
438.145	704.08
438.52	700.01
438.895	706.34
439.271	698.88
439.646	716.28
440.021	740.91
440.395	741.14
440.77	730.07
441.145	722.83
441.52	744.53
441.895	753.57
442.27	728.94
442.645	755.6
443.019	772.55
443.394	773.68
443.769	790.4
444.143	748.14
444.518	787.92
444.892	781.82
445.267	788.6
445.641	816.84
446.016	800.12
446.39	801.48
446.764	822.04
447.139	820.46
447.513	823.4
447.887	799.67
448.262	814.81
448.636	834.24
449.01	825.2
449.384	848.48
449.758	849.61
450.132	844.86
450.506	879.89
450.88	865.43
451.254	868.37
451.628	842.6
452.002	875.6
452.376	883.28
452.75	921.02
453.123	922.15
453.497	907.91
453.871	939.78
454.244	928.7
454.618	945.43
454.992	951.3
455.365	943.39
455.739	954.92
456.112	954.01
456.486	982.49
456.859	1008.02
457.232	1010.96
457.606	1017.29
457.979	1037.4
458.352	1043.5
458.725	1050.28
459.099	1057.74
459.472	1068.14
459.845	1108.59
460.218	1093.67
460.591	1126.89
460.964	1112.2
461.337	1128.7
461.71	1144.29
462.083	1166.44
462.456	1151.52
462.829	1185.65
463.201	1216.61
463.574	1202.6
463.947	1256.15
464.32	1275.59
464.692	1263.16
465.065	1298.86
465.438	1277.4
465.81	1309.49
466.183	1339.77
466.555	1346.09
466.928	1385.42
467.3	1392.65
467.672	1414.57
468.045	1457.73
468.417	1471.06
468.789	1483.04
469.161	1511.06
469.534	1555.13
469.906	1554.68
470.278	1566.2
470.65	1611.17
471.022	1638.29
471.394	1661.11
471.766	1682.36
472.138	1726.2
472.51	1779.76
472.882	1799.42
473.253	1824.05
473.625	1860.43
473.997	1903.14
474.369	1925.29
474.74	1943.59
475.112	2010.03
475.484	2063.36
475.855	2117.37
476.227	2152.4
476.598	2204.6
476.97	2262.45
477.341	2343.58
477.713	2383.81
478.084	2387.65
478.455	2512.17
478.827	2566.85
479.198	2636.46
479.569	2689.79
479.94	2754.19
480.311	2820.63
480.682	2964.36
481.053	3021.53
481.424	3085.94
481.795	3165.48
482.166	3256.78
482.537	3324.8
482.908	3384.91
483.279	3518.92
483.65	3619.71
484.021	3665.36
484.391	3866.25
484.762	3886.82
485.133	3952.58
485.503	4051.11
485.874	4208.17
486.244	4299.24
486.615	4446.13
486.985	4535.16
487.356	4639.34
487.726	4743.07
488.097	4862.61
488.467	4944.42
488.837	5157.75
489.207	5266.22
489.578	5369.49
489.948	5466.21
490.318	5637.73
490.688	5705.08
491.058	5808.12
491.428	5927.22
491.798	6090.15
492.168	6256.02
492.538	6331.5
492.908	6470.48
493.278	6608.56
493.648	6696.91
494.017	6815.78
494.387	6915.21
494.757	7035.89
495.126	7140.52
495.496	7288.31
495.866	7406.5
496.235	7512.49
496.605	7670.9
496.974	7727.17
497.344	7898.69
497.713	7928.29
498.082	8029.53
498.452	8194.28
498.821	8293.03
499.19	8389.3
499.559	8440.37
499.928	8598.79
500.298	8648.5
500.667	8806.46
501.036	8820.47
501.405	8937.76
501.774	8990.41
502.143	9161.48
502.512	9158.54
502.88	9352.21
503.249	9319.44
503.618	9445.54
503.987	9541.13
504.356	9583.17
504.724	9656.16
505.093	9738.42
505.462	9813.89
505.83	9887.56
506.199	9935.7
506.567	10158.52
506.936	10099.76
507.304	10249.36
507.672	10274
508.041	10372.07
508.409	10417.72
508.777	10523.25
509.145	10529.81
509.514	10571.61
509.882	10621.33
510.25	10731.84
510.618	10792.85
510.986	10880.99
511.354	10857.48
511.722	10960.31
512.09	11054.77
512.458	11015.67
512.826	11148.77
513.193	11166.18
513.561	11210.47
513.929	11228.77
514.297	11378.6
514.664	11353.29
515.032	11405.27
515.4	11455.66
515.767	11497.01
516.135	11590.57
516.502	11462.66
516.869	11731.58
517.237	11683.45
517.604	11679.61
517.972	11741.3
518.339	11811.81
518.706	11754.18
519.073	11876.21
519.44	11891.81
519.808	11873.05
520.175	11834.63
520.542	12106.49
520.909	12073.04
521.276	12083.21
521.643	12180.16
522.009	12117.79
522.376	12172.93
522.743	12282.3
523.11	12224.68
523.477	12217.9
523.843	12331.12
524.21	12461.28
524.577	12520.26
524.943	12472.58
525.31	12546.93
525.676	12610.43
526.043	12651.33
526.409	12648.85
526.776	12733.37
527.142	12669.86
527.508	12681.39
527.874	12706.7
528.241	12812.01
528.607	12673.71
528.973	12766.13
529.339	12785.79
529.705	12847.26
530.071	12917.32
530.437	12884.55
530.803	12884.77
531.169	12850.2
531.535	12873.7
531.901	12874.38
532.267	12815.4
532.632	12892.01
532.998	12925.9
533.364	12853.36
533.73	12838.9
534.095	12933.36
534.461	12814.95
534.826	12915.06
535.192	12900.14
535.557	12870.31
535.923	12830.09
536.288	12828.5
536.653	12796.19
537.019	12738.56
537.384	12833.7
537.749	12743.31
538.114	12761.61
538.479	12673.03
538.845	12791.22
539.21	12687.04
539.575	12638.45
539.94	12628.06
540.305	12703.08
540.67	12599.81
541.034	12593.71
541.399	12591.9
541.764	12538.34
542.129	12529.76
542.494	12509.64
542.858	12493.6
543.223	12486.37
543.587	12494.05
543.952	12451.79
544.316	12431.23
544.681	12323.88
545.045	12346.71
545.41	12363.43
545.774	12279.59
546.138	12239.37
546.503	12221.06
546.867	12212.7
547.231	12306.71
547.595	12185.81
547.959	12173.83
548.324	12196.2
548.688	12099.48
549.052	12209.54
549.416	12152.14
549.779	12050.45
550.143	12003.67
550.507	12052.71
550.871	12032.37
551.235	11894.97
551.599	11983.33
551.962	11998.7
552.326	11907.17
552.689	11891.13
553.053	11873.5
553.417	11843.45
553.78	11872.82
554.143	11752.83
554.507	11856.55
554.87	11781.53
555.234	11919.83
555.597	11781.98
555.96	11778.81
556.323	11767.74
556.686	11704.24
557.05	11715.54
557.413	11678.25
557.776	11654.3
558.139	11759.15
558.502	11720.51
558.865	11672.15
559.228	11700.4
559.59	11698.59
559.953	11700.4
560.316	11766.61
560.679	11725.03
561.041	11837.57
561.404	11789.66
561.767	11768.19
562.129	11689.78
562.492	11786.95
562.854	11820.4
563.217	11726.61
563.579	11697.91
563.941	11710.12
564.304	11824.69
564.666	11815.42
565.028	11830.79
565.39	11818.14
565.753	11892.48
566.115	11923.67
566.477	11884.8
566.839	11840.51
567.201	11938.36
567.563	11889.32
567.925	12031.24
568.287	11887.06
568.648	11985.14
569.01	11998.24
569.372	11993.05
569.734	11930.45
570.095	12020.62
570.457	12069.88
570.819	11960.28
571.18	12038.92
571.542	12059.94
571.903	12099.71
572.265	12063.55
572.626	12071.69
572.987	12154.4
573.349	12197.11
573.71	12078.24
574.071	12129.31
574.432	12133.38
574.794	12185.13
575.155	12189.43
575.516	12095.64
575.877	12136.77
576.238	12174.06
576.599	12247.5
576.96	12185.58
577.32	12142.87
577.681	12243.44
578.042	12213.38
578.403	12186.94
578.763	12131.8
579.124	12198.46
579.485	12264.23
579.845	12252.7
580.206	12139.71
580.566	12169.31
580.927	12243.89
581.287	12169.54
581.648	12209.31
582.008	12289.31
582.368	12231.68
582.728	12285.69
583.089	12237.56
583.449	12167.73
583.809	12221.74
584.169	12182.42
584.529	12174.28
584.889	12208.63
585.249	12124.12
585.609	12065.81
585.969	12181.74
586.329	12152.82
586.688	12168.86
587.048	12177.45
587.408	12118.24
587.768	12037.56
588.127	12120.95
588.487	12116.88
588.846	12148.75
589.206	12055.42
589.565	12061.97
589.925	12102.65
590.284	12062.87
590.643	12084.34
591.003	12094.51
591.362	12141.97
591.721	12050.67
592.08	12068.07
592.44	12077.79
592.799	12046.38
593.158	12070.33
593.517	11991.24
593.876	12020.39
594.235	11987.85
594.593	11952.37
594.952	12042.54
595.311	11927.29
595.67	12047.51
596.029	12016.55
596.387	12025.14
596.746	11988.98
597.104	11905.82
597.463	12006.83
597.822	11988.53
598.18	11916.44
598.538	11914.63
598.897	11892.71
599.255	11840.28
599.613	12030.79
599.972	11950.34
600.33	11983.55
600.688	11952.14
601.046	12002.99
601.404	11955.76
601.762	11939.49
602.12	11986.49
602.478	11981.75
602.836	11992.14
603.194	11882.31
603.552	11929.55
603.91	11864.01
604.268	11922.77
604.625	11953.05
604.983	11948.3
605.341	11845.03
605.698	11993.5
606.056	11991.92
606.413	11942.43
606.771	12029.66
607.128	11948.98
607.485	11976.32
607.843	11963.89
608.2	12062.2
608.557	12064.46
608.914	11951.24
609.272	12060.16
609.629	12000.28
609.986	12031.69
610.343	12009.99
610.7	12147.84
611.057	12000.96
611.414	12016.77
611.771	12041.63
612.127	12022.2
612.484	12081.63
612.841	12122.08
613.198	12078.47
613.554	12118.01
613.911	12179.93
614.267	12096.32
614.624	12073.04
614.98	12153.95
615.337	12171.57
615.693	12234.62
616.05	12145.58
616.406	12275.07
616.762	12154.4
617.118	12177.67
617.475	12111.01
617.831	12176.54
618.187	12162.99
618.543	12210.67
618.899	12333.83
619.255	12204.57
619.611	12252.47
619.967	12338.35
620.323	12296.09
620.678	12250.67
621.034	12184.91
621.39	12292.47
621.746	12192.36
622.101	12359.36
622.457	12297.45
622.812	12288.86
623.168	12284.79
623.523	12287.5
623.879	12323.66
624.234	12274.17
624.589	12275.75
624.945	12289.54
625.3	12258.8
625.655	12294.96
626.01	12295.19
626.365	12320.5
626.72	12218.58
627.075	12304
627.43	12306.48
627.785	12300.38
628.14	12229.65
628.495	12292.7
628.85	12276.65
629.205	12140.39
629.559	12334.73
629.914	12185.13
630.269	12281.85
630.623	12177.67
630.978	12167.96
631.332	12215.87
631.687	12209.99
632.041	12203.89
632.396	12230.78
632.75	12061.52
633.104	12126.83
633.459	12089.09
633.813	12067.39
634.167	12081.86
634.521	12039.6
634.875	12106.26
635.229	12054.51
635.583	12002.99
635.937	11997.34
636.291	12006.83
636.645	11946.27
636.999	11947.62
637.352	11961.41
637.706	11891.13
638.06	11988.98
638.413	11898.36
638.767	11873.73
639.121	11873.73
639.474	11826.04
639.828	11849.55
640.181	11771.13
640.534	11907.85
640.888	11799.38
641.241	11740.17
641.594	11766.61
641.947	11834.63
642.301	11805.25
642.654	11773.84
643.007	11763.22
643.36	11774.75
643.713	11694.3
644.066	11728.42
644.419	11753.73
644.771	11673.96
645.124	11498.82
645.477	11466.05
645.83	11400.29
646.182	11429.22
646.535	11336.57
646.888	11382.89
647.24	11304.25
647.593	11416.11
647.945	11381.54
648.298	11308.32
648.65	11285.27
649.002	11257.92
649.355	11329.79
649.707	11228.77
650.059	11350.8
650.411	11417.24
650.763	11603.9
651.115	11581.98
651.467	11513.96
651.819	11571.36
652.171	11532.27
652.523	11597.12
652.875	11553.28
653.227	11481.2
653.578	11498.37
653.93	11553.74
654.282	11508.77
654.633	11541.76
654.985	11525.94
655.337	11546.05
655.688	11517.13
656.039	11641.87
656.391	11465.83
656.742	11520.97
657.094	11487.97
657.445	11599.38
657.796	11573.4
658.147	11591.47
658.498	11538.82
658.849	11561.19
659.2	11527.52
659.551	11520.74
659.902	11587.63
660.253	11570.01
660.604	11613.4
660.955	11570.46
661.306	11628.54
661.656	11553.28
662.007	11543.34
662.358	11586.73
662.708	11585.15
663.059	11605.03
663.409	11571.14
663.76	11696.33
664.11	11706.27
664.461	11658.82
664.811	11591.93
665.161	11646.16
665.511	11625.6
665.862	11574.07
666.212	11644.58
666.562	11624.69
666.912	11635.77
667.262	11587.63
667.612	11657.46
667.962	11623.34
668.312	11622.43
668.662	11617.46
669.011	11651.59
669.361	11562.78
669.711	11568.2
670.06	11635.77
670.41	11580.63
670.76	11495.66
671.109	11556.22
671.459	11567.29
671.808	11551.93
672.157	11577.24
672.507	11509.9
672.856	11560.52
673.205	11573.4
673.554	11560.74
673.904	11500.63
674.253	11509.44
674.602	11445.94
674.951	11385.6
675.3	11336.57
675.649	11483
675.998	11513.96
676.346	11491.14
676.695	11486.17
677.044	11405.04
677.393	11515.77
677.741	11486.39
678.09	11447.3
678.438	11380.41
678.787	11403.68
679.135	11367.75
679.484	11346.96
679.832	11349.22
680.181	11293.86
680.529	11335.44
680.877	11305.38
681.225	11242.56
681.573	11319.39
681.922	11231.26
682.27	11181.32
682.618	11191.03
682.966	11187.42
683.314	11164.14
683.661	11158.72
684.009	11038.5
684.357	11073.3
684.705	11028.1
685.053	11004.82
685.4	11032.85
685.748	10949.68
686.095	10979.51
686.443	10874.43
686.79	10875.34
687.138	10902.45
687.485	10826.75
687.832	10870.14
688.18	10805.51
688.527	10775.9
688.874	10742.68
689.221	10730.03
689.568	10735.23
689.915	10631.95
690.262	10652.52
690.609	10620.43
690.956	10602.35
691.303	10576.36
691.65	10506.31
691.997	10516.02
692.344	10441.9
692.69	10492.75
693.037	10456.59
693.383	10277.61
693.73	10369.59
694.077	10271.28
694.423	10281.23
694.769	10224.28
695.116	10169.14
695.462	10207.1
695.808	10194.9
696.155	10082.36
696.501	10061.8
696.847	10052.31
697.193	9964.17
697.539	10017.05
697.885	9876.72
698.231	9899.09
698.577	9846.89
698.923	9855.48
699.269	9768.25
699.614	9694.35
699.96	9687.34
700.306	9679.89
700.651	9670.62
700.997	9586.56
701.342	9630.85
701.688	9545.2
702.033	9505.43
702.379	9506.56
702.724	9448.93
703.069	9515.37
703.415	9327.81
703.76	9333.23
704.105	9349.27
704.45	9309.05
704.795	9272.44
705.14	9239.67
705.485	9260.24
705.83	9168.71
706.175	9232.67
706.52	9207.13
706.865	9103.86
707.209	9130.52
707.554	9055.27
707.899	9085.33
708.243	9055.04
708.588	9014.14
708.932	8947.48
709.277	8961.49
709.621	8887.82
709.966	8884.43
710.31	8886.69
710.654	8766.92
710.998	8782.06
711.342	8806.69
711.687	8789.74
712.031	8714.71
712.375	8681.72
712.719	8731.44
713.063	8672.91
713.407	8764.43
713.75	8666.35
714.094	8690.76
714.438	8636.52
714.782	8588.84
715.125	8610.54
715.469	8560.37
715.812	8570.76
716.156	8520.6
716.499	8482.63
716.843	8500.71
717.186	8453.48
717.53	8497.32
717.873	8515.4
718.216	8402.41
718.559	8410.09
718.902	8383.2
719.246	8421.84
719.589	8370.09
719.932	8363.09
720.275	8331.22
720.617	8314.27
720.96	8358.34
721.303	8294.16
721.646	8331.45
721.989	8251.68
722.331	8297.1
722.674	8276.31
723.016	8255.52
723.359	8245.8
723.701	8251.68
724.044	8205.12
724.386	8151.34
724.729	8212.58
725.071	8182.3
725.413	8217.55
725.755	8217.78
726.097	8156.31
726.439	8148.4
726.782	8157.21
727.124	8185.46
727.465	8156.54
727.807	8136.2
728.149	8139.81
728.491	8169.19
728.833	8151.79
729.175	8168.97
729.516	8115.18
729.858	8172.36
730.199	8162.19
730.541	8143.43
730.882	8101.85
731.224	8160.15
731.565	8093.26
731.906	8125.13
732.248	8127.61
732.589	8070.66
732.93	8125.8
733.271	8118.57
733.612	8116.31
733.953	8072.25
734.294	8073.6
734.635	8106.82
734.976	8135.97
735.317	8101.85
735.658	8080.38
735.999	8107.05
736.339	8090.55
736.68	8124.45
737.021	8054.84
737.361	8039.93
737.702	8148.18
738.042	8133.03
738.383	8174.39
738.723	8171
739.063	8077.22
739.404	8136.65
739.744	8189.76
740.084	8090.32
740.424	8154.73
740.764	8169.42
741.104	8254.84
741.444	8137.1
741.784	8153.37
742.124	8235.4
742.464	8184.78
742.804	8155.18
743.143	8236.53
743.483	8272.01
743.823	8296.42
744.162	8327.83
744.502	8324.22
744.841	8291.9
745.181	8463.87
745.52	8354.72
745.86	8443.99
746.199	8420.48
746.538	8502.74
746.877	8530.76
747.216	8549.75
747.556	8560.82
747.895	8682.85
748.234	8631.33
748.573	8746.58
748.911	8798.55
749.25	8842.17
749.589	8845.11
749.928	8935.27
750.267	8998.32
750.605	9062.73
750.944	9079.22
751.283	9159.9
751.621	9251.88
751.96	9341.59
752.298	9462.49
752.636	9506.33
752.975	9565.31
753.313	9641.7
753.651	9779.77
753.989	9829.71
754.327	9962.37
754.666	9986.32
755.004	10110.38
755.342	10274
755.679	10344.95
756.017	10420.21
756.355	10591.95
756.693	10687.54
757.031	10779.07
757.368	10891.83
757.706	11096.57
758.044	11087.08
758.381	11217.25
758.719	11374.98
759.056	11533.17
759.394	11713.96
759.731	11769.55
760.068	11918.47
760.405	11965.02
760.743	12112.59
761.08	12308.97
761.417	12392.13
761.754	12564.56
762.091	12772.23
762.428	12849.97
762.765	12927.03
763.102	13082.96
763.438	13168.38
763.775	13353.69
764.112	13537.86
764.449	13644.53
764.785	13694.47
765.122	13849.72
765.458	14000.9
765.795	14168.81
766.131	14206.77
766.467	14354.11
766.804	14486.54
767.14	14483.83
767.476	14735.35
767.812	14777.38
768.148	14928.56
768.485	14993.19
768.821	15012.18
769.157	15150.03
769.492	15198.84
769.828	15432.96
770.164	15360.19
770.5	15466.18
770.836	15584.14
771.171	15597.47
771.507	15652.84
771.842	15787.07
772.178	15878.14
772.513	15875.88
772.849	15966.05
773.184	15970.12
773.519	16105.48
773.855	16126.04
774.19	16129.89
774.525	16175.08
774.86	16317.23
775.195	16319.49
775.53	16334.63
775.865	16399.48
776.2	16245.82
776.535	16230.22
776.87	16360.39
777.205	16335.53
777.539	16439.93
777.874	16463.21
778.209	16334.85
778.543	16408.3
778.878	16434.51
779.212	16482.42
779.547	16459.82
779.881	16587.5
780.215	16430.44
780.55	16525.13
780.884	16439.48
781.218	16564.68
781.552	16535.07
781.886	16528.97
782.22	16491.46
782.554	16445.13
782.888	16387.96
783.222	16353.16
783.556	16385.7
783.889	16325.14
784.223	16230.45
784.557	16370.56
784.89	16381.63
785.224	16275.65
785.557	16305.93
785.891	16289.43
786.224	16257.57
786.558	16302.76
786.891	16160.17
787.224	16066.84
787.557	16098.25
787.891	16225.03
788.224	16151.35
788.557	16156.55
788.89	16137.12
789.223	16159.72
789.556	16001.53
789.888	15990.68
790.221	15947.74
790.554	15864.58
790.887	16016.22
791.219	15865.94
791.552	15837.24
791.884	15754.53
792.217	15740.29
792.549	15697.81
792.882	15699.62
793.214	15587.98
793.546	15662.1
793.879	15614.65
794.211	15555.44
794.543	15597.92
794.875	15576.91
795.207	15547.53
795.539	15387.31
795.871	15456.46
796.203	15379.85
796.535	15272.73
796.867	15278.84
797.198	15205.62
797.53	15169.46
797.862	15211.04
798.193	15241.1
798.525	15022.12
798.856	15145.28
799.188	15023.02
799.519	14980.99
799.85	14931.05
800.182	14941.44
800.513	14919.52
800.844	14778.51
801.175	14854.89
801.506	14855.34
801.837	14824.61
802.168	14733.09
802.499	14673.88
802.83	14699.42
803.161	14613.32
803.491	14603.15
803.822	14550.95
804.153	14465.75
804.483	14460.1
804.814	14357.05
805.145	14375.81
805.475	14357.5
805.805	14291.74
806.136	14282.93
806.466	14332.19
806.796	14213.1
807.126	14199.54
807.457	14127.45
807.787	14171.52
808.117	14098.98
808.447	14082.71
808.777	14035.03
809.107	13975.82
809.436	13981.47
809.766	13978.76
810.096	13910.28
810.426	13839.78
810.755	13872.09
811.085	13833.22
811.414	13825.54
811.744	13667.35
812.073	13707.8
812.403	13721.36
812.732	13563.17
813.061	13653.79
813.39	13603.63
813.719	13594.36
814.049	13611.08
814.378	13586
814.707	13510.75
815.036	13476.85
815.365	13395.27
815.693	13310.98
816.022	13397.76
816.351	13290.41
816.68	13285.67
817.008	13276.85
817.337	13211.09
817.665	13227.14
817.994	13224.65
818.322	13157.08
818.651	13092
818.979	13079.12
819.307	13197.31
819.636	13112.34
819.964	13017.88
820.292	13121.38
820.62	13056.75
820.948	12957.09
821.276	13042.74
821.604	13014.49
821.932	13018.1
822.259	13039.35
822.587	12965.68
822.915	13034.37
823.243	13032.11
823.57	13000.48
823.898	12941.27
824.225	12924.77
824.553	12964.55
824.88	12989.4
825.207	12992.12
825.535	12913.02
825.862	12975.17
826.189	12981.04
826.516	12994.6
826.843	13010.87
827.17	13023.75
827.497	12986.92
827.824	13006.35
828.151	13031.44
828.478	13018.56
828.805	13080.7
829.131	12953.02
829.458	12925.68
829.785	12975.17
830.111	12967.48
830.438	12989.18
830.764	12959.8
831.09	13040.7
831.417	12911.21
831.743	12967.71
832.069	12996.64
832.395	12876.64
832.722	12859.01
833.048	12858.79
833.374	12960.93
833.7	12919.8
834.026	12899.24
834.351	12914.38
834.677	12954.38
835.003	12830.99
835.329	12856.75
835.654	12939.01
835.98	12805.91
836.306	12852.46
836.631	12781.05
836.956	12765.68
837.282	12814.72
837.607	12781.5
837.932	12725.23
838.258	12736.53
838.583	12703.76
838.908	12661.28
839.233	12613.37
839.558	12633.26
839.883	12548.74
840.208	12582.41
840.533	12604.33
840.858	12537.89
841.182	12592.13
841.507	12576.53
841.832	12460.6
842.156	12431.45
842.481	12382.41
842.805	12396.2
843.13	12420.83
843.454	12367.5
843.778	12291.57
844.103	12352.81
844.427	12256.77
844.751	12231.68
845.075	12193.04
845.399	12188.3
845.723	12138.13
846.047	12122.53
846.371	12017.68
846.695	12055.87
847.019	11945.14
847.343	11820.17
847.666	11823.11
847.99	11740.85
848.313	11752.83
848.637	11678.7
848.96	11667.18
849.284	11665.15
849.607	11569.33
849.931	11542.66
850.254	11448.65
850.577	11391.93
850.9	11376.79
851.223	11256.12
851.546	11253.63
851.869	11229
852.192	11266.06
852.515	11233.97
852.838	11100.41
853.161	11026.74
853.483	11074.88
853.806	10961.21
854.129	10965.05
854.451	10965.28
854.774	10851.83
855.096	10883.47
855.419	10831.95
855.741	10806.41
856.063	10675.57
856.385	10739.29
856.708	10729.8
857.03	10617.49
857.352	10676.92
857.674	10605.29
857.996	10549.92
858.318	10549.47
858.64	10583.37
858.961	10492.07
859.283	10411.17
859.605	10400.55
859.926	10396.48
860.248	10367.55
860.57	10369.13
860.891	10403.94
861.212	10288.46
861.534	10249.14
861.855	10206.43
862.176	10257.72
862.498	10224.05
862.819	10239.65
863.14	10086.2
863.461	10172.98
863.782	10083.27
864.103	10021.35
864.424	10102.02
864.745	10155.58
865.065	10009.6
865.386	10033.78
865.707	9958.07
866.027	10043.72
866.348	9932.54
866.668	9951.74
866.989	9962.59
867.309	9898.41
867.63	9908.36
867.95	9836.49
868.27	9799.66
868.59	9878.98
868.91	9808.7
869.23	9805.99
869.55	9725.31
869.87	9799.88
870.19	9795.36
870.51	9767.12
870.83	9773.9
871.15	9735.25
871.469	9716.5
871.789	9642.37
872.109	9688.93
872.428	9683.95
872.748	9651.86
873.067	9681.02
873.386	9723.28
873.706	9678.08
874.025	9660.68
874.344	9526.44
874.663	9561.47
874.982	9573.67
875.301	9539.1
875.62	9514.02
875.939	9497.07
876.258	9496.39
876.577	9432.66
876.896	9447.35
877.214	9405.77
877.533	9455.49
877.852	9355.6
878.17	9388.82
878.489	9378.43
878.807	9391.53
879.125	9301.82
879.444	9372.1
879.762	9260.01
880.08	9256.17
880.398	9296.62
880.716	9225.21
881.034	9189.05
881.352	9243.06
881.67	9233.34
881.988	9218.66
882.306	9149.28
882.624	9162.39
882.941	9230.41
883.259	9084.87
883.577	9039
883.894	9015.95
884.212	9053.24
884.529	9017.08
884.846	8983.41
885.164	8937.08
885.481	8974.59
885.798	8942.96
886.115	8878.78
886.432	8912
886.75	8891.66
887.067	8889.85
887.383	8831.1
887.7	8885.33
888.017	8799.68
888.334	8861.15
888.651	8792.23
888.967	8701.16
889.284	8678.11
889.6	8676.52
889.917	8585.68
890.233	8608.05
890.55	8604.66
890.866	8599.46
891.182	8513.36
891.498	8546.58
891.815	8483.99
892.131	8495.29
892.447	8464.1
892.763	8365.35
893.079	8402.63
893.395	8340.49
893.71	8347.72
894.026	8374.38
894.342	8328.06
894.657	8169.42
894.973	8246.48
895.289	8156.08
895.604	8181.17
895.92	8169.42
896.235	8112.92
896.55	8112.47
896.865	8079.25
897.181	8075.41
897.496	8059.59
897.811	7997.9
898.126	7992.02
898.441	7987.95
898.756	7947.28
899.071	7830.44
899.386	7852.82
899.7	7818.92
900.015	7795.64
900.33	7735.31
900.644	7694.4
900.959	7735.76
901.273	7615.99
901.588	7570.34
901.902	7584.12
902.216	7582.54
902.531	7557.91
902.845	7494.41
903.159	7522.88
903.473	7468.87
903.787	7433.84
904.101	7425.03
904.415	7437.69
904.729	7405.14
905.042	7369.21
905.356	7308.2
905.67	7300.29
905.984	7225.49
906.297	7241.53
906.611	7194.08
906.924	7152.95
907.237	7141.2
907.551	7203.34
907.864	7124.7
908.177	7020.97
908.491	7084.47
908.804	7008.54
909.117	6984.36
909.43	6966.96
909.743	6994.08
910.056	6931.94
910.368	6837.93
910.681	6833.86
910.994	6832.73
911.307	6790.47
911.619	6746.86
911.932	6680.42
912.244	6716.57
912.557	6660.76
912.869	6617.37
913.181	6617.59
913.494	6636.8
913.806	6555.22
914.118	6574.88
914.43	6476.13
914.742	6495.56
915.054	6447.43
915.366	6419.41
915.678	6431.16
915.99	6384.15
916.302	6349.35
916.613	6303.25
916.925	6270.26
917.236	6315.23
917.548	6197.27
917.859	6259.19
918.171	6224.61
918.482	6155.23
918.794	6163.59
919.105	6116.36
919.416	6107.33
919.727	6068.46
920.038	6085.86
920.349	6011.28
920.66	6044.5
920.971	6010.6
921.282	5994.79
921.593	5916.37
921.903	5887.9
922.214	5856.48
922.525	5827.11
922.835	5834.11
923.146	5802.02
923.456	5838.18
923.767	5778.07
924.077	5780.1
924.387	5726.32
924.697	5663.95
925.008	5670.73
925.318	5702.59
925.628	5627.79
925.938	5571.29
926.248	5582.82
926.558	5555.48
926.867	5497.17
927.177	5507.12
927.487	5462.6
927.796	5429.83
928.106	5458.75
928.416	5441.58
928.725	5420.79
929.034	5367.68
929.344	5407.23
929.653	5392.99
929.962	5266.67
930.271	5300.57
930.581	5299.44
930.89	5268.03
931.199	5211.53
931.508	5240.91
931.817	5201.36
932.125	5216.05
932.434	5165.2
932.743	5084.75
933.051	5079.78
933.36	5084.3
933.669	5033.68
933.977	5049.27
934.286	5060.57
934.594	4986.22
934.902	4929.73
935.21	4958.88
935.519	4964.08
935.827	4923.18
936.135	4930.18
936.443	4896.06
936.751	4860.35
937.059	4853.8
937.367	4784.65
937.674	4770.64
937.982	4742.62
938.29	4788.49
938.597	4728.83
938.905	4701.49
939.213	4702.62
939.52	4659.91
939.827	4679.57
940.135	4637.31
940.442	4600.7
940.749	4617.65
941.056	4623.97
941.363	4550.53
941.67	4557.08
941.977	4527.48
942.284	4467.37
942.591	4496.07
942.898	4469.4
943.205	4450.42
943.511	4363.87
943.818	4386.92
944.125	4411.55
944.431	4336.98
944.738	4320.93
945.044	4335.62
945.35	4314.83
945.657	4260.82
945.963	4263.98
946.269	4223.53
946.575	4228.96
946.881	4221.73
947.187	4211.1
947.493	4164.1
947.799	4185.12
948.105	4146.02
948.41	4121.61
948.716	4141.73
949.022	4065.57
949.327	4110.77
949.633	4028.28
949.938	4049.98
950.244	4057.66
950.549	3979.47
950.854	3942.64
951.16	4006.59
951.465	3970.21
951.77	3955.29
952.075	3919.59
952.38	3913.26
952.685	3909.87
952.99	3852.7
953.294	3885.46
953.599	3823.54
953.904	3819.48
954.209	3792.36
954.513	3778.12
954.818	3777.67
955.122	3744.68
955.426	3736.09
955.731	3736.09
956.035	3650.67
956.339	3719.37
956.643	3694.73
956.948	3637.79
957.252	3643.89
957.556	3609.31
957.86	3643.44
958.163	3624.68
958.467	3614.51
958.771	3591.23
959.075	3562.99
959.378	3530.67
959.682	3550.33
959.985	3538.35
960.289	3501.52
960.592	3517.11
960.896	3468.07
961.199	3470.56
961.502	3470.11
961.805	3413.16
962.108	3404.35
962.411	3370.45
962.714	3367.74
963.017	3330.22
963.32	3383.33
963.623	3336.32
963.926	3318.47
964.228	3306.72
964.531	3291.13
964.833	3321.41
965.136	3296.55
965.438	3257.23
965.741	3270.79
966.043	3222.43
966.345	3214.29
966.648	3184.92
966.95	3172.26
967.252	3158.25
967.554	3147.4
967.856	3123
968.158	3134.97
968.46	3132.49
968.761	3123.45
969.063	3074.18
969.365	3098.59
969.666	3065.82
969.968	3033.06
970.269	3031.25
970.571	3028.31
970.872	2980.63
971.174	3040.06
971.475	2973.85
971.776	2980.18
972.077	2958.26
972.378	2931.14
972.679	2962.32
972.98	2913.96
973.281	2933.4
973.582	2921.19
973.883	2922.1
974.183	2852.5
974.484	2867.86
974.785	2831.93
975.085	2898.14
975.386	2843.91
975.686	2798.03
975.986	2820.41
976.287	2764.59
976.587	2781.54
976.887	2766.17
977.187	2722.78
977.487	2773.4
977.787	2734.76
978.087	2722.56
978.387	2714.19
978.687	2704.25
978.987	2688.66
979.286	2649.34
979.586	2692.5
979.885	2612.5
980.185	2600.75
980.484	2614.31
980.784	2597.59
981.083	2611.6
981.382	2594.2
981.682	2600.3
981.981	2584.93
982.28	2588.1
982.579	2524.82
982.878	2518.72
983.177	2533.18
983.475	2509
983.774	2483.01
984.073	2504.93
984.372	2423.35
984.67	2488.89
984.969	2490.92
985.267	2442.34
985.566	2436.69
985.864	2409.34
986.162	2436.24
986.461	2393.07
986.759	2404.82
987.057	2357.59
987.355	2380.64
987.653	2380.64
987.951	2349.23
988.249	2303.81
988.547	2303.81
988.844	2324.37
989.142	2278.95
989.44	2267.88
989.737	2286.41
990.035	2290.25
990.332	2257.71
990.63	2258.84
990.927	2204.6
991.224	2250.93
991.521	2224.26
991.819	2195.79
992.116	2190.14
992.413	2167.99
992.71	2185.17
993.006	2175.68
993.303	2151.05
993.6	2168.22
993.897	2139.97
994.193	2143.59
994.49	2147.2
994.787	2125.28
995.083	2086.41
995.379	2085.96
995.676	2084.15
995.972	2062.23
996.268	2041.67
996.565	2056.13
996.861	2040.09
997.157	2049.35
997.453	1984.95
997.749	2020.88
998.044	2036.92
998.34	1993.08
998.636	1987.21
998.932	1932.07
999.227	1934.78
999.523	1952.18
999.818	1938.85
1000.114	1925.29
1000.409	1900.2
1000.704	1929.81
1001	1877.83
1001.295	1896.36
1001.59	1886.87
1001.885	1876.93
1002.18	1862.24
1002.475	1870.15
1002.77	1824.27
1003.065	1834.22
1003.359	1843.26
1003.654	1836.48
1003.949	1797.38
1004.243	1801.9
1004.538	1756.71
1004.832	1740.66
1005.127	1768.91
1005.421	1756.93
1005.715	1740.21
1006.009	1731.85
1006.304	1728.46
1006.598	1723.49
1006.892	1704.5
1007.186	1698.18
1007.48	1663.83
1007.773	1650.04
1008.067	1711.73
1008.361	1664.73
1008.655	1659.53
1008.948	1637.61
1009.242	1626.99
1009.535	1633.54
1009.829	1617.05
1010.122	1601.91
1010.415	1596.71
1010.708	1561.91
1011.001	1603.94
1011.295	1599.87
1011.588	1553.09
1011.881	1554.22
1012.173	1552.19
1012.466	1529.14
1012.759	1541.8
1013.052	1500.21
1013.344	1526.65
1013.637	1502.93
1013.93	1458.18
1014.222	1459.76
1014.514	1472.64
1014.807	1458.63
1015.099	1453.21
1015.391	1444.62
1015.683	1465.64
1015.976	1449.82
1016.268	1412.31
1016.56	1408.69
1016.851	1384.74
1017.143	1406.21
1017.435	1403.27
1017.727	1380.9
1018.018	1391.97
1018.31	1364.17
1018.602	1362.14
1018.893	1355.13
1019.185	1319.2
1019.476	1334.8
1019.767	1316.04
1020.058	1311.29
1020.35	1326.66
1020.641	1273.33
1020.932	1303.16
1021.223	1289.15
1021.514	1281.24
1021.804	1260.22
1022.095	1269.49
1022.386	1256.83
1022.677	1237.85
1022.967	1204.63
1023.258	1210.96
1023.548	1225.65
1023.839	1212.76
1024.129	1198.53
1024.419	1173.67
1024.709	1195.82
1025	1182.26
1025.29	1176.38
1025.58	1165.08
1025.87	1155.14
1026.16	1147
1026.449	1134.35
1026.739	1136.83
1027.029	1137.96
1027.319	1137.74
1027.608	1109.26
1027.898	1137.96
1028.187	1112.43
1028.477	1127.12
1028.766	1091.64
1029.055	1080.56
1029.344	1068.81
1029.634	1067.91
1029.923	1069.49
1030.212	1039.66
1030.501	1067.46
1030.79	1040.11
1031.078	1036.27
1031.367	1037.85
1031.656	1002.15
1031.945	1049.61
1032.233	1014.35
1032.522	990.85
1032.81	992.66
1033.099	998.31
1033.387	986.33
1033.675	975.26
1033.963	966.44
1034.251	967.35
1034.54	956.95
1034.828	971.64
1035.116	959.44
1035.403	948.59
1035.691	936.16
1035.979	918.76
1036.267	906.11
1036.554	921.02
1036.842	918.54
1037.129	903.17
1037.417	918.76
1037.704	904.75
1037.992	902.26
1038.279	872.21
1038.566	895.48
1038.853	895.48
1039.14	895.48
