Data from hue_24_FLMS001491_00097.txt Node
Date: Tue Feb 07 17:13:01 GMT 2017
User: dcchb
Spectrometer: FLMS00149
Trigger mode: 0
Integration Time (sec): 2.000000E-2
Scans to average: 10
Electric dark correction enabled: true
Nonlinearity correction enabled: false
Boxcar width: 0
XAxis mode: Wavelengths
Number of Pixels in Spectrum: 2048
>>>>>Begin Spectral Data<<<<<
341.393	-12.73
341.776	-12.73
342.16	-12.73
342.543	-48.43
342.927	-48.66
343.31	-62.22
343.693	-80.52
344.077	-64.48
344.46	-70.35
344.843	-38.49
345.226	-36.23
345.61	-36.68
345.993	-27.64
346.376	-2.78
346.759	4
347.142	35.41
347.525	65.92
347.908	50.1
348.291	72.92
348.674	88.97
349.057	102.07
349.44	115.18
349.823	151.56
350.206	177.55
350.588	219.81
350.971	220.94
351.354	243.09
351.737	219.13
352.119	250.77
352.502	277.44
352.884	301.39
353.267	276.98
353.65	288.96
354.032	297.55
354.414	319.47
354.797	308.62
355.179	336.19
355.562	337.32
355.944	334.38
356.326	345.23
356.709	350.65
357.091	361.5
357.473	351.11
357.855	343.65
358.238	355.4
358.62	340.26
359.002	341.39
359.384	352.24
359.766	348.85
360.148	340.49
360.53	340.26
360.912	361.95
361.294	334.38
361.676	357.89
362.057	342.75
362.439	345.91
362.821	331.22
363.203	335.06
363.584	334.16
363.966	322.86
364.348	340.71
364.729	356.53
365.111	317.89
365.493	344.33
365.874	327.6
366.256	298
366.637	330.09
367.019	330.77
367.4	341.62
367.781	341.16
368.163	320.37
368.544	312.69
368.925	322.86
369.306	320.82
369.688	327.83
370.069	314.5
370.45	325.12
370.831	322.86
371.212	319.02
371.593	328.51
371.974	328.06
372.355	326.47
372.736	355.4
373.117	335.51
373.498	312.24
373.879	347.49
374.26	331.22
374.641	344.33
375.021	306.59
375.402	356.08
375.783	335.97
376.163	358.56
376.544	370.54
376.925	341.62
377.305	346.81
377.686	347.94
378.066	351.33
378.447	342.75
378.827	337.32
379.208	346.59
379.588	359.24
379.968	350.88
380.349	368.06
380.729	341.39
381.109	374.83
381.489	374.83
381.87	363.54
382.25	337.77
382.63	382.52
383.01	367.83
383.39	375.74
383.77	369.64
384.15	378.9
384.53	367.83
384.91	386.81
385.29	380.26
385.67	363.76
386.049	397.66
386.429	392.91
386.809	397.66
387.189	380.26
387.568	371.22
387.948	382.52
388.328	396.76
388.707	398.34
389.087	389.3
389.466	397.66
389.846	397.21
390.225	401.73
390.605	411.67
390.984	413.03
391.363	392.46
391.743	413.93
392.122	406.02
392.501	397.89
392.881	412.35
393.26	417.55
393.639	407.15
394.018	405.79
394.397	408.05
394.776	408.96
395.155	399.92
395.534	416.87
395.913	418.9
396.292	418.22
396.671	432.23
397.05	430.65
397.429	417.09
397.808	433.82
398.186	423.2
398.565	417.32
398.944	423.42
399.323	453.7
399.701	431.78
400.08	443.31
400.458	440.82
400.837	446.47
401.215	453.93
401.594	433.14
401.972	469.75
402.351	453.02
402.729	436.53
403.107	453.7
403.486	451.89
403.864	465.68
404.242	466.36
404.62	483.31
404.999	481.27
405.377	478.56
405.755	464.32
406.133	473.82
406.511	511.33
406.889	476.08
407.267	469.07
407.645	486.92
408.023	484.44
408.401	517.43
408.779	500.03
409.156	505.9
409.534	496.87
409.912	491.22
410.29	521.72
410.667	531.44
411.045	537.54
411.422	539.35
411.8	540.71
412.178	548.39
412.555	547.26
412.933	545.23
413.31	565.11
413.687	543.64
414.065	575.73
414.442	558.33
414.819	561.95
415.197	563.08
415.574	565.56
415.951	577.54
416.328	598.56
416.705	574.38
417.082	582.96
417.46	588.61
417.837	625.68
418.214	593.59
418.591	585.22
418.967	590.42
419.344	613.02
419.721	606.47
420.098	615.73
420.475	624.55
420.852	619.8
421.228	639.01
421.605	625.45
421.982	681.04
422.358	646.01
422.735	666.13
423.111	663.19
423.488	672
423.864	680.14
424.241	679.91
424.617	688.5
424.994	666.8
425.37	689.18
425.746	669.29
426.123	668.16
426.499	682.17
426.875	688.95
427.251	719.46
427.627	713.58
428.003	728.95
428.379	738.44
428.756	735.05
429.132	740.02
429.507	763.07
429.883	739.34
430.259	761.27
430.635	773.47
431.011	775.95
431.387	769.4
431.763	785.22
432.138	800.81
432.514	803.07
432.89	798.78
433.265	828.16
433.641	827.25
434.016	797.42
434.392	828.38
434.767	855.27
435.143	858.89
435.518	870.19
435.894	871.09
436.269	889.62
436.644	878.55
437.02	884.65
437.395	901.37
437.77	895.95
438.145	898.66
438.52	904.76
438.895	919.23
439.271	936.4
439.646	934.59
440.021	951.32
440.395	968.94
440.77	937.53
441.145	967.14
441.52	978.21
441.895	966.91
442.27	1006.46
442.645	993.58
443.019	994.71
443.394	991.54
443.769	991.32
444.143	970.75
444.518	1009.17
444.892	1030.18
445.267	1031.31
445.641	1020.02
446.016	1045.1
446.39	1045.78
446.764	1054.59
447.139	1059.56
447.513	1074.48
447.887	1064.76
448.262	1091.88
448.636	1077.42
449.01	1073.12
449.384	1086
449.758	1109.28
450.132	1131.65
450.506	1111.31
450.88	1128.94
451.254	1133.68
451.628	1134.36
452.002	1166
452.376	1155.61
452.75	1203.06
453.123	1196.28
453.497	1173.23
453.871	1220.24
454.244	1227.92
454.618	1241.03
454.992	1278.77
455.365	1254.13
455.739	1271.53
456.112	1271.99
456.486	1291.42
456.859	1321.7
457.232	1318.54
457.606	1350.4
457.979	1368.25
458.352	1365.54
458.725	1383.85
459.099	1399.89
459.472	1428.37
459.845	1391.08
460.218	1462.49
460.591	1425.65
460.964	1442.15
461.337	1482.83
461.71	1501.36
462.083	1534.35
462.456	1532.09
462.829	1532.09
463.201	1554.01
463.574	1591.3
463.947	1573.45
464.32	1599.89
464.692	1629.94
465.065	1646.44
465.438	1656.83
465.81	1684.63
466.183	1688.02
466.555	1736.83
466.928	1734.12
467.3	1778.41
467.672	1804.63
468.045	1820.45
468.417	1843.27
468.789	1869.26
469.161	1875.13
469.534	1924.85
469.906	1929.6
470.278	1997.17
470.65	1982.25
471.022	2007.11
471.394	2037.16
471.766	2100.21
472.138	2083.72
472.51	2126.2
472.882	2157.84
473.253	2196.26
473.625	2227.22
473.997	2311.73
474.369	2316.7
474.74	2380.88
475.112	2394.22
475.484	2435.57
475.855	2451.84
476.227	2488
476.598	2522.12
476.97	2579.3
477.341	2609.58
477.713	2628.79
478.084	2701.1
478.455	2786.75
478.827	2820.19
479.198	2916.24
479.569	2922.11
479.94	2975.67
480.311	3022.9
480.682	3097.25
481.053	3169.34
481.424	3200.3
481.795	3226.29
482.166	3270.58
482.537	3339.28
482.908	3433.51
483.279	3472.15
483.65	3566.84
484.021	3642.32
484.391	3711.24
484.762	3705.37
485.133	3771.58
485.503	3848.42
485.874	3881.41
486.244	3922.31
486.615	4012.48
486.985	4094.06
487.356	4194.62
487.726	4191.68
488.097	4294.96
488.467	4334.73
488.837	4432.13
489.207	4452.02
489.578	4533.37
489.948	4635.97
490.318	4694.5
490.688	4714.61
491.058	4789.18
491.428	4900.59
491.798	4902.63
492.168	5003.19
492.538	5029.85
492.908	5046.8
493.278	5138.78
493.648	5177.87
494.017	5248.83
494.387	5316.17
494.757	5315.5
495.126	5448.15
495.496	5421.48
495.866	5511.42
496.235	5579.22
496.605	5613.79
496.974	5659.44
497.344	5787.12
497.713	5851.75
498.082	5829.38
498.452	5883.84
498.821	5902.15
499.19	5939.21
499.559	6017.4
499.928	6052.2
500.298	6064.63
500.667	6126.32
501.036	6193.66
501.405	6254.68
501.774	6230.95
502.143	6350.95
502.512	6349.37
502.88	6425.3
503.249	6430.04
503.618	6456.71
503.987	6434.79
504.356	6497.84
504.724	6531.06
505.093	6609.25
505.462	6629.81
505.83	6702.8
506.199	6761.79
506.567	6821.44
506.936	6768.34
507.304	6905.06
507.672	6891.73
508.041	6933.98
508.409	7002.91
508.777	7061.44
509.145	7044.26
509.514	7060.31
509.882	7065.28
510.25	7128.78
510.618	7183.7
510.986	7272.51
511.354	7247.2
511.722	7268.21
512.09	7372.84
512.458	7361.09
512.826	7439.51
513.193	7505.27
513.561	7549.11
513.929	7590.24
514.297	7646.96
514.664	7624.14
515.032	7699.16
515.4	7781.42
515.767	7757.24
516.135	7776.67
516.502	7755.88
516.869	7870.68
517.237	7909.33
517.604	7842.44
517.972	7952.49
518.339	7999.27
518.706	8017.8
519.073	8084.46
519.44	8145.25
519.808	8166.49
520.175	8149.77
520.542	8312.48
520.909	8266.83
521.276	8271.8
521.643	8446.26
522.009	8474.06
522.376	8513.38
522.743	8571
523.11	8557.9
523.477	8707.72
523.843	8676.09
524.21	8746.59
524.577	8786.37
524.943	8868.85
525.31	8884.89
525.676	9015.51
526.043	9026.13
526.409	9086.24
526.776	9164.43
527.142	9222.29
527.508	9244.88
527.874	9272
528.241	9331.44
528.607	9345.22
528.973	9445.56
529.339	9403.52
529.705	9587.02
530.071	9624.31
530.437	9613.46
530.803	9705.44
531.169	9763.97
531.535	9656.62
531.901	9774.36
532.267	9852.55
532.632	9850.07
532.998	9836.28
533.364	9979.33
533.73	9964.87
534.095	10109.49
534.461	10117.4
534.826	10216.84
535.192	10218.42
535.557	10311.97
535.923	10302.03
536.288	10368.7
536.653	10426.77
537.019	10351.75
537.384	10510.16
537.749	10492.76
538.114	10556.26
538.479	10592.42
538.845	10586.77
539.21	10708.8
539.575	10643.04
539.94	10706.77
540.305	10833.54
540.67	10824.96
541.034	10865.18
541.399	10907.89
541.764	10983.6
542.129	10945.4
542.494	11054.78
542.858	11112.63
543.223	11090.26
543.587	11176.36
543.952	11171.39
544.316	11298.84
544.681	11231.72
545.045	11320.76
545.41	11399.86
545.774	11361.44
546.138	11452.96
546.503	11528.21
546.867	11512.4
547.231	11635.1
547.595	11659.74
547.959	11665.39
548.324	11698.6
548.688	11728.66
549.052	11763.46
549.416	11824.93
549.779	11822.44
550.143	11876
550.507	11959.84
550.871	11997.13
551.235	11989.9
551.599	12122.1
551.962	12198.03
552.326	12174.3
552.689	12254.75
553.053	12133.17
553.417	12241.19
553.78	12397.34
554.143	12317.57
554.507	12426.72
554.87	12527.96
555.234	12608.41
555.597	12531.13
555.96	12605.02
556.323	12635.3
556.686	12666.94
557.05	12740.84
557.413	12784
557.776	12821.97
558.139	12888.18
558.502	12909.65
558.865	12952.58
559.228	12997.55
559.59	13072.13
559.953	13125.23
560.316	13255.17
560.679	13177.21
561.041	13323.19
561.404	13350.54
561.767	13452.01
562.129	13373.14
562.492	13560.48
562.854	13506.01
563.217	13434.38
563.579	13567.03
563.941	13680.7
564.304	13725.9
564.666	13763.41
565.028	13778.78
565.39	13835.05
565.753	13922.28
566.115	13887.47
566.477	14052.44
566.839	14033.46
567.201	14136.51
567.563	14158.43
567.925	14238.65
568.287	14248.59
568.648	14264.64
569.01	14348.03
569.372	14435.71
569.734	14384.64
570.095	14617.17
570.457	14613.56
570.819	14602.26
571.18	14727.9
571.542	14743.72
571.903	14835.02
572.265	14952.3
572.626	14955.69
572.987	14994.79
573.349	15105.75
573.71	15163.6
574.071	15271.62
574.432	15314.33
574.794	15413.31
575.155	15463.03
575.516	15514.78
575.877	15519.52
576.238	15781.66
576.599	15717.03
576.96	15900.98
577.32	15920.87
577.681	15994.76
578.042	16139.39
578.403	16225.27
578.763	16305.72
579.124	16414.41
579.485	16558.59
579.845	16783.67
580.206	16754.97
580.566	16934.17
580.927	17132.81
581.287	17285.58
581.648	17398.79
582.008	17603.31
582.368	17758.78
582.728	17963.52
583.089	18061.6
583.449	18250.97
583.809	18386.79
584.169	18651.19
584.529	18758.98
584.889	19178.63
585.249	19185.87
585.609	19406.2
585.969	19691.84
586.329	19757.38
586.688	20150.81
587.048	20372.05
587.408	20618.37
587.768	20750.8
588.127	21017.91
588.487	21284.79
588.846	21713.93
589.206	21860.15
589.565	22162.06
589.925	22595.95
590.284	22676.85
590.643	23100.11
591.003	23425.75
591.362	23738.97
591.721	23992.74
592.08	24383.7
592.44	24692.61
592.799	25127.86
593.158	25418.02
593.517	25625.02
593.876	26074.5
594.235	26330.31
594.593	26677.87
594.952	27121.93
595.311	27226.78
595.67	27801.91
596.029	28264.04
596.387	28631.27
596.746	28858.38
597.104	29079.62
597.463	29309.89
597.822	29889.99
598.18	30154.62
598.538	30420.6
598.897	31065.78
599.255	31180.58
599.613	31965.19
599.972	32129.93
600.33	32487.21
600.688	32662.8
601.046	33081.32
601.404	33588.2
601.762	33680.63
602.12	34284.9
602.478	34594.05
602.836	34900.48
603.194	35095.28
603.552	35464.31
603.91	35547.47
604.268	36135.25
604.625	36325.08
604.983	36844.38
605.341	36945.17
605.698	37423.8
606.056	37860.4
606.413	37925.49
606.771	38412.7
607.128	38718.91
607.485	38783.32
607.843	39043.65
608.2	39607.93
608.557	39918.65
608.914	39933.34
609.272	40342.37
609.629	40732.87
609.986	41088.57
610.343	41170.15
610.7	41600.64
611.057	41801.77
611.414	41869.79
611.771	42120.18
612.127	42666.83
612.484	42728.52
612.841	43061.17
613.198	43136.87
613.554	43186.59
613.911	43648.5
614.267	43930.07
614.624	43897.08
614.98	44224.08
615.337	44500.45
615.693	44719.66
616.05	44818.64
616.406	45175.69
616.762	45311.51
617.118	45351.96
617.475	45484.61
617.831	45826.52
618.187	46064.48
618.543	46151.03
618.899	46446.17
619.255	46488.2
619.611	46661.98
619.967	46804.12
620.323	47022.42
620.678	46924.35
621.034	46955.98
621.39	47184
621.746	47325.92
622.101	47753.25
622.457	47502.41
622.812	47773.36
623.168	47832.8
623.523	47901.49
623.879	48174.26
624.234	48038.89
624.589	48211.32
624.945	48323.63
625.3	48347.36
625.655	48522.72
626.01	48466.23
626.365	48677.29
626.72	48628.26
627.075	48683.62
627.43	48773.56
627.785	48797.74
628.14	48953.22
628.495	49089.49
628.85	49025.08
629.205	48867.12
629.559	49261.68
629.914	49057.62
630.269	49123.84
630.623	49105.08
630.978	49069.83
631.332	49271.4
631.687	49275.47
632.041	49277.73
632.396	49383.26
632.75	49275.7
633.104	49371.51
633.459	49244.28
633.813	49225.08
634.167	49279.54
634.521	49440.66
634.875	49520.44
635.229	49472.53
635.583	49254.68
635.937	49354.34
636.291	49397.05
636.645	49369.03
636.999	49259.88
637.352	49423.26
637.706	49322.93
638.06	49451.28
638.413	49316.37
638.767	49265.53
639.121	49368.8
639.474	49207.68
639.828	49147.11
640.181	49193.44
640.534	49408.57
640.888	49138.3
641.241	49085.42
641.594	49178.75
641.947	49226.88
642.301	49280.22
642.654	49219.65
643.007	49235.24
643.36	49199.31
643.713	49079.54
644.066	49312.53
644.419	49094.23
644.771	48882.26
645.124	48634.58
645.477	48541.93
645.83	48348.71
646.182	48139.45
646.535	48027.14
646.888	48203.63
647.24	48038.21
647.593	48191.66
647.945	48172.22
648.298	48035.95
648.65	47856.52
649.002	47846.81
649.355	48066.69
649.707	48036.63
650.059	48227.36
650.411	48611.31
650.763	48635.26
651.115	48976.27
651.467	48901.69
651.819	48806.78
652.171	48894.24
652.523	48755.03
652.875	48749.38
653.227	48586.22
653.578	48829.15
653.93	48811.98
654.282	48522.95
654.633	48577.64
654.985	48593.45
655.337	48711.87
655.688	48703.96
656.039	48767.91
656.391	48539.44
656.742	48594.81
657.094	48553.23
657.445	48872.54
657.796	48596.17
658.147	48548.71
658.498	48553
658.849	48630.97
659.2	48501.03
659.551	48358.21
659.902	48525.89
660.253	48515.49
660.604	48621.02
660.955	48384.87
661.306	48497.64
661.656	48427.36
662.007	48487.69
662.358	48435.94
662.708	48457.64
663.059	48552.33
663.409	48174.26
663.76	48570.86
664.11	48412.89
664.461	48495.15
664.811	48460.58
665.161	48386.91
665.511	48321.82
665.862	48298.77
666.212	48475.49
666.562	48409.5
666.912	48397.98
667.262	48365.21
667.612	48350.97
667.962	48399.11
668.312	48289.96
668.662	48380.58
669.011	48275.04
669.361	48291.31
669.711	48300.35
670.06	48285.89
670.41	48187.14
670.76	48175.84
671.109	48229.62
671.459	48231.66
671.808	48290.86
672.157	48328.15
672.507	48053.81
672.856	48103.75
673.205	48137.65
673.554	48319.56
673.904	48079.12
674.253	48200.7
674.602	47973.13
674.951	47626.25
675.3	47448.85
675.649	48047.25
675.998	47941.49
676.346	47999.8
676.695	48073.92
677.044	47879.35
677.393	47850.2
677.741	48025.33
678.09	47830.76
678.438	47870.08
678.787	47719.13
679.135	47886.35
679.484	47648.62
679.832	47849.97
680.181	47518.45
680.529	47663.31
680.877	47474.16
681.225	47347.84
681.573	47636.87
681.922	47447.5
682.27	47372.92
682.618	47261.06
682.966	47260.38
683.314	47336.09
683.661	47153.72
684.009	47034.62
684.357	46923.44
684.705	46972.93
685.053	46906.72
685.4	46949.43
685.748	46632.6
686.095	46799.15
686.443	46534.53
686.79	46513.06
687.138	46694.75
687.485	46609.1
687.832	46345.83
688.18	46514.64
688.527	46298.6
688.874	46243.91
689.221	46216.79
689.568	45990.58
689.915	46057.7
690.262	45971.38
690.609	45957.14
690.956	45678.5
691.303	45641.89
691.65	45515.34
691.997	45466.76
692.344	45137.73
692.69	45101.57
693.037	45068.8
693.383	44814.57
693.73	45031.06
694.077	44813.67
694.423	44777.28
694.769	44725.53
695.116	44496.39
695.462	44563.73
695.808	44287.8
696.155	44348.59
696.501	44102.95
696.847	44198.09
697.193	43759
697.539	44039.45
697.885	43785.9
698.231	43643.98
698.577	43637.2
698.923	43693.24
699.269	43398.34
699.614	43220.71
699.96	43234.72
700.306	43152.47
700.651	43141.17
700.997	43002.19
701.342	42820.5
701.688	42795.41
702.033	42578.92
702.379	42563.33
702.724	42481.52
703.069	42517.91
703.415	42137.8
703.76	42101.87
704.105	42172.15
704.45	42033.4
704.795	41769.9
705.14	41731.49
705.485	41851.03
705.83	41579.63
706.175	41586.18
706.52	41481.78
706.865	41427.77
707.209	41297.15
707.554	41117.27
707.899	41206.98
708.243	40889.25
708.588	40949.14
708.932	40582.14
709.277	40592.76
709.621	40600.67
709.966	40511.41
710.31	40497.62
710.654	40208.14
710.998	40353.44
711.342	40152.09
711.687	40297.63
712.031	39986.22
712.375	39926.79
712.719	39946.9
713.063	39794.82
713.407	39950.97
713.75	39658.32
714.094	39752.56
714.438	39619.23
714.782	39490.19
715.125	39294.04
715.469	39496.97
715.812	39235.28
716.156	39009.98
716.499	39090.2
716.843	39086.81
717.186	38949.87
717.53	39160.71
717.873	39123.65
718.216	38772.92
718.559	38629.2
718.902	38377
719.246	38602.3
719.589	38457
719.932	38331.35
720.275	38309.43
720.617	38301.97
720.96	38135.65
721.303	38228.75
721.646	38195.31
721.989	37980.4
722.331	38075.76
722.674	37958.03
723.016	38041.19
723.359	37946.05
723.701	37988.31
724.044	37667.64
724.386	37498.38
724.729	37758.03
725.071	37583.12
725.413	37497.47
725.755	37429.23
726.097	37310.13
726.439	37164.6
726.782	37138.16
727.124	37292.06
727.465	36985.62
727.807	37091.38
728.149	37135.22
728.491	36874.44
728.833	36976.36
729.175	36854.1
729.516	36804.16
729.858	36700.21
730.199	36689.13
730.541	36703.82
730.882	36544.96
731.224	36737.04
731.565	36390.16
731.906	36352.65
732.248	36370.72
732.589	36247.11
732.93	36168.92
733.271	36252.31
733.612	36193.33
733.953	36173.22
734.294	35986.33
734.635	35938.42
734.976	35915.82
735.317	35851.87
735.658	35813.23
735.999	35792.89
736.339	35813
736.68	35879.21
737.021	35737.07
737.361	35493.23
737.702	35732.32
738.042	35509.5
738.383	35422.05
738.723	35615.26
739.063	35435.38
739.404	35535.04
739.744	35326.68
740.084	35143.19
740.424	35290.07
740.764	35257.76
741.104	35314.26
741.444	34986.81
741.784	34859.35
742.124	35105.9
742.464	35096.18
742.804	34977.77
743.143	34787.72
743.483	34870.42
743.823	34606.93
744.162	34642.18
744.502	34683.54
744.841	34583.2
745.181	34641.73
745.52	34565.57
745.86	34551.11
746.199	34452.81
746.538	34392.25
746.877	34419.82
747.216	34364.45
747.556	34245.13
747.895	34266.6
748.234	34171.46
748.573	34138.92
748.911	34029.32
749.25	34068.86
749.589	33854.41
749.928	33847.63
750.267	33981.86
750.605	33717.01
750.944	33792.26
751.283	33583.45
751.621	33629.33
751.96	33504.36
752.298	33550.01
752.636	33566.05
752.975	33385.72
753.313	33232.95
753.651	33402.44
753.989	33140.98
754.327	33100.3
754.666	32953.41
755.004	32979.63
755.342	33085.61
755.679	32876.35
756.017	32746.64
756.355	32894.43
756.693	32670.26
757.031	32697.6
757.368	32507.55
757.706	32535.35
758.044	32390.49
758.381	32488.34
758.719	32290.83
759.056	32275.69
759.394	32140.1
759.731	32016.26
760.068	31877.96
760.405	31941.01
760.743	31708.25
761.08	31703.95
761.417	31582.15
761.754	31614.24
762.091	31506.22
762.428	31364.53
762.765	31168.6
763.102	31340.8
763.438	31082.73
763.775	31014.71
764.112	31007.48
764.449	31018.1
764.785	30908.95
765.122	30654.72
765.458	30554.38
765.795	30566.13
766.131	30425.34
766.467	30313.71
766.804	30231.22
767.14	30222.64
767.476	30098.57
767.812	29962.31
768.148	30016.54
768.485	29758.24
768.821	29713.95
769.157	29649.77
769.492	29564.12
769.828	29604.8
770.164	29198.71
770.5	29144.93
770.836	29185.83
771.171	28827.87
771.507	28802.56
771.842	28600.31
772.178	28794.65
772.513	28597.82
772.849	28658.16
773.184	28361.9
773.519	28361.44
773.855	28173.43
774.19	28232.86
774.525	28034.22
774.86	28016.82
775.195	27908.8
775.53	27803.04
775.865	27654.34
776.2	27509.49
776.535	27380.23
776.87	27381.13
777.205	27259.1
777.539	27102.04
777.874	27208.93
778.209	26919.9
778.543	26855.49
778.878	26691.88
779.212	26656.18
779.547	26601.94
779.881	26580.93
780.215	26344.55
780.55	26467.26
780.884	26284.89
781.218	26175.29
781.552	26206.02
781.886	25857.78
782.22	25881.51
782.554	25741.63
782.888	25626.6
783.222	25522.87
783.556	25357.23
783.889	25332.82
784.223	25083.34
784.557	25081.3
784.89	25175.09
785.224	24960.18
785.557	24847.86
785.891	24854.19
786.224	24729.67
786.558	24689.68
786.891	24393.86
787.224	24463.69
787.557	24377.37
787.891	24402.9
788.224	24331.04
788.557	24231.83
788.89	24194.1
789.223	24102.35
789.556	24011.05
789.888	23889.24
790.221	23757.72
790.554	23637.05
790.887	23623.94
791.219	23586.65
791.552	23542.14
791.884	23302.14
792.217	23175.37
792.549	23218.53
792.882	23129.04
793.214	22988.7
793.546	23039.78
793.879	22804.75
794.211	22727.69
794.543	22712.78
794.875	22605.44
795.207	22719.33
795.539	22607.47
795.871	22502.39
796.203	22254.71
796.535	22228.05
796.867	22136.52
797.198	22194.37
797.53	22039.8
797.862	21987.37
798.193	22049.07
798.525	21809.3
798.856	21956.41
799.188	21730.43
799.519	21563.2
799.85	21511.23
800.182	21542.41
800.513	21562.75
800.844	21283.21
801.175	21414.28
801.506	21330.67
801.837	21231.24
802.168	21214.74
802.499	21100.62
802.83	20919.15
803.161	20978.36
803.491	20910.57
803.822	20994.41
804.153	20734.07
804.483	20605.26
804.814	20489.11
805.145	20563.91
805.475	20491.82
805.805	20325.27
806.136	20364.37
806.466	20380.41
806.796	20363.01
807.126	20160.76
807.457	20048.67
807.787	20104.26
808.117	20048.89
808.447	20049.35
808.777	19990.59
809.107	19907.65
809.436	19779.97
809.766	19796.47
810.096	19699.98
810.426	19568.68
810.755	19702.69
811.085	19640.32
811.414	19592.41
811.744	19505.63
812.073	19384.28
812.403	19338.86
812.732	19198.97
813.061	19288.69
813.39	19072.65
813.719	19169.82
814.049	19234.45
814.378	19062.7
814.707	19023.61
815.036	19015.7
815.365	18885.08
815.693	18732.77
816.022	18746.78
816.351	18721.02
816.68	18638.08
817.008	18705.65
817.337	18536.62
817.665	18367.58
817.994	18524.41
818.322	18459.11
818.651	18321.93
818.979	18321.71
819.307	18342.72
819.636	18273.35
819.964	18151.99
820.292	18292.56
820.62	18281.03
820.948	18189.96
821.276	18180.24
821.604	18069.96
821.932	18151.54
822.259	18133.69
822.587	18137.31
822.915	17969.4
823.243	18116.06
823.57	18088.49
823.898	18032.22
824.225	17947.93
824.553	17974.6
824.88	18086.46
825.207	18079
825.535	18034.03
825.862	18091.21
826.189	17929.18
826.516	18043.07
826.843	18058.44
827.17	18042.17
827.497	18062.73
827.824	18071.77
828.151	18040.58
828.478	18004.2
828.805	18141.37
829.131	18029.74
829.458	17989.06
829.785	17941.6
830.111	17960.59
830.438	18108.38
830.764	17902.74
831.09	18003.07
831.417	17816.41
831.743	17938.89
832.069	17902.28
832.395	17863.87
832.722	17977.54
833.048	17880.36
833.374	17876.75
833.7	17759.46
834.026	17856.41
834.351	17798.78
834.677	17836.97
835.003	17866.35
835.329	17717.2
835.654	17726.24
835.98	17666.81
836.306	17761.72
836.631	17704.55
836.956	17787.03
837.282	17616.19
837.607	17621.16
837.932	17470.2
838.258	17572.8
838.583	17525.8
838.908	17429.98
839.233	17521.73
839.558	17399.7
839.883	17309.08
840.208	17319.93
840.533	17271.57
840.858	17229.98
841.182	17280.83
841.507	17275.63
841.832	17072.25
842.156	17115.86
842.481	17142.3
842.805	17122.64
843.13	17000.84
843.454	17042.42
843.778	16928.75
844.103	16884.91
844.427	16819.37
844.751	16957.9
845.075	16804.91
845.399	16658.47
845.723	16630.9
846.047	16638.59
846.371	16513.39
846.695	16464.58
847.019	16375.32
847.343	16300.74
847.666	16237.02
847.99	16176.68
848.313	16122.67
848.637	16025.72
848.96	16144.14
849.284	16033.41
849.607	15891.04
849.931	15890.81
850.254	15727.2
850.577	15687.2
850.9	15538.96
851.223	15566.75
851.546	15459.18
851.869	15274.78
852.192	15437.26
852.515	15260.55
852.838	15231.39
853.161	15193.65
853.483	15082.47
853.806	15100.55
854.129	15018.07
854.451	15069.14
854.774	14962.47
855.096	14913.21
855.419	14780.56
855.741	14738.75
856.063	14676.15
856.385	14712.08
856.708	14606.1
857.03	14582.82
857.352	14656.95
857.674	14480.45
857.996	14458.98
858.318	14391.42
858.64	14396.61
858.961	14347.8
859.283	14332.89
859.605	14228.48
859.926	14224.64
860.248	14174.92
860.57	14123.85
860.891	14205.88
861.212	14085.66
861.534	14073.01
861.855	14058.54
862.176	13984.19
862.498	13933.8
862.819	13890.19
863.14	13923.86
863.461	13883.18
863.782	13785.56
864.103	13846.12
864.424	13756.86
864.745	13743.3
865.065	13660.14
865.386	13653.58
865.707	13711.89
866.027	13695.39
866.348	13569.52
866.668	13613.58
866.989	13564.09
867.309	13540.14
867.63	13605.67
867.95	13516.18
868.27	13405.9
868.59	13428.5
868.91	13418.33
869.23	13367.04
869.55	13361.39
869.87	13488.61
870.19	13381.5
870.51	13367.71
870.83	13369.3
871.15	13296.75
871.469	13259.02
871.789	13346.25
872.109	13299.24
872.428	13131.56
872.748	13241.84
873.067	13176.53
873.386	13184.22
873.706	13085.01
874.025	13081.85
874.344	13090.21
874.663	13038.91
874.982	13011.56
875.301	13002.98
875.62	13015.63
875.939	12883.88
876.258	12934.28
876.577	12944
876.896	12921.4
877.214	12857.9
877.533	12864.68
877.852	12779.25
878.17	12808.41
878.489	12714.4
878.807	12717.34
879.125	12798.46
879.444	12724.57
879.762	12570.45
880.08	12731.57
880.398	12619.48
880.716	12624.68
881.034	12599.6
881.352	12603.89
881.67	12536.1
881.988	12508.3
882.306	12489.09
882.624	12387.63
882.941	12348.31
883.259	12367.06
883.577	12347.4
883.894	12322.77
884.212	12334.07
884.529	12319.38
884.846	12310.34
885.164	12211.81
885.481	12226.73
885.798	12197.12
886.115	12186.73
886.432	12109.22
886.75	12108.09
887.067	12038.03
887.383	12073.51
887.7	12142.43
888.017	11988.77
888.334	11958.26
888.651	11953.06
888.967	11953.51
889.284	11838.26
889.6	11781.09
889.917	11772.73
890.233	11853.18
890.55	11714.88
890.866	11706.97
891.182	11707.64
891.498	11569.34
891.815	11560.98
892.131	11485.05
892.447	11555.78
892.763	11534.77
893.079	11435.79
893.395	11423.36
893.71	11331.61
894.026	11323.02
894.342	11366.86
894.657	11232.63
894.973	11248
895.289	11223.14
895.604	11180.2
895.92	11074.44
896.235	11151.05
896.55	11000.54
896.865	10939.3
897.181	11005.74
897.496	11020.88
897.811	10864.95
898.126	10885.07
898.441	10796.93
898.756	10773.43
899.071	10733.88
899.386	10692.53
899.7	10620.67
900.015	10567.34
900.33	10559.2
900.644	10544.96
900.959	10546.32
901.273	10458.41
901.588	10460.22
901.902	10361.69
902.216	10388.81
902.531	10320.56
902.845	10273.56
903.159	10252.09
903.473	10171.19
903.787	10204.86
904.101	10114.69
904.415	10122.15
904.729	10087.57
905.042	9956.28
905.356	9978.2
905.67	9927.58
905.984	9906.79
906.297	9916.5
906.611	9795.83
906.924	9834.93
907.237	9798.09
907.551	9822.72
907.864	9697.53
908.177	9668.83
908.491	9713.8
908.804	9659.11
909.117	9558.1
909.43	9535.95
909.743	9440.59
910.056	9438.55
910.368	9413.24
910.681	9329.85
910.994	9372.34
911.307	9311.55
911.619	9190.87
911.932	9257.31
912.244	9125.34
912.557	9216.86
912.869	9104.55
913.181	9051.67
913.494	9024.55
913.806	8961.05
914.118	8925.34
914.43	8885.35
914.742	8838.57
915.054	8841.73
915.366	8856.65
915.678	8717.89
915.99	8694.84
916.302	8691
916.613	8630.89
916.925	8601.96
917.236	8628.18
917.548	8571.91
917.859	8568.52
918.171	8485.58
918.482	8453.72
918.794	8400.39
919.105	8415.53
919.416	8295.08
919.727	8250.56
920.038	8304.8
920.349	8203.33
920.66	8171.69
920.971	8178.47
921.282	8132.14
921.593	8105.93
921.903	8015.99
922.214	8069.55
922.525	8031.81
922.835	7947.29
923.146	7899.61
923.456	7898.25
923.767	7808.31
924.077	7812.61
924.387	7788.43
924.697	7733.06
925.008	7726.51
925.318	7688.54
925.628	7622.33
925.938	7608.77
926.248	7572.16
926.558	7493.29
926.867	7486.74
927.177	7455.1
927.487	7423.24
927.796	7410.13
928.106	7343.24
928.416	7305.73
928.725	7286.29
929.034	7278.61
929.344	7322.22
929.653	7249
929.962	7128.78
930.271	7181.89
930.581	7105.51
930.89	7097.82
931.199	7024.83
931.508	6992.06
931.817	7024.15
932.125	6940.76
932.434	6936.24
932.743	6866.87
933.051	6874.55
933.36	6869.58
933.669	6773.08
933.977	6779.41
934.286	6781.22
934.594	6781.45
934.902	6716.36
935.21	6650.6
935.519	6663.26
935.827	6655.57
936.135	6569.93
936.443	6494.9
936.751	6508.91
937.059	6486.76
937.367	6473.21
937.674	6494.45
937.982	6444.28
938.29	6375.35
938.597	6415.58
938.905	6312.53
939.213	6373.77
939.52	6260.56
939.827	6240.44
940.135	6196.6
940.442	6174.91
940.749	6210.16
941.056	6179.88
941.363	6142.82
941.67	6136.04
941.977	6011.97
942.284	6005.42
942.591	5983.73
942.898	5995.93
943.205	5955.25
943.511	5973.33
943.818	5893.56
944.125	5862.37
944.431	5858.31
944.738	5823.96
945.044	5810.17
945.35	5791.19
945.657	5726.56
945.963	5674.58
946.269	5712.32
946.575	5717.07
946.881	5679.33
947.187	5638.43
947.493	5562.72
947.799	5568.6
948.105	5529.28
948.41	5527.47
948.716	5546.68
949.022	5477.3
949.327	5471.42
949.633	5447.24
949.938	5424.87
950.244	5373.35
950.549	5378.09
950.854	5332.44
951.16	5297.19
951.465	5275.72
951.77	5242.5
952.075	5275.95
952.38	5201.37
952.685	5217.42
952.99	5175.61
953.294	5153.24
953.599	5122.28
953.904	5100.59
954.209	5034.6
954.513	5115.73
954.818	5062.17
955.122	5047.93
955.426	5003.87
955.731	4951.21
956.035	4925.9
956.339	4950.76
956.643	4915.05
956.948	4896.52
957.252	4870.76
957.556	4851.55
957.86	4814.04
958.163	4814.04
958.467	4723.42
958.771	4749.18
959.075	4744.89
959.378	4670.32
959.682	4683.2
959.985	4648.17
960.289	4649.07
960.592	4643.42
960.896	4636.87
961.199	4599.81
961.502	4608.17
961.805	4551
962.108	4461.06
962.411	4487.27
962.714	4489.3
963.017	4506.7
963.32	4523.65
963.623	4492.92
963.926	4429.19
964.228	4367.05
964.531	4325.01
964.833	4324.56
965.136	4312.36
965.438	4315.07
965.741	4275.07
966.043	4298.8
966.345	4261.06
966.648	4234.85
966.95	4218.58
967.252	4187.39
967.554	4232.59
967.856	4200.04
968.158	4151.23
968.46	4134.06
968.761	4101.06
969.063	4082.31
969.365	4028.52
969.666	4068.97
969.968	4023.1
970.269	4055.42
970.571	4004.57
970.872	4000.05
971.174	3929.54
971.475	3953.5
971.776	3928.41
972.077	3935.19
972.378	3887.51
972.679	3844.8
972.98	3819.72
973.281	3879.15
973.582	3843.22
973.883	3827.17
974.183	3769.32
974.484	3780.17
974.785	3744.92
975.085	3741.3
975.386	3738.14
975.686	3713.05
975.986	3720.74
976.287	3685.26
976.587	3620.63
976.887	3619.04
977.187	3645.26
977.487	3645.48
977.787	3582.89
978.087	3567.29
978.387	3556.67
978.687	3574.75
978.987	3523.45
979.286	3517.58
979.586	3507.41
979.885	3509.22
980.185	3510.12
980.484	3426.05
980.784	3464.7
981.083	3409.33
981.382	3438.48
981.682	3365.26
981.981	3369.78
982.28	3370.01
982.579	3332.5
982.878	3317.81
983.177	3342.44
983.475	3323.68
983.774	3271.03
984.073	3263.57
984.372	3231.03
984.67	3266.06
984.969	3216.34
985.267	3213.86
985.566	3187.64
985.864	3169.34
986.162	3185.83
986.461	3125.5
986.759	3145.38
987.057	3147.42
987.355	3066.74
987.653	3055.67
987.951	3047.76
988.249	3036.69
988.547	3045.95
988.844	3044.6
989.142	3018.38
989.44	3026.74
989.737	3029.45
990.035	2953.3
990.332	2949.68
990.63	2950.59
990.927	2927.31
991.224	2946.74
991.521	2929.34
991.819	2913.3
992.116	2903.58
992.413	2913.75
992.71	2868.55
993.006	2864.71
993.303	2810.7
993.6	2797.14
993.897	2793.53
994.193	2822.23
994.49	2745.39
994.787	2748.11
995.083	2768.44
995.379	2725.28
995.676	2750.37
995.972	2692.97
996.268	2696.13
996.565	2648.45
996.861	2690.25
997.157	2697.94
997.453	2627.43
997.749	2636.92
998.044	2588.34
998.34	2595.12
998.636	2616.58
998.932	2572.29
999.227	2523.7
999.523	2549.92
999.818	2533.2
1000.114	2522.35
1000.409	2497.72
1000.704	2508.56
1001	2471.5
1001.295	2472.86
1001.59	2430.6
1001.885	2451.16
1002.18	2426.53
1002.475	2413.88
1002.77	2379.75
1003.065	2426.76
1003.359	2393.99
1003.654	2365.06
1003.949	2331.85
1004.243	2334.78
1004.538	2308.8
1004.832	2331.39
1005.127	2319.42
1005.421	2285.74
1005.715	2261.11
1006.009	2272.64
1006.304	2244.62
1006.598	2227.67
1006.892	2236.03
1007.186	2194.9
1007.48	2192.19
1007.773	2145.86
1008.067	2159.19
1008.361	2173.88
1008.655	2128.01
1008.948	2138.18
1009.242	2112.42
1009.535	2117.16
1009.829	2091.17
1010.122	2114.9
1010.415	2059.54
1010.708	2051.4
1011.001	2045.3
1011.295	2033.32
1011.588	2022.02
1011.881	2006.2
1012.173	1998.75
1012.466	2003.27
1012.759	2009.37
1013.052	1965.53
1013.344	1928.01
1013.637	1914.46
1013.93	1906.55
1014.222	1908.35
1014.514	1907.22
1014.807	1902.48
1015.099	1859.99
1015.391	1861.35
1015.683	1860.67
1015.976	1841.24
1016.268	1843.5
1016.56	1842.37
1016.851	1812.99
1017.143	1834.46
1017.435	1790.62
1017.727	1778.87
1018.018	1756.27
1018.31	1750.62
1018.602	1728.92
1018.893	1732.09
1019.185	1714.23
1019.476	1700.9
1019.767	1709.49
1020.058	1695.25
1020.35	1669.26
1020.641	1644.86
1020.932	1651.41
1021.223	1649.6
1021.514	1617.06
1021.804	1616.84
1022.095	1601.92
1022.386	1610.96
1022.677	1605.54
1022.967	1605.08
1023.258	1573.9
1023.548	1564.63
1023.839	1530.96
1024.129	1555.37
1024.419	1521.7
1024.709	1515.14
1025	1495.26
1025.29	1486.22
1025.58	1470.4
1025.87	1485.09
1026.16	1457.97
1026.449	1430.4
1026.739	1433.11
1027.029	1410.51
1027.319	1432.66
1027.608	1423.39
1027.898	1426.11
1028.187	1409.84
1028.477	1380.91
1028.766	1399.89
1029.055	1352.21
1029.344	1368.93
1029.634	1352.66
1029.923	1346.11
1030.212	1363.96
1030.501	1323.74
1030.79	1316.96
1031.078	1331.42
1031.367	1305.21
1031.656	1286.9
1031.945	1293
1032.233	1271.99
1032.522	1283.74
1032.81	1226.79
1033.099	1267.24
1033.387	1258.2
1033.675	1213
1033.963	1217.75
1034.251	1200.12
1034.54	1189.28
1034.828	1197.64
1035.116	1193.57
1035.403	1192.89
1035.691	1183.4
1035.979	1187.02
1036.267	1165.32
1036.554	1172.78
1036.842	1155.15
1037.129	1149.96
1037.417	1118.54
1037.704	1107.24
1037.992	1120.13
1038.279	1108.15
1038.566	1088.04
1038.853	1088.04
1039.14	1088.04
