Data from hue_20_FLMS001491_100.txt Node
Date: Mon Feb 06 15:35:01 GMT 2017
User: dcchb
Spectrometer: FLMS00149
Trigger mode: 0
Integration Time (sec): 2.000000E-2
Scans to average: 10
Electric dark correction enabled: true
Nonlinearity correction enabled: false
Boxcar width: 0
XAxis mode: Wavelengths
Number of Pixels in Spectrum: 2048
>>>>>Begin Spectral Data<<<<<
341.393	-16.52
341.776	-16.52
342.16	-16.52
342.543	-51.1
342.927	-77.99
343.31	-48.84
343.693	-78.67
344.077	-59.91
344.46	-66.24
344.843	-44.77
345.226	-39.35
345.61	-35.06
345.993	-6.13
346.376	-15.4
346.759	13.3
347.142	30.71
347.525	37.71
347.908	55.11
348.291	67.99
348.674	78.61
349.057	110.93
349.44	128.78
349.823	150.25
350.206	162
350.588	196.12
350.971	225.95
351.354	239.74
351.737	230.02
352.119	248.33
352.502	263.69
352.884	272.96
353.267	291.72
353.65	284.71
354.032	292.62
354.414	305.05
354.797	338.27
355.179	294.88
355.562	333.07
355.944	339.4
356.326	317.7
356.709	338.49
357.091	347.99
357.473	346.18
357.855	329.45
358.238	346.63
358.62	317.03
359.002	336.46
359.384	354.76
359.766	336.46
360.148	342.34
360.53	353.41
360.912	357.25
361.294	356.8
361.676	352.73
362.057	326.29
362.439	321.32
362.821	325.84
363.203	338.49
363.584	316.12
363.966	334.65
364.348	339.85
364.729	331.71
365.111	309.79
365.493	344.14
365.874	338.27
366.256	331.94
366.637	338.27
367.019	332.62
367.4	317.7
367.781	322.45
368.163	319.29
368.544	324.71
368.925	319.74
369.306	321.55
369.688	335.56
370.069	333.07
370.45	316.8
370.831	313.64
371.212	312.28
371.593	323.81
371.974	323.13
372.355	331.71
372.736	320.19
373.117	331.71
373.498	330.13
373.879	339.4
374.26	338.04
374.641	334.2
375.021	314.77
375.402	333.52
375.783	322.22
376.163	336.46
376.544	328.55
376.925	316.35
377.305	339.17
377.686	345.5
378.066	345.5
378.447	330.81
378.827	348.89
379.208	338.04
379.588	352.28
379.968	351.6
380.349	349.57
380.729	346.4
381.109	349.57
381.489	367.65
381.87	361.54
382.25	348.89
382.63	350.02
383.01	361.32
383.39	349.34
383.77	353.18
384.15	343.47
384.53	349.12
384.91	351.83
385.29	372.17
385.67	369
386.049	385.5
386.429	353.86
386.809	358.38
387.189	355.67
387.568	383.69
387.948	385.95
388.328	378.94
388.707	372.39
389.087	359.51
389.466	390.92
389.846	372.17
390.225	377.81
390.605	373.75
390.984	390.24
391.363	366.97
391.743	394.76
392.122	390.24
392.501	391.37
392.881	399.06
393.26	400.64
393.639	418.04
394.018	387.53
394.397	401.77
394.776	385.05
395.155	390.47
395.534	394.76
395.913	406.97
396.292	408.32
396.671	399.51
397.05	398.83
397.429	416.68
397.808	407.64
398.186	387.31
398.565	434.76
398.944	406.06
399.323	397.48
399.701	415.55
400.08	432.5
400.458	436.34
400.837	428.66
401.215	429.34
401.594	419.17
401.972	431.82
402.351	404.93
402.729	434.31
403.107	440.41
403.486	446.51
403.864	435.67
404.242	442.45
404.62	460.98
404.999	462.33
405.377	462.11
405.755	452.84
406.133	444.48
406.511	443.35
406.889	454.88
407.267	455.55
407.645	460.52
408.023	487.64
408.401	475.44
408.779	485.61
409.156	482.9
409.534	467.98
409.912	489.68
410.29	487.42
410.667	494.65
411.045	488.09
411.422	509.11
411.8	509.56
412.178	530.35
412.555	521.99
412.933	537.58
413.31	510.92
413.687	536
414.065	545.27
414.442	538.71
414.819	540.52
415.197	523.8
415.574	537.36
415.951	571.48
416.328	536.45
416.705	540.75
417.082	552.27
417.46	544.14
417.837	554.53
418.214	562.44
418.591	564.7
418.967	582.33
419.344	572.61
419.721	582.78
420.098	587.75
420.475	585.27
420.852	578.94
421.228	581.43
421.605	602.67
421.982	590.92
422.358	604.02
422.735	596.11
423.111	603.12
423.488	623.23
423.864	638.37
424.241	611.03
424.617	607.64
424.994	625.49
425.37	621.88
425.746	637.02
426.123	642.21
426.499	647.64
426.875	634.08
427.251	665.72
427.627	658.49
428.003	662.78
428.379	675.43
428.756	668.2
429.132	678.37
429.507	688.09
429.883	702.33
430.259	695.55
430.635	704.36
431.011	723.57
431.387	726.05
431.763	735.77
432.138	746.62
432.514	736.68
432.89	733.96
433.265	749.33
433.641	774.87
434.016	765.38
434.392	777.13
434.767	787.52
435.143	794.08
435.518	784.36
435.894	786.62
436.269	809.89
436.644	807.63
437.02	839.72
437.395	807.18
437.77	829.1
438.145	828.88
438.52	855.32
438.895	844.02
439.271	852.15
439.646	855.54
440.021	884.92
440.395	860.74
440.77	858.25
441.145	882.43
441.52	868.88
441.895	887.18
442.27	888.54
442.645	906.16
443.019	910.91
443.394	917.91
443.769	924.02
444.143	910.91
444.518	931.25
444.892	927.4
445.267	942.77
445.641	947.07
446.016	969.89
446.39	975.54
446.764	946.39
447.139	950.23
447.513	983
447.887	969.44
448.262	964.47
448.636	967.4
449.01	1003.11
449.384	1010.11
449.758	995.88
450.132	1010.34
450.506	988.42
450.88	1015.99
451.254	1041.3
451.628	1042.88
452.002	1077.46
452.376	1064.12
452.75	1067.51
453.123	1076.55
453.497	1087.4
453.871	1088.98
454.244	1128.76
454.618	1116.33
454.992	1157.46
455.365	1120.39
455.739	1161.07
456.112	1166.72
456.486	1185.03
456.859	1198.13
457.232	1216.21
457.606	1203.78
457.979	1249.43
458.352	1250.33
458.725	1235.87
459.099	1301.63
459.472	1269.54
459.845	1278.58
460.218	1293.72
460.591	1345.02
460.964	1335.08
461.337	1348.86
461.71	1343.21
462.083	1397.45
462.456	1400.16
462.829	1390.44
463.201	1384.79
463.574	1387.96
463.947	1429.76
464.32	1436.32
464.692	1474.06
465.065	1486.26
465.438	1532.13
465.81	1521.74
466.183	1520.84
466.555	1585.92
466.928	1582.08
467.3	1589.08
467.672	1618.91
468.045	1618.91
468.417	1671.34
468.789	1658.46
469.161	1674.73
469.534	1722.64
469.906	1728.06
470.278	1736.65
470.65	1804.67
471.022	1801.96
471.394	1854.16
471.766	1851
472.138	1877.21
472.51	1902.97
472.882	1938.45
473.253	1960.82
473.625	1988.39
473.997	2038.34
474.369	2042.86
474.74	2053.93
475.112	2102.52
475.484	2148.39
475.855	2152.46
476.227	2184.77
476.598	2258.67
476.97	2290.53
477.341	2316.75
477.713	2368.72
478.084	2358.55
478.455	2452.11
478.827	2447.82
479.198	2511.09
479.569	2530.75
479.94	2595.16
480.311	2651.2
480.682	2702.95
481.053	2751.99
481.424	2807.36
481.795	2829.5
482.166	2908.6
482.537	2931.42
482.908	3000.8
483.279	3015.26
483.65	3071.53
484.021	3190.62
484.391	3175.71
484.762	3209.15
485.133	3255.93
485.503	3313.56
485.874	3370.28
486.244	3411.86
486.615	3477.85
486.985	3522.37
487.356	3636.03
487.726	3629.48
488.097	3700.89
488.467	3733.88
488.837	3788.12
489.207	3900.66
489.578	3932.98
489.948	3965.74
490.318	4024.72
490.688	4057.27
491.058	4118.51
491.428	4160.09
491.798	4228.34
492.168	4287.54
492.538	4304.72
492.908	4397.14
493.278	4413.42
493.648	4478.27
494.017	4546.74
494.387	4602.11
494.757	4598.72
495.126	4692.73
495.496	4700.19
495.866	4713.52
496.235	4778.38
496.605	4825.16
496.974	4855.21
497.344	4958.71
497.713	4964.36
498.082	4933.85
498.452	5030.35
498.821	5036.9
499.19	5089.78
499.559	5143.79
499.928	5148.76
500.298	5156.22
500.667	5236.22
501.036	5263.56
501.405	5306.05
501.774	5267.4
502.143	5342.43
502.512	5354.41
502.88	5452.48
503.249	5428.76
503.618	5497
503.987	5560.28
504.356	5576.32
504.724	5592.59
505.093	5623.78
505.462	5707.62
505.83	5690.44
506.199	5699.03
506.567	5812.25
506.936	5777.9
507.304	5873.94
507.672	5860.38
508.041	5890.89
508.409	5965.69
508.777	5943.32
509.145	6003.66
509.514	5995.29
509.882	6040.72
510.25	6073.03
510.618	6100.83
510.986	6125.01
511.354	6132.92
511.722	6212.24
512.09	6335.17
512.458	6263.76
512.826	6247.94
513.193	6369.52
513.561	6347.83
513.929	6383.53
514.297	6475.28
514.664	6530.42
515.032	6520.93
515.4	6606.58
515.767	6591.89
516.135	6608.84
516.502	6559.57
516.869	6670.98
517.237	6721.15
517.604	6677.31
517.972	6814.71
518.339	6809.74
518.706	6882.05
519.073	6881.15
519.44	6903.29
519.808	6963.86
520.175	6938.77
520.542	7037.98
520.909	7016.51
521.276	7092.44
521.643	7124.53
522.009	7154.81
522.376	7165.21
522.743	7233.45
523.11	7266.9
523.477	7398.2
523.843	7375.37
524.21	7492.66
524.577	7534.91
524.943	7543.95
525.31	7588.02
525.676	7640.9
526.043	7719.32
526.409	7794.8
526.776	7838.64
527.142	7847.22
527.508	7822.82
527.874	7933.1
528.241	7977.62
528.607	8029.37
528.973	8049.93
529.339	8129.7
529.705	8133.09
530.071	8195.24
530.437	8286.53
530.803	8281.56
531.169	8301.9
531.535	8413.76
531.901	8383.71
532.267	8417.83
532.632	8472.07
532.998	8504.83
533.364	8578.05
533.73	8593.19
534.095	8613.76
534.461	8646.07
534.826	8714.77
535.192	8734.88
535.557	8827.99
535.923	8802.68
536.288	8905.05
536.653	8883.13
537.019	8908.21
537.384	8943.47
537.749	9014.42
538.114	9084.48
538.479	9077.47
538.845	9120.64
539.21	9096.91
539.575	9153.63
539.94	9205.38
540.305	9230.01
540.67	9279.05
541.034	9287.64
541.399	9334.42
541.764	9372.15
542.129	9409.22
542.494	9468.2
542.858	9486.05
543.223	9515.88
543.587	9600.62
543.952	9566.73
544.316	9650.34
544.681	9625.26
545.045	9661.19
545.41	9689.43
545.774	9753.84
546.138	9776.21
546.503	9788.64
546.867	9811.01
547.231	9914.29
547.595	9954.96
547.959	9955.42
548.324	9987.05
548.688	10049.88
549.052	10080.38
549.416	10013.49
549.779	10131.46
550.143	10160.83
550.507	10260.27
550.871	10242.19
551.235	10307.72
551.599	10383.65
551.962	10367.61
552.326	10398.79
552.689	10518.57
553.053	10391.34
553.417	10474.27
553.78	10614.83
554.143	10526.25
554.507	10542.52
554.87	10647.38
555.234	10771.21
555.597	10716.3
555.96	10718.33
556.323	10790.87
556.686	10775.51
557.05	10888.27
557.413	10888.72
557.776	10963.3
558.139	10954.49
558.502	11037.65
558.865	11031.32
559.228	11102.73
559.59	11165.55
559.953	11184.31
560.316	11300.47
560.679	11260.69
561.041	11414.81
561.404	11373.91
561.767	11447.58
562.129	11410.29
562.492	11563.28
562.854	11569.61
563.217	11617.07
563.579	11638.08
563.941	11633.34
564.304	11699.55
564.666	11826.33
565.028	11843.95
565.39	11874.46
565.753	11863.16
566.115	11996.04
566.477	12041.24
566.839	12075.59
567.201	12174.79
567.563	12136.38
567.925	12214.79
568.287	12262.7
568.648	12358.97
569.01	12316.71
569.372	12420.89
569.734	12400.1
570.095	12483.94
570.457	12548.57
570.819	12543.14
571.18	12593.54
571.542	12668.57
571.903	12686.42
572.265	12754.89
572.626	12817.71
572.987	12908.33
573.349	12893.87
573.71	13034.21
574.071	13077.14
574.432	13024.04
574.794	13273.07
575.155	13262.45
575.516	13231.71
575.877	13297.48
576.238	13447.75
576.599	13575.21
576.96	13561.2
577.32	13621.99
577.681	13715.09
578.042	13750.34
578.403	13845.48
578.763	13853.62
579.124	13950.34
579.485	14181.75
579.845	14176.55
580.206	14303.55
580.566	14386.26
580.927	14567.95
581.287	14667.16
581.648	14739.25
582.008	14947.38
582.368	15026.24
582.728	15052.23
583.089	15113.02
583.449	15256.52
583.809	15514.82
584.169	15612.89
584.529	15708.71
584.889	15980.57
585.249	16079.55
585.609	16281.58
585.969	16495.81
586.329	16680.66
586.688	16909.36
587.048	17016.02
587.408	17165.85
587.768	17383.47
588.127	17626.17
588.487	17738.71
588.846	18122.66
589.206	18279.27
589.565	18481.97
589.925	18752.47
590.284	18921.96
590.643	19262.74
591.003	19483.3
591.362	19763.97
591.721	19970.97
592.08	20210.74
592.44	20643.5
592.799	20779.99
593.158	21029.02
593.517	21358.51
593.876	21610.03
594.235	21864.48
594.593	22217.47
594.952	22447.07
595.311	22719.37
595.67	22970.44
596.029	23380.83
596.387	23702.4
596.746	24066.23
597.104	24223.29
597.463	24446.79
597.822	24830.96
598.18	25071.63
598.538	25402.24
598.897	25785.73
599.255	25821.44
599.613	26546.39
599.972	26522.21
600.33	26856.89
600.688	27002.43
601.046	27535.07
601.404	27955.17
601.762	27917.88
602.12	28397.87
602.478	28626.56
602.836	28986.1
603.194	29090.73
603.552	29448.46
603.91	29531.62
604.268	29999.41
604.625	30151.5
604.983	30491.15
605.341	30623.57
605.698	31096.33
606.056	31288.87
606.413	31503.1
606.771	31976.98
607.128	32072.57
607.485	32332.23
607.843	32448.38
608.2	32964.3
608.557	33204.75
608.914	33215.14
609.272	33799.54
609.629	33966.08
609.986	34321.56
610.343	34353.87
610.7	34863.69
611.057	34832.73
611.414	35071.14
611.771	35333.51
612.127	35557.91
612.484	35748.64
612.841	36016.88
613.198	35977.56
613.554	36231.79
613.911	36727.37
614.267	36843.97
614.624	36924.2
614.98	37046.46
615.337	37310.18
615.693	37472.66
616.05	37495.26
616.406	37947.45
616.762	37961.01
617.118	38222.02
617.475	38347.89
617.831	38609.8
618.187	38736.58
618.543	38916.24
618.899	39241.65
619.255	39146.29
619.611	39410.46
619.967	39563.23
620.323	39721.64
620.678	39633.05
621.034	39623.79
621.39	39777.23
621.746	39911.01
622.101	40342.64
622.457	40019.48
622.812	40414.05
623.168	40522.75
623.523	40635.29
623.879	40847.94
624.234	40695.17
624.589	40950.76
624.945	41001.61
625.3	41154.82
625.655	41249.51
626.01	41293.35
626.365	41341.26
626.72	41367.7
627.075	41516.62
627.43	41647.69
627.785	41484.98
628.14	41699.44
628.495	41641.81
628.85	41741.93
629.205	41724.75
629.559	41982.82
629.914	41872.77
630.269	41932.65
630.623	41814.24
630.978	41774.69
631.332	42130.39
631.687	42075.93
632.041	42057.17
632.396	42133.33
632.75	42065.53
633.104	42105.31
633.459	41901.92
633.813	42025.99
634.167	42021.01
634.521	42081.13
634.875	42192.53
635.229	42179.43
635.583	41916.61
635.937	42153.44
636.291	42080.45
636.645	42153.89
636.999	41994.57
637.352	42081.58
637.706	41929.72
638.06	42212.42
638.413	42085.42
638.767	41964.29
639.121	42021.01
639.474	41942.15
639.828	42027.12
640.181	42175.59
640.534	42084.97
640.888	41939.21
641.241	41761.36
641.594	41977.63
641.947	41959.09
642.301	41867.35
642.654	42121.8
643.007	41956.83
643.36	42093.55
643.713	41964.07
644.066	42235.47
644.419	41843.17
644.771	41569.05
645.124	41202.5
645.477	41169.28
645.83	40924.32
646.182	40874.38
646.535	40678.68
646.888	40892
647.24	40551.9
647.593	40866.92
647.945	40706.47
648.298	40543.76
648.65	40537.21
649.002	40530.43
649.355	40707.6
649.707	40586.7
650.059	40778.11
650.411	41077.99
650.763	41204.09
651.115	41712.32
651.467	41615.83
651.819	41522.5
652.171	41397.53
652.523	41477.07
652.875	41469.62
653.227	41230.3
653.578	41503.51
653.93	41354.14
654.282	41334.03
654.633	41094.03
654.985	41348.04
655.337	41166.8
655.688	41202.5
656.039	41308.94
656.391	41051.1
656.742	41199.79
657.094	41146.46
657.445	41293.35
657.796	41148.04
658.147	41088.16
658.498	41129.51
658.849	41272.78
659.2	41104.2
659.551	41051.1
659.902	41215.61
660.253	41054.03
660.604	41025.56
660.955	40968.16
661.306	41134.26
661.656	40969.74
662.007	40901.95
662.358	41081.15
662.708	40993.7
663.059	40942.85
663.409	40774.72
663.76	41025.33
664.11	41006.58
664.461	41030.53
664.811	41045.67
665.161	40964.09
665.511	40965.67
665.862	40948.27
666.212	41037.54
666.562	41074.82
666.912	41002.74
667.262	40908.73
667.612	41006.8
667.962	40999.35
668.312	40924.55
668.662	41033.02
669.011	40910.53
669.361	40864.43
669.711	40957.54
670.06	40876.64
670.41	40704.66
670.76	40879.35
671.109	40924.77
671.459	40779.69
671.808	40727.71
672.157	40813.59
672.507	40600.71
672.856	40589.86
673.205	40722.97
673.554	40831.89
673.904	40687.72
674.253	40951.21
674.602	40816.53
674.951	40163.21
675.3	40020.16
675.649	40700.37
675.998	40695.62
676.346	40432.58
676.695	40633.48
677.044	40430.77
677.393	40496.76
677.741	40544.67
678.09	40475.29
678.438	40396.88
678.787	40407.5
679.135	40344.9
679.484	40270.55
679.832	40203.43
680.181	39989.65
680.529	40203.43
680.877	39968.19
681.225	40071.23
681.573	40273.26
681.922	39877.57
682.27	39964.34
682.618	39751.69
682.966	39715.31
683.314	39873.05
683.661	39765.93
684.009	39646.39
684.357	39527.75
684.705	39524.58
685.053	39574.75
685.4	39473.74
685.748	39273.06
686.095	39257.02
686.443	39241.88
686.79	39125.72
687.138	39212.05
687.485	39117.14
687.832	38922.11
688.18	39028.55
688.527	38902.9
688.874	38834.2
689.221	38616.36
689.568	38643.48
689.915	38367.32
690.262	38583.14
690.609	38429.02
690.956	38276.71
691.303	38215.01
691.65	38064.96
691.997	38112.64
692.344	37909.71
692.69	37821.35
693.037	37866.55
693.383	37457.97
693.73	37684.18
694.077	37521.92
694.423	37465.43
694.769	37403.73
695.116	37250.29
695.462	37291.19
695.808	37135.94
696.155	37173.01
696.501	36896.18
696.847	36926.68
697.193	36622.51
697.539	36843.97
697.885	36463.65
698.231	36472.23
698.577	36392.69
698.923	36331.22
699.269	36178.46
699.614	36019.14
699.96	35993.6
700.306	35926.03
700.651	35804.68
700.997	35726.04
701.342	35758.13
701.688	35647.85
702.033	35406.5
702.379	35521.75
702.724	35420.74
703.069	35376.22
703.415	34877.7
703.76	35198.37
704.105	35055.55
704.45	34909.56
704.795	34666.4
705.14	34691.04
705.485	34662.11
705.83	34440.2
706.175	34516.13
706.52	34557.93
706.865	34316.58
707.209	34275.23
707.554	34204.5
707.899	34167.21
708.243	34063.26
708.588	33889.02
708.932	33892.41
709.277	33790.5
709.621	33954.11
709.966	33701.01
710.31	33625.3
710.654	33445.65
710.998	33541.91
711.342	33424.4
711.687	33296.27
712.031	33241.58
712.375	33048.82
712.719	33121.36
713.063	33179.66
713.407	33185.99
713.75	32957.98
714.094	32963.17
714.438	32868.71
714.782	32859.9
715.125	32676.85
715.469	32719.56
715.812	32472.56
716.156	32395.73
716.499	32388.5
716.843	32500.81
717.186	32295.39
717.53	32409.97
717.873	32336.3
718.216	32123.19
718.559	32079.35
718.902	31875.29
719.246	32016.76
719.589	31835.97
719.932	31768.85
720.275	31807.72
720.617	31745.8
720.96	31684.11
721.303	31599.59
721.646	31625.13
721.989	31423.55
722.331	31605.24
722.674	31447.28
723.016	31449.31
723.359	31461.97
723.701	31460.16
724.044	31223.56
724.386	30984.47
724.729	31235.08
725.071	31108.76
725.413	30991.02
725.755	31007.29
726.097	30913.96
726.439	30838.26
726.782	30832.16
727.124	30830.35
727.465	30638.26
727.807	30807.3
728.149	30673.97
728.491	30528.89
728.833	30677.58
729.175	30530.02
729.516	30415.9
729.858	30411.38
730.199	30425.39
730.541	30356.91
730.882	30321.66
731.224	30419.96
731.565	30149.24
731.906	30063.36
732.248	30120.99
732.589	29969.13
732.93	29884.84
733.271	30035.11
733.612	29989.01
733.953	29992.63
734.294	29903.82
734.635	29851.16
734.976	29897.49
735.317	29576.37
735.658	29762.13
735.999	29704.28
736.339	29593.54
736.68	29640.32
737.021	29572.75
737.361	29553.77
737.702	29629.48
738.042	29543.6
738.383	29429.25
738.723	29489.59
739.063	29429.25
739.404	29380.89
739.744	29351.06
740.084	29218.64
740.424	29329.14
740.764	29137.06
741.104	29213.44
741.444	29045.08
741.784	29001.7
742.124	28962.6
742.464	28857.97
742.804	28796.05
743.143	28827.46
743.483	28805.99
743.823	28676.96
744.162	28694.36
744.502	28788.14
744.841	28552.22
745.181	28609.16
745.52	28641.48
745.86	28579.11
746.199	28571.88
746.538	28622.27
746.877	28511.54
747.216	28581.37
747.556	28328.94
747.895	28391.54
748.234	28352.22
748.573	28318.32
748.911	28304.31
749.25	28247.82
749.589	28154.49
749.928	28268.83
750.267	28188.84
750.605	28096.63
750.944	28051.44
751.283	28053.47
751.621	28082.4
751.96	27819.35
752.298	27893.7
752.636	27813.48
752.975	27832.91
753.313	27702.75
753.651	27744.33
753.989	27669.75
754.327	27603.77
754.666	27470.21
755.004	27497.78
755.342	27455.07
755.679	27402.87
756.017	27271.57
756.355	27317.45
756.693	27193.61
757.031	27154.06
757.368	27069.54
757.706	27043.78
758.044	27024.57
758.381	26967.62
758.719	26863.45
759.056	26919.94
759.394	26775.31
759.731	26626.16
760.068	26648.54
760.405	26526.96
760.743	26477.02
761.08	26502.1
761.417	26328.55
761.754	26195.22
762.091	26320.64
762.428	26207.64
762.765	25952.06
763.102	26110.7
763.438	25958.61
763.775	25786.41
764.112	25911.38
764.449	25952.06
764.785	25719.97
765.122	25536.48
765.458	25413.09
765.795	25497.61
766.131	25416.93
766.467	25409.93
766.804	25259.42
767.14	25078.86
767.476	25081.35
767.812	25070.95
768.148	24903.95
768.485	24779.21
768.821	24776.5
769.157	24636.61
769.492	24515.49
769.828	24637.06
770.164	24358.88
770.5	24267.36
770.836	24249.96
771.171	24239.79
771.507	24105.78
771.842	23944.2
772.178	23953.01
772.513	23917.99
772.849	23794.6
773.184	23766.8
773.519	23722.29
773.855	23538.56
774.19	23542.63
774.525	23454.95
774.86	23379.02
775.195	23379.02
775.53	23240.72
775.865	23121.17
776.2	22899.26
776.535	22804.34
776.87	22881.18
777.205	22774.97
777.539	22620.39
777.874	22580.39
778.209	22408.87
778.543	22497.91
778.878	22250.69
779.212	22362.32
779.547	22205.49
779.881	22225.83
780.215	21991.48
780.55	22006.4
780.884	21860.87
781.218	21809.12
781.552	21802.11
781.886	21595.79
782.22	21484.83
782.554	21470.37
782.888	21340.2
783.222	21318.28
783.556	21216.14
783.889	21122.58
784.223	20969.14
784.557	20984.96
784.89	20992.19
785.224	20806.2
785.557	20782.48
785.891	20592.2
786.224	20710.39
786.558	20634.23
786.891	20438.98
787.224	20353.11
787.557	20325.76
787.891	20273.79
788.224	20205.54
788.557	20155.83
788.89	20083.29
789.223	20052.78
789.556	19964.64
789.888	19957.19
790.221	19818.66
790.554	19708.83
790.887	19677.65
791.219	19601.72
791.552	19658.21
791.884	19513.13
792.217	19433.13
792.549	19321.5
792.882	19200.14
793.214	19159.92
793.546	19058.68
793.879	19022.97
794.211	18996.76
794.543	19015.52
794.875	18939.59
795.207	18968.96
795.539	18813.94
795.871	18850.78
796.203	18617.79
796.535	18568.3
796.867	18497.79
797.198	18419.6
797.53	18456.66
797.862	18240.62
798.193	18305.93
798.525	18214.86
798.856	18236.55
799.188	18022.32
799.519	17991.14
799.85	17949.56
800.182	17875.21
800.513	17965.15
800.844	17751.37
801.175	17746.62
801.506	17785.49
801.837	17672.73
802.168	17656
802.499	17653.74
802.83	17481.32
803.161	17401.1
803.491	17420.3
803.822	17399.29
804.153	17223.7
804.483	17256.47
804.814	17108.9
805.145	17167.66
805.475	17165.17
805.805	17095.79
806.136	17103.02
806.466	16919.75
806.796	16949.36
807.126	16745.07
807.457	16822.58
807.787	16762.02
808.117	16676.14
808.447	16633.21
808.777	16655.8
809.107	16584.62
809.436	16442.03
809.766	16560.44
810.096	16400.44
810.426	16336.49
810.755	16421.23
811.085	16345.76
811.414	16281.13
811.744	16212.88
812.073	16150.96
812.403	16183.73
812.732	16110.51
813.061	16100.57
813.39	15981.25
813.719	15922.94
814.049	15940.57
814.378	15959.55
814.707	15776.51
815.036	15863.06
815.365	15726.11
815.693	15603.86
816.022	15624.19
816.351	15619
816.68	15502.61
817.008	15580.35
817.337	15383.97
817.665	15399.34
817.994	15419
818.322	15400.47
818.651	15278.67
818.979	15222.85
819.307	15241.83
819.636	15316.63
819.964	15140.82
820.292	15228.95
820.62	15094.94
820.948	15099.01
821.276	15068.73
821.604	15069.18
821.932	15192.57
822.259	15077.54
822.587	15139.91
822.915	15047.03
823.243	15075.73
823.57	15143.75
823.898	15099.01
824.225	14975.62
824.553	14972.01
824.88	15006.58
825.207	15165.9
825.535	15053.14
825.862	15043.87
826.189	14967.49
826.516	15042.06
826.843	15142.4
827.17	15141.72
827.497	15200.48
827.824	15087.03
828.151	15115.05
828.478	15001.16
828.805	15099.91
829.131	14998.22
829.458	15029.18
829.785	14945.57
830.111	14967.49
830.438	15092.23
830.764	14932.01
831.09	15051.1
831.417	14934.27
831.743	15035.73
832.069	14994.38
832.395	14933.14
832.722	14962.74
833.048	14891.78
833.374	14937.21
833.7	14900.82
834.026	14906.02
834.351	14903.08
834.677	14818.57
835.003	14868.28
835.329	14802.52
835.654	14773.14
835.98	14707.38
836.306	14813.14
836.631	14691.34
836.956	14744.89
837.282	14721.17
837.607	14552.81
837.932	14608.63
838.258	14610.44
838.583	14619.25
838.908	14560.49
839.233	14537.44
839.558	14531.12
839.883	14445.69
840.208	14451.34
840.533	14491.57
840.858	14453.15
841.182	14456.54
841.507	14428.07
841.832	14304.91
842.156	14261.74
842.481	14362.53
842.805	14222.87
843.13	14179.71
843.454	14167.73
843.778	14160.28
844.103	14105.14
844.427	14085.93
844.751	14056.1
845.075	13980.17
845.399	13904.01
845.723	13917.57
846.047	13969.77
846.371	13807.07
846.695	13820.4
847.019	13725.03
847.343	13699.05
847.666	13591.03
847.99	13535.89
848.313	13541.76
848.637	13414.76
848.96	13367.08
849.284	13335.89
849.607	13178.61
849.931	13163.02
850.254	13144.94
850.577	13020.42
850.9	13010.25
851.223	12987.43
851.546	12894.77
851.869	12870.59
852.192	12866.53
852.515	12666.76
852.838	12702.91
853.161	12693.65
853.483	12604.39
853.806	12572.07
854.129	12609.81
854.451	12459.53
854.774	12373.43
855.096	12450.27
855.419	12392.64
855.741	12399.42
856.063	12344.05
856.385	12242.81
856.708	12195.81
857.03	12106.32
857.352	12160.1
857.674	12108.35
857.996	12115.13
858.318	12001.46
858.64	12012.09
858.961	12053.21
859.283	11917.85
859.605	11961.69
859.926	11911.3
860.248	11831.07
860.57	11749.04
860.891	11870.85
861.212	11670.17
861.534	11730.74
861.855	11751.53
862.176	11781.13
862.498	11723.73
862.819	11621.81
863.14	11563.74
863.461	11564.87
863.782	11566.22
864.103	11551.98
864.424	11457.98
864.745	11564.87
865.065	11511.99
865.386	11410.07
865.707	11464.76
866.027	11396.51
866.348	11344.53
866.668	11356.96
866.989	11294.36
867.309	11326.45
867.63	11389.95
867.95	11316.28
868.27	11308.83
868.59	11298.66
868.91	11309.73
869.23	11215.5
869.55	11122.39
869.87	11237.42
870.19	11142.96
870.51	11209.62
870.83	11182.28
871.15	11092.79
871.469	11001.26
871.789	11175.05
872.109	11148.61
872.428	11042.62
872.748	11019.79
873.067	11020.7
873.386	11039.91
873.706	10995.39
874.025	10920.14
874.344	10856.41
874.663	10992
874.982	10925.33
875.301	10847.82
875.62	10863.64
875.939	10783.87
876.258	10846.24
876.577	10789.97
876.896	10824.32
877.214	10792.46
877.533	10822.06
877.852	10760.14
878.17	10681.5
878.489	10720.37
878.807	10691.44
879.125	10625.68
879.444	10589.07
879.762	10641.95
880.08	10555.4
880.398	10635.4
880.716	10573.48
881.034	10535.74
881.352	10504.33
881.67	10517.66
881.988	10516.31
882.306	10503.88
882.624	10447.83
882.941	10402.18
883.259	10397.89
883.577	10379.59
883.894	10334.16
884.212	10295.97
884.529	10215.97
884.846	10264.79
885.164	10264.56
885.481	10214.17
885.798	10184.79
886.115	10153.38
886.432	10201.29
886.75	10142.53
887.067	10075.19
887.383	10062.08
887.7	10068.86
888.017	10027.28
888.334	10094.4
888.651	10011.91
888.967	9987.28
889.284	9928.98
889.6	9923.33
889.917	9758.36
890.233	9833.84
890.55	9794.74
890.866	9810.34
891.182	9767.85
891.498	9782.99
891.815	9686.04
892.131	9698.7
892.447	9587.29
892.763	9585.48
893.079	9547.52
893.395	9497.12
893.71	9522.43
894.026	9472.94
894.342	9495.54
894.657	9405.15
894.973	9428.2
895.289	9385.04
895.604	9382.1
895.92	9258.94
896.235	9260.97
896.55	9249.67
896.865	9266.17
897.181	9204.7
897.496	9216.45
897.811	9121.77
898.126	9048.1
898.441	9051.71
898.756	9062.56
899.071	9020.98
899.386	9072.05
899.7	8890.59
900.015	8877.03
900.33	8815.11
900.644	8806.07
900.959	8860.08
901.273	8823.69
901.588	8784.37
901.902	8691.95
902.216	8651.95
902.531	8636.81
902.845	8639.29
903.159	8597.71
903.473	8598.39
903.787	8549.13
904.101	8488.34
904.415	8514.1
904.729	8475.23
905.042	8453.53
905.356	8402.46
905.67	8354.33
905.984	8357.94
906.297	8290.6
906.611	8229.36
906.924	8254.67
907.237	8237.95
907.551	8213.32
907.864	8202.69
908.177	8168.12
908.491	8131.06
908.804	8107.1
909.117	7977.39
909.43	7949.14
909.743	7909.82
910.056	7919.09
910.368	7862.59
910.681	7842.48
910.994	7842.7
911.307	7786.43
911.619	7680.22
911.932	7725.64
912.244	7636.61
912.557	7636.83
912.869	7592.54
913.181	7587.12
913.494	7587.57
913.806	7473.22
914.118	7510.28
914.43	7465.09
914.742	7439.55
915.054	7390.51
915.366	7367.24
915.678	7364.75
915.99	7305.32
916.302	7234.58
916.613	7218.31
916.925	7231.19
917.236	7247.24
917.548	7168.37
917.859	7164.76
918.171	7079.56
918.482	7001.14
918.794	7043.63
919.105	7063.74
919.416	6983.52
919.727	6948.49
920.038	6951.2
920.349	6865.1
920.66	6856.51
920.971	6802.73
921.282	6852.45
921.593	6760.02
921.903	6757.99
922.214	6748.72
922.525	6689.51
922.835	6685.9
923.146	6623.07
923.456	6583.08
923.767	6535.17
924.077	6623.75
924.387	6571.1
924.697	6538.78
925.008	6526.58
925.318	6428.96
925.628	6458.78
925.938	6437.09
926.248	6301.95
926.558	6319.81
926.867	6299.24
927.177	6284.33
927.487	6274.61
927.796	6172.46
928.106	6192.58
928.416	6187.83
928.725	6169.53
929.034	6141.73
929.344	6091.79
929.653	6125.01
929.962	6010.44
930.271	5949.65
930.581	5999.81
930.89	5997.1
931.199	5903.09
931.508	5920.04
931.817	5910.1
932.125	5890.89
932.434	5858.57
932.743	5769.09
933.051	5824.68
933.36	5781.97
933.669	5719.82
933.977	5713.49
934.286	5661.52
934.594	5624.68
934.902	5583.78
935.21	5605.47
935.519	5640.5
935.827	5611.58
936.135	5534.29
936.443	5514.85
936.751	5459.72
937.059	5413.16
937.367	5415.65
937.674	5443.44
937.982	5436.89
938.29	5358.93
938.597	5402.77
938.905	5356.44
939.213	5296.78
939.52	5279.15
939.827	5307.4
940.135	5266.73
940.442	5240.29
940.749	5232.15
941.056	5240.51
941.363	5097.69
941.67	5106.96
941.977	5116.45
942.284	5075.77
942.591	5060.18
942.898	5043.45
943.205	5051.82
943.511	5060.4
943.818	4997.58
944.125	4978.82
944.431	4955.55
944.738	4903.35
945.044	4876.23
945.35	4870.13
945.657	4858.38
945.963	4844.59
946.269	4788.55
946.575	4854.53
946.881	4801.65
947.187	4778.38
947.493	4767.76
947.799	4734.54
948.105	4690.92
948.41	4662.22
948.716	4672.39
949.022	4630.36
949.327	4612.28
949.633	4558.04
949.938	4611.6
950.244	4580.64
950.549	4507.88
950.854	4497.93
951.16	4460.65
951.465	4487.54
951.77	4424.49
952.075	4461.55
952.38	4384.04
952.685	4409.12
952.99	4412.06
953.294	4402.57
953.599	4311.04
953.904	4301.33
954.209	4236.02
954.513	4278.73
954.818	4254.32
955.122	4249.8
955.426	4273.31
955.731	4214.78
956.035	4192.4
956.339	4211.16
956.643	4136.36
956.948	4140.65
957.252	4127.09
957.556	4122.35
957.86	4101.56
958.163	4044.39
958.467	4064.5
958.771	4045.29
959.075	4045.74
959.378	4017.27
959.682	4009.36
959.985	3963.94
960.289	3956.25
960.592	3920.55
960.896	3935.24
961.199	3927.55
961.502	3878.06
961.805	3872.41
962.108	3820.21
962.411	3810.04
962.714	3773.66
963.017	3794.67
963.32	3805.07
963.623	3810.04
963.926	3765.97
964.228	3760.1
964.531	3715.13
964.833	3714
965.136	3702.7
965.438	3657.73
965.741	3676.49
966.043	3654.11
966.345	3613.89
966.648	3613.66
966.95	3633.55
967.252	3552.42
967.554	3594.45
967.856	3552.87
968.158	3522.82
968.46	3478.52
968.761	3503.16
969.063	3467
969.365	3471.97
969.666	3452.08
969.968	3478.52
970.269	3450.28
970.571	3410.96
970.872	3399.66
971.174	3409.37
971.475	3367.79
971.776	3375.02
972.077	3311.75
972.378	3326.66
972.679	3339.09
972.98	3274.24
973.281	3294.12
973.582	3245.99
973.883	3283.28
974.183	3259.1
974.484	3240.11
974.785	3202.6
975.085	3194.92
975.386	3175.26
975.686	3146.56
975.986	3177.74
976.287	3141.36
976.587	3123.51
976.887	3156.72
977.187	3116.5
977.487	3122.15
977.787	3080.57
978.087	3022.27
978.387	3037.63
978.687	3051.87
978.987	2996.73
979.286	2993.34
979.586	3020.23
979.885	2966.9
980.185	2960.12
980.484	2925.77
980.784	2933.23
981.083	2888.26
981.382	2901.59
981.682	2906.34
981.981	2915.15
982.28	2881.03
982.579	2869.73
982.878	2856.17
983.177	2859.78
983.475	2818.43
983.774	2803.29
984.073	2777.53
984.372	2767.36
984.67	2795.83
984.969	2787.02
985.267	2737.53
985.566	2718.09
985.864	2735.49
986.162	2721.48
986.461	2671.77
986.759	2677.42
987.057	2676.74
987.355	2645.78
987.653	2635.16
987.951	2639
988.249	2633.12
988.547	2628.15
988.844	2605.1
989.142	2559.68
989.44	2550.87
989.737	2538.44
990.035	2560.81
990.332	2527.59
990.63	2531.66
990.927	2514.48
991.224	2488.04
991.521	2517.65
991.819	2469.74
992.116	2487.82
992.413	2464.31
992.71	2449.62
993.006	2464.54
993.303	2443.75
993.6	2418.67
993.897	2441.94
994.193	2403.52
994.49	2365.11
994.787	2376.18
995.083	2362.85
995.379	2363.98
995.676	2350.64
995.972	2302.51
996.268	2328.05
996.565	2280.59
996.861	2288.73
997.157	2323.3
997.453	2264.77
997.749	2269.29
998.044	2234.26
998.34	2228.39
998.636	2217.31
998.932	2188.16
999.227	2170.76
999.523	2161.72
999.818	2186.58
1000.114	2131.89
1000.409	2159.24
1000.704	2137.09
1001	2121.05
1001.295	2116.98
1001.59	2136.64
1001.885	2110.2
1002.18	2098.9
1002.475	2071.33
1002.77	2088.96
1003.065	2045.34
1003.359	2046.92
1003.654	2057.32
1003.949	2023.65
1004.243	2053.93
1004.538	2009.18
1004.832	2020.71
1005.127	1978
1005.421	1996.53
1005.715	1953.82
1006.009	1933.25
1006.304	1972.8
1006.598	1936.87
1006.892	1928.96
1007.186	1896.42
1007.48	1903.42
1007.773	1876.08
1008.067	1894.84
1008.361	1847.83
1008.655	1872.69
1008.948	1837.21
1009.242	1839.25
1009.535	1834.5
1009.829	1795.86
1010.122	1818.46
1010.415	1809.87
1010.708	1773.94
1011.001	1751.79
1011.295	1769.42
1011.588	1740.72
1011.881	1731.68
1012.173	1696.42
1012.466	1732.13
1012.759	1738.23
1013.052	1753.6
1013.344	1718.34
1013.637	1701.4
1013.93	1656.2
1014.222	1678.8
1014.514	1651
1014.807	1653.04
1015.099	1651.91
1015.391	1635.63
1015.683	1592.02
1015.976	1617.1
1016.268	1596.31
1016.56	1571.23
1016.851	1541.17
1017.143	1595.86
1017.435	1561.96
1017.727	1550.21
1018.018	1551.57
1018.31	1513.15
1018.602	1505.02
1018.893	1503.89
1019.185	1491.91
1019.476	1464.79
1019.767	1495.53
1020.058	1465.24
1020.35	1449.43
1020.641	1449.43
1020.932	1461.63
1021.223	1446.04
1021.514	1437.22
1021.804	1412.14
1022.095	1412.14
1022.386	1397.22
1022.677	1381.86
1022.967	1367.85
1023.258	1380.5
1023.548	1332.59
1023.839	1353.61
1024.129	1357
1024.419	1325.81
1024.709	1320.39
1025	1322.2
1025.29	1303.44
1025.58	1295.53
1025.87	1291.01
1026.16	1282.65
1026.449	1300.05
1026.739	1262.09
1027.029	1255.76
1027.319	1238.58
1027.608	1219.37
1027.898	1244.01
1028.187	1234.74
1028.477	1205.59
1028.766	1193.16
1029.055	1223.22
1029.344	1203.33
1029.634	1189.77
1029.923	1163.56
1030.212	1152.03
1030.501	1121.98
1030.79	1179.83
1031.078	1135.76
1031.367	1143.22
1031.656	1127.63
1031.945	1135.99
1032.233	1117.91
1032.522	1111.13
1032.81	1115.2
1033.099	1132.37
1033.387	1116.33
1033.675	1124.69
1033.963	1105.93
1034.251	1079.49
1034.54	1058.47
1034.828	1037.68
1035.116	1068.87
1035.403	1045.37
1035.691	1044.69
1035.979	1034.07
1036.267	1006.72
1036.554	1010.57
1036.842	1007.18
1037.129	1018.02
1037.417	1008.08
1037.704	987.29
1037.992	984.35
1038.279	995.2
1038.566	952.49
1038.853	952.49
1039.14	952.49
