Data from hue_20_FLMS001491_37.txt Node
Date: Mon Feb 06 15:33:59 GMT 2017
User: dcchb
Spectrometer: FLMS00149
Trigger mode: 0
Integration Time (sec): 2.000000E-2
Scans to average: 10
Electric dark correction enabled: true
Nonlinearity correction enabled: false
Boxcar width: 0
XAxis mode: Wavelengths
Number of Pixels in Spectrum: 2048
>>>>>Begin Spectral Data<<<<<
341.393	-28.32
341.776	-28.32
342.16	-28.32
342.543	-46.17
342.927	-87.53
343.31	-64.02
343.693	-73.29
344.077	-55.89
344.46	-57.7
344.843	-51.82
345.226	-36.45
345.61	-21.99
345.993	-4.14
346.376	-2.56
346.759	-3.01
347.142	13.49
347.525	41.96
347.908	42.64
348.291	61.85
348.674	93.03
349.057	117.89
349.44	128.06
349.823	151.79
350.206	156.76
350.588	192.01
350.971	198.34
351.354	214.16
351.737	209.64
352.119	243.76
352.502	255.06
352.884	280.37
353.267	285.12
353.65	292.13
354.032	268.17
354.414	276.08
354.797	293.48
355.179	303.88
355.562	324.21
355.944	308.62
356.326	306.14
356.709	342.29
357.091	313.82
357.473	340.71
357.855	330.32
358.238	341.84
358.62	341.84
359.002	328.06
359.384	332.8
359.766	342.75
360.148	340.03
360.53	304.55
360.912	324.44
361.294	343.42
361.676	333.03
362.057	332.8
362.439	321.95
362.821	306.59
363.203	326.93
363.584	342.29
363.966	328.96
364.348	336.19
364.729	337.32
365.111	305.68
365.493	293.71
365.874	326.7
366.256	312.69
366.637	314.27
367.019	307.72
367.4	307.94
367.781	309.3
368.163	300.26
368.544	297.77
368.925	315.4
369.306	313.14
369.688	307.72
370.069	297.55
370.45	307.72
370.831	306.36
371.212	300.03
371.593	287.15
371.974	322.41
372.355	306.36
372.736	300.94
373.117	307.04
373.498	324.44
373.879	323.76
374.26	323.54
374.641	324.89
375.021	309.53
375.402	300.71
375.783	314.95
376.163	304.78
376.544	320.82
376.925	308.62
377.305	323.54
377.686	331.22
378.066	322.41
378.447	347.04
378.827	322.41
379.208	329.19
379.588	328.51
379.968	314.05
380.349	323.08
380.729	322.41
381.109	340.26
381.489	325.12
381.87	322.86
382.25	338.9
382.63	311.79
383.01	347.26
383.39	344.33
383.77	319.92
384.15	341.84
384.53	340.71
384.91	359.24
385.29	336.42
385.67	334.38
386.049	340.49
386.429	342.07
386.809	337.77
387.189	346.13
387.568	344.55
387.948	335.06
388.328	321.28
388.707	339.36
389.087	340.26
389.466	364.44
389.846	337.1
390.225	366.7
390.605	352.69
390.984	347.49
391.363	353.14
391.743	357.21
392.122	343.65
392.501	344.55
392.881	365.34
393.26	357.21
393.639	356.3
394.018	352.24
394.397	365.12
394.776	344.78
395.155	361.05
395.534	356.08
395.913	353.82
396.292	351.33
396.671	370.32
397.05	361.5
397.429	373.25
397.808	365.57
398.186	369.41
398.565	367.83
398.944	384.33
399.323	366.25
399.701	367.15
400.08	387.94
400.458	373.25
400.837	363.08
401.215	385.23
401.594	385.23
401.972	379.35
402.351	375.29
402.729	371.45
403.107	402.18
403.486	371.9
403.864	381.16
404.242	396.53
404.62	403.99
404.999	420.26
405.377	386.13
405.755	397.21
406.133	390.88
406.511	420.71
406.889	392.46
407.267	397.66
407.645	410.99
408.023	413.48
408.401	412.8
408.779	407.15
409.156	424.1
409.534	415.06
409.912	395.4
410.29	415.51
410.667	421.39
411.045	432.91
411.422	434.27
411.8	443.31
412.178	426.58
412.555	437.43
412.933	419.58
413.31	441.95
413.687	442.18
414.065	449.86
414.442	444.44
414.819	439.69
415.197	460.03
415.574	454.38
415.951	458.22
416.328	451.44
416.705	459.58
417.082	453.7
417.46	462.74
417.837	474.72
418.214	473.36
418.591	469.75
418.967	462.06
419.344	480.59
419.721	491.22
420.098	462.29
420.475	484.66
420.852	458.9
421.228	495.28
421.605	485.11
421.982	488.96
422.358	467.49
422.735	486.7
423.111	490.31
423.488	495.74
423.864	475.62
424.241	513.14
424.617	506.81
424.994	514.72
425.37	511.33
425.746	511.78
426.123	508.39
426.499	509.29
426.875	506.58
427.251	528.5
427.627	523.98
428.003	530.08
428.379	526.02
428.756	540.71
429.132	533.7
429.507	530.76
429.883	546.58
430.259	567.15
430.635	536.41
431.011	578.45
431.387	552.01
431.763	564.89
432.138	574.38
432.514	583.42
432.89	577.54
433.265	575.28
433.641	605.79
434.016	590.87
434.392	586.35
434.767	607.37
435.143	595.17
435.518	610.53
435.894	609.18
436.269	621.16
436.644	620.93
437.02	622.96
437.395	594.94
437.77	640.36
438.145	629.29
438.52	635.62
438.895	662.51
439.271	651.21
439.646	636.3
440.021	651.44
440.395	653.7
440.77	650.31
441.145	654.15
441.52	672.23
441.895	697.76
442.27	684.21
442.645	676.07
443.019	709.06
443.394	690.98
443.769	700.93
444.143	679.91
444.518	686.01
444.892	674.94
445.267	685.56
445.641	691.66
446.016	711.55
446.39	727.82
446.764	737.31
447.139	724.2
447.513	704.09
447.887	727.14
448.262	732.11
448.636	760.59
449.01	737.76
449.384	712.45
449.758	744.54
450.132	738.22
450.506	752
450.88	728.05
451.254	767.59
451.628	753.13
452.002	764.43
452.376	764.66
452.75	776.18
453.123	780.93
453.497	803.07
453.871	822.51
454.244	792.9
454.618	797.65
454.992	801.04
455.365	820.92
455.739	842.85
456.112	834.71
456.486	838.78
456.859	831.77
457.232	846.01
457.606	878.55
457.979	862.73
458.352	855.73
458.725	896.18
459.099	885.78
459.472	902.28
459.845	881.71
460.218	931.88
460.591	916.06
460.964	908.61
461.337	950.86
461.71	951.54
462.083	935.95
462.456	974.82
462.829	993.58
463.201	1000.13
463.574	1015.72
463.947	1005.33
464.32	1038.55
464.692	1054.82
465.065	1050.3
465.438	1053.69
465.81	1050.52
466.183	1053.91
466.555	1097.3
466.928	1081.26
467.3	1121.93
467.672	1104.31
468.045	1130.97
468.417	1128.26
468.789	1131.2
469.161	1180.46
469.534	1186.56
469.906	1203.97
470.278	1211.2
470.65	1221.82
471.022	1245.77
471.394	1259.33
471.766	1309.73
472.138	1274.25
472.51	1305.88
472.882	1298.88
473.253	1345.43
473.625	1380.68
473.997	1397.41
474.369	1390.85
474.74	1409.61
475.112	1422.49
475.484	1481.47
475.855	1470.63
476.227	1530.51
476.598	1533.67
476.97	1560.11
477.341	1602.15
477.713	1618.19
478.084	1619.55
478.455	1681.47
478.827	1696.38
479.198	1753.1
479.569	1732.77
479.94	1840.33
480.311	1809.83
480.682	1828.81
481.053	1870.39
481.424	1907.68
481.795	1925.3
482.166	2008.24
482.537	1996.71
482.908	2066.09
483.279	2050.04
483.65	2121
484.021	2169.14
484.391	2184.96
484.762	2227.22
485.133	2266.31
485.503	2286.87
485.874	2328.23
486.244	2330.26
486.615	2363.26
486.985	2452.07
487.356	2514.67
487.726	2529.58
488.097	2562.57
488.467	2557.6
488.837	2645.28
489.207	2663.81
489.578	2695.9
489.948	2737.94
490.318	2773.42
490.688	2793.3
491.058	2859.06
491.428	2888.44
491.798	2932.96
492.168	2965.95
492.538	2991.49
492.908	3026.06
493.278	3065.84
493.648	3080.98
494.017	3118.94
494.387	3157.36
494.757	3226.29
495.126	3211.37
495.496	3253.4
495.866	3269.22
496.235	3344.47
496.605	3358.71
496.974	3371.82
497.344	3369.11
497.713	3397.13
498.082	3445.94
498.452	3460.18
498.821	3508.09
499.19	3545.82
499.559	3541.53
499.928	3583.34
500.298	3592.15
500.667	3661.98
501.036	3629.89
501.405	3693.17
501.774	3633.05
502.143	3691.58
502.512	3744.46
502.88	3743.11
503.249	3768.42
503.618	3773.39
503.987	3803.9
504.356	3773.84
504.724	3887.51
505.093	3858.58
505.462	3864.23
505.83	3887.51
506.199	3929.09
506.567	3960.5
506.936	3932.03
507.304	3991.46
507.672	4000.5
508.041	4002.54
508.409	4042.76
508.777	4080.27
509.145	4078.69
509.514	4086.6
509.882	4127.05
510.25	4118.69
510.618	4158.46
510.986	4157.11
511.354	4232.36
511.722	4201.17
512.09	4285.01
512.458	4267.61
512.826	4275.98
513.193	4315.07
513.561	4308.74
513.929	4305.13
514.297	4357.1
514.664	4400.49
515.032	4411.56
515.4	4388.74
515.767	4427.84
516.135	4430.77
516.502	4433.71
516.869	4482.98
517.237	4501.05
517.604	4450.21
517.972	4562.52
518.339	4604.55
518.706	4544.67
519.073	4581.5
519.44	4586.02
519.808	4638.45
520.175	4583.54
520.542	4696.53
520.909	4675.96
521.276	4694.5
521.643	4708.73
522.009	4742.4
522.376	4730.88
522.743	4752.12
523.11	4763.65
523.477	4849.29
523.843	4861.72
524.21	4910.99
524.577	4912.34
524.943	4909.86
525.31	4928.16
525.676	5003.19
526.043	5004.77
526.409	5045.9
526.776	5111.89
527.142	5083.86
527.508	5132.68
527.874	5146.91
528.241	5147.82
528.607	5227.81
528.973	5233.92
529.339	5232.33
529.705	5267.81
530.071	5282.28
530.437	5302.84
530.803	5386.23
531.169	5387.58
531.535	5405.21
531.901	5402.73
532.267	5403.86
532.632	5495.83
532.998	5563.17
533.364	5518.2
533.73	5498.77
534.095	5593.68
534.461	5589.84
534.826	5547.81
535.192	5636.17
535.557	5679.55
535.923	5651.31
536.288	5732.66
536.653	5705.09
537.019	5685.2
537.384	5785.31
537.749	5785.09
538.114	5781.7
538.479	5810.17
538.845	5840.91
539.21	5860.34
539.575	5842.94
539.94	5873.22
540.305	5919.55
540.67	5925.2
541.034	5950.73
541.399	6011.3
541.764	6001.58
542.129	6007.46
542.494	6040
542.858	6144.85
543.223	6095.81
543.587	6178.3
543.952	6142.37
544.316	6181.91
544.681	6171.97
545.045	6210.61
545.41	6291.29
545.774	6282.02
546.138	6291.74
546.503	6269.37
546.867	6296.26
547.231	6358.41
547.595	6363.6
547.959	6397.05
548.324	6414.9
548.688	6404.96
549.052	6428.69
549.416	6446.09
549.779	6470.49
550.143	6519.53
550.507	6538.51
550.871	6585.74
551.235	6544.39
551.599	6597.5
551.962	6669.13
552.326	6645.63
552.689	6689.25
553.053	6657.61
553.417	6686.99
553.78	6787.1
554.143	6704.39
554.507	6788.45
554.87	6806.53
555.234	6883.82
555.597	6828.22
555.96	6877.26
556.323	6835.23
556.686	6869.81
557.05	6974.44
557.413	6918.39
557.776	6943.7
558.139	7006.52
558.502	7033.42
558.865	7031.38
559.228	7121.78
559.59	7066.41
559.953	7107.99
560.316	7182.79
560.679	7158.39
561.041	7161.77
561.404	7217.37
561.767	7307.31
562.129	7227.76
562.492	7287.42
562.854	7287.2
563.217	7270.92
563.579	7353.18
563.941	7400.41
564.304	7404.48
564.666	7444.48
565.028	7464.82
565.39	7473.41
565.753	7479.96
566.115	7522.22
566.477	7588.88
566.839	7616.23
567.201	7657.81
567.563	7620.75
567.925	7717.24
568.287	7710.24
568.648	7744.81
569.01	7796.11
569.372	7841.08
569.734	7863.68
570.095	7914.52
570.457	7933.05
570.819	7938.7
571.18	7977.57
571.542	8089.21
571.903	8007.85
572.265	8070.68
572.626	8140.96
572.987	8140.28
573.349	8217.57
573.71	8247.4
574.071	8304.57
574.432	8311.12
574.794	8367.17
575.155	8452.81
575.516	8434.51
575.877	8528.07
576.238	8529.2
576.599	8608.97
576.96	8700.27
577.32	8757.21
577.681	8774.61
578.042	8879.02
578.403	9015.29
578.763	9058
579.124	9097.54
579.485	9219.57
579.845	9355.39
580.206	9349.51
580.566	9530.53
580.927	9574.14
581.287	9669.05
581.648	9709.96
582.008	9847.81
582.368	9909.95
582.728	10184.29
583.089	10182.03
583.449	10382.26
583.809	10558.07
584.169	10628.58
584.529	10812.53
584.889	11016.81
585.249	11105.63
585.609	11332.51
585.969	11487.54
586.329	11620.19
586.688	11871.48
587.048	12020.86
587.408	12233.51
587.768	12438.25
588.127	12588.52
588.487	12836.43
588.846	13150.09
589.206	13235.97
589.565	13466.47
589.925	13727.48
590.284	13932.9
590.643	14166.79
591.003	14547.34
591.362	14781.24
591.721	14991.4
592.08	15306.42
592.44	15538.28
592.799	15778.72
593.158	16013.07
593.517	16320.86
593.876	16583.9
594.235	16868.64
594.593	17048.52
594.952	17509.75
595.311	17637.66
595.67	17994.26
596.029	18387.02
596.387	18654.13
596.746	18923.05
597.104	19051.18
597.463	19408.01
597.822	19823.59
598.18	19961.66
598.538	20313.07
598.897	20667.63
599.255	20666.28
599.613	21404.11
599.972	21478.23
600.33	21839.58
600.688	21980.14
601.046	22441.37
601.404	22762.72
601.762	23063.73
602.12	23436.38
602.478	23606.31
602.836	23933.31
603.194	23899.87
603.552	24296.24
603.91	24476.8
604.268	24834.76
604.625	25091.02
604.983	25390.45
605.341	25484.23
605.698	25939.59
606.056	26293.02
606.413	26386.58
606.771	26717.87
607.128	27016.39
607.485	27069.27
607.843	27376.38
608.2	27763.49
608.557	28020.89
608.914	27993.54
609.272	28444.38
609.629	28631.04
609.986	29045.49
610.343	28910.81
610.7	29448.87
611.057	29530.9
611.414	29612.26
611.771	29946.26
612.127	30226.93
612.484	30279.81
612.841	30627.82
613.198	30730.65
613.554	30884.54
613.911	31189.39
614.267	31358.65
614.624	31516.16
614.98	31738.3
615.337	32003.61
615.693	32198.63
616.05	32317.5
616.406	32491.73
616.762	32652.63
617.118	32773.76
617.475	32816.92
617.831	33115.89
618.187	33332.61
618.543	33473.85
618.899	33686.5
619.255	33753.39
619.611	33956.55
619.967	33974.86
620.323	34210.78
620.678	34202.19
621.034	34236.77
621.39	34538.46
621.746	34534.61
622.101	35168.27
622.457	34769.64
622.812	35011.44
623.168	35063.64
623.523	35276.52
623.879	35335.5
624.234	35144.99
624.589	35484.65
624.945	35602.16
625.3	35750.85
625.655	35666.56
626.01	35735.03
626.365	35891.87
626.72	36035.14
627.075	36088.7
627.43	36118.98
627.785	36068.36
628.14	36369.82
628.495	36341.57
628.85	36381.8
629.205	36293.89
629.559	36554
629.914	36373.89
630.269	36609.59
630.623	36562.36
630.978	36547.67
631.332	36706.76
631.687	36900.43
632.041	36681.68
632.396	36824.72
632.75	36758.06
633.104	36866.3
633.459	36678.29
633.813	36868.34
634.167	36688.46
634.521	36818.85
634.875	36856.81
635.229	36877.6
635.583	36674.67
635.937	36767.1
636.291	36782.69
636.645	36836.93
636.999	36864.27
637.352	36931.16
637.706	36672.86
638.06	37019.07
638.413	36895.23
638.767	36770.94
639.121	36941.56
639.474	36734.56
639.828	36817.49
640.181	36926.19
640.534	36888.22
640.888	36787.21
641.241	36680.77
641.594	36702.47
641.947	36786.76
642.301	36760.77
642.654	36812.07
643.007	36906.98
643.36	36749.47
643.713	36748.79
644.066	36838.06
644.419	36595.35
644.771	36503.15
645.124	36189.71
645.477	36117.17
645.83	35896.84
646.182	35765.32
646.535	35658.88
646.888	35762.6
647.24	35627.47
647.593	35785.43
647.945	35729.84
648.298	35676.51
648.65	35498.88
649.002	35463.63
649.355	35676.96
649.707	35490.75
650.059	35716.28
650.411	36074.91
650.763	36294.79
651.115	36581.79
651.467	36548.35
651.819	36566.2
652.171	36339.54
652.523	36396.26
652.875	36302.25
653.227	36138.87
653.578	36442.36
653.93	36491.4
654.282	36308.35
654.633	36166.44
654.985	36300.22
655.337	36319.2
655.688	36280.56
656.039	36350.61
656.391	36105.42
656.742	36109.49
657.094	36184.97
657.445	36197.62
657.796	36100.45
658.147	36200.11
658.498	36250.95
658.849	36211.18
659.2	36128.24
659.551	36116.49
659.902	36143.84
660.253	36159.43
660.604	36175.93
660.955	36021.36
661.306	36180.9
661.656	36108.36
662.007	36221.12
662.358	36162.59
662.708	36080.11
663.059	35959.44
663.409	35867.91
663.76	36149.04
664.11	36036.27
664.461	35970.06
664.811	36113.33
665.161	36034.91
665.511	36034.46
665.862	35977.29
666.212	36037.17
666.562	36069.72
666.912	36000.11
667.262	35927.57
667.612	35950.4
667.962	36038.98
668.312	36077.17
668.662	36153.78
669.011	36017.51
669.361	35863.85
669.711	35892.54
670.06	35871.98
670.41	35826.78
670.76	35801.25
671.109	35911.08
671.459	35834.47
671.808	35821.13
672.157	35964.86
672.507	35635.83
672.856	35698.65
673.205	35777.52
673.554	35875.82
673.904	35676.51
674.253	35808.03
674.602	35739.1
674.951	35194.48
675.3	35123.75
675.649	35624.98
675.998	35601.03
676.346	35660.69
676.695	35600.35
677.044	35458.21
677.393	35559.9
677.741	35617.75
678.09	35486.23
678.438	35518.77
678.787	35450.3
679.135	35418.43
679.484	35314.93
679.832	35380.02
680.181	35199.91
680.529	35430.18
680.877	35227.48
681.225	35191.09
681.573	35296.4
681.922	35026.81
682.27	35141.15
682.618	35070.19
682.966	34958.33
683.314	34984.32
683.661	34966.69
684.009	34890.09
684.357	34715.4
684.705	34643.31
685.053	34726.02
685.4	34675.18
685.748	34503.2
686.095	34409.19
686.443	34395.41
686.79	34407.84
687.138	34383.43
687.485	34294.62
687.832	34138.69
688.18	34256.43
688.527	34107.96
688.874	34051.46
689.221	33978.47
689.568	34000.17
689.915	33904.57
690.262	33865.71
690.609	33870.23
690.956	33718.59
691.303	33685.15
691.65	33561.76
691.997	33429.78
692.344	33270.47
692.69	33276.12
693.037	33383.68
693.383	33071.38
693.73	33197.47
694.077	33023.92
694.423	33037.93
694.769	32876.13
695.116	32774.43
695.462	32711.39
695.808	32682.69
696.155	32648.34
696.501	32563.82
696.847	32451.73
697.193	32399.53
697.539	32323.83
697.885	32184.85
698.231	32020.78
698.577	31957.51
698.923	31962.93
699.269	31867.57
699.614	31576.73
699.96	31656.05
700.306	31675.71
700.651	31456.5
700.997	31426.45
701.342	31292.89
701.688	31367.47
702.033	31267.13
702.379	31245.89
702.724	31070.98
703.069	31180.58
703.415	30675.51
703.76	30658.33
704.105	30819.46
704.45	30722.96
704.795	30557.32
705.14	30508.73
705.485	30361.62
705.83	30250.66
706.175	30451.56
706.52	30186.48
706.865	30197.78
707.209	30150.1
707.554	29983.1
707.899	30047.5
708.243	29994.39
708.588	29955.07
708.932	29683.89
709.277	29692.03
709.621	29721.63
709.966	29530.23
710.31	29569.55
710.654	29319.38
710.998	29402.32
711.342	29367.52
711.687	29335.43
712.031	29278.48
712.375	29137.24
712.719	29148.99
713.063	29156.22
713.407	29156.68
713.75	28968.66
714.094	28907.64
714.438	28835.56
714.782	28917.36
715.125	28623.13
715.469	28707.42
715.812	28620.19
716.156	28441.89
716.499	28464.72
716.843	28503.81
717.186	28338.17
717.53	28474.89
717.873	28389.01
718.216	28311.28
718.559	28246.19
718.902	28097.95
719.246	28069.7
719.589	27951.06
719.932	27987.44
720.275	27935.47
720.617	27929.59
720.96	27771.63
721.303	27865.19
721.646	27811.4
721.989	27665.64
722.331	27703.16
722.674	27718.52
723.016	27623.16
723.359	27643.04
723.701	27581.35
724.044	27377.97
724.386	27305.43
724.729	27455.48
725.071	27222.72
725.413	27326.89
725.755	27290.51
726.097	27244.18
726.439	27045.77
726.782	26932.55
727.124	27216.61
727.465	26888.71
727.807	27016.39
728.149	26872.44
728.491	26871.09
728.833	26933.91
729.175	26782.05
729.516	26827.25
729.858	26673.58
730.199	26758.55
730.541	26648.04
730.882	26599.23
731.224	26709.28
731.565	26330.54
731.906	26406.24
732.248	26425.9
732.589	26369.41
732.93	26460.25
733.271	26272.46
733.612	26287.6
733.953	26351.1
734.294	26248.5
734.635	26173.93
734.976	26235.17
735.317	26048.96
735.658	26030.88
735.999	26084.89
736.339	26001.51
736.68	26061.84
737.021	26054.16
737.361	25830.44
737.702	26016.19
738.042	25766.94
738.383	25793.15
738.723	25829.53
739.063	25654.4
739.404	25827.72
739.744	25636.09
740.084	25580.5
740.424	25655.3
740.764	25601.06
741.104	25665.92
741.444	25549.99
741.784	25350.45
742.124	25422.99
742.464	25432.48
742.804	25361.07
743.143	25309.55
743.483	25285.59
743.823	25187.29
744.162	25241.75
744.502	25227.06
744.841	25060.51
745.181	25127.18
745.52	25086.28
745.86	25082.66
746.199	24957.69
746.538	25030.01
746.877	25146.84
747.216	25017.8
747.556	24949.33
747.895	24955.66
748.234	24850.8
748.573	24851.93
748.911	24804.02
749.25	24770.35
749.589	24611.71
749.928	24705.04
750.267	24689.45
750.605	24556.35
750.944	24504.37
751.283	24364.03
751.621	24593.86
751.96	24367.2
752.298	24336.92
752.636	24408.78
752.975	24279.97
753.313	24165.4
753.651	24328.1
753.989	24185.96
754.327	24181.67
754.666	24013.08
755.004	24131.72
755.342	24014.44
755.679	24014.21
756.017	23905.29
756.355	23937.38
756.693	23785.29
757.031	23885.86
757.368	23622.59
757.706	23723.37
758.044	23584.39
758.381	23665.07
758.719	23533.1
759.056	23591.85
759.394	23447.45
759.731	23351.86
760.068	23367.45
760.405	23201.81
760.743	23114.8
761.08	23211.97
761.417	23081.13
761.754	23053.11
762.091	22974.47
762.428	22892.21
762.765	22796.84
763.102	22828.26
763.438	22707.81
763.775	22648.37
764.112	22698.99
764.449	22629.16
764.785	22569.28
765.122	22324.54
765.458	22366.12
765.795	22279.34
766.131	22199.8
766.467	22077.99
766.804	22021.95
767.14	21920.03
767.476	21906.7
767.812	21811.79
768.148	21840.71
768.485	21718.91
768.821	21563.43
769.157	21530.21
769.492	21513.04
769.828	21510.55
770.164	21200.05
770.5	21236.43
770.836	21175.19
771.171	21098.58
771.507	21047.29
771.842	20885.93
772.178	20876.89
772.513	20858.14
772.849	20864.69
773.184	20655.66
773.519	20669.44
773.855	20652.95
774.19	20578.37
774.525	20520.29
774.86	20471.48
775.195	20359.39
775.53	20245.27
775.865	20218.61
776.2	20073.07
776.535	19989.23
776.87	20020.65
777.205	19943.59
777.539	19742.24
777.874	19811.16
778.209	19658.85
778.543	19542.92
778.878	19476.03
779.212	19403.94
779.547	19291.63
779.881	19392.87
780.215	19126.88
780.55	19215.24
780.884	19123.49
781.218	19024.51
781.552	19138.64
781.886	19047.34
782.22	18882.14
782.554	18732.09
782.888	18656.16
783.222	18641.25
783.556	18456.39
783.889	18457.3
784.223	18365.77
784.557	18286.45
784.89	18325.32
785.224	18212.33
785.557	18132.56
785.891	18123.97
786.224	18116.97
786.558	17988.83
786.891	17818.44
787.224	17866.8
787.557	17821.61
787.891	17784.09
788.224	17729.41
788.557	17734.6
788.89	17680.37
789.223	17572.35
789.556	17542.74
789.888	17374.84
790.221	17305.24
790.554	17188.86
790.887	17239.48
791.219	17123.77
791.552	17124
791.884	17029.76
792.217	16977.79
792.549	16911.12
792.882	16764.23
793.214	16677.91
793.546	16796.55
793.879	16568.31
794.211	16589.1
794.543	16571.25
794.875	16504.13
795.207	16514.52
795.539	16396.11
795.871	16493.51
796.203	16291.03
796.535	16253.97
796.867	16205.6
797.198	16148.43
797.53	16126.74
797.862	15989.79
798.193	16025.72
798.525	15962.45
798.856	15932.17
799.188	15704.15
799.519	15642.23
799.85	15563.59
800.182	15607.65
800.513	15619.86
800.844	15464.83
801.175	15542.57
801.506	15530.37
801.837	15418.73
802.168	15356.14
802.499	15360.2
802.83	15435
803.161	15184.16
803.491	15257.38
803.822	15194.11
804.153	15088.12
804.483	15066.2
804.814	14891.29
805.145	14918.86
805.475	14886.77
805.805	14924.28
806.136	14876.37
806.466	14842.48
806.796	14785.08
807.126	14714.12
807.457	14727.23
807.787	14657.17
808.117	14577.17
808.447	14539.89
808.777	14567
809.107	14463.96
809.436	14406.33
809.766	14425.76
810.096	14437.74
810.426	14342.15
810.755	14344.86
811.085	14287.24
811.414	14200.23
811.744	14115.04
812.073	14114.59
812.403	14069.62
812.732	13975.83
813.061	14004.76
813.39	13915.72
813.719	13962.27
814.049	13970.86
814.378	13905.78
814.707	13840.7
815.036	13777.42
815.365	13758.89
815.693	13637.08
816.022	13595.05
816.351	13589.18
816.68	13421.5
817.008	13621.72
817.337	13502.63
817.665	13559.12
817.994	13448.84
818.322	13373.82
818.651	13390.99
818.979	13316.19
819.307	13409.52
819.636	13280.26
819.964	13252.69
820.292	13294.72
820.62	13346.02
820.948	13188.96
821.276	13257.21
821.604	13194.84
821.932	13174.05
822.259	13158.23
822.587	13231.45
822.915	13140.83
823.243	13186.93
823.57	13197.77
823.898	13151
824.225	13136.53
824.553	13163.43
824.88	13114.61
825.207	13165.68
825.535	13087.72
825.862	13158.68
826.189	13066.7
826.516	13153.26
826.843	13156.87
827.17	13133.6
827.497	13185.8
827.824	13134.95
828.151	13193.48
828.478	13120.71
828.805	13136.76
829.131	13077.33
829.458	13072.81
829.785	13059.25
830.111	13095.63
830.438	13158.45
830.764	13091.56
831.09	13191.9
831.417	12991.23
831.743	13084.56
832.069	13042.75
832.395	12993.03
832.722	13060.38
833.048	12999.81
833.374	13061.05
833.7	12933.6
834.026	12956.65
834.351	12993.26
834.677	12978.35
835.003	12998.01
835.329	12871.46
835.654	12935.86
835.98	12860.38
836.306	12894.73
836.631	12808.86
836.956	12871.46
837.282	12851.57
837.607	12775.64
837.932	12805.02
838.258	12736.09
838.583	12773.6
838.908	12720.95
839.233	12664.68
839.558	12696.77
839.883	12632.37
840.208	12558.92
840.533	12603.44
840.858	12571.35
841.182	12497.23
841.507	12582.88
841.832	12508.75
842.156	12451.13
842.481	12419.04
842.805	12407.51
843.13	12400.96
843.454	12334.97
843.778	12295.43
844.103	12323.22
844.427	12256.78
844.751	12293.39
845.075	12170.23
845.399	12219.72
845.723	12115.32
846.047	12114.64
846.371	12074.87
846.695	12052.27
847.019	11966.85
847.343	11832.16
847.666	11865.38
847.99	11753.97
848.313	11787.19
848.637	11717.59
848.96	11650.7
849.284	11626.52
849.607	11577.93
849.931	11507.2
850.254	11418.61
850.577	11481.89
850.9	11300.2
851.223	11322.34
851.546	11226.07
851.869	11130.48
852.192	11248.45
852.515	11132.52
852.838	11123.93
853.161	11078.73
853.483	11054.1
853.806	10984.5
854.129	11007.78
854.451	10992.41
854.774	10870.15
855.096	10830.15
855.419	10830.38
855.741	10749.25
856.063	10727.78
856.385	10735.47
856.708	10673.32
857.03	10638.29
857.352	10610.05
857.674	10591.74
857.996	10524.17
858.318	10481.24
858.64	10521.91
858.961	10531.63
859.283	10412.76
859.605	10391.29
859.926	10418.19
860.248	10335.93
860.57	10322.37
860.891	10412.76
861.212	10254.8
861.534	10232.88
861.855	10205.54
862.176	10193.33
862.498	10234.69
862.819	10193.56
863.14	10114.47
863.461	10138.19
863.782	10131.41
864.103	10150.85
864.424	10016.39
864.745	10088.25
865.065	10019.1
865.386	9946.11
865.707	9986.56
866.027	10002.38
866.348	9939.1
866.668	9919.44
866.989	9907.69
867.309	9884.64
867.63	9858.65
867.95	9867.92
868.27	9864.08
868.59	9817.75
868.91	9840.57
869.23	9793.8
869.55	9722.39
869.87	9774.59
870.19	9780.92
870.51	9791.31
870.83	9718.54
871.15	9667.02
871.469	9621.82
871.789	9636.74
872.109	9624.99
872.428	9642.61
872.748	9619.34
873.067	9604.87
873.386	9621.82
873.706	9667.47
874.025	9516.97
874.344	9525.1
874.663	9550.41
874.982	9536.63
875.301	9542.73
875.62	9460.02
875.939	9433.35
876.258	9424.31
876.577	9421.83
876.896	9426.8
877.214	9320.36
877.533	9333.47
877.852	9368.04
878.17	9371.66
878.489	9361.27
878.807	9353.58
879.125	9371.21
879.444	9259.57
879.762	9281.95
880.08	9264.77
880.398	9210.31
880.716	9222.29
881.034	9181.61
881.352	9124.89
881.67	9105
881.988	9177.09
882.306	9181.83
882.624	9126.24
882.941	9076.75
883.259	9058.45
883.577	9059.13
883.894	8956.08
884.212	8992.91
884.529	8960.6
884.846	8968.06
885.164	8944.33
885.481	8904.1
885.798	8992.91
886.115	8945
886.432	8908.85
886.75	8892.35
887.067	8812.35
887.383	8793.6
887.7	8808.96
888.017	8766.03
888.334	8749.3
888.651	8708.4
888.967	8704.11
889.284	8571.23
889.6	8611.45
889.917	8610.1
890.233	8563.55
890.55	8533.49
890.866	8572.13
891.182	8535.52
891.498	8495.3
891.815	8523.55
892.131	8444.45
892.447	8374.62
892.763	8336.21
893.079	8336.43
893.395	8356.77
893.71	8253.72
894.026	8330.56
894.342	8264.34
894.657	8166.04
894.973	8203.56
895.289	8230.9
895.604	8191.8
895.92	8158.13
896.235	8088.53
896.55	8076.55
896.865	8107.51
897.181	8034.75
897.496	8048.98
897.811	8014.86
898.126	7959.27
898.441	7938.25
898.756	7935.09
899.071	7877.24
899.386	7947.07
899.7	7774.64
900.015	7743.23
900.33	7740.29
900.644	7626.4
900.959	7756.79
901.273	7668.43
901.588	7602.67
901.902	7587.75
902.216	7582.33
902.531	7587.3
902.845	7564.93
903.159	7502.78
903.473	7431.82
903.787	7433.63
904.101	7349.57
904.415	7402.45
904.729	7411.94
905.042	7301.21
905.356	7286.29
905.67	7267.99
905.984	7230.02
906.297	7278.38
906.611	7184.15
906.924	7216.91
907.237	7214.65
907.551	7107.77
907.864	7112.74
908.177	7082
908.491	7081.33
908.804	7039.52
909.117	6994.55
909.43	6969.92
909.743	6939.86
910.056	6965.4
910.368	6899.86
910.681	6844.95
910.994	6845.63
911.307	6766.08
911.619	6770.15
911.932	6696.48
912.244	6666.19
912.557	6677.72
912.869	6601.79
913.181	6601.34
913.494	6610.38
913.806	6597.04
914.118	6497.16
914.43	6489.48
914.742	6530.83
915.054	6486.54
915.366	6430.49
915.678	6431.62
915.99	6401.12
916.302	6372.19
916.613	6309.82
916.925	6310.27
917.236	6298.75
917.548	6266.21
917.859	6288.8
918.171	6233.66
918.482	6171.07
918.794	6161.35
919.105	6178.52
919.416	6129.03
919.727	6110.05
920.038	6049.94
920.349	6040.22
920.66	6025.08
920.971	5983.05
921.282	5988.02
921.593	5917.51
921.903	5905.76
922.214	5883.62
922.525	5909.83
922.835	5818.76
923.146	5776.73
923.456	5801.81
923.767	5781.25
924.077	5796.39
924.387	5764.3
924.697	5658.99
925.008	5639.78
925.318	5676.16
925.628	5644.75
925.938	5634.81
926.248	5595.04
926.558	5543.29
926.867	5522.5
927.177	5505.77
927.487	5488.82
927.796	5430.52
928.106	5457.41
928.416	5402.5
928.725	5431.88
929.034	5389.39
929.344	5317.98
929.653	5304.2
929.962	5287.47
930.271	5258.32
930.581	5218.55
930.89	5207.02
931.199	5172.45
931.508	5197.53
931.817	5175.84
932.125	5125.44
932.434	5135.16
932.743	5144.43
933.051	5054.26
933.36	5014.49
933.669	5009.06
933.977	4991.89
934.286	4991.89
934.594	4960.25
934.902	4960.02
935.21	4907.6
935.519	4912.12
935.827	4903.3
936.135	4818.56
936.443	4819.24
936.751	4807.03
937.059	4841.61
937.367	4805.68
937.674	4776.53
937.982	4735.85
938.29	4733.82
938.597	4728.62
938.905	4662.63
939.213	4661.73
939.52	4609.53
939.827	4602.75
940.135	4625.12
940.442	4564.33
940.749	4553.26
941.056	4569.53
941.363	4509.87
941.67	4495.18
941.977	4488.4
942.284	4417.89
942.591	4453.15
942.898	4470.55
943.205	4394.84
943.511	4376.54
943.818	4424.9
944.125	4320.49
944.431	4342.87
944.738	4322.75
945.044	4328.18
945.35	4278.91
945.657	4271.68
945.963	4274.17
946.269	4200.5
946.575	4222.64
946.881	4186.71
947.187	4171.35
947.493	4134.06
947.799	4127.5
948.105	4158.92
948.41	4063.1
948.716	4133.61
949.022	4036.89
949.327	4051.57
949.633	4014.29
949.938	4039.82
950.244	4009.77
950.549	3988.3
950.854	3964.57
951.16	3988.53
951.465	3933.16
951.77	3876.66
952.075	3913.5
952.38	3891.58
952.685	3852.03
952.99	3841.64
953.294	3844.8
953.599	3823.56
953.904	3808.64
954.209	3747.4
954.513	3798.93
954.818	3734.97
955.122	3749.66
955.426	3690.23
955.731	3710.34
956.035	3692.49
956.339	3658.36
956.643	3627.4
956.948	3662.21
957.252	3607.97
957.556	3602.55
957.86	3590.57
958.163	3590.57
958.467	3571.81
958.771	3539.05
959.075	3521.42
959.378	3511.25
959.682	3518.71
959.985	3486.39
960.289	3507.41
960.592	3489.33
960.896	3443.91
961.199	3424.02
961.502	3391.25
961.805	3371.82
962.108	3358.03
962.411	3353.06
962.714	3325.49
963.017	3353.06
963.32	3331.37
963.623	3293.18
963.926	3269
964.228	3271.03
964.531	3282.55
964.833	3250.01
965.136	3240.75
965.438	3233.97
965.741	3168.43
966.043	3166.63
966.345	3187.87
966.648	3167.76
966.95	3134.76
967.252	3159.39
967.554	3124.59
967.856	3161.88
968.158	3090.7
968.46	3097.7
968.761	3059.96
969.063	3088.66
969.365	3037.59
969.666	3031.94
969.968	3009.79
970.269	3020.87
970.571	2991.72
970.872	2975.22
971.174	2941.77
971.475	2973.64
971.776	2982.22
972.077	2946.29
972.378	2895.67
972.679	2895.45
972.98	2869.23
973.281	2908.33
973.582	2873.53
973.883	2846.63
974.183	2874.43
974.484	2809.12
974.785	2829.01
975.085	2826.07
975.386	2789.01
975.686	2817.93
975.986	2739.97
976.287	2776.58
976.587	2727.99
976.887	2755.34
977.187	2714.21
977.487	2727.99
977.787	2687.99
978.087	2694.77
978.387	2657.03
978.687	2664.49
978.987	2623.59
979.286	2640.09
979.586	2649.35
979.885	2630.14
980.185	2592.86
980.484	2566.87
980.784	2583.59
981.083	2542.69
981.382	2562.8
981.682	2573.65
981.981	2520.54
982.28	2515.12
982.579	2490.71
982.878	2504.72
983.177	2491.84
983.475	2486.87
983.774	2478.28
984.073	2451.62
984.372	2428.11
984.67	2432.63
984.969	2441.22
985.267	2422.24
985.566	2413.43
985.864	2412.97
986.162	2403.93
986.461	2367.78
986.759	2394.44
987.057	2402.58
987.355	2358.06
987.653	2356.7
987.951	2335.91
988.249	2326.42
988.547	2330.04
988.844	2296.37
989.142	2276.93
989.44	2288.91
989.737	2264.28
990.035	2248.46
990.332	2281
990.63	2212.53
990.927	2252.3
991.224	2233.32
991.521	2202.58
991.819	2225.18
992.116	2187.89
992.413	2188.35
992.71	2152.19
993.006	2149.7
993.303	2155.58
993.6	2121.23
993.897	2137.73
994.193	2125.52
994.49	2116.94
994.787	2086.43
995.083	2122.59
995.379	2095.69
995.676	2064.51
995.972	2070.61
996.268	2019.54
996.565	2047.56
996.861	2061.34
997.157	2016.6
997.453	2023.83
997.749	2030.61
998.044	1998.29
998.34	1946.77
998.636	2006.2
998.932	1950.61
999.227	1942.93
999.523	1968.69
999.818	1918.52
1000.114	1915.36
1000.409	1921.69
1000.704	1870.61
1001	1891.86
1001.295	1870.61
1001.59	1897.28
1001.885	1851.41
1002.18	1871.97
1002.475	1833.33
1002.77	1838.07
1003.065	1795.14
1003.359	1844.85
1003.654	1816.38
1003.949	1805.98
1004.243	1765.98
1004.538	1768.47
1004.832	1747.23
1005.127	1763.72
1005.421	1755.36
1005.715	1711.97
1006.009	1737.06
1006.304	1712.2
1006.598	1718.08
1006.892	1705.42
1007.186	1685.99
1007.48	1688.25
1007.773	1696.38
1008.067	1672.88
1008.361	1642.37
1008.655	1645.76
1008.948	1631.07
1009.242	1629.27
1009.535	1628.14
1009.829	1628.36
1010.122	1610.06
1010.415	1590.17
1010.708	1575.03
1011.001	1567.57
1011.295	1563.96
1011.588	1577.06
1011.881	1564.86
1012.173	1549.95
1012.466	1535.48
1012.759	1513.11
1013.052	1498.65
1013.344	1511.53
1013.637	1494.35
1013.93	1486.22
1014.222	1468.59
1014.514	1474.47
1014.807	1447.12
1015.099	1458.65
1015.391	1446.22
1015.683	1443.73
1015.976	1428.82
1016.268	1422.94
1016.56	1415.03
1016.851	1412.1
1017.143	1409.84
1017.435	1428.82
1017.727	1373.23
1018.018	1382.49
1018.31	1370.06
1018.602	1323.06
1018.893	1325.32
1019.185	1351.76
1019.476	1311.99
1019.767	1333.91
1020.058	1311.53
1020.35	1281.7
1020.641	1303.17
1020.932	1268.37
1021.223	1287.13
1021.514	1285.09
1021.804	1279.9
1022.095	1263.17
1022.386	1242.16
1022.677	1251.87
1022.967	1230.63
1023.258	1221.37
1023.548	1226.34
1023.839	1190.86
1024.129	1190.63
1024.419	1197.19
1024.709	1187.02
1025	1172.1
1025.29	1156.51
1025.58	1176.85
1025.87	1119.9
1026.16	1155.38
1026.449	1162.61
1026.739	1124.19
1027.029	1144.08
1027.319	1142.5
1027.608	1078.55
1027.898	1067.7
1028.187	1096.85
1028.477	1082.16
1028.766	1073.57
1029.055	1097.53
1029.344	1060.01
1029.634	1041.03
1029.923	1060.69
1030.212	1072.22
1030.501	1040.13
1030.79	1023.18
1031.078	1029.51
1031.367	1012.56
1031.656	1022.05
1031.945	986.57
1032.233	1020.92
1032.522	1000.58
1032.81	998.77
1033.099	987.47
1033.387	988.6
1033.675	986.12
1033.963	984.54
1034.251	964.2
1034.54	954.25
1034.828	942.96
1035.116	944.31
1035.403	962.62
1035.691	928.94
1035.979	937.08
1036.267	923.75
1036.554	918.1
1036.842	904.99
1037.129	900.47
1037.417	905.67
1037.704	901.83
1037.992	884.43
1038.279	919.45
1038.566	881.26
1038.853	881.26
1039.14	881.26
