Data from hue_280_FLMS001491_00069.txt Node
Date: Tue Feb 07 15:55:37 GMT 2017
User: dcchb
Spectrometer: FLMS00149
Trigger mode: 0
Integration Time (sec): 2.000000E-2
Scans to average: 10
Electric dark correction enabled: true
Nonlinearity correction enabled: false
Boxcar width: 0
XAxis mode: Wavelengths
Number of Pixels in Spectrum: 2048
>>>>>Begin Spectral Data<<<<<
341.393	0.14
341.776	0.14
342.16	0.14
342.543	-51.38
342.927	-72.4
343.31	-66.98
343.693	-78.5
344.077	-51.16
344.46	-74.21
344.843	-71.27
345.226	-31.95
345.61	-39.18
345.993	9.41
346.376	-4.15
346.759	8.5
347.142	20.93
347.525	39.01
347.908	69.97
348.291	88.73
348.674	80.14
349.057	100.7
349.44	118.1
349.823	151.32
350.206	180.48
350.588	186.58
350.971	195.16
351.354	225.22
351.737	205.11
352.119	238.55
352.502	254.37
352.884	250.3
353.267	268.83
353.65	293.92
354.032	294.37
354.414	296.63
354.797	291.21
355.179	318.78
355.562	321.94
355.944	316.07
356.326	294.14
356.709	302.28
357.091	313.58
357.473	325.33
357.855	338.44
358.238	331.88
358.62	330.98
359.002	321.94
359.384	309.06
359.766	335.27
360.148	329.85
360.53	324.43
360.912	325.1
361.294	323.52
361.676	314.94
362.057	337.31
362.439	333.24
362.821	315.61
363.203	292.34
363.584	324.43
363.966	329.85
364.348	317.2
364.729	302.96
365.111	311.55
365.493	318.78
365.874	302.28
366.256	311.32
366.637	314.26
367.019	292.11
367.4	316.07
367.781	321.49
368.163	300.25
368.544	310.19
368.925	289.17
369.306	319.23
369.688	319.91
370.069	318.1
370.45	302.73
370.831	301.15
371.212	317.42
371.593	314.71
371.974	301.6
372.355	326.46
372.736	302.73
373.117	311.09
373.498	299.34
373.879	306.57
374.26	302.05
374.641	326.91
375.021	304.09
375.402	328.27
375.783	316.07
376.163	315.84
376.544	308.61
376.925	296.86
377.305	300.25
377.686	301.83
378.066	312
378.447	324.88
378.827	319.23
379.208	318.78
379.588	340.92
379.968	320.13
380.349	333.47
380.729	330.75
381.109	338.66
381.489	339.79
381.87	314.03
382.25	344.09
382.63	314.48
383.01	346.12
383.39	332.34
383.77	347.02
384.15	337.99
384.53	334.82
384.91	340.02
385.29	362.62
385.67	345.44
386.049	341.6
386.429	323.75
386.809	348.61
387.189	343.18
387.568	343.41
387.948	351.32
388.328	341.6
388.707	360.36
389.087	354.03
389.466	348.38
389.846	329.4
390.225	337.99
390.605	364.65
390.984	357.42
391.363	363.3
391.743	363.75
392.122	378.66
392.501	347.02
392.881	374.37
393.26	360.36
393.639	361.26
394.018	355.39
394.397	368.49
394.776	371.88
395.155	371.88
395.534	374.82
395.913	363.97
396.292	377.76
396.671	392
397.05	386.12
397.429	370.08
397.808	398.55
398.186	400.58
398.565	399.23
398.944	391.77
399.323	384.54
399.701	386.35
400.08	408.49
400.458	394.48
400.837	385.44
401.215	426.34
401.594	384.31
401.972	416.4
402.351	410.3
402.729	428.38
403.107	414.14
403.486	412.79
403.864	425.67
404.242	399.23
404.62	455.04
404.999	423.41
405.377	430.19
405.755	434.71
406.133	444.42
406.511	448.72
406.889	452.56
407.267	451.88
407.645	471.09
408.023	468.83
408.401	459.11
408.779	477.19
409.156	444.2
409.534	470.64
409.912	492.78
410.29	500.92
410.667	505.89
411.045	526.23
411.422	514.25
411.8	521.26
412.178	514.25
412.555	518.77
412.933	547.47
413.31	535.49
413.687	526.68
414.065	569.39
414.442	562.84
414.819	547.25
415.197	582.27
415.574	593.12
415.951	585.89
416.328	585.21
416.705	592.89
417.082	598.54
417.46	588.15
417.837	630.63
418.214	622.05
418.591	637.41
418.967	629.05
419.344	646.68
419.721	651.42
420.098	655.72
420.475	687.58
420.852	639.9
421.228	695.04
421.605	679.22
421.982	729.16
422.358	684.42
422.735	709.73
423.111	721.48
423.488	740.91
423.864	721.7
424.241	751.31
424.617	745.43
424.994	740.91
425.37	761.03
425.746	771.19
426.123	764.41
426.499	799.89
426.875	806.22
427.251	814.13
427.627	826.33
428.003	842.83
428.379	835.6
428.756	840.35
429.132	876.5
429.507	854.13
429.883	872.89
430.259	886.9
430.635	879.67
431.011	910.4
431.387	905.2
431.763	950.85
432.138	920.79
432.514	949.04
432.89	943.17
433.265	988.14
433.641	971.87
434.016	1018.19
434.392	1000.11
434.767	1028.14
435.143	1023.39
435.518	1060.68
435.894	1062.26
436.269	1049.83
436.644	1072.66
437.02	1109.49
437.395	1090.73
437.77	1119.43
438.145	1116.72
438.52	1115.82
438.895	1185.19
439.271	1179.09
439.646	1187.91
440.021	1202.82
440.395	1207.57
440.77	1228.36
441.145	1225.19
441.52	1226.1
441.895	1234.46
442.27	1227
442.645	1292.76
443.019	1245.76
443.394	1255.7
443.769	1303.84
444.143	1282.82
444.518	1283.27
444.892	1297.28
445.267	1311.75
445.641	1312.2
446.016	1317.62
446.39	1324.63
446.764	1332.08
447.139	1356.49
447.513	1341.35
447.887	1334.8
448.262	1357.17
448.636	1328.69
449.01	1379.99
449.384	1374.57
449.758	1402.36
450.132	1396.71
450.506	1408.24
450.88	1424.28
451.254	1387.9
451.628	1447.79
452.002	1432.42
452.376	1473.77
452.75	1427.67
453.123	1471.74
453.497	1511.74
453.871	1499.54
454.244	1505.86
454.618	1502.93
454.992	1541.12
455.365	1522.59
455.739	1576.82
456.112	1575.47
456.486	1586.99
456.859	1584.05
457.232	1625.18
457.606	1632.19
457.979	1634.67
458.352	1651.85
458.725	1671.96
459.099	1658.85
459.472	1710.83
459.845	1726.65
460.218	1727.33
460.591	1758.51
460.964	1736.14
461.337	1749.47
461.71	1783.37
462.083	1803.26
462.456	1808.91
462.829	1818.85
463.201	1828.12
463.574	1837.61
463.947	1870.37
464.32	1886.87
464.692	1887.55
465.065	1916.7
465.438	1936.14
465.81	1949.24
466.183	1956.47
466.555	2003.03
466.928	2013.87
467.3	2018.17
467.672	2039.41
468.045	2033.76
468.417	2057.49
468.789	2056.13
469.161	2085.74
469.534	2122.35
469.906	2135.9
470.278	2168.67
470.65	2174.55
471.022	2215.68
471.394	2235.34
471.766	2268.56
472.138	2305.84
472.51	2313.98
472.882	2334.54
473.253	2347.2
473.625	2372.73
473.997	2379.74
474.369	2441.43
474.74	2443.24
475.112	2502
475.484	2436.24
475.855	2560.98
476.227	2521.88
476.598	2598.27
476.97	2599.17
477.341	2682.78
477.713	2673.52
478.084	2723.23
478.455	2753.52
478.827	2764.81
479.198	2823.57
479.569	2851.59
479.94	2897.92
480.311	2893.17
480.682	2954.87
481.053	2997.8
481.424	3059.5
481.795	3046.16
482.166	3067.86
482.537	3085.26
482.908	3110.79
483.279	3142.21
483.65	3210
484.021	3233.05
484.391	3302.88
484.762	3292.26
485.133	3372.71
485.503	3344.91
485.874	3438.24
486.244	3421.52
486.615	3490.22
486.985	3529.77
487.356	3570.44
487.726	3551.46
488.097	3619.03
488.467	3626.03
488.837	3745.13
489.207	3741.74
489.578	3757.1
489.948	3780.15
490.318	3849.31
490.688	3814.96
491.058	3836.65
491.428	3895.63
491.798	3939.25
492.168	3985.12
492.538	4037.1
492.908	4042.75
493.278	4077.1
493.648	4066.7
494.017	4121.84
494.387	4122.74
494.757	4124.33
495.126	4208.39
495.496	4190.77
495.866	4248.62
496.235	4262.18
496.605	4285.45
496.974	4274.83
497.344	4342.17
497.713	4368.16
498.082	4376.98
498.452	4429.63
498.821	4417.88
499.19	4440.93
499.559	4424.43
499.928	4473.47
500.298	4498.1
500.667	4521.83
501.036	4501.94
501.405	4514.37
501.774	4538.33
502.143	4554.82
502.512	4593.24
502.88	4619.23
503.249	4650.41
503.618	4667.14
503.987	4634.82
504.356	4653.8
504.724	4672.11
505.093	4676.4
505.462	4707.59
505.83	4708.04
506.199	4757.76
506.567	4863.74
506.936	4747.81
507.304	4851.09
507.672	4870.52
508.041	4879.33
508.409	4871.43
508.777	4897.64
509.145	4917.3
509.514	4874.82
509.882	4943.29
510.25	4910.97
510.618	4917.53
510.986	4910.52
511.354	4977.19
511.722	5010.18
512.09	5015.15
512.458	5011.08
512.826	5033.91
513.193	5028.48
513.561	5066
513.929	5068.93
514.297	5124.3
514.664	5090.63
515.032	5121.59
515.4	5147.58
515.767	5191.64
516.135	5179.89
516.502	5114.36
516.869	5236.39
517.237	5164.07
517.604	5190.51
517.972	5235.94
518.339	5246.33
518.706	5280.91
519.073	5262.38
519.44	5233.45
519.808	5276.16
520.175	5244.3
520.542	5362.03
520.909	5356.84
521.276	5307.57
521.643	5387.12
522.009	5395.25
522.376	5410.39
522.743	5432.31
523.11	5446.78
523.477	5510.05
523.843	5516.83
524.21	5508.02
524.577	5566.1
524.943	5559.54
525.31	5578.53
525.676	5587.79
526.043	5649.94
526.409	5616.04
526.776	5692.42
527.142	5689.03
527.508	5719.76
527.874	5749.59
528.241	5762.93
528.607	5733.32
528.973	5781.23
529.339	5767.9
529.705	5854.9
530.071	5882.25
530.437	5856.71
530.803	5922.92
531.169	5856.94
531.535	5921.34
531.901	5964.5
532.267	5946.65
532.632	5967.22
532.998	5983.71
533.364	6010.15
533.73	6000.66
534.095	6051.28
534.461	6035.91
534.826	6080.89
535.192	6057.84
535.557	6080.43
535.923	6113.88
536.288	6091.73
536.653	6148
537.019	6132.64
537.384	6096.48
537.749	6096.03
538.114	6177.15
538.479	6154.56
538.845	6238.17
539.21	6122.69
539.575	6185.97
539.94	6254.67
540.305	6238.17
540.67	6226.42
541.034	6233.65
541.399	6287.43
541.764	6290.82
542.129	6322.23
542.494	6281.78
542.858	6329.47
543.223	6325.85
543.587	6357.49
543.952	6378.05
544.316	6343.7
544.681	6332.63
545.045	6392.74
545.41	6435.68
545.774	6435.9
546.138	6398.17
546.503	6435.68
546.867	6437.49
547.231	6495.34
547.595	6487.65
547.959	6507.09
548.324	6449.24
548.688	6467.32
549.052	6534.21
549.416	6537.6
549.779	6516.13
550.143	6561.55
550.507	6582.12
550.871	6537.82
551.235	6574.21
551.599	6526.52
551.962	6623.7
552.326	6624.6
552.689	6620.76
553.053	6641.32
553.417	6591.61
553.78	6708.21
554.143	6632.51
554.507	6694.43
554.87	6682.45
555.234	6732.85
555.597	6683.58
555.96	6721.09
556.323	6783.92
556.686	6778.95
557.05	6792.05
557.413	6801.77
557.776	6811.04
558.139	6790.92
558.502	6840.64
558.865	6857.14
559.228	6862.11
559.59	6903.24
559.953	6905.04
560.316	6946.85
560.679	6953.63
561.041	6996.34
561.404	7020.75
561.767	7032.27
562.129	6970.81
562.492	7049.45
562.854	7081.76
563.217	7046.96
563.579	7082.21
563.941	7138.94
564.304	7156.79
564.666	7149.11
565.028	7126.06
565.39	7204.47
565.753	7248.54
566.115	7228.88
566.477	7318.59
566.839	7357.01
567.201	7361.3
567.563	7368.08
567.925	7422.09
568.287	7321.98
568.648	7432.26
569.01	7469.1
569.372	7528.98
569.734	7492.15
570.095	7517.23
570.457	7600.39
570.819	7538.47
571.18	7620.73
571.542	7634.29
571.903	7622.99
572.265	7687.85
572.626	7688.75
572.987	7699.83
573.349	7768.07
573.71	7769.2
574.071	7851.23
574.432	7874.74
574.794	7924.68
575.155	7886.71
575.516	7950.21
575.877	7943.21
576.238	7968.97
576.599	8038.12
576.96	8039.48
577.32	8124.45
577.681	8137.78
578.042	8183.88
578.403	8137.1
578.763	8205.12
579.124	8218.91
579.485	8270.88
579.845	8347.27
580.206	8380.49
580.566	8414.38
580.927	8453.93
581.287	8465.46
581.648	8509.97
582.008	8681.27
582.368	8635.17
582.728	8684.88
583.089	8710.87
583.449	8725.56
583.809	8792
584.169	8864.31
584.529	8916.97
584.889	8916.74
585.249	8989.51
585.609	9043.07
585.969	9156.06
586.329	9190.18
586.688	9234.93
587.048	9281.25
587.408	9359.67
587.768	9476.5
588.127	9486.45
588.487	9531.64
588.846	9676.95
589.206	9650.73
589.565	9757.17
589.925	9817.96
590.284	9749.94
590.643	9888.47
591.003	9999.43
591.362	10022.7
591.721	10106.32
592.08	10070.84
592.44	10250.72
592.799	10318.29
593.158	10360.77
593.517	10410.94
593.876	10406.65
594.235	10454.78
594.593	10558.06
594.952	10692.52
595.311	10622.46
595.67	10746.98
596.029	10913.07
596.387	10907.43
596.746	10965.73
597.104	11036.69
597.463	11045.95
597.822	11159.4
598.18	11103.58
598.538	11160.07
598.897	11310.58
599.255	11202.56
599.613	11435.55
599.972	11461.76
600.33	11518.03
600.688	11530.46
601.046	11560.97
601.404	11664.47
601.762	11647.29
602.12	11814.29
602.478	11856.55
602.836	11783.79
603.194	11859.94
603.552	11878.92
603.91	11951.24
604.268	12020.16
604.625	12008.19
604.983	12109.2
605.341	12017.9
605.698	12208.63
606.056	12196.66
606.413	12207.73
606.771	12308.52
607.128	12315.98
607.485	12257.45
607.843	12294.06
608.2	12403.2
608.557	12447.95
608.914	12427.39
609.272	12567.72
609.629	12477.1
609.986	12665.12
610.343	12653.59
610.7	12724.1
611.057	12677.55
611.414	12742.41
611.771	12763.65
612.127	12732.91
612.484	12815.85
612.841	12895.62
613.198	12838
613.554	12855.85
613.911	12924.1
614.267	12963.19
614.624	12990.31
614.98	13026.01
615.337	13022.85
615.693	13042.28
616.05	13030.08
616.406	13132.9
616.762	13128.61
617.118	13075.73
617.475	13059.68
617.831	13170.19
618.187	13239.79
618.543	13235.5
618.899	13206.57
619.255	13228.72
619.611	13301.94
619.967	13374.7
620.323	13340.36
620.678	13286.8
621.034	13285.22
621.39	13386.91
621.746	13364.08
622.101	13516.85
622.457	13438.88
622.812	13521.59
623.168	13532.67
623.523	13501.03
623.879	13551.2
624.234	13511.65
624.589	13610.4
624.945	13555.27
625.3	13580.12
625.655	13580.12
626.01	13552.1
626.365	13463.52
626.72	13523.85
627.075	13521.14
627.43	13578.77
627.785	13425.1
628.14	13581.03
628.495	13574.47
628.85	13595.04
629.205	13485.66
629.559	13571.99
629.914	13568.6
630.269	13513.68
630.623	13551.42
630.978	13492.89
631.332	13508.03
631.687	13543.74
632.041	13422.61
632.396	13504.64
632.75	13422.84
633.104	13406.79
633.459	13380.81
633.813	13422.84
634.167	13379.45
634.521	13538.77
634.875	13461.03
635.229	13469.39
635.583	13373.35
635.937	13420.81
636.291	13381.48
636.645	13316.18
636.999	13407.02
637.352	13391.43
637.706	13253.13
638.06	13397.98
638.413	13333.58
638.767	13282.5
639.121	13309.62
639.474	13194.14
639.828	13234.14
640.181	13312.79
640.534	13298.32
640.888	13276.85
641.241	13157.99
641.594	13209.96
641.947	13200.7
642.301	13260.36
642.654	13197.08
643.007	13221.71
643.36	13280.92
643.713	13147.14
644.066	13182.62
644.419	13152.79
644.771	13079.57
645.124	12946.92
645.477	12855.85
645.83	12840.71
646.182	12809.97
646.535	12782.86
646.888	12794.83
647.24	12816.98
647.593	12885.45
647.945	12755.29
648.298	12689.53
648.65	12763.2
649.002	12798.9
649.355	12792.12
649.707	12679.13
650.059	12821.95
650.411	12905.56
650.763	12990.08
651.115	13081.83
651.467	13049.29
651.819	13055.62
652.171	13020.36
652.523	12963.87
652.875	12993.7
653.227	12998.9
653.578	13019.01
653.93	13042.74
654.282	12962.51
654.633	12968.39
654.985	13018.1
655.337	13058.55
655.688	13067.82
656.039	13090.19
656.391	12990.99
656.742	13030.31
657.094	13013.36
657.445	13139.91
657.796	13113.24
658.147	13177.42
658.498	13101.49
658.849	13137.65
659.2	13081.15
659.551	13015.17
659.902	13146.24
660.253	13152.56
660.604	13104.2
660.955	13054.26
661.306	13099.23
661.656	13126.58
662.007	13193.47
662.358	13134.49
662.708	13132.45
663.059	13140.59
663.409	13045
663.76	13170.42
664.11	13195.27
664.461	13192.34
664.811	13179.68
665.161	13180.81
665.511	13072.79
665.862	13127.71
666.212	13183.3
666.562	13125.9
666.912	13231.21
667.262	13132.68
667.612	13181.94
667.962	13202.28
668.312	13138.55
668.662	13241.83
669.011	13190.98
669.361	13156.41
669.711	13152.56
670.06	13103.3
670.41	13172.9
670.76	13133.58
671.109	13134.49
671.459	13135.39
671.808	13091.55
672.157	13172
672.507	12981.49
672.856	13049.52
673.205	13189.85
673.554	13161.6
673.904	13143.3
674.253	13128.38
674.602	13035.5
674.951	12990.76
675.3	12903.98
675.649	13075.73
675.998	12971.78
676.346	13059.68
676.695	13007.03
677.044	12901.95
677.393	12972.46
677.741	12996.18
678.09	12873.02
678.438	12892.68
678.787	12962.29
679.135	12991.21
679.484	12868.73
679.832	12908.5
680.181	12827.83
680.529	12824.89
680.877	12772.69
681.225	12813.82
681.573	12819.69
681.922	12788.28
682.27	12692.46
682.618	12685.91
682.966	12727.94
683.314	12676.64
683.661	12605.69
684.009	12666.02
684.357	12598
684.705	12645.68
685.053	12508.06
685.4	12575.86
685.748	12501.28
686.095	12407.95
686.443	12312.81
686.79	12382.64
687.138	12366.6
687.485	12339.48
687.832	12285.02
688.18	12338.57
688.527	12283.66
688.874	12212.02
689.221	12146.71
689.568	12200.95
689.915	12171.12
690.262	12104.46
690.609	12078.02
690.956	12064.68
691.303	11968.64
691.65	11957.11
691.997	12022.2
692.344	11824.01
692.69	11927.51
693.037	11857.68
693.383	11699.72
693.73	11786.5
694.077	11680.96
694.423	11688.87
694.769	11611.14
695.116	11545.83
695.462	11626.28
695.808	11532.27
696.155	11532.49
696.501	11460.63
696.847	11330.92
697.193	11398.49
697.539	11372.95
697.885	11267.64
698.231	11216.8
698.577	11220.64
698.923	11232.39
699.269	11177.25
699.614	11032.39
699.96	11034.2
700.306	11070.58
700.651	11011.15
700.997	10958.72
701.342	10941.1
701.688	10880.53
702.033	10862.91
702.379	10847.99
702.724	10768.45
703.069	10757.82
703.415	10650.71
703.76	10720.31
704.105	10635.34
704.45	10624.95
704.795	10544.95
705.14	10473.76
705.485	10493.65
705.83	10372.07
706.175	10419.53
706.52	10394.67
706.865	10324.39
707.209	10312.19
707.554	10296.37
707.899	10268.57
708.243	10222.47
708.588	10199.42
708.932	10153.55
709.277	10091.4
709.621	10116.71
709.966	10063.38
710.31	10057.96
710.654	10027
710.998	9885.98
711.342	10008.47
711.687	9960.78
712.031	9957.17
712.375	9921.01
712.719	9922.14
713.063	9899.54
713.407	9890.95
713.75	9882.59
714.094	9863.16
714.438	9852.99
714.782	9864.74
715.125	9762.6
715.469	9745.42
715.812	9789.71
716.156	9627.46
716.499	9672.2
716.843	9705.42
717.186	9654.8
717.53	9739.55
717.873	9651.64
718.216	9701.13
718.559	9649.15
718.902	9614.8
719.246	9577.74
719.589	9519.89
719.932	9534.81
720.275	9549.72
720.617	9539.78
720.96	9561.02
721.303	9478.31
721.646	9475.6
721.989	9422.04
722.331	9500.91
722.674	9428.59
723.016	9460.91
723.359	9455.49
723.701	9451.42
724.044	9407.13
724.386	9321.48
724.729	9439.44
725.071	9416.16
725.413	9353.79
725.755	9377.52
726.097	9329.39
726.439	9397.86
726.782	9335.26
727.124	9360.12
727.465	9299.56
727.807	9290.07
728.149	9344.75
728.491	9268.82
728.833	9319.44
729.175	9270.63
729.516	9259.11
729.858	9343.85
730.199	9226.79
730.541	9304.98
730.882	9288.48
731.224	9255.49
731.565	9267.47
731.906	9303.85
732.248	9242.38
732.589	9188.37
732.93	9259.11
733.271	9224.08
733.612	9283.29
733.953	9302.5
734.294	9227.92
734.635	9238.99
734.976	9236.06
735.317	9211.88
735.658	9270.18
735.999	9225.89
736.339	9237.19
736.68	9251.2
737.021	9215.27
737.361	9201.48
737.702	9312.66
738.042	9301.14
738.383	9182.72
738.723	9286.68
739.063	9295.94
739.404	9366
739.744	9247.58
740.084	9251.2
740.424	9339.33
740.764	9307.92
741.104	9388.59
741.444	9389.5
741.784	9309.27
742.124	9355.15
742.464	9414.81
742.804	9446.22
743.143	9431.98
743.483	9456.16
743.823	9446.9
744.162	9449.61
744.502	9528.48
744.841	9455.03
745.181	9659.32
745.52	9607.8
745.86	9699.77
746.199	9678.08
746.538	9667.23
746.877	9720.56
747.216	9848.02
747.556	9857.28
747.895	9900.22
748.234	9929.82
748.573	9890.28
748.911	9972.99
749.25	10117.16
749.589	10189.93
749.928	10218.86
750.267	10297.95
750.605	10466.98
750.944	10473.54
751.283	10422.92
751.621	10650.03
751.96	10620.2
752.298	10755.34
752.636	10811.83
752.975	10814.32
753.313	10959.85
753.651	11114.43
753.989	11188.55
754.327	11283.69
754.666	11324.82
755.004	11426.73
755.342	11673.51
755.679	11759.15
756.017	11811.58
756.355	11935.42
756.693	12066.72
757.031	12286.6
757.368	12363.43
757.706	12475.52
758.044	12581.28
758.381	12748.28
758.719	12778.11
759.056	13029.18
759.394	13146.91
759.731	13163.64
760.068	13308.04
760.405	13421.26
760.743	13659.44
761.08	13769.72
761.417	13868.48
761.754	13995.25
762.091	14094.69
762.428	14236.38
762.765	14312.53
763.102	14587.1
763.438	14670.94
763.775	14759.08
764.112	14885.17
764.449	15073.87
764.785	15158.84
765.122	15172.17
765.458	15263.69
765.795	15374.65
766.131	15512.95
766.467	15566.51
766.804	15687.19
767.14	15790.23
767.476	15871.59
767.812	15975.54
768.148	16055.54
768.485	16152.48
768.821	16185.93
769.157	16403.55
769.492	16455.08
769.828	16496.66
770.164	16523.77
770.5	16522.19
770.836	16716.09
771.171	16738.91
771.507	16751.79
771.842	16826.82
772.178	16857.1
772.513	16879.92
772.849	16974.84
773.184	17012.12
773.519	17056.19
773.855	17087.83
774.19	17120.6
774.525	17148.16
774.86	17248.28
775.195	17254.15
775.53	17250.54
775.865	17179.8
776.2	17192.46
776.535	17154.72
776.87	17317.65
777.205	17243.98
777.539	17233.81
777.874	17332.11
778.209	17315.84
778.543	17222.51
778.878	17186.81
779.212	17285.79
779.547	17253.02
779.881	17346.58
780.215	17246.24
780.55	17380.25
780.884	17252.34
781.218	17260.48
781.552	17328.27
781.886	17206.47
782.22	17217.54
782.554	17105.23
782.888	17075.85
783.222	17064.1
783.556	17046.47
783.889	16998.34
784.223	16947.72
784.557	17008.28
784.89	16978
785.224	16962.18
785.557	16857.33
785.891	16892.13
786.224	16894.16
786.558	16948.85
786.891	16778.91
787.224	16713.83
787.557	16735.07
787.891	16712.47
788.224	16700.72
788.557	16597.67
788.89	16638.57
789.223	16648.29
789.556	16510.22
789.888	16610.33
790.221	16503.44
790.554	16412.37
790.887	16437.45
791.219	16399.26
791.552	16347.28
791.884	16285.36
792.217	16208.75
792.549	16271.13
792.882	16218.7
793.214	16101.64
793.546	16191.81
793.879	16041.75
794.211	15938.25
794.543	16021.19
794.875	15917.24
795.207	16050.11
795.539	15888.76
795.871	15895.09
796.203	15812.15
796.535	15623.91
796.867	15733.96
797.198	15629.11
797.53	15634.53
797.862	15571.26
798.193	15598.38
798.525	15489.9
798.856	15588.66
799.188	15370.13
799.519	15394.99
799.85	15317.7
800.182	15315.44
800.513	15296.69
800.844	15201.1
801.175	15286.52
801.506	15219.63
801.837	15065.96
802.168	15090.37
802.499	15041.55
802.83	15051.27
803.161	14924.27
803.491	14980.54
803.822	14998.39
804.153	14922.69
804.483	14760.21
804.814	14745.97
805.145	14729.47
805.475	14782.35
805.805	14791.84
806.136	14645.18
806.466	14647.67
806.796	14708.23
807.126	14569.7
807.457	14415.81
807.787	14535.8
808.117	14418.07
808.447	14399.99
808.777	14489.7
809.107	14411.74
809.436	14315.47
809.766	14310.95
810.096	14281.8
810.426	14207.23
810.755	14287.9
811.085	14136.04
811.414	14096.95
811.744	14022.82
812.073	14021.47
812.403	14107.34
812.732	13984.63
813.061	13991.19
813.39	13886.33
813.719	13958.87
814.049	14004.97
814.378	13983.28
814.707	13857.18
815.036	13836.61
815.365	13784.19
815.693	13600.01
816.022	13663.28
816.351	13668.71
816.68	13599.11
817.008	13579.9
817.337	13503.06
817.665	13560.91
817.994	13525.44
818.322	13499.9
818.651	13416.96
818.979	13409.96
819.307	13468.26
819.636	13367.25
819.964	13316.4
820.292	13380.35
820.62	13343.75
820.948	13358.21
821.276	13330.41
821.604	13259.91
821.932	13365.89
822.259	13377.42
822.587	13216.06
822.915	13222.17
823.243	13302.84
823.57	13231.88
823.898	13204.54
824.225	13188.04
824.553	13150.53
824.88	13192.11
825.207	13395.5
825.535	13304.88
825.862	13263.52
826.189	13243.63
826.516	13330.19
826.843	13356.85
827.17	13277.76
827.497	13334.03
827.824	13364.08
828.151	13308.27
828.478	13300.13
828.805	13322.73
829.131	13300.36
829.458	13250.64
829.785	13139.91
830.111	13257.87
830.438	13327.93
830.764	13313.46
831.09	13304.88
831.417	13260.13
831.743	13279.11
832.069	13275.27
832.395	13219.45
832.722	13259.91
833.048	13237.08
833.374	13196.86
833.7	13094.26
834.026	13191.66
834.351	13146.46
834.677	13157.31
835.003	13176.97
835.329	13193.92
835.654	13163.41
835.98	13043.41
836.306	13159.12
836.631	13035.28
836.956	13049.74
837.282	13129.51
837.607	12989.86
837.932	12997.09
838.258	12992.12
838.583	12981.72
838.908	12935.17
839.233	12960.7
839.558	12881.84
839.883	12863.98
840.208	12838.67
840.533	12819.92
840.858	12845.91
841.182	12861.27
841.507	12716.19
841.832	12753.25
842.156	12802.06
842.481	12710.09
842.805	12598.23
843.13	12703.99
843.454	12607.95
843.778	12549.42
844.103	12504.9
844.427	12435.97
844.751	12578.79
845.075	12488.85
845.399	12350.32
845.723	12401.85
846.047	12374.28
846.371	12244.79
846.695	12243.21
847.019	12161.18
847.343	12090.9
847.666	12082.76
847.99	12017.68
848.313	11967.51
848.637	12000.73
848.96	11913.73
849.284	11802.54
849.607	11750.34
849.931	11759.15
850.254	11718.03
850.577	11589.67
850.9	11569.78
851.223	11551.93
851.546	11482.78
851.869	11452.72
852.192	11493.17
852.515	11354.87
852.838	11275.78
853.161	11349.45
853.483	11273.97
853.806	11214.99
854.129	11130.24
854.451	11160.98
854.774	11097.02
855.096	11084.14
855.419	11031.04
855.741	10983.36
856.063	10897.26
856.385	10914.88
856.708	10978.16
857.03	10854.77
857.352	10854.77
857.674	10848.67
857.996	10829.01
858.318	10715.34
858.64	10784.49
858.961	10701.1
859.283	10605.74
859.605	10642.8
859.926	10584.72
860.248	10479.19
860.57	10519.41
860.891	10529.58
861.212	10485.52
861.534	10458.4
861.855	10457.95
862.176	10396.03
862.498	10458.17
862.819	10521.9
863.14	10387.21
863.461	10399.19
863.782	10355.12
864.103	10373.43
864.424	10266.31
864.745	10290.49
865.065	10179.53
865.386	10228.12
865.707	10179.99
866.027	10201.23
866.348	10254.79
866.668	10216.82
866.989	10146.77
867.309	10121.23
867.63	10079.2
867.95	10102.25
868.27	10015.47
868.59	10115.36
868.91	9994.45
869.23	10044.4
869.55	9956.04
869.87	10044.17
870.19	9950.61
870.51	9957.85
870.83	9960.33
871.15	9891.41
871.469	9905.19
871.789	9963.95
872.109	9952.65
872.428	9864.29
872.748	9916.72
873.067	9906.1
873.386	9842.37
873.706	9835.36
874.025	9801.01
874.344	9728.7
874.663	9754.91
874.982	9778.87
875.301	9660.23
875.62	9651.64
875.939	9645.99
876.258	9692.77
876.577	9675.37
876.896	9634.01
877.214	9582.71
877.533	9601.47
877.852	9603.5
878.17	9675.14
878.489	9635.14
878.807	9497.52
879.125	9533
879.444	9546.1
879.762	9460.23
880.08	9455.94
880.398	9462.94
880.716	9480.8
881.034	9415.94
881.352	9409.61
881.67	9405.32
881.988	9432.44
882.306	9297.98
882.624	9371.19
882.941	9248.94
883.259	9225.44
883.577	9273.57
883.894	9299.33
884.212	9228.83
884.529	9241.03
884.846	9210.75
885.164	9142.05
885.481	9090.98
885.798	9111.77
886.115	9038.55
886.432	9086.68
886.75	9084.65
887.067	9114.93
887.383	8977.76
887.7	8996.51
888.017	8955.39
888.334	8997.64
888.651	8910.87
888.967	8871.77
889.284	8892.79
889.6	8835.16
889.917	8751.32
890.233	8803.53
890.55	8759.46
890.866	8700.03
891.182	8758.78
891.498	8628.39
891.815	8648.73
892.131	8605.79
892.447	8645.56
892.763	8655.51
893.079	8574.61
893.395	8553.14
893.71	8499.58
894.026	8476.08
894.342	8451.22
894.657	8450.31
894.973	8442.18
895.289	8332.8
895.604	8370.54
895.92	8250.09
896.235	8252.35
896.55	8311.34
896.865	8269.75
897.181	8236.76
897.496	8209.19
897.811	8206.48
898.126	8057.1
898.441	8091
898.756	8001.29
899.071	8034.73
899.386	8029.08
899.7	7993.83
900.015	7937.33
900.33	7906.37
900.644	7910.67
900.959	7876.77
901.273	7918.58
901.588	7806.26
901.902	7812.14
902.216	7739.37
902.531	7753.16
902.845	7732.14
903.159	7683.78
903.473	7608.3
903.787	7620.28
904.101	7550.68
904.415	7633.16
904.729	7510.68
905.042	7497.35
905.356	7409.21
905.67	7402.21
905.984	7497.8
906.297	7406.73
906.611	7347.74
906.924	7349.1
907.237	7303.9
907.551	7275.2
907.864	7269.78
908.177	7216.9
908.491	7184.36
908.804	7132.38
909.117	7074.31
909.43	7060.75
909.743	7078.6
910.056	7069.11
910.368	7031.37
910.681	6991.14
910.994	7001.54
911.307	6942.56
911.619	6833.86
911.932	6873.86
912.244	6836.57
912.557	6769
912.869	6795.67
913.181	6776.01
913.494	6733.98
913.806	6688.1
914.118	6681.55
914.43	6620.98
914.742	6630.93
915.054	6590.25
915.366	6569.69
915.678	6613.53
915.99	6550.48
916.302	6487.65
916.613	6446.75
916.925	6398.17
917.236	6411.05
917.548	6351.16
917.859	6361.56
918.171	6344.83
918.482	6236.59
918.794	6259.41
919.105	6293.76
919.416	6235.01
919.727	6197.72
920.038	6255.57
920.349	6154.1
920.66	6109.59
920.971	6122.24
921.282	6054.45
921.593	5995.92
921.903	6038.63
922.214	6009.02
922.525	5950.27
922.835	5968.57
923.146	5873.43
923.456	5889.93
923.767	5911.17
924.077	5890.61
924.387	5810.61
924.697	5771.51
925.008	5806.99
925.318	5759.99
925.628	5763.38
925.938	5705.53
926.248	5669.14
926.558	5629.82
926.867	5622.59
927.177	5607.9
927.487	5564.97
927.796	5521.58
928.106	5557.06
928.416	5546.66
928.725	5494.46
929.034	5445.42
929.344	5417.17
929.653	5430.28
929.962	5417.63
930.271	5389.38
930.581	5329.49
930.89	5317.74
931.199	5343.73
931.508	5313.22
931.817	5306.44
932.125	5275.71
932.434	5222.83
932.743	5242.49
933.051	5169.5
933.36	5132.21
933.669	5120.91
933.977	5120.01
934.286	5152.1
934.594	5123.62
934.902	5053.57
935.21	5019.22
935.519	4992.78
935.827	4991.42
936.135	4979.45
936.443	4934.93
936.751	4960.46
937.059	4894.93
937.367	4856.74
937.674	4933.12
937.982	4854.48
938.29	4840.01
938.597	4863.97
938.905	4764.31
939.213	4760.47
939.52	4755.27
939.827	4748.26
940.135	4704.2
940.442	4711.66
940.749	4665.33
941.056	4669.62
941.363	4607.7
941.67	4591.43
941.977	4557.54
942.284	4566.35
942.591	4565.9
942.898	4523.64
943.205	4506.46
943.511	4541.94
943.818	4447.71
944.125	4470.76
944.431	4451.55
944.738	4423.08
945.044	4438.22
945.35	4360.03
945.657	4332.23
945.963	4374.04
946.269	4372
946.575	4336.75
946.881	4261.72
947.187	4281.61
947.493	4235.06
947.799	4235.51
948.105	4236.19
948.41	4150.54
948.716	4190.99
949.022	4136.98
949.327	4133.82
949.633	4150.31
949.938	4145.12
950.244	4122.74
950.549	4033.26
950.854	4022.41
951.16	4024.67
951.465	4017.21
951.77	4034.61
952.075	3972.01
952.38	3976.76
952.685	3975.4
952.99	3915.52
953.294	3925.69
953.599	3908.74
953.904	3870.55
954.209	3864.22
954.513	3831.68
954.818	3879.36
955.122	3819.93
955.426	3825.13
955.731	3777.67
956.035	3749.87
956.339	3737.67
956.643	3753.49
956.948	3748.74
957.252	3701.51
957.556	3655.64
957.86	3669.42
958.163	3667.39
958.467	3648.63
958.771	3636.66
959.075	3638.92
959.378	3624.68
959.682	3594.85
959.985	3587.17
960.289	3557.11
960.592	3547.17
960.896	3548.3
961.199	3503.78
961.502	3475.3
961.805	3443.44
962.108	3444.57
962.411	3466.04
962.714	3456.55
963.017	3427.85
963.32	3439.15
963.623	3404.8
963.926	3394.18
964.228	3353.27
964.531	3342.43
964.833	3372.71
965.136	3319.83
965.438	3279.6
965.741	3273.5
966.043	3213.39
966.345	3270.11
966.648	3263.33
966.95	3224.01
967.252	3185.59
967.554	3166.39
967.856	3199.83
968.158	3169.55
968.46	3166.84
968.761	3148.31
969.063	3162.09
969.365	3123
969.666	3085.94
969.968	3108.31
970.269	3076.67
970.571	3079.83
970.872	3095.88
971.174	3032.6
971.475	3037.35
971.776	3042.55
972.077	3001.87
972.378	2979.05
972.679	2986.73
972.98	2976.11
973.281	2940.18
973.582	2936.11
973.883	2958.93
974.183	2908.09
974.484	2925.26
974.785	2902.66
975.085	2892.95
975.386	2870.8
975.686	2850.69
975.986	2826.51
976.287	2852.72
976.587	2780.86
976.887	2823.57
977.187	2777.02
977.487	2768.88
977.787	2762.1
978.087	2752.84
978.387	2709
978.687	2714.87
978.987	2714.87
979.286	2696.12
979.586	2688.66
979.885	2685.49
980.185	2652.95
980.484	2660.64
980.784	2646.63
981.083	2646.17
981.382	2597.59
981.682	2566.4
981.981	2586.29
982.28	2581.54
982.579	2552.62
982.878	2573.41
983.177	2547.87
983.475	2564.14
983.774	2497.7
984.073	2523.92
984.372	2511.04
984.67	2482.79
984.969	2457.48
985.267	2481.43
985.566	2482.56
985.864	2441.66
986.162	2414.77
986.461	2410.25
986.759	2416.35
987.057	2379.51
987.355	2400.76
987.653	2398.04
987.951	2356.24
988.249	2352.17
988.547	2344.94
988.844	2342.68
989.142	2348.55
989.44	2288.44
989.737	2324.6
990.035	2325.5
990.332	2269.91
990.63	2259.29
990.927	2282.12
991.224	2231.72
991.521	2237.14
991.819	2250.48
992.116	2208.44
992.413	2248.9
992.71	2210.25
993.006	2200.54
993.303	2205.06
993.6	2200.54
993.897	2177.03
994.193	2177.26
994.49	2167.32
994.787	2142.46
995.083	2143.81
995.379	2140.88
995.676	2121.44
995.972	2065.85
996.268	2069.01
996.565	2051.84
996.861	2019.75
997.157	2060.2
997.453	2025.62
997.749	2007.32
998.044	1999.86
998.34	2039.18
998.636	2010.03
998.932	1997.6
999.227	1973.65
999.523	1970.71
999.818	1922.12
1000.114	1920.99
1000.409	1951.95
1000.704	1907.44
1001	1928.23
1001.295	1900.66
1001.59	1921.67
1001.885	1898.85
1002.18	1899.3
1002.475	1865.4
1002.77	1869.7
1003.065	1844.84
1003.359	1821.79
1003.654	1838.74
1003.949	1833.99
1004.243	1816.59
1004.538	1819.3
1004.832	1771.62
1005.127	1769.36
1005.421	1767.55
1005.715	1773.43
1006.009	1775.69
1006.304	1725.97
1006.598	1707.67
1006.892	1731.17
1007.186	1749.25
1007.48	1741.79
1007.773	1695.46
1008.067	1690.04
1008.361	1670.83
1008.655	1672.19
1008.948	1668.35
1009.242	1659.76
1009.535	1661.11
1009.829	1635.8
1010.122	1636.71
1010.415	1642.36
1010.708	1608.69
1011.001	1631.96
1011.295	1564.62
1011.588	1572.98
1011.881	1555.35
1012.173	1575.02
1012.466	1510.38
1012.759	1551.51
1013.052	1528.24
1013.344	1535.47
1013.637	1516.49
1013.93	1511.97
1014.222	1507.22
1014.514	1483.72
1014.807	1461.57
1015.099	1464.51
1015.391	1431.74
1015.683	1417.05
1015.976	1449.59
1016.268	1414.12
1016.56	1422.25
1016.851	1440.56
1017.143	1410.05
1017.435	1392.2
1017.727	1391.52
1018.018	1395.58
1018.31	1364.17
1018.602	1371.18
1018.893	1351.52
1019.185	1359.2
1019.476	1373.66
1019.767	1332.08
1020.058	1317.62
1020.35	1316.04
1020.641	1311.75
1020.932	1298.64
1021.223	1276.04
1021.514	1299.54
1021.804	1258.19
1022.095	1291.41
1022.386	1252.31
1022.677	1254.12
1022.967	1233.1
1023.258	1275.81
1023.548	1235.14
1023.839	1232.2
1024.129	1224.52
1024.419	1205.31
1024.709	1208.02
1025	1190.39
1025.29	1170.73
1025.58	1161.47
1025.87	1179.32
1026.16	1149.72
1026.449	1166.44
1026.739	1134.12
1027.029	1123.95
1027.319	1127.12
1027.608	1112.88
1027.898	1122.15
1028.187	1121.92
1028.477	1084.18
1028.766	1092.09
1029.055	1094.58
1029.344	1093.22
1029.634	1085.99
1029.923	1087.8
1030.212	1063.39
1030.501	1064.97
1030.79	1050.74
1031.078	1027.01
1031.367	1027.46
1031.656	1036.5
1031.945	1024.52
1032.233	1005.76
1032.522	1027.46
1032.81	987.91
1033.099	977.52
1033.387	979.78
1033.675	950.85
1033.963	992.88
1034.251	993.34
1034.54	994.92
1034.828	961.02
1035.116	962.38
1035.403	945.65
1035.691	917.86
1035.979	924.86
1036.267	927.8
1036.554	929.16
1036.842	902.26
1037.129	913.79
1037.417	897.29
1037.704	907.46
1037.992	912.21
1038.279	876.5
1038.566	877.63
1038.853	877.63
1039.14	877.63
