Data from hue_38_FLMS001491_00013.txt Node
Date: Tue Feb 07 17:31:06 GMT 2017
User: dcchb
Spectrometer: FLMS00149
Trigger mode: 0
Integration Time (sec): 2.000000E-2
Scans to average: 10
Electric dark correction enabled: true
Nonlinearity correction enabled: false
Boxcar width: 0
XAxis mode: Wavelengths
Number of Pixels in Spectrum: 2048
>>>>>Begin Spectral Data<<<<<
341.393	-18.09
341.776	-18.09
342.16	-18.09
342.543	-63.29
342.927	-62.84
343.31	-63.74
343.693	-75.49
344.077	-52.44
344.46	-68.03
344.843	-64.42
345.226	-25.32
345.61	-38.66
345.993	-7.7
346.376	-10.86
346.759	9.03
347.142	-2.73
347.525	50.61
347.908	68.01
348.291	95.12
348.674	86.99
349.057	99.64
349.44	114.11
349.823	150.72
350.206	178.29
350.588	180.77
350.971	224.16
351.354	226.42
351.737	223.26
352.119	283.37
352.502	263.03
352.884	265.06
353.267	284.5
353.65	296.48
354.032	308.23
354.414	296.25
354.797	295.12
355.179	339.19
355.562	330.82
355.944	336.25
356.326	333.31
356.709	335.12
357.091	317.04
357.473	355.23
357.855	351.62
358.238	356.13
358.62	335.8
359.002	346.87
359.384	345.97
359.766	331.05
360.148	352.52
360.53	339.86
360.912	337.6
361.294	331.5
361.676	342.35
362.057	336.25
362.439	359.98
362.821	337.6
363.203	333.54
363.584	308.45
363.966	339.19
364.348	331.73
364.729	312.29
365.111	332.41
365.493	318.4
365.874	304.38
366.256	325.18
366.637	312.07
367.019	319.53
367.4	321.11
367.781	327.43
368.163	323.37
368.544	318.85
368.925	317.49
369.306	317.04
369.688	316.59
370.069	335.12
370.45	319.98
370.831	297.83
371.212	295.35
371.593	313.2
371.974	326.3
372.355	295.8
372.736	333.08
373.117	317.04
373.498	323.59
373.879	326.98
374.26	330.6
374.641	317.27
375.021	312.75
375.402	348.68
375.783	323.59
376.163	340.32
376.544	343.71
376.925	338.06
377.305	333.99
377.686	345.74
378.066	328.11
378.447	320.88
378.827	334.67
379.208	314.33
379.588	305.97
379.968	310.94
380.349	331.73
380.729	331.73
381.109	355.23
381.489	341.45
381.87	346.87
382.25	350.03
382.63	330.82
383.01	324.5
383.39	349.58
383.77	353.42
384.15	350.71
384.53	347.55
384.91	333.08
385.29	328.11
385.67	361.56
386.049	360.43
386.429	357.49
386.809	333.54
387.189	342.35
387.568	373.99
387.948	346.19
388.328	354.55
388.707	347.77
389.087	352.52
389.466	352.52
389.846	358.62
390.225	351.84
390.605	370.37
390.984	364.5
391.363	356.81
391.743	380.09
392.122	371.5
392.501	355.23
392.881	378.96
393.26	373.76
393.639	388.68
394.018	385.96
394.397	362.69
394.776	377.38
395.155	386.87
395.534	377.38
395.913	403.82
396.292	389.13
396.671	419.86
397.05	370.15
397.429	393.2
397.808	380.77
398.186	373.31
398.565	381.67
398.944	393.87
399.323	380.99
399.701	408.56
400.08	379.86
400.458	402.46
400.837	405.62
401.215	411.5
401.594	382.8
401.972	404.04
402.351	416.92
402.729	390.26
403.107	424.83
403.486	400.43
403.864	406.08
404.242	428.22
404.62	418.51
404.999	421.67
405.377	405.17
405.755	417.6
406.133	426.42
406.511	417.6
406.889	419.18
407.267	441.56
407.645	433.87
408.023	438.62
408.401	429.81
408.779	439.52
409.156	440.43
409.534	434.78
409.912	443.59
410.29	457.6
410.667	433.87
411.045	439.97
411.422	454.21
411.8	447.66
412.178	464.61
412.555	465.74
412.933	460.99
413.31	465.74
413.687	470.93
414.065	473.19
414.442	471.16
414.819	474.32
415.197	481.56
415.574	490.59
415.951	472.29
416.328	523.81
416.705	504.38
417.082	472.06
417.46	506.64
417.837	490.37
418.214	501.22
418.591	507.09
418.967	504.38
419.344	504.38
419.721	508.22
420.098	524.94
420.475	522.68
420.852	563.81
421.228	533.53
421.605	508.22
421.982	523.14
422.358	511.16
422.735	540.54
423.111	532.63
423.488	570.59
423.864	554.1
424.241	561.55
424.617	552.51
424.994	547.99
425.37	559.29
425.746	577.15
426.123	568.11
426.499	567.88
426.875	583.47
427.251	580.31
427.627	590.7
428.003	571.5
428.379	585.06
428.756	615.34
429.132	602.46
429.507	613.3
429.883	605.62
430.259	585.28
430.635	616.24
431.011	621.21
431.387	617.37
431.763	632.96
432.138	642.68
432.514	665.73
432.89	657.14
433.265	676.8
433.641	663.92
434.016	653.75
434.392	684.04
434.767	677.48
435.143	686.52
435.518	678.39
435.894	684.04
436.269	689.46
436.644	707.09
437.02	707.99
437.395	718.84
437.77	713.87
438.145	724.71
438.52	701.44
438.895	733.3
439.271	740.08
439.646	744.83
440.021	742.11
440.395	768.1
440.77	750.25
441.145	774.43
441.52	768.55
441.895	758.84
442.27	775.33
442.645	775.11
443.019	773.3
443.394	773.07
443.769	792.96
444.143	768.55
444.518	792.06
444.892	783.92
445.267	822.11
445.641	819.4
446.016	793.64
446.39	816.24
446.764	832.73
447.139	821.66
447.513	827.53
447.887	804.03
448.262	835.9
448.636	819.4
449.01	844.71
449.384	852.62
449.758	851.94
450.132	867.31
450.506	856.01
450.88	873.41
451.254	857.36
451.628	894.88
452.002	885.16
452.376	889.23
452.75	900.3
453.123	900.75
453.497	919.96
453.871	947.53
454.244	933.97
454.618	930.58
454.992	975.55
455.365	956.34
455.739	959.51
456.112	974.65
456.486	983.69
456.859	996.12
457.232	1024.14
457.606	1025.5
457.979	1030.92
458.352	1010.58
458.725	1040.18
459.099	1071.37
459.472	1061.2
459.845	1080.64
460.218	1069.79
460.591	1111.14
460.964	1109.11
461.337	1160.86
461.71	1147.07
462.083	1134.19
462.456	1173.06
462.829	1191.14
463.201	1213.97
463.574	1193.85
463.947	1202.67
464.32	1248.31
464.692	1258.48
465.065	1246.51
465.438	1266.62
465.81	1309.56
466.183	1297.58
466.555	1334.64
466.928	1353.85
467.3	1353.4
467.672	1378.03
468.045	1421.19
468.417	1405.37
468.789	1400.85
469.161	1421.87
469.534	1479.04
469.906	1522.43
470.278	1531.47
470.65	1557.01
471.022	1569.44
471.394	1600.62
471.766	1606.72
472.138	1648.53
472.51	1674.97
472.882	1698.47
473.253	1739.6
473.625	1757
473.997	1808.3
474.369	1828.64
474.74	1854.17
475.112	1930.78
475.484	1949.54
475.855	1999.48
476.227	2046.49
476.598	2070.89
476.97	2116.31
477.341	2171.91
477.713	2201.06
478.084	2266.14
478.455	2324.22
478.827	2403.31
479.198	2505.23
479.569	2500.26
479.94	2595.17
480.311	2625.91
480.682	2702.51
481.053	2792.23
481.424	2815.51
481.795	2910.42
482.166	2968.5
482.537	3043.07
482.908	3118.55
483.279	3181.82
483.65	3300.92
484.021	3353.8
484.391	3488.26
484.762	3509.72
485.133	3591.08
485.503	3680.12
485.874	3781.58
486.244	3903.39
486.615	3998.07
486.985	4047.11
487.356	4163.94
487.726	4266.77
488.097	4366.65
488.467	4409.81
488.837	4539.75
489.207	4680.99
489.578	4766.64
489.948	4839.63
490.318	4953.98
490.688	5049.12
491.058	5202.33
491.428	5260.86
491.798	5359.17
492.168	5510.58
492.538	5570.46
492.908	5644.58
493.278	5809.55
493.648	5906.5
494.017	6028.53
494.387	6111.46
494.757	6193.5
495.126	6361.17
495.496	6427.16
495.866	6458.8
496.235	6576.08
496.605	6707.61
496.974	6816.53
497.344	6856.53
497.713	7007.03
498.082	7105.11
498.452	7188.05
498.821	7262.17
499.19	7325.67
499.559	7395.5
499.928	7555.04
500.298	7635.94
500.667	7738.54
501.036	7807.01
501.405	7863.06
501.774	7929.95
502.143	8083.16
502.512	8152.54
502.88	8199.09
503.249	8272.31
503.618	8353.44
503.987	8446.32
504.356	8547.33
504.724	8608.8
505.093	8695.58
505.462	8747.1
505.83	8850.6
506.199	8877.72
506.567	8981.22
506.936	9064.83
507.304	9229.12
507.672	9249.01
508.041	9329.91
508.409	9464.37
508.777	9484.48
509.145	9579.17
509.514	9578.72
509.882	9679.51
510.25	9808.99
510.618	9878.82
510.986	9899.16
511.354	10037.01
511.722	10012.6
512.09	10250.56
512.458	10160.4
512.826	10304.8
513.193	10370.11
513.561	10432.25
513.929	10492.37
514.297	10683.09
514.664	10664.56
515.032	10631.12
515.4	10792.7
515.767	10865.46
516.135	10956.76
516.502	10846.93
516.869	11100.26
517.237	11114.5
517.604	11036.08
517.972	11264.1
518.339	11332.34
518.706	11319.01
519.073	11295.96
519.44	11469.29
519.808	11609.62
520.175	11617.53
520.542	11784.99
520.909	11763.07
521.276	11850.3
521.643	12018.43
522.009	12042.61
522.376	12069.05
522.743	12098.65
523.11	12339.55
523.477	12382.71
523.843	12434.24
524.21	12597.39
524.577	12622.03
524.943	12716.71
525.31	12844.85
525.676	12908.8
526.043	12918.29
526.409	12999.42
526.776	13248.9
527.142	13158.74
527.508	13195.57
527.874	13327.09
528.241	13332.29
528.607	13518.05
528.973	13672.62
529.339	13575.22
529.705	13820.87
530.071	13803.24
530.437	13843.24
530.803	13924.37
531.169	14022.67
531.535	14121.65
531.901	14106.96
532.267	14210.01
532.632	14327.52
532.998	14253.17
533.364	14394.41
533.73	14473.5
534.095	14618.81
534.461	14583.56
534.826	14671.46
535.192	14758.92
535.557	14795.08
535.923	14823.1
536.288	14988.97
536.653	15018.57
537.019	15018.57
537.384	15035.3
537.749	15128.63
538.114	15171.11
538.479	15224.9
538.845	15372.24
539.21	15268.51
539.575	15384.89
539.94	15454.04
540.305	15543.76
540.67	15512.12
541.034	15593.02
541.399	15746.46
541.764	15757.76
542.129	15822.85
542.494	15810.87
542.858	15898.78
543.223	15867.59
543.587	16083.63
543.952	15968.61
544.316	16037.08
544.681	16128.6
545.045	16298.09
545.41	16313
545.774	16341.03
546.138	16361.82
546.503	16429.16
546.867	16518.42
547.231	16651.53
547.595	16648.59
547.959	16724.07
548.324	16800.45
548.688	16678.64
549.052	16851.29
549.416	16859.88
549.779	16889.26
550.143	16924.96
550.507	17228.23
550.871	17150.72
551.235	17124.96
551.599	17257.16
551.962	17321.34
552.326	17289.47
552.689	17479.98
553.053	17308.91
553.417	17484.05
553.78	17672.29
554.143	17601.78
554.507	17729.69
554.87	17837.48
555.234	17969.68
555.597	17850.59
555.96	17992.28
556.323	17985.73
556.686	18145.72
557.05	18269.11
557.413	18202.22
557.776	18206.51
558.139	18263.91
558.502	18432.04
558.865	18423.23
559.228	18554.75
559.59	18554.53
559.953	18588.65
560.316	18814.41
560.679	18860.51
561.041	18973.27
561.404	18920.84
561.767	19013.5
562.129	19136.66
562.492	19231.8
562.854	19204.68
563.217	19284.45
563.579	19374.17
563.941	19454.62
564.304	19631.33
564.666	19712.46
565.028	19644.89
565.39	19631.56
565.753	19974.38
566.115	19875.85
566.477	20034.49
566.839	19991.55
567.201	20195.39
567.563	20179.34
567.925	20347.02
568.287	20275.84
568.648	20317.19
569.01	20567.13
569.372	20720.12
569.734	20571.42
570.095	20734.13
570.457	20868.14
570.819	20887.57
571.18	21030.85
571.542	21093.67
571.903	21144.74
572.265	21243.04
572.626	21316.71
572.987	21420.44
573.349	21400.33
573.71	21681.9
574.071	21637.38
574.432	21710.83
574.794	21904.95
575.155	22033.3
575.516	22005.96
575.877	22171.38
576.238	22215.45
576.599	22371.83
576.96	22490.24
577.32	22470.81
577.681	22657.7
578.042	22767.97
578.403	22967.74
578.763	23038.25
579.124	23251.58
579.485	23236.89
579.845	23604.79
580.206	23603.21
580.566	23737.44
580.927	23908.51
581.287	23993.03
581.648	24089.3
582.008	24305.34
582.368	24413.36
582.728	24604.31
583.089	24738.32
583.449	24923.62
583.809	25115.48
584.169	25254.01
584.529	25422.37
584.889	25750.04
585.249	25717.73
585.609	25778.97
585.969	26140.09
586.329	26272.52
586.688	26470.25
587.048	26724.71
587.408	26830.24
587.768	27054.42
588.127	27229.1
588.487	27387.06
588.846	27637.23
589.206	27705.7
589.565	27963.32
589.925	28271.78
590.284	28385.68
590.643	28751.55
591.003	28937.08
591.362	29165.77
591.721	29245.77
592.08	29422.49
592.44	29935.7
592.799	29990.61
593.158	30197.16
593.517	30381.56
593.876	30603.47
594.235	30728.9
594.593	30930.47
594.952	31193.52
595.311	31200.52
595.67	31515.77
596.029	31888.41
596.387	32017.68
596.746	32236.2
597.104	32294.05
597.463	32504.44
597.822	32834.83
598.18	32901.04
598.538	32974.94
598.897	33351.88
599.255	33256.51
599.613	33877.74
599.972	33877.51
600.33	34199.09
600.688	34125.19
601.046	34284.73
601.404	34740.09
601.762	34645.4
602.12	34932.17
602.478	35073.64
602.836	35295.55
603.194	35336.23
603.552	35563.8
603.91	35462.33
604.268	35848.99
604.625	35974.18
604.983	36094.63
605.341	36015.76
605.698	36562.41
606.056	36625.01
606.413	36711.79
606.771	36838.79
607.128	37097.54
607.485	37063.19
607.843	37195.84
608.2	37456.4
608.557	37673.8
608.914	37625.21
609.272	37915.83
609.629	38062.26
609.986	38329.6
610.343	38175.25
610.7	38417.73
611.057	38715.35
611.414	38581.8
611.771	38767.78
612.127	38957.83
612.484	39068.34
612.841	39207.09
613.198	39205.73
613.554	39265.62
613.911	39591.04
614.267	39559.62
614.624	39775.44
614.98	39762.78
615.337	40106.73
615.693	40048.65
616.05	40066.73
616.406	40461.29
616.762	40320.73
617.118	40373.84
617.475	40525.25
617.831	40646.37
618.187	40597.79
618.543	40652.7
618.899	40923.88
619.255	41035.07
619.611	41001.17
619.967	41243.87
620.323	41205
620.678	41209.75
621.034	41241.16
621.39	41411.55
621.746	41438.67
622.101	41920.69
622.457	41509.85
622.812	41620.13
623.168	41741.04
623.523	41780.36
623.879	42055.6
624.234	41830.07
624.589	41898.55
624.945	42027.13
625.3	42126.56
625.655	42081.37
626.01	42133.79
626.365	42181.02
626.72	42141.7
627.075	42192.1
627.43	42284.07
627.785	42225.32
628.14	42280.46
628.495	42457.4
628.85	42422.37
629.205	42106.45
629.559	42561.35
629.914	42341.7
630.269	42379.21
630.623	42276.61
630.978	42215.15
631.332	42452.88
631.687	42480.45
632.041	42423.28
632.396	42443.84
632.75	42384.41
633.104	42442.26
633.459	42219.21
633.813	42256.5
634.167	42294.69
634.521	42409.04
634.875	42491.52
635.229	42421.92
635.583	42280.46
635.937	42341.7
636.291	42316.84
636.645	42381.7
636.999	42328.36
637.352	42470.28
637.706	42182.15
638.06	42236.39
638.413	42149.39
638.767	42111.87
639.121	42213.57
639.474	42091.53
639.828	42075.49
640.181	42051.31
640.534	42019.45
640.888	42018.32
641.241	41875.04
641.594	41898.55
641.947	42014.47
642.301	41884.99
642.654	41929.28
643.007	41946.23
643.36	42070.52
643.713	41977.87
644.066	42027.58
644.419	41837.08
644.771	41525
645.124	41106.48
645.477	41240.71
645.83	40934.73
646.182	40774.96
646.535	40643.66
646.888	40753.49
647.24	40478.92
647.593	40888.63
647.945	40728.86
648.298	40560.05
648.65	40494.06
649.002	40448.19
649.355	40766.6
649.707	40574.51
650.059	40719.37
650.411	41301.95
650.763	41309.18
651.115	41676.86
651.467	41429.63
651.819	41445.22
652.171	41464.43
652.523	41329.52
652.875	41249.97
653.227	41112.8
653.578	41510.31
653.93	41256.98
654.282	41132.46
654.633	40940.83
654.985	41182.63
655.337	40999.13
655.688	40998.91
656.039	41191.45
656.391	40981.06
656.742	41080.94
657.094	41157.77
657.445	41207.49
657.796	41215.63
658.147	41073.48
658.498	41016.99
658.849	41072.58
659.2	41063.99
659.551	41106.25
659.902	41147.38
660.253	40999.36
660.604	41083.65
660.955	40775.86
661.306	41072.35
661.656	40856.09
662.007	40998.46
662.358	41032.13
662.708	40996.2
663.059	40962.52
663.409	40745.36
663.76	41026.03
664.11	40919.59
664.461	40910.32
664.811	40979.47
665.161	41020.83
665.511	40745.13
665.862	40795.07
666.212	40891.79
666.562	40986.25
666.912	40764.11
667.262	40795.98
667.612	40760.72
667.962	40920.04
668.312	40754.62
668.662	40983.32
669.011	40858.35
669.361	40673.94
669.711	40879.59
670.06	40716.2
670.41	40714.4
670.76	40638.69
671.109	40681.18
671.459	40682.76
671.808	40586.94
672.157	40608.64
672.507	40499.26
672.856	40531.35
673.205	40485.93
673.554	40634.85
673.904	40567.28
674.253	40686.15
674.602	40578.58
674.951	40026.05
675.3	39825.38
675.649	40537.68
675.998	40389.66
676.346	40379.26
676.695	40692.48
677.044	40371.58
677.393	40336.33
677.741	40483.67
678.09	40240.96
678.438	40113.73
678.787	40340.39
679.135	40437.34
679.484	40037.58
679.832	40223.79
680.181	39945.6
680.529	40004.81
680.877	39906.06
681.225	39982.21
681.573	40046.62
681.922	39878.26
682.27	39757.36
682.618	39834.64
682.966	39646.18
683.314	39597.36
683.661	39528.66
684.009	39377.71
684.357	39333.87
684.705	39339.06
685.053	39446.63
685.4	39316.47
685.748	39050.71
686.095	39159.41
686.443	39124.83
686.79	38916.25
687.138	39032.86
687.485	39188.56
687.832	39057.04
688.18	38958.28
688.527	38800.32
688.874	38670.61
689.221	38638.74
689.568	38575.92
689.915	38436.26
690.262	38609.14
690.609	38457.05
690.956	38212.31
691.303	38220
691.65	38019.78
691.997	38078.08
692.344	37876.73
692.69	37818.43
693.037	37934.58
693.383	37594.03
693.73	37706.79
694.077	37512.67
694.423	37396.74
694.769	37394.26
695.116	37272.23
695.462	37155.85
695.808	37238.78
696.155	37129.86
696.501	36921.5
696.847	36829.75
697.193	36640.15
697.539	36904.1
697.885	36558.8
698.231	36526.94
698.577	36456.65
698.923	36366.94
699.269	36224.8
699.614	36093.05
699.96	36075.2
700.306	36013.73
700.651	35783.23
700.997	35782.32
701.342	35754.53
701.688	35675.21
702.033	35603.34
702.379	35522.89
702.724	35404.25
703.069	35448.55
703.415	35068.44
703.76	35127.2
704.105	35023.47
704.45	35101.89
704.795	34789.81
705.14	34610.83
705.485	34610.83
705.83	34638.4
706.175	34655.35
706.52	34527.21
706.865	34544.39
707.209	34251.51
707.554	34146.21
707.899	34243.61
708.243	34124.96
708.588	34032.54
708.932	33681.59
709.277	33944.4
709.621	33872.09
709.966	33515.71
710.31	33593.45
710.654	33440.24
710.998	33451.54
711.342	33479.78
711.687	33433.46
712.031	33197.76
712.375	33164.99
712.719	33235.27
713.063	33114.82
713.407	33056.74
713.75	32958.44
714.094	32962.28
714.438	32766.13
714.782	32851.33
715.125	32657.21
715.469	32747.37
715.812	32529.3
716.156	32367.27
716.499	32537.66
716.843	32476.65
717.186	32243.66
717.53	32383.77
717.873	32397.55
718.216	32235.75
718.559	32245.47
718.902	31952.82
719.246	32028.52
719.589	31946.49
719.932	31789.66
720.275	31942.87
720.617	31906.27
720.96	31790.56
721.303	31572.72
721.646	31587.18
721.989	31552.6
722.331	31524.58
722.674	31541.76
723.016	31487.29
723.359	31343.57
723.701	31431.25
724.044	31153.97
724.386	31071.94
724.729	31297.02
725.071	31095.44
725.413	31157.13
725.755	31084.59
726.097	30885.5
726.439	30814.54
726.782	30814.32
727.124	30912.85
727.465	30717.82
727.807	30699.07
728.149	30671.27
728.491	30639.18
728.833	30647.32
729.175	30618.39
729.516	30643.02
729.858	30402.58
730.199	30394.44
730.541	30324.84
730.882	30330.71
731.224	30342.46
731.565	30335.69
731.906	30255.01
732.248	30348.57
732.589	30149.93
732.93	29880.1
733.271	29941.8
733.612	30125.97
733.953	30048.46
734.294	29888.92
734.635	29867.9
734.976	29883.04
735.317	29759.2
735.658	29742.71
735.999	29707.68
736.339	29637.4
736.68	29808.02
737.021	29594.46
737.361	29479.66
737.702	29632.43
738.042	29431.98
738.383	29343.4
738.723	29465.43
739.063	29300.46
739.404	29412.77
739.744	29331.87
740.084	29257.07
740.424	29282.61
740.764	29168.03
741.104	29415.26
741.444	29082.84
741.784	28940.24
742.124	29038.77
742.464	29070.86
742.804	28850.3
743.143	28918.55
743.483	28892.79
743.823	28681.94
744.162	28690.53
744.502	28748.83
744.841	28601.27
745.181	28832
745.52	28730.3
745.86	28616.86
746.199	28576.18
746.538	28495.06
746.877	28474.04
747.216	28588.84
747.556	28391.1
747.895	28481.5
748.234	28395.4
748.573	28195.4
748.911	28282.18
749.25	28151.56
749.589	27968.52
749.928	28114.27
750.267	28152.92
750.605	28004.22
750.944	27908.4
751.283	27909.08
751.621	27888.29
751.96	27801.06
752.298	27801.97
752.636	27811.68
752.975	27659.37
753.313	27571.92
753.651	27634.51
753.989	27329.21
754.327	27437.46
754.666	27195.65
755.004	27401.75
755.342	27447.17
755.679	27257.57
756.017	27185.71
756.355	27200.17
756.693	27010.12
757.031	27083.57
757.368	27020.97
757.706	27003.12
758.044	26821.43
758.381	26803.12
758.719	26714.99
759.056	26654.43
759.394	26704.59
759.731	26497.82
760.068	26496.24
760.405	26418.95
760.743	26337.37
761.08	26249.69
761.417	26203.36
761.754	26025.29
762.091	26041.79
762.428	25900.1
762.765	25907.33
763.102	25905.29
763.438	25715.92
763.775	25687.67
764.112	25747.78
764.449	25716.82
764.785	25373.56
765.122	25350.96
765.458	25277.06
765.795	25255.37
766.131	25177.85
766.467	25123.62
766.804	24976.05
767.14	24889.05
767.476	24935.83
767.812	24849.05
768.148	24831.88
768.485	24556.85
768.821	24410.19
769.157	24449.74
769.492	24406.58
769.828	24367.71
770.164	24180.14
770.5	24075.29
770.836	24060.6
771.171	23912.13
771.507	23769.98
771.842	23690.66
772.178	23715.97
772.513	23655.86
772.849	23570.89
773.184	23424.68
773.519	23422.19
773.855	23382.65
774.19	23186.27
774.525	23046.61
774.86	23116.89
775.195	23045.71
775.53	23055.42
775.865	22891.36
776.2	22757.35
776.535	22521.65
776.87	22607.98
777.205	22444.14
777.539	22395.56
777.874	22394.43
778.209	22215.22
778.543	22114.21
778.878	22026.75
779.212	22028.56
779.547	21901.33
779.881	21948.56
780.215	21727.78
780.55	21728.45
780.884	21662.69
781.218	21494.34
781.552	21620.89
781.886	21450.27
782.22	21351.29
782.554	21180.9
782.888	21134.12
783.222	21095.93
783.556	20916.95
783.889	20801.7
784.223	20752.43
784.557	20623.62
784.89	20739.78
785.224	20480.58
785.557	20568.26
785.891	20467.47
786.224	20459.33
786.558	20361.48
786.891	20198.78
787.224	20013.92
787.557	20086.01
787.891	19960.82
788.224	19894.83
788.557	20000.14
788.89	19853.02
789.223	19934.83
789.556	19731.67
789.888	19762.86
790.221	19645.35
790.554	19486.03
790.887	19552.47
791.219	19353.38
791.552	19396.99
791.884	19321.96
792.217	19265.92
792.549	19121.97
792.882	19028.86
793.214	18944.35
793.546	18964.01
793.879	18838.13
794.211	18737.8
794.543	18745.03
794.875	18663.22
795.207	18772.6
795.539	18566.5
795.871	18563.57
796.203	18416.45
796.535	18363.12
796.867	18271.14
797.198	18232.05
797.53	18276.34
797.862	18106.85
798.193	18169.23
798.525	17966.97
798.856	18026.18
799.188	17794.77
799.519	17806.75
799.85	17683.36
800.182	17653.98
800.513	17736.69
800.844	17595.23
801.175	17566.53
801.506	17529.47
801.837	17484.05
802.168	17514.1
802.499	17535.34
802.83	17337.84
803.161	17314.56
803.491	17257.84
803.822	17232.98
804.153	17142.59
804.483	16966.32
804.814	16916.15
805.145	16903.72
805.475	17009.26
805.805	16798.41
806.136	16899.65
806.466	16724.29
806.796	16760.9
807.126	16700.79
807.457	16559.78
807.787	16612.88
808.117	16519.33
808.447	16407.92
808.777	16442.27
809.107	16383.74
809.436	16289.28
809.766	16357.07
810.096	16260.12
810.426	16188.71
810.755	16200.69
811.085	16146
811.414	16049.06
811.744	15947.59
812.073	16012.67
812.403	16008.38
812.732	15858.1
813.061	15887.7
813.39	15826.91
813.719	15705.11
814.049	15822.85
814.378	15704.88
814.707	15597.32
815.036	15597.09
815.365	15553.7
815.693	15424.67
816.022	15446.13
816.351	15368.17
816.68	15273.93
817.008	15405.91
817.337	15278.45
817.665	15205.24
817.994	15302.63
818.322	15266.25
818.651	15149.42
818.979	15130.89
819.307	15135.86
819.636	15079.36
819.964	14982.64
820.292	15060.15
820.62	15022.64
820.948	14890.67
821.276	14984.68
821.604	14878.24
821.932	15024
822.259	14957.56
822.587	14872.14
822.915	14847.96
823.243	15022.87
823.57	14864.45
823.898	14890.67
824.225	14799.6
824.553	14786.72
824.88	14872.82
825.207	14826.04
825.535	14804.12
825.862	14930.44
826.189	14864.68
826.516	14868.52
826.843	14960.04
827.17	14846.15
827.497	14928.18
827.824	14906.49
828.151	14896.54
828.478	14928.86
828.805	14884.79
829.131	14805.02
829.458	14738.13
829.785	14771.35
830.111	14728.86
830.438	14842.76
830.764	14799.6
831.09	14861.74
831.417	14714.63
831.743	14815.87
832.069	14807.51
832.395	14763.21
832.722	14765.93
833.048	14665.59
833.374	14740.16
833.7	14677.34
834.026	14657.45
834.351	14734.97
834.677	14674.85
835.003	14677.34
835.329	14692.25
835.654	14647.06
835.98	14597.57
836.306	14565.25
836.631	14492.71
836.956	14562.31
837.282	14525.48
837.607	14477.12
837.932	14463.56
838.258	14505.37
838.583	14464.46
838.908	14343.11
839.233	14375.65
839.558	14346.5
839.883	14329.33
840.208	14259.95
840.533	14277.58
840.858	14213.85
841.182	14221.53
841.507	14268.76
841.832	14135.43
842.156	14087.75
842.481	14051.37
842.805	14112.38
843.13	14079.84
843.454	14071.03
843.778	14022.89
844.103	13901.09
844.427	13887.08
844.751	13912.61
845.075	13847.98
845.399	13837.59
845.723	13746.97
846.047	13726.86
846.371	13597.37
846.695	13564.37
847.019	13504.04
847.343	13478.5
847.666	13438.95
847.99	13358.96
848.313	13388.11
848.637	13255.46
848.96	13257.26
849.284	13207.77
849.607	13064.5
849.931	13082.58
850.254	12950.38
850.577	12901.57
850.9	12853.89
851.223	12741.57
851.546	12772.98
851.869	12648.69
852.192	12732.98
852.515	12656.6
852.838	12553.1
853.161	12493.67
853.483	12424.29
853.806	12465.65
854.129	12364.86
854.451	12339.55
854.774	12249.38
855.096	12263.62
855.419	12219.33
855.741	12213.9
856.063	12031.76
856.385	12118.09
856.708	12107.01
857.03	12032.44
857.352	12010.29
857.674	11979.56
857.996	11866.34
858.318	11902.95
858.64	11973.68
858.961	11789.05
859.283	11848.26
859.605	11675.84
859.926	11745.89
860.248	11728.27
860.57	11671.54
860.891	11635.16
861.212	11604.65
861.534	11556.97
861.855	11489.18
862.176	11481.27
862.498	11471.32
862.819	11589.51
863.14	11470.87
863.461	11456.86
863.782	11415.5
864.103	11387.48
864.424	11305.23
864.745	11398.56
865.065	11322.85
865.386	11255.06
865.707	11314.49
866.027	11331.21
866.348	11257.09
866.668	11257.99
866.989	11166.02
867.309	11100.03
867.63	11224.32
867.95	11170.31
868.27	11086.93
868.59	11160.6
868.91	11078.11
869.23	11069.07
869.55	10985.69
869.87	11109.75
870.19	11074.5
870.51	11046.48
870.83	11059.13
871.15	10992.92
871.469	11000.15
871.789	11007.38
872.109	10853.03
872.428	10826.37
872.748	10952.01
873.067	10901.17
873.386	10885.8
873.706	10865.69
874.025	10795.86
874.344	10740.72
874.663	10796.31
874.982	10738.91
875.301	10720.61
875.62	10654.62
875.939	10622.98
876.258	10669.31
876.577	10564.23
876.896	10615.75
877.214	10571.46
877.533	10569.43
877.852	10587.73
878.17	10581.63
878.489	10523.78
878.807	10497.11
879.125	10508.86
879.444	10499.82
879.762	10453.27
880.08	10498.01
880.398	10371.92
880.716	10410.56
881.034	10358.58
881.352	10364.46
881.67	10418.92
881.988	10357.68
882.306	10297.34
882.624	10336.21
882.941	10194.75
883.259	10214.18
883.577	10143.45
883.894	10192.26
884.212	10142.77
884.529	10124.69
884.846	10136.67
885.164	10074.98
885.481	10015.09
885.798	10060.96
886.115	9968.09
886.432	9908.88
886.75	9933.28
887.067	9989.33
887.383	9898.93
887.7	9965.6
888.017	9902.32
888.334	9940.74
888.651	9862.1
888.967	9776.9
889.284	9761.76
889.6	9757.92
889.917	9661.43
890.233	9686.96
890.55	9638.38
890.866	9720.63
891.182	9616
891.498	9593.63
891.815	9559.96
892.131	9564.48
892.447	9537.59
892.763	9511.83
893.079	9500.08
893.395	9453.3
893.71	9404.71
894.026	9392.28
894.342	9367.42
894.657	9327.42
894.973	9353.19
895.289	9347.76
895.604	9297.37
895.92	9167.88
896.235	9170.37
896.55	9185.96
896.865	9112.29
897.181	9078.39
897.496	8997.94
897.811	9031.61
898.126	8996.81
898.441	8944.84
898.756	8910.26
899.071	8926.76
899.386	8880.66
899.7	8814.44
900.015	8792.75
900.33	8747.1
900.644	8770.38
900.959	8752.98
901.273	8675.01
901.588	8643.83
901.902	8587.56
902.216	8581.68
902.531	8484.51
902.845	8519.08
903.159	8464.17
903.473	8463.72
903.787	8350.5
904.101	8333.1
904.415	8330.61
904.729	8369.71
905.042	8277.51
905.356	8313.67
905.67	8241.35
905.984	8284.97
906.297	8197.28
906.611	8137.17
906.924	8145.08
907.237	8084.97
907.551	8066.44
907.864	8016.5
908.177	8075.93
908.491	7983.96
908.804	7991.64
909.117	7906.9
909.43	7854.02
909.743	7781.7
910.056	7743.06
910.368	7724.08
910.681	7729.5
910.994	7742.61
911.307	7653.34
911.619	7581.48
911.932	7616.06
912.244	7535.83
912.557	7462.39
912.869	7505.55
913.181	7456.74
913.494	7482.05
913.806	7431.43
914.118	7455.38
914.43	7305.78
914.742	7326.57
915.054	7263.98
915.366	7299
915.678	7180.81
915.99	7181.27
916.302	7155.28
916.613	7173.36
916.925	7123.19
917.236	7142.62
917.548	7011.1
917.859	7054.26
918.171	7017.88
918.482	6988.5
918.794	6945.34
919.105	6905.57
919.416	6834.38
919.727	6859.69
920.038	6858.11
920.349	6810.43
920.66	6769.98
920.971	6762.75
921.282	6749.19
921.593	6736.53
921.903	6662.64
922.214	6659.7
922.525	6565.91
922.835	6543.09
923.146	6484.79
923.456	6485.01
923.767	6478.69
924.077	6494.28
924.387	6475.75
924.697	6421.74
925.008	6446.37
925.318	6308.52
925.628	6319.37
925.938	6312.81
926.248	6284.57
926.558	6263.1
926.867	6219.03
927.177	6172.93
927.487	6203.89
927.796	6140.39
928.106	6092.26
928.416	6069.43
928.725	6079.15
929.034	6029.66
929.344	6014.97
929.653	6000.05
929.962	5978.59
930.271	5908.98
930.581	5868.53
930.89	5904.46
931.199	5848.19
931.508	5859.27
931.817	5819.04
932.125	5781.98
932.434	5737.46
932.743	5747.86
933.051	5690.23
933.36	5700.4
933.669	5656.56
933.977	5620.18
934.286	5653.62
934.594	5641.42
934.902	5555.32
935.21	5549.44
935.519	5530.46
935.827	5519.16
936.135	5459.5
936.443	5461.54
936.751	5423.57
937.059	5393.52
937.367	5366.17
937.674	5388.32
937.982	5313.52
938.29	5324.37
938.597	5301.09
938.905	5237.14
939.213	5221.77
939.52	5226.29
939.827	5189.91
940.135	5142.45
940.442	5168.21
940.749	5205.72
941.056	5170.7
941.363	5060.42
941.67	5086.63
941.977	5053.19
942.284	4981.78
942.591	4995.11
942.898	4997.37
943.205	5007.09
943.511	4934.32
943.818	4941.32
944.125	4899.29
944.431	4822.91
944.738	4869.91
945.044	4876.47
945.35	4751.05
945.657	4752.86
945.963	4836.47
946.269	4753.53
946.575	4716.47
946.881	4690.71
947.187	4673.54
947.493	4643.48
947.799	4608.9
948.105	4645.51
948.41	4634.67
948.716	4598.74
949.022	4566.65
949.327	4543.82
949.633	4492.3
949.938	4515.12
950.244	4500.88
950.549	4423.37
950.854	4452.07
951.16	4432.19
951.465	4381.34
951.77	4378.85
952.075	4361
952.38	4362.36
952.685	4335.47
952.99	4318.29
953.294	4306.54
953.599	4260.44
953.904	4252.53
954.209	4228.8
954.513	4242.59
954.818	4224.06
955.122	4195.36
955.426	4189.48
955.731	4159.2
956.035	4147.67
956.339	4119.88
956.643	4122.82
956.948	4072.65
957.252	4086.88
957.556	4034.46
957.86	4024.29
958.163	4026.55
958.467	4006.66
958.771	4016.38
959.075	3968.24
959.378	3901.8
959.682	3924.18
959.985	3930.05
960.289	3900.9
960.592	3888.47
960.896	3850.73
961.199	3824.74
961.502	3843.05
961.805	3817.29
962.108	3764.63
962.411	3763.73
962.714	3737.97
963.017	3752.66
963.32	3772.77
963.623	3724.63
963.926	3695.71
964.228	3685.54
964.531	3662.71
964.833	3656.61
965.136	3634.01
965.438	3607.35
965.741	3588.59
966.043	3576.84
966.345	3546.56
966.648	3546.33
966.95	3531.19
967.252	3504.98
967.554	3460.91
967.856	3483.51
968.158	3474.02
968.46	3448.03
968.761	3481.93
969.063	3414.81
969.365	3434.25
969.666	3379.11
969.968	3411.87
970.269	3366.45
970.571	3356.73
970.872	3326.45
971.174	3328.71
971.475	3337.98
971.776	3301.14
972.077	3296.85
972.378	3295.49
972.679	3275.61
972.98	3231.31
973.281	3265.66
973.582	3236.51
973.883	3191.77
974.183	3163.74
974.484	3173.46
974.785	3158.09
975.085	3202.84
975.386	3137.76
975.686	3097.31
975.986	3101.15
976.287	3081.71
976.587	3027.02
976.887	3053.01
977.187	3058.21
977.487	3022.73
977.787	3032.45
978.087	2985.9
978.387	2977.53
978.687	2949.74
978.987	2966.24
979.286	2969.17
979.586	2896.18
979.885	2936.86
980.185	2925.78
980.484	2881.49
980.784	2873.36
981.083	2857.09
981.382	2849.4
981.682	2853.92
981.981	2848.72
982.28	2847.59
982.579	2822.51
982.878	2790.42
983.177	2827.26
983.475	2775.73
983.774	2769.18
984.073	2768.05
984.372	2742.74
984.67	2735.73
984.969	2731.67
985.267	2703.19
985.566	2722.4
985.864	2713.36
986.162	2679.01
986.461	2663.42
986.759	2637.2
987.057	2596.75
987.355	2614.38
987.653	2615.96
987.951	2626.81
988.249	2623.65
988.547	2585.45
988.844	2595.17
989.142	2552.01
989.44	2521.05
989.737	2519.24
990.035	2501.84
990.332	2513.37
990.63	2496.19
990.927	2507.49
991.224	2454.16
991.521	2467.94
991.819	2472.01
992.116	2407.83
992.413	2430.88
992.71	2437.21
993.006	2403.76
993.303	2395.18
993.6	2347.49
993.897	2348.62
994.193	2374.16
994.49	2396.98
994.787	2302.07
995.083	2308.85
995.379	2340.26
995.676	2290.77
995.972	2288.51
996.268	2275.63
996.565	2273.37
996.861	2258.01
997.157	2230.44
997.453	2233.83
997.749	2235.41
998.044	2231.57
998.34	2179.59
998.636	2184.11
998.932	2163.54
999.227	2151.79
999.523	2141.4
999.818	2151.34
1000.114	2140.72
1000.409	2122.42
1000.704	2103.66
1001	2128.07
1001.295	2121.51
1001.59	2102.3
1001.885	2071.12
1002.18	2073.15
1002.475	2042.42
1002.77	2059.59
1003.065	2018.24
1003.359	2007.39
1003.654	1978.24
1003.949	1971.23
1004.243	1998.58
1004.538	1981.63
1004.832	1966.04
1005.127	1962.19
1005.421	1912.93
1005.715	1945.47
1006.009	1911.12
1006.304	1879.71
1006.598	1902.08
1006.892	1923.1
1007.186	1879.94
1007.48	1860.73
1007.773	1847.62
1008.067	1849.88
1008.361	1853.04
1008.655	1839.49
1008.948	1808.98
1009.242	1813.5
1009.535	1793.16
1009.829	1794.51
1010.122	1763.56
1010.415	1766.27
1010.708	1748.41
1011.001	1749.32
1011.295	1747.51
1011.588	1721.3
1011.881	1701.18
1012.173	1714.97
1012.466	1668.19
1012.759	1709.09
1013.052	1674.07
1013.344	1648.98
1013.637	1634.97
1013.93	1677.46
1014.222	1644.24
1014.514	1639.04
1014.807	1614.86
1015.099	1614.86
1015.391	1588.87
1015.683	1578.02
1015.976	1606.05
1016.268	1601.75
1016.56	1566.27
1016.851	1540.06
1017.143	1555.2
1017.435	1536.44
1017.727	1517.91
1018.018	1547.97
1018.31	1514.75
1018.602	1501.87
1018.893	1484.92
1019.185	1501.19
1019.476	1458.7
1019.767	1497.12
1020.058	1457.57
1020.35	1438.37
1020.641	1431.59
1020.932	1422.77
1021.223	1413.06
1021.514	1396.11
1021.804	1382.1
1022.095	1375.09
1022.386	1406.28
1022.677	1336.22
1022.967	1345.04
1023.258	1334.64
1023.548	1328.31
1023.839	1325.15
1024.129	1322.44
1024.419	1317.92
1024.709	1307.07
1025	1325.37
1025.29	1277.92
1025.58	1291.7
1025.87	1268.43
1026.16	1259.61
1026.449	1255.77
1026.739	1251.93
1027.029	1236.56
1027.319	1222.55
1027.608	1241.54
1027.898	1206.96
1028.187	1222.55
1028.477	1205.83
1028.766	1181.65
1029.055	1204.25
1029.344	1197.47
1029.634	1152.27
1029.923	1154.53
1030.212	1180.97
1030.501	1167.41
1030.79	1117.24
1031.078	1141.65
1031.367	1118.37
1031.656	1132.39
1031.945	1131.26
1032.233	1103.69
1032.522	1080.86
1032.81	1097.58
1033.099	1094.87
1033.387	1080.18
1033.675	1083.12
1033.963	1060.75
1034.251	1073.18
1034.54	1044.48
1034.828	1030.02
1035.116	1033.18
1035.403	1033.86
1035.691	1027.08
1035.979	1044.03
1036.267	1033.63
1036.554	990.02
1036.842	1009
1037.129	985.5
1037.417	979.4
1037.704	996.34
1037.992	946.18
1038.279	965.84
1038.566	979.17
1038.853	979.17
1039.14	979.17
