Data from hue_320_FLMS001491_10.txt Node
Date: Mon Feb 06 15:46:38 GMT 2017
User: dcchb
Spectrometer: FLMS00149
Trigger mode: 0
Integration Time (sec): 2.000000E-2
Scans to average: 10
Electric dark correction enabled: true
Nonlinearity correction enabled: false
Boxcar width: 0
XAxis mode: Wavelengths
Number of Pixels in Spectrum: 2048
>>>>>Begin Spectral Data<<<<<
341.393	-22.77
341.776	-22.77
342.16	-22.77
342.543	-59.83
342.927	-61.86
343.31	-50.79
343.693	-65.93
344.077	-74.52
344.46	-69.09
344.843	-49.89
345.226	-54.41
345.61	-21.86
345.993	-22.77
346.376	-1.3
346.759	17.46
347.142	22.88
347.525	49.55
347.908	54.52
348.291	70.56
348.674	94.29
349.057	101.3
349.44	137
349.823	132.93
350.206	166.38
350.588	209.32
350.971	219.26
351.354	215.64
351.737	255.42
352.119	251.12
352.502	256.77
352.884	291.8
353.267	278.24
353.65	263.78
354.032	301.29
354.414	279.82
354.797	313.95
355.179	320.05
355.562	315.98
355.944	341.52
356.326	318.69
356.709	326.15
357.091	332.7
357.473	358.69
357.855	361.18
358.238	317.11
358.62	334.51
359.002	360.27
359.384	351.23
359.766	338.58
360.148	345.81
360.53	346.49
360.912	324.12
361.294	343.78
361.676	345.36
362.057	336.54
362.439	315.08
362.821	315.75
363.203	338.13
363.584	316.21
363.966	332.7
364.348	320.95
364.729	322.31
365.111	304.46
365.493	327.05
365.874	316.21
366.256	337.45
366.637	313.49
367.019	330.67
367.4	318.69
367.781	308.97
368.163	299.26
368.544	297
368.925	316.66
369.306	296.55
369.688	308.97
370.069	325.7
370.45	304.46
370.831	335.64
371.212	328.86
371.593	321.18
371.974	299.94
372.355	300.39
372.736	318.24
373.117	303.55
373.498	321.18
373.879	322.99
374.26	317.11
374.641	298.35
375.021	315.53
375.402	314.17
375.783	330.67
376.163	314.17
376.544	320.27
376.925	348.97
377.305	339.93
377.686	345.81
378.066	335.19
378.447	311.91
378.827	338.35
379.208	329.54
379.588	347.62
379.968	347.62
380.349	333.16
380.729	321.86
381.109	335.19
381.489	325.92
381.87	339.93
382.25	348.3
382.63	348.07
383.01	340.61
383.39	357.79
383.77	344.23
384.15	346.49
384.53	334.06
384.91	336.54
385.29	370.44
385.67	344
386.049	355.53
386.429	336.54
386.809	365.24
387.189	368.63
387.568	351.91
387.948	343.55
388.328	339.26
388.707	369.31
389.087	347.62
389.466	367.73
389.846	367.5
390.225	368.86
390.605	371.57
390.984	368.41
391.363	367.28
391.743	375.19
392.122	374.06
392.501	389.2
392.881	365.92
393.26	388.75
393.639	382.87
394.018	378.8
394.397	396.43
394.776	382.87
395.155	381.52
395.534	383.32
395.913	385.13
396.292	393.27
396.671	379.71
397.05	374.06
397.429	397.33
397.808	391.01
398.186	391.46
398.565	388.75
398.944	391.68
399.323	411.8
399.701	422.42
400.08	398.24
400.458	391.23
400.837	420.61
401.215	420.16
401.594	409.76
401.972	431.68
402.351	418.8
402.729	412.7
403.107	451.57
403.486	411.35
403.864	424
404.242	421.29
404.62	434.4
404.999	424.45
405.377	445.02
405.755	452.47
406.133	456.09
406.511	442.76
406.889	451.12
407.267	473.94
407.645	456.99
408.023	468.97
408.401	467.61
408.779	480.72
409.156	492.25
409.534	468.07
409.912	481.4
410.29	482.98
410.667	494.96
411.045	520.95
411.422	525.69
411.8	492.47
412.178	529.31
412.555	527.05
412.933	497.22
413.31	547.39
413.687	557.1
414.065	562.75
414.442	545.13
414.819	566.82
415.197	562.3
415.574	575.63
415.951	583.32
416.328	600.04
416.705	585.35
417.082	602.75
417.46	619.02
417.837	600.27
418.214	628.97
418.591	614.5
418.967	650.21
419.344	633.49
419.721	656.54
420.098	670.1
420.475	661.51
420.852	649.98
421.228	675.97
421.605	687.95
421.982	697.67
422.358	677.1
422.735	705.12
423.111	718.91
423.488	734.05
423.864	714.84
424.241	738.34
424.617	755.06
424.994	728.4
425.37	754.84
425.746	751.68
426.123	777.89
426.499	751.22
426.875	776.53
427.251	778.57
427.627	799.13
428.003	795.97
428.379	803.65
428.756	828.96
429.132	824.67
429.507	812.24
429.883	821.05
430.259	867.6
430.635	867.6
431.011	864.67
431.387	880.03
431.763	874.61
432.138	918.68
432.514	932.91
432.89	911.44
433.265	946.47
433.641	947.15
434.016	940.37
434.392	949.86
434.767	991.67
435.143	975.85
435.518	998.67
435.894	1015.62
436.269	1029.18
436.644	1017.66
437.02	1028.28
437.395	1046.58
437.77	1064.89
438.145	1042.51
438.52	1088.84
438.895	1056.53
439.271	1100.82
439.646	1103.98
440.021	1116.19
440.395	1095.39
440.77	1126.35
441.145	1116.64
441.52	1117.99
441.895	1124.77
442.27	1150.31
442.645	1140.59
443.019	1161.38
443.394	1150.99
443.769	1187.82
444.143	1175.17
444.518	1178.33
444.892	1178.33
445.267	1183.3
445.641	1191.66
446.016	1208.39
446.39	1219.23
446.764	1211.1
447.139	1203.87
447.513	1208.16
447.887	1228.27
448.262	1224.88
448.636	1214.94
449.01	1227.37
449.384	1231.66
449.758	1234.83
450.132	1275.28
450.506	1263.98
450.88	1266.46
451.254	1272.79
451.628	1245.9
452.002	1286.12
452.376	1289.74
452.75	1297.42
453.123	1291.32
453.497	1326.58
453.871	1313.69
454.244	1334.94
454.618	1352.11
454.992	1347.82
455.365	1371.32
455.739	1373.35
456.112	1363.64
456.486	1391.43
456.859	1401.6
457.232	1390.75
457.606	1394.82
457.979	1442.28
458.352	1429.17
458.725	1461.49
459.099	1442.73
459.472	1499.45
459.845	1461.71
460.218	1478.66
460.591	1493.12
460.964	1499.68
461.337	1541.03
461.71	1553.69
462.083	1578.32
462.456	1574.03
462.829	1536.97
463.201	1587.13
463.574	1574.93
463.947	1605.44
464.32	1619.9
464.692	1657.64
465.065	1666.68
465.438	1688.15
465.81	1682.95
466.183	1694.02
466.555	1703.97
466.928	1710.52
467.3	1741.93
467.672	1761.59
468.045	1796.39
468.417	1790.52
468.789	1773.12
469.161	1813.34
469.534	1853.12
469.906	1849.95
470.278	1873
470.65	1882.49
471.022	1885.2
471.394	1895.37
471.766	1939.44
472.138	1956.84
472.51	1978.08
472.882	1983.73
473.253	1999.33
473.625	2043.84
473.997	2051.08
474.369	2063.96
474.74	2104.86
475.112	2137.85
475.484	2157.29
475.855	2172.43
476.227	2193.45
476.598	2213.11
476.97	2256.04
477.341	2266.44
477.713	2291.75
478.084	2282.03
478.455	2373.78
478.827	2372.88
479.198	2428.92
479.569	2421.46
479.94	2473.21
480.311	2452.65
480.682	2542.81
481.053	2548.24
481.424	2633.21
481.795	2593.66
482.166	2637.28
482.537	2706.43
482.908	2728.12
483.279	2750.72
483.65	2777.16
484.021	2794.79
484.391	2846.08
484.762	2847.67
485.133	2882.24
485.503	2921.79
485.874	2977.15
486.244	3001.79
486.615	3020.32
486.985	3087.21
487.356	3116.81
487.726	3145.96
488.097	3156.58
488.467	3117.94
488.837	3199.29
489.207	3242.01
489.578	3274.77
489.948	3317.71
490.318	3327.88
490.688	3335.11
491.058	3349.35
491.428	3372.62
491.798	3452.85
492.168	3499.4
492.538	3494.2
492.908	3525.84
493.278	3588.44
493.648	3557.7
494.017	3630.02
494.387	3655.78
494.757	3657.81
495.126	3689.68
495.496	3689.68
495.866	3688.1
496.235	3728.09
496.605	3728.55
496.974	3767.19
497.344	3799.73
497.713	3834.98
498.082	3842.67
498.452	3882.89
498.821	3907.98
499.19	3860.29
499.559	3921.76
499.928	3926.51
500.298	3963.34
500.667	4019.39
501.036	3984.81
501.405	4053.74
501.774	4043.57
502.143	4045.83
502.512	4040.63
502.88	4093.73
503.249	4064.58
503.618	4126.95
503.987	4127.86
504.356	4103.9
504.724	4128.31
505.093	4173.51
505.462	4180.06
505.83	4231.13
506.199	4219.61
506.567	4280.17
506.936	4271.36
507.304	4277.01
507.672	4318.59
508.041	4330.34
508.409	4357.46
508.777	4348.42
509.145	4385.03
509.514	4349.77
509.882	4430.45
510.25	4415.76
510.618	4415.76
510.986	4452.82
511.354	4472.03
511.722	4505.7
512.09	4515.42
512.458	4477.23
512.826	4534.17
513.193	4538.24
513.561	4553.84
513.929	4568.75
514.297	4622.31
514.664	4580.5
515.032	4627.28
515.4	4644
515.767	4628.18
516.135	4662.76
516.502	4606.04
516.869	4684.23
517.237	4709.09
517.604	4698.24
517.972	4690.78
518.339	4736.2
518.706	4695.53
519.073	4757.67
519.44	4719.71
519.808	4780.5
520.175	4779.37
520.542	4839.03
520.909	4826.14
521.276	4811.91
521.643	4873.83
522.009	4908.18
522.376	4916.99
522.743	4912.02
523.11	4961.51
523.477	5015.07
523.843	5003.09
524.21	5042.41
524.577	5049.87
524.943	5057.55
525.31	5059.58
525.676	5115.85
526.043	5166.25
526.409	5128.96
526.776	5246.02
527.142	5254.61
527.508	5232.69
527.874	5250.54
528.241	5313.36
528.607	5300.71
528.973	5366.24
529.339	5369.86
529.705	5407.82
530.071	5464.09
530.437	5442.85
530.803	5476.75
531.169	5521.27
531.535	5513.13
531.901	5513.81
532.267	5519.46
532.632	5600.36
532.998	5622.73
533.364	5653.24
533.73	5629.74
534.095	5645.33
534.461	5701.38
534.826	5731.43
535.192	5702.73
535.557	5755.61
535.923	5802.84
536.288	5832.22
536.653	5833.35
537.019	5809.17
537.384	5886.46
537.749	5947.92
538.114	5877.19
538.479	5923.74
538.845	5953.57
539.21	5949.5
539.575	5985.21
539.94	6023.4
540.305	6116.05
540.67	6045.1
541.034	6064.98
541.399	6103.4
541.764	6125.09
542.129	6163.06
542.494	6195.83
542.858	6205.09
543.223	6137.75
543.587	6261.59
543.952	6273.34
544.316	6226.56
544.681	6316.27
545.045	6288.7
545.41	6418.42
545.774	6429.49
546.138	6430.4
546.503	6417.74
546.867	6475.59
547.231	6560.79
547.595	6522.37
547.959	6594.91
548.324	6539.32
548.688	6557.85
549.052	6654.34
549.416	6604.18
549.779	6687.79
550.143	6662.48
550.507	6729.6
550.871	6693.21
551.235	6734.79
551.599	6775.25
551.962	6752.42
552.326	6767.56
552.689	6850.05
553.053	6819.76
553.417	6819.99
553.78	6897.28
554.143	6932.98
554.507	6966.88
554.87	6972.98
555.234	6984.05
555.597	6967.78
555.96	7019.53
556.323	7026.54
556.686	7046.42
557.05	7093.43
557.413	7054.56
557.776	7065.41
558.139	7156.48
558.502	7167.55
558.865	7156.03
559.228	7230.15
559.59	7190.38
559.953	7288.45
560.316	7277.83
560.679	7294.1
561.041	7371.61
561.404	7376.59
561.767	7356.47
562.129	7452.74
562.492	7482.8
562.854	7427.88
563.217	7459.3
563.579	7480.09
563.941	7480.54
564.304	7580.87
564.666	7589.91
565.028	7592.85
565.39	7624.71
565.753	7667.65
566.115	7715.33
566.477	7722.79
566.839	7740.64
567.201	7816.35
567.563	7748.78
567.925	7876.46
568.287	7800.76
568.648	7803.92
569.01	7929.34
569.372	7956.23
569.734	7970.47
570.095	8028.55
570.457	8059.05
570.819	8072.16
571.18	8106.28
571.542	8183.34
571.903	8239.61
572.265	8171.59
572.626	8269.67
572.987	8306.96
573.349	8323
573.71	8393.51
574.071	8497.01
574.432	8506.5
574.794	8627.4
575.155	8654.07
575.516	8665.82
575.877	8725.48
576.238	8777.9
576.599	8911.91
576.96	8938.58
577.32	8981.52
577.681	9081.63
578.042	9168.85
578.403	9271
578.763	9353.03
579.124	9390.54
579.485	9560.94
579.845	9588.73
580.206	9725.22
580.566	9834.83
580.927	9995.27
581.287	10091.99
581.648	10228.04
582.008	10424.42
582.368	10524.53
582.728	10679.78
583.089	10805.87
583.449	11029.6
583.809	11162.25
584.169	11334.9
584.529	11521.79
584.889	11870.7
585.249	11915.9
585.609	12068.67
585.969	12363.8
586.329	12512.95
586.688	12775.99
587.048	13101.41
587.408	13198.58
587.768	13482.87
588.127	13755.85
588.487	13937.77
588.846	14286.46
589.206	14489.39
589.565	14731.87
589.925	15079.66
590.284	15363.27
590.643	15705.63
591.003	16006.87
591.362	16326.63
591.721	16624.03
592.08	16897.92
592.44	17206.84
592.799	17423.55
593.158	17858.8
593.517	18126.13
593.876	18546.91
594.235	18783.74
594.593	19104.19
594.952	19403.39
595.311	19571.52
595.67	20090.83
596.029	20512.96
596.387	20805.16
596.746	21177.35
597.104	21465.25
597.463	21678.58
597.822	22066.82
598.18	22296.19
598.538	22648.27
598.897	23088.49
599.255	23212.33
599.613	23946.55
599.972	23963.95
600.33	24408.23
600.688	24516.02
601.046	25018.61
601.404	25314.65
601.762	25661.08
602.12	26057.45
602.478	26315.3
602.836	26545.35
603.194	26801.16
603.552	27130.19
603.91	27328.15
604.268	27719.78
604.625	27880
604.983	28288.58
605.341	28362.02
605.698	28817.83
606.056	29306.63
606.413	29370.81
606.771	29731.48
607.128	30109.55
607.485	30011.24
607.843	30364.46
608.2	30715.63
608.557	31157.66
608.914	31195.39
609.272	31599.45
609.629	31854.81
609.986	32138.19
610.343	32228.81
610.7	32641.23
611.057	32819.76
611.414	32962.81
611.771	33290.48
612.127	33416.8
612.484	33645.73
612.841	33938.15
613.198	33991.03
613.554	34150.12
613.911	34575.64
614.267	34803.66
614.624	34791.23
614.98	34994.62
615.337	35433.7
615.693	35470.08
616.05	35568.84
616.406	35905.78
616.762	35906.23
617.118	36114.14
617.475	36288.59
617.831	36556.84
618.187	36674.12
618.543	36992.53
618.899	37166.99
619.255	37232.07
619.611	37140.55
619.967	37468
620.323	37739.63
620.678	37684.94
621.034	37643.59
621.39	37794.32
621.746	37810.81
622.101	38479.04
622.457	38184.14
622.812	38350.69
623.168	38601.08
623.523	38741.64
623.879	38847.17
624.234	38714.29
624.589	38911.58
624.945	39039.71
625.3	39159.7
625.655	39164.45
626.01	39368.51
626.365	39401.73
626.72	39361.73
627.075	39487.15
627.43	39646.7
627.785	39469.3
628.14	39731.44
628.495	39871.32
628.85	39918.33
629.205	39719.24
629.559	40003.75
629.914	39944.54
630.269	39979.34
630.623	39850.08
630.978	39947.03
631.332	40248.72
631.687	40288.04
632.041	40169.62
632.396	40322.16
632.75	40174.37
633.104	40283.97
633.459	40151.09
633.813	40082.39
634.167	40214.37
634.521	40183.18
634.875	40343.63
635.229	40338.43
635.583	40136.4
635.937	40119.91
636.291	40257.53
636.645	40256.85
636.999	40238.55
637.352	40267.92
637.706	40133.69
638.06	40212.56
638.413	40151.32
638.767	40251.43
639.121	40307.25
639.474	40036.97
639.828	40094.14
640.181	40150.19
640.534	40272.22
640.888	39993.58
641.241	40058.89
641.594	40128.49
641.947	40183.41
642.301	39970.53
642.654	40176.18
643.007	40144.31
643.36	40161.49
643.713	40051.88
644.066	40227.7
644.419	40049.85
644.771	39719.92
645.124	39300.72
645.477	39297.33
645.83	39127.39
646.182	39097.79
646.535	38826.38
646.888	38999.93
647.24	38905.25
647.593	39057.11
647.945	39016.21
648.298	38813.73
648.65	38792.03
649.002	38665.25
649.355	38976.21
649.707	38791.8
650.059	39036.09
650.411	39449.19
650.763	39404.9
651.115	39822.06
651.467	39726.47
651.819	39832.46
652.171	39734.6
652.523	39690.54
652.875	39654.61
653.227	39463.43
653.578	39655.96
653.93	39635.17
654.282	39545.68
654.633	39435.86
654.985	39405.12
655.337	39477.66
655.688	39513.59
656.039	39755.62
656.391	39264.79
656.742	39395.86
657.094	39335.29
657.445	39554.95
657.796	39363.77
658.147	39267.5
658.498	39506.59
658.849	39426.36
659.2	39402.64
659.551	39227.5
659.902	39428.4
660.253	39303.66
660.604	39402.64
660.955	39246.03
661.306	39347.95
661.656	39330.55
662.007	39235.64
662.358	39043.55
662.708	39215.3
663.059	39192.47
663.409	39053.94
663.76	39334.39
664.11	39311.11
664.461	39176.65
664.811	39219.36
665.161	39213.49
665.511	39088.29
665.862	39065.7
666.212	39253.71
666.562	39310.89
666.912	39214.39
667.262	39106.15
667.612	39221.85
667.962	39120.38
668.312	39169.87
668.662	39293.71
669.011	39269.08
669.361	39156.77
669.711	39092.36
670.06	39067.73
670.41	38921.52
670.76	38966.49
671.109	39133.94
671.459	38963.78
671.808	38942.54
672.157	39062.31
672.507	38817.34
672.856	38920.16
673.205	38928.52
673.554	38869.54
673.904	38895.76
674.253	39132.36
674.602	38979.37
674.951	38370.35
675.3	38235.44
675.649	38831.13
675.998	38834.29
676.346	38802.2
676.695	38869.99
677.044	38574.86
677.393	38695.76
677.741	38717
678.09	38685.37
678.438	38450.34
678.787	38637.91
679.135	38591.81
679.484	38441.08
679.832	38433.62
680.181	38246.73
680.529	38455.77
680.877	38312.72
681.225	38336.9
681.573	38424.36
681.922	38046.51
682.27	38114.31
682.618	38248.77
682.966	37969.45
683.314	38142.78
683.661	38053.07
684.009	37846.29
684.357	37747.76
684.705	37698.05
685.053	37784.6
685.4	37721.32
685.748	37481.78
686.095	37533.53
686.443	37378.96
686.79	37279.98
687.138	37425.74
687.485	37354.55
687.832	37273.88
688.18	37281.56
688.527	37073.21
688.874	37079.08
689.221	36855.81
689.568	36908.92
689.915	36867.56
690.262	36890.61
690.609	36631.18
690.956	36647.23
691.303	36669.37
691.65	36391.19
691.997	36323.17
692.344	36210.86
692.69	36207.24
693.037	36260.57
693.383	35836.18
693.73	36135.38
694.077	35937.87
694.423	35922.05
694.769	35708.27
695.116	35738.78
695.462	35668.95
695.808	35393.48
696.155	35592.11
696.501	35327.49
696.847	35328.39
697.193	35171.79
697.539	35244.33
697.885	34980.38
698.231	34715.75
698.577	34950.32
698.923	34829.2
699.269	34539.71
699.614	34513.95
699.96	34558.47
700.306	34461.98
700.651	34359.15
700.997	34234.64
701.342	34087.3
701.688	34033.96
702.033	34002.78
702.379	33817.02
702.724	33866.96
703.069	33910.13
703.415	33479.63
703.76	33516.24
704.105	33522.11
704.45	33448.22
704.795	33267.88
705.14	33121.45
705.485	33034.67
705.83	33146.3
706.175	33140.2
706.52	32985.18
706.865	32874.9
707.209	32816.59
707.554	32787.44
707.899	32721.91
708.243	32558.97
708.588	32526.43
708.932	32346.32
709.277	32313.11
709.621	32350.39
709.966	32159.66
710.31	32300
710.654	31893.91
710.998	32086.22
711.342	31987.92
711.687	31963.28
712.031	31791.08
712.375	31664.53
712.719	31719.67
713.063	31594.71
713.407	31806.23
713.75	31638.77
714.094	31578.66
714.438	31435.84
714.782	31450.98
715.125	31246.01
715.469	31420.47
715.812	31118.79
716.156	31056.64
716.499	31023.87
716.843	31140.93
717.186	30821.17
717.53	30986.36
717.873	30970.09
718.216	30931.67
718.559	30768.74
718.902	30642.64
719.246	30574.85
719.589	30499.14
719.932	30369.2
720.275	30357.22
720.617	30460.95
720.96	30320.84
721.303	30324.23
721.646	30278.36
721.989	30061.41
722.331	30171.69
722.674	30081.98
723.016	30084.69
723.359	29968.99
723.701	30066.61
724.044	29872.49
724.386	29817.58
724.729	29739.84
725.071	29751.59
725.413	29692.38
725.755	29765.83
726.097	29562.44
726.439	29490.58
726.782	29480.64
727.124	29559.28
727.465	29396.35
727.807	29382.56
728.149	29345.95
728.491	29291.94
728.833	29312.28
729.175	29092.62
729.516	29098.5
729.858	29034.1
730.199	29162.45
730.541	28927.43
730.882	28862.35
731.224	29040.65
731.565	28848.79
731.906	28931.27
732.248	28770.37
732.589	28620.55
732.93	28642.47
733.271	28637.72
733.612	28578.97
733.953	28693.31
734.294	28525.41
734.635	28413.32
734.976	28449.25
735.317	28352.31
735.658	28435.02
735.999	28341.46
736.339	28210.16
736.68	28352.98
737.021	28154.34
737.361	28128.81
737.702	28145.53
738.042	28040.22
738.383	28079.77
738.723	28121.12
739.063	28041.35
739.404	28024.86
739.744	27919.32
740.084	27893.56
740.424	27853.79
740.764	27908.25
741.104	27946.89
741.444	27728.37
741.784	27665.54
742.124	27753.23
742.464	27628.71
742.804	27693.34
743.143	27484.53
743.483	27544.42
743.823	27417.87
744.162	27298.55
744.502	27330.41
744.841	27325.89
745.181	27353.01
745.52	27186.46
745.86	27239.79
746.199	27226.01
746.538	27175.16
746.877	27109.17
747.216	27071.21
747.556	26987.37
747.895	27046.35
748.234	26843.42
748.573	26888.84
748.911	26828.5
749.25	26730.2
749.589	26607.94
749.928	26667.15
750.267	26735.4
750.605	26772.46
750.944	26571.34
751.283	26619.24
751.621	26539.7
751.96	26457.44
752.298	26341.28
752.636	26327.27
752.975	26227.84
753.313	26184.45
753.651	26309.42
753.989	26040.95
754.327	26133.15
754.666	25887.96
755.004	25989.66
755.342	25976.32
755.679	25792.37
756.017	25841.18
756.355	25868.3
756.693	25650.23
757.031	25796.21
757.368	25468.77
757.706	25497.92
758.044	25329.11
758.381	25546.96
758.719	25356.68
759.056	25463.79
759.394	25261.31
759.731	25119.4
760.068	25203.46
760.405	24923.24
760.743	24963.47
761.08	24943.81
761.417	24820.42
761.754	24766.64
762.091	24691.16
762.428	24612.06
762.765	24497.04
763.102	24603.93
763.438	24422.24
763.775	24272.41
764.112	24284.84
764.449	24308.8
764.785	24262.92
765.122	24097.05
765.458	23954.45
765.795	23916.26
766.131	23894.34
766.467	23782.93
766.804	23635.59
767.14	23611.19
767.476	23572.32
767.812	23454.81
768.148	23514.47
768.485	23313.57
768.821	23116.51
769.157	23184.76
769.492	23107.25
769.828	23113.57
770.164	22856.18
770.5	22953.13
770.836	22821.6
771.171	22635.85
771.507	22653.92
771.842	22540.93
772.178	22509.75
772.513	22390.2
772.849	22424.33
773.184	22170.77
773.519	22228.4
773.855	22094.62
774.19	22062.3
774.525	21925.58
774.86	21855.75
775.195	21908.63
775.53	21780.27
775.865	21700.95
776.2	21481.3
776.535	21375.99
776.87	21314.52
777.205	21260.74
777.539	21098.26
777.874	21288.54
778.209	21009.67
778.543	21029.33
778.878	20926.51
779.212	20823.46
779.547	20691.04
779.881	20738.72
780.215	20653.98
780.55	20599.74
780.884	20511.16
781.218	20489.69
781.552	20435.23
781.886	20318.17
782.22	20242.01
782.554	20160.43
782.888	19958.63
783.222	19928.35
783.556	19853.32
783.889	19828.91
784.223	19598.19
784.557	19673.66
784.89	19614.68
785.224	19526.1
785.557	19433.44
785.891	19400
786.224	19337.4
786.558	19315.25
786.891	19162.26
787.224	18981.93
787.557	19083.85
787.891	18914.81
788.224	18957.98
788.557	18999.56
788.89	18822.61
789.223	18810.86
789.556	18736.74
789.888	18529.29
790.221	18578.33
790.554	18413.13
790.887	18428.72
791.219	18322.74
791.552	18278.67
791.884	18278.67
792.217	18213.36
792.549	18029.64
792.882	18009.75
793.214	17915.07
793.546	17948.74
793.879	17829.42
794.211	17768.18
794.543	17887.27
794.875	17679.59
795.207	17699.25
795.539	17602.76
795.871	17581.74
796.203	17427.85
796.535	17303.33
796.867	17359.83
797.198	17291.35
797.53	17308.3
797.862	17066.27
798.193	17111.7
798.525	17017.69
798.856	17113.05
799.188	16888.65
799.519	16855.21
799.85	16727.75
800.182	16780.63
800.513	16873.74
800.844	16621.09
801.175	16684.36
801.506	16658.6
801.837	16570.02
802.168	16522.33
802.499	16498.38
802.83	16266.07
803.161	16317.59
803.491	16307.65
803.822	16303.13
804.153	16224.71
804.483	16111.72
804.814	15987.88
805.145	15968.22
805.475	16023.82
805.805	15883.48
806.136	15939.75
806.466	15902.69
806.796	15837.15
807.126	15702.92
807.457	15737.5
807.787	15716.71
808.117	15658.4
808.447	15511.06
808.777	15551.74
809.107	15442.36
809.436	15433.1
809.766	15487.78
810.096	15392.42
810.426	15250.28
810.755	15308.13
811.085	15205.08
811.414	15229.26
811.744	15012.32
812.073	15113.56
812.403	15147.45
812.732	14947.69
813.061	15003.96
813.39	14873.79
813.719	14891.87
814.049	14908.82
814.378	14849.38
814.707	14811.19
815.036	14783.17
815.365	14715.83
815.693	14613.91
816.022	14616.17
816.351	14542.95
816.68	14453.69
817.008	14578.88
817.337	14356.52
817.665	14388.15
817.994	14410.3
818.322	14433.35
818.651	14300.47
818.979	14252.56
819.307	14300.02
819.636	14306.57
819.964	14213.47
820.292	14214.15
820.62	14219.12
820.948	14189.74
821.276	14211.43
821.604	14093.25
821.932	14080.82
822.259	14190.42
822.587	14084.43
822.915	14039.24
823.243	14135.96
823.57	14141.38
823.898	14132.34
824.225	13983.64
824.553	14083.53
824.88	14081.95
825.207	14076.07
825.535	14023.19
825.862	14069.29
826.189	13956.3
826.516	14108.61
826.843	14079.46
827.17	14021.61
827.497	14169.18
827.824	14090.76
828.151	14075.39
828.478	13949.07
828.805	14117.43
829.131	14010.54
829.458	13975.96
829.785	13919.01
830.111	13957.2
830.438	13956.07
830.764	13958.56
831.09	13996.98
831.417	13982.51
831.743	14019.12
832.069	13970.54
832.395	13884.21
832.722	13956.98
833.048	13858.22
833.374	13946.81
833.7	13780.49
834.026	13858
834.351	13858.9
834.677	13879.47
835.003	13887.15
835.329	13885.79
835.654	13770.09
835.98	13771.45
836.306	13813.25
836.631	13730.54
836.956	13767.38
837.282	13813.03
837.607	13618.68
837.932	13665.46
838.258	13586.59
838.583	13625.69
838.908	13592.47
839.233	13555.18
839.558	13601.73
839.883	13521.73
840.208	13520.38
840.533	13414.17
840.858	13434.05
841.182	13486.03
841.507	13405.58
841.832	13362.87
842.156	13281.29
842.481	13340.04
842.805	13252.59
843.13	13267.96
843.454	13199.94
843.778	13097.34
844.103	13193.83
844.427	13125.81
844.751	13194.96
845.075	13075.19
845.399	13072.26
845.723	12963.11
846.047	12981.64
846.371	12867.74
846.695	12888.31
847.019	12772.83
847.343	12803.34
847.666	12665.49
847.99	12634.3
848.313	12601.31
848.637	12556.11
848.96	12451.03
849.284	12483.34
849.607	12396.11
849.931	12327.42
850.254	12233.18
850.577	12178.72
850.9	12101.66
851.223	12096.01
851.546	12047.2
851.869	12001.55
852.192	12030.7
852.515	11878.84
852.838	11881.33
853.161	11813.53
853.483	11820.54
853.806	11844.49
854.129	11768.33
854.451	11714.78
854.774	11670.26
855.096	11576.48
855.419	11533.31
855.741	11548.23
856.063	11494.22
856.385	11418.97
856.708	11393.66
857.03	11389.81
857.352	11411.96
857.674	11326.76
857.996	11250.16
858.318	11211.29
858.64	11262.13
858.961	11210.38
859.283	11108.24
859.605	11043.16
859.926	11139.65
860.248	11051.29
860.57	11035.25
860.891	11005.19
861.212	11018.98
861.534	10949.83
861.855	10943.27
862.176	10964.51
862.498	10958.19
862.819	10936.72
863.14	10839.55
863.461	10785.31
863.782	10775.82
864.103	10794.35
864.424	10744.41
864.745	10760.9
865.065	10768.59
865.386	10729.72
865.707	10719.32
866.027	10759.55
866.348	10665.99
866.668	10633.22
866.989	10571.76
867.309	10524.53
867.63	10583.06
867.95	10542.38
868.27	10482.72
868.59	10487.01
868.91	10473.45
869.23	10429.39
869.55	10396.39
869.87	10487.24
870.19	10398.65
870.51	10381.03
870.83	10428.71
871.15	10310.75
871.469	10312.78
871.789	10375.38
872.109	10379.44
872.428	10313.68
872.748	10357.75
873.067	10307.58
873.386	10290.86
873.706	10293.35
874.025	10150.52
874.344	10178.77
874.663	10294.02
874.982	10189.62
875.301	10230.52
875.62	10112.56
875.939	10110.75
876.258	10173.8
876.577	10106.68
876.896	10068.72
877.214	9999.79
877.533	10049.06
877.852	10004.54
878.17	9994.6
878.489	9983.52
878.807	9954.15
879.125	9917.08
879.444	9926.58
879.762	9874.15
880.08	9909.85
880.398	9830.98
880.716	9807.93
881.034	9848.16
881.352	9789.63
881.67	9807.48
881.988	9794.38
882.306	9763.64
882.624	9760.93
882.941	9669.18
883.259	9666.47
883.577	9594.38
883.894	9603.87
884.212	9617.88
884.529	9646.13
884.846	9564.55
885.164	9505.57
885.481	9519.35
885.798	9548.05
886.115	9506.02
886.432	9506.25
886.75	9442.07
887.067	9500.37
887.383	9380.37
887.7	9388.96
888.017	9364.1
888.334	9336.99
888.651	9261.73
888.967	9251.34
889.284	9270.1
889.6	9227.38
889.917	9115.3
890.233	9148.74
890.55	9118.23
890.866	9138.12
891.182	9142.64
891.498	9087.05
891.815	9009.09
892.131	9051.8
892.447	9035.98
892.763	8998.01
893.079	8932.25
893.395	8929.99
893.71	8935.64
894.026	8876.43
894.342	8833.95
894.657	8791.46
894.973	8789.2
895.289	8782.65
895.604	8818.13
895.92	8735.87
896.235	8642.09
896.55	8673.73
896.865	8598.7
897.181	8630.11
897.496	8599.83
897.811	8515.76
898.126	8417.24
898.441	8467.18
898.756	8477.8
899.071	8420.63
899.386	8418.82
899.7	8372.04
900.015	8339.5
900.33	8189.45
900.644	8252.95
900.959	8233.74
901.273	8239.16
901.588	8208.65
901.902	8106.51
902.216	8105.83
902.531	8084.82
902.845	8082.56
903.159	8046.4
903.473	7994.65
903.787	7892.5
904.101	7966.17
904.415	7874.88
904.729	7878.49
905.042	7747.2
905.356	7784.48
905.67	7791.94
905.984	7772.28
906.297	7752.17
906.611	7708.78
906.924	7647.54
907.237	7697.26
907.551	7562.12
907.864	7600.76
908.177	7487.77
908.491	7587.65
908.804	7438.73
909.117	7429.92
909.43	7424.04
909.743	7370.26
910.056	7347.89
910.368	7288.68
910.681	7269.7
910.994	7278.74
911.307	7263.59
911.619	7182.24
911.932	7205.52
912.244	7155.57
912.557	7159.87
912.869	7121.9
913.181	7087.55
913.494	7148.8
913.806	7050.27
914.118	7018.4
914.43	6939.31
914.742	6927.11
915.054	6923.94
915.366	6887.33
915.678	6843.49
915.99	6787.67
916.302	6743.38
916.613	6777.05
916.925	6770.73
917.236	6703.38
917.548	6764.4
917.859	6681.91
918.171	6647.34
918.482	6612.54
918.794	6597.4
919.105	6579.77
919.416	6565.99
919.727	6484.41
920.038	6501.81
920.349	6376.61
920.66	6472.43
920.971	6394.92
921.282	6393.79
921.593	6349.49
921.903	6262.49
922.214	6316.27
922.525	6243.06
922.835	6191.31
923.146	6161.93
923.456	6188.37
923.767	6149.73
924.077	6123.06
924.387	6134.58
924.697	6081.48
925.008	6056.39
925.318	6027.47
925.628	6066.79
925.938	5959.45
926.248	5867.47
926.558	5922.16
926.867	5859.56
927.177	5868.83
927.487	5800.36
927.796	5765.55
928.106	5803.29
928.416	5776.18
928.725	5763.97
929.034	5752
929.344	5739.79
929.653	5762.84
929.962	5656.18
930.271	5614.82
930.581	5597.65
930.89	5574.6
931.199	5552
931.508	5552.9
931.817	5536.86
932.125	5490.53
932.434	5454.6
932.743	5435.17
933.051	5402.85
933.36	5372.57
933.669	5377.09
933.977	5316.07
934.286	5338.45
934.594	5275.85
934.902	5243.31
935.21	5239.92
935.519	5306.81
935.827	5233.59
936.135	5203.31
936.443	5141.84
936.751	5170.09
937.059	5132.8
937.367	5074.5
937.674	5128.28
937.982	5092.8
938.29	5031.79
938.597	5032.01
938.905	4984.78
939.213	4966.48
939.52	4920.15
939.827	4918.35
940.135	4896.88
940.442	4882.41
940.749	4877.67
941.056	4889.65
941.363	4804.45
941.67	4795.41
941.977	4766.94
942.284	4787.05
942.591	4735.98
942.898	4734.85
943.205	4706.83
943.511	4615.3
943.818	4673.83
944.125	4609.2
944.431	4607.62
944.738	4624.34
945.044	4588.18
945.35	4559.48
945.657	4533.27
945.963	4507.73
946.269	4475.65
946.575	4484.01
946.881	4479.03
947.187	4456.21
947.493	4450.56
947.799	4402.65
948.105	4396.1
948.41	4364.24
948.716	4380.28
949.022	4340.51
949.327	4281.75
949.633	4272.94
949.938	4296.67
950.244	4244.46
950.549	4237.23
950.854	4230.45
951.16	4209.21
951.465	4182.77
951.77	4169.66
952.075	4180.06
952.38	4100.06
952.685	4165.37
952.99	4085.15
953.294	4129.21
953.599	4084.69
953.904	4052.83
954.209	4008.54
954.513	4025.26
954.818	4002.21
955.122	3972.38
955.426	3959.5
955.731	3923.57
956.035	3943.68
956.339	3879.05
956.643	3908.65
956.948	3840.63
957.252	3855.32
957.556	3867.3
957.86	3758.15
958.163	3829.33
958.467	3816.68
958.771	3739.85
959.075	3753.63
959.378	3736.68
959.682	3742.78
959.985	3704.59
960.289	3685.16
960.592	3664.82
960.896	3656.01
961.199	3674.31
961.502	3656.91
961.805	3587.76
962.108	3587.08
962.411	3600.87
962.714	3501.21
963.017	3544.82
963.32	3545.27
963.623	3503.69
963.926	3527.42
964.228	3459.17
964.531	3454.65
964.833	3490.81
965.136	3445.39
965.438	3445.16
965.741	3419.85
966.043	3418.27
966.345	3380.98
966.648	3391.38
966.95	3378.05
967.252	3330.36
967.554	3339.4
967.856	3334.21
968.158	3324.94
968.46	3277.71
968.761	3306.18
969.063	3217.6
969.365	3257.15
969.666	3218.73
969.968	3191.84
970.269	3183.02
970.571	3189.35
970.872	3171.72
971.174	3120.2
971.475	3158.39
971.776	3131.5
972.077	3115.45
972.378	3129.47
972.679	3146.64
972.98	3088.79
973.281	3073.42
973.582	3051.73
973.883	3052.63
974.183	3057.6
974.484	2988.45
974.785	2969.02
975.085	2992.29
975.386	2977.15
975.686	2972.86
975.986	2940.77
976.287	2962.01
976.587	2883.6
976.887	2909.36
977.187	2870.04
977.487	2895.57
977.787	2878.62
978.087	2868.91
978.387	2832.07
978.687	2825.07
978.987	2813.09
979.286	2806.54
979.586	2763.83
979.885	2793.66
980.185	2757.95
980.484	2757.95
980.784	2710.95
981.083	2707.78
981.382	2708.23
981.682	2733.77
981.981	2696.03
982.28	2681.79
982.579	2676.14
982.878	2644.73
983.177	2618.52
983.475	2640.67
983.774	2625.3
984.073	2631.63
984.372	2588.01
984.67	2610.84
984.969	2595.92
985.267	2576.94
985.566	2561.12
985.864	2530.84
986.162	2492.42
986.461	2516.15
986.759	2522.7
987.057	2435.7
987.355	2491.74
987.653	2496.26
987.951	2479.54
988.249	2488.35
988.547	2451.07
988.844	2468.47
989.142	2482.48
989.44	2401.58
989.737	2441.12
990.035	2385.76
990.332	2388.69
990.63	2342.59
990.927	2378.53
991.224	2341.24
991.521	2343.95
991.819	2341.01
992.116	2343.05
992.413	2317.28
992.71	2308.7
993.006	2293.1
993.303	2278.87
993.6	2243.39
993.897	2270.28
994.193	2252.43
994.49	2238.64
994.787	2218.53
995.083	2215.59
995.379	2194.12
995.676	2182.6
995.972	2202.71
996.268	2202.26
996.565	2136.05
996.861	2122.71
997.157	2113.45
997.453	2120.68
997.749	2140.11
998.044	2122.03
998.34	2126.1
998.636	2089.04
998.932	2085.88
999.227	2047.23
999.523	2079.32
999.818	2042.94
1000.114	2012.88
1000.409	2011.98
1000.704	1996.16
1001	2001.59
1001.295	1994.35
1001.59	1972.66
1001.885	1956.39
1002.18	1952.32
1002.475	1957.75
1002.77	1944.41
1003.065	1913.23
1003.359	1924.98
1003.654	1941.93
1003.949	1892.89
1004.243	1915.26
1004.538	1858.54
1004.832	1870.74
1005.127	1869.39
1005.421	1840.01
1005.715	1841.14
1006.009	1848.37
1006.304	1812.44
1006.598	1820.57
1006.892	1822.83
1007.186	1781.03
1007.48	1736.06
1007.773	1755.49
1008.067	1775.38
1008.361	1734.7
1008.655	1725.66
1008.948	1718.43
1009.242	1709.16
1009.535	1695.15
1009.829	1724.08
1010.122	1674.81
1010.415	1666
1010.708	1658.54
1011.001	1636.85
1011.295	1665.1
1011.588	1656.74
1011.881	1614.48
1012.173	1654.93
1012.466	1618.32
1012.759	1631.65
1013.052	1625.1
1013.344	1594.82
1013.637	1562.73
1013.93	1609.05
1014.222	1571.54
1014.514	1546
1014.807	1561.6
1015.099	1551.65
1015.391	1524.99
1015.683	1520.24
1015.976	1506.23
1016.268	1493.58
1016.56	1497.42
1016.851	1477.76
1017.143	1486.57
1017.435	1465.78
1017.727	1466.68
1018.018	1465.78
1018.31	1432.11
1018.602	1440.7
1018.893	1439.11
1019.185	1403.41
1019.476	1398.89
1019.767	1415.61
1020.058	1395.95
1020.35	1390.53
1020.641	1377.87
1020.932	1362.73
1021.223	1351.43
1021.514	1331.55
1021.804	1330.87
1022.095	1313.24
1022.386	1336.29
1022.677	1310.98
1022.967	1302.4
1023.258	1286.35
1023.548	1273.92
1023.839	1304.43
1024.129	1265.33
1024.419	1227.59
1024.709	1261.27
1025	1254.94
1025.29	1241.15
1025.58	1249.97
1025.87	1244.09
1026.16	1225.34
1026.449	1237.31
1026.739	1190.31
1027.029	1181.27
1027.319	1193.02
1027.608	1173.58
1027.898	1179.01
1028.187	1159.57
1028.477	1149.63
1028.766	1148.27
1029.055	1102.85
1029.344	1124.55
1029.634	1113.93
1029.923	1129.07
1030.212	1099.46
1030.501	1104.43
1030.79	1108.5
1031.078	1094.94
1031.367	1086.58
1031.656	1102.85
1031.945	1057.66
1032.233	1022.4
1032.522	1046.81
1032.81	1040.93
1033.099	1009.75
1033.387	1050.65
1033.675	1039.13
1033.963	1026.47
1034.251	1001.61
1034.54	986.25
1034.828	973.59
1035.116	971.33
1035.403	989.63
1035.691	1000.93
1035.979	983.53
1036.267	958.68
1036.554	956.19
1036.842	962.29
1037.129	936.76
1037.417	940.6
1037.704	915.96
1037.992	945.79
1038.279	917.77
1038.566	892.24
1038.853	892.24
1039.14	892.24
