Data from hue_160_FLMS001491_00088.txt Node
Date: Tue Feb 07 16:51:49 GMT 2017
User: dcchb
Spectrometer: FLMS00149
Trigger mode: 0
Integration Time (sec): 2.000000E-2
Scans to average: 10
Electric dark correction enabled: true
Nonlinearity correction enabled: false
Boxcar width: 0
XAxis mode: Wavelengths
Number of Pixels in Spectrum: 2048
>>>>>Begin Spectral Data<<<<<
341.393	-5.42
341.776	-5.42
342.16	-5.42
342.543	-55.14
342.927	-61.92
343.31	-67.12
343.693	-58.3
344.077	-76.83
344.46	-52.2
344.843	-46.33
345.226	-58.53
345.61	-21.92
345.993	-5.88
346.376	-1.36
346.759	4.07
347.142	-2.94
347.525	53.78
347.908	44.97
348.291	54.46
348.674	104.18
349.057	129.94
349.44	122.26
349.823	151.18
350.206	166.1
350.588	179.2
350.971	216.72
351.354	247.9
351.737	237.28
352.119	243.38
352.502	263.27
352.884	270.5
353.267	263.5
353.65	282.48
354.032	294.46
354.414	310.05
354.797	303.27
355.179	325.42
355.562	301.46
355.944	305.3
356.326	320.9
356.709	333.32
357.091	340.33
357.473	349.6
357.855	353.21
358.238	336.04
358.62	328.8
359.002	337.39
359.384	343.27
359.766	352.76
360.148	332.65
360.53	321.12
360.912	344.17
361.294	338.07
361.676	338.52
362.057	348.01
362.439	331.52
362.821	330.61
363.203	334.68
363.584	333.55
363.966	321.57
364.348	301.01
364.729	323.38
365.111	321.8
365.493	310.5
365.874	313.21
366.256	306.66
366.637	302.82
367.019	305.3
367.4	292.2
367.781	304.4
368.163	337.39
368.544	315.02
368.925	306.21
369.306	327.9
369.688	311.18
370.069	320.9
370.45	313.21
370.831	298.75
371.212	307.34
371.593	325.42
371.974	326.32
372.355	322.48
372.736	313.66
373.117	322.25
373.498	291.52
373.879	317.96
374.26	322.25
374.641	313.21
375.021	320.67
375.402	289.71
375.783	322.03
376.163	325.87
376.544	336.04
376.925	323.61
377.305	336.49
377.686	309.82
378.066	324.96
378.447	344.4
378.827	354.34
379.208	333.55
379.588	339.65
379.968	331.52
380.349	338.75
380.729	335.36
381.109	337.39
381.489	344.17
381.87	326.32
382.25	320.44
382.63	347.34
383.01	337.84
383.39	341.91
383.77	347.79
384.15	344.4
384.53	356.6
384.91	347.11
385.29	338.52
385.67	342.59
386.049	352.31
386.429	357.28
386.809	353.89
387.189	360.22
387.568	341.46
387.948	360.67
388.328	344.4
388.707	362.02
389.087	374.68
389.466	347.34
389.846	336.04
390.225	388.46
390.605	341.23
390.984	361.8
391.363	364.28
391.743	368.35
392.122	387.11
392.501	371.97
392.881	388.69
393.26	367.9
393.639	381.68
394.018	377.62
394.397	384.17
394.776	379.65
395.155	380.33
395.534	394.57
395.913	374.45
396.292	385.75
396.671	387.11
397.05	379.2
397.429	387.56
397.808	416.71
398.186	394.57
398.565	410.38
398.944	410.84
399.323	409.71
399.701	399.99
400.08	411.51
400.458	387.56
400.837	411.06
401.215	401.12
401.594	395.47
401.972	399.09
402.351	412.64
402.729	405.19
403.107	405.87
403.486	416.94
403.864	443.6
404.242	423.94
404.62	417.84
404.999	430.72
405.377	419.42
405.755	428.69
406.133	451.51
406.511	425.98
406.889	448.8
407.267	436.37
407.645	446.99
408.023	449.93
408.401	443.38
408.779	446.32
409.156	442.02
409.534	445.86
409.912	459.65
410.29	474.56
410.667	479.08
411.045	485.41
411.422	452.64
411.8	464.62
412.178	482.02
412.555	486.99
412.933	466.2
413.31	508.01
413.687	483.38
414.065	472.53
414.442	487.9
414.819	498.07
415.197	503.94
415.574	506.2
415.951	534.68
416.328	505.3
416.705	511.17
417.082	516.6
417.46	521.12
417.837	530.16
418.214	504.85
418.591	523.15
418.967	529.7
419.344	546.65
419.721	530.16
420.098	552.53
420.475	554.56
420.852	572.41
421.228	567.22
421.605	553.21
421.982	558.4
422.358	592.3
422.735	560.44
423.111	554.56
423.488	569.02
423.864	578.97
424.241	597.27
424.617	609.93
424.994	604.96
425.37	614.9
425.746	615.35
426.123	602.24
426.499	600.44
426.875	615.58
427.251	623.94
427.627	639.08
428.003	646.31
428.379	668.91
428.756	661.68
429.132	641.34
429.507	639.98
429.883	657.84
430.259	670.04
430.635	692.86
431.011	683.15
431.387	673.43
431.763	703.71
432.138	684.5
432.514	719.98
432.89	728.12
433.265	721.34
433.641	723.82
434.016	733.77
434.392	725.18
434.767	747.78
435.143	744.84
435.518	752.75
435.894	764.27
436.269	763.14
436.644	784.61
437.02	807.89
437.395	778.96
437.77	807.89
438.145	818.06
438.52	833.42
438.895	838.62
439.271	812.86
439.646	817.61
440.021	832.29
440.395	860.77
440.77	872.52
441.145	853.54
441.52	875.01
441.895	881.33
442.27	882.69
442.645	889.47
443.019	881.11
443.394	883.59
443.769	907.32
444.143	928.79
444.518	902.58
444.892	895.34
445.267	948.68
445.641	937.6
446.016	922.91
446.39	932.86
446.764	933.76
447.139	966.08
447.513	939.64
447.887	934.89
448.262	967.43
448.636	981.9
449.01	1009.24
449.384	971.95
449.758	991.16
450.132	996.58
450.506	1036.81
450.88	1019.41
451.254	1036.36
451.628	1013.53
452.002	1060.31
452.376	1055.79
452.75	1077.26
453.123	1080.65
453.497	1112.51
453.871	1109.12
454.244	1133.76
454.618	1149.12
454.992	1126.3
455.365	1142.12
455.739	1192.51
456.112	1191.38
456.486	1188.9
456.859	1229.35
457.232	1216.69
457.606	1208.78
457.979	1242.45
458.352	1261.21
458.725	1288.55
459.099	1283.58
459.472	1281.55
459.845	1333.3
460.218	1335.56
460.591	1356.57
460.964	1384.6
461.337	1391.83
461.71	1425.5
462.083	1433.63
462.456	1435.89
462.829	1456.91
463.201	1479.51
463.574	1485.16
463.947	1497.59
464.32	1535.55
464.692	1557.02
465.065	1572.39
465.438	1595.66
465.81	1591.6
466.183	1637.25
466.555	1684.02
466.928	1698.94
467.3	1699.62
467.672	1741.2
468.045	1762.44
468.417	1806.73
468.789	1818.94
469.161	1842.66
469.534	1876.56
469.906	1919.95
470.278	1949.78
470.65	1970.57
471.022	2029.78
471.394	2058.7
471.766	2096.89
472.138	2136.22
472.51	2204.91
472.882	2215.31
473.253	2260.73
473.625	2304.35
473.997	2359.26
474.369	2372.82
474.74	2455.98
475.112	2497.11
475.484	2564.23
475.855	2603.32
476.227	2668.4
476.598	2741.85
476.97	2795.63
477.341	2863.2
477.713	2927.38
478.084	2951.33
478.455	3058.22
478.827	3101.16
479.198	3258.45
479.569	3280.59
479.94	3396.52
480.311	3430.87
480.682	3531.21
481.053	3627.7
481.424	3745.44
481.795	3841.93
482.166	3897.3
482.537	3993.34
482.908	4109.27
483.279	4215.71
483.65	4371.41
484.021	4438.08
484.391	4541.58
484.762	4650.05
485.133	4692.76
485.503	4842.58
485.874	4967.1
486.244	5097.72
486.615	5270.37
486.985	5283.02
487.356	5440.31
487.726	5562.11
488.097	5748.1
488.467	5833.07
488.837	6003.01
489.207	6036.9
489.578	6207.97
489.948	6285.94
490.318	6448.64
490.688	6558.47
491.058	6676.89
491.428	6773.61
491.798	6953.04
492.168	7084.56
492.538	7219.47
492.908	7305.57
493.278	7433.02
493.648	7571.55
494.017	7740.36
494.387	7880.7
494.757	7964.54
495.126	8071.43
495.496	8127.92
495.866	8281.82
496.235	8398.2
496.605	8547.8
496.974	8662.82
497.344	8737.17
497.713	8811.52
498.082	8949.14
498.452	9029.14
498.821	9115.24
499.19	9192.3
499.559	9335.57
499.928	9436.36
500.298	9516.36
500.667	9630.93
501.036	9593.19
501.405	9831.83
501.774	9823.7
502.143	9933.98
502.512	10006.06
502.88	10057.59
503.249	10137.59
503.618	10253.06
503.987	10323.12
504.356	10337.58
504.724	10452.83
505.093	10518.37
505.462	10562.21
505.83	10609.89
506.199	10726.95
506.567	10794.97
506.936	10795.87
507.304	10958.58
507.672	11031.35
508.041	11125.13
508.409	11133.49
508.777	11217.78
509.145	11229.31
509.514	11230.21
509.882	11432.02
510.25	11425.01
510.618	11435.63
510.986	11493.94
511.354	11568.96
511.722	11634.04
512.09	11794.49
512.458	11745.23
512.826	11830.42
513.193	11822.29
513.561	11900.03
513.929	11938.22
514.297	12006.46
514.664	12074.03
515.032	12172.79
515.4	12203.52
515.767	12186.57
516.135	12203.07
516.502	12105.67
516.869	12285.78
517.237	12310.18
517.604	12274.71
517.972	12396.28
518.339	12424.31
518.706	12346.79
519.073	12456.85
519.44	12526.22
519.808	12509.28
520.175	12527.81
520.542	12583.4
520.909	12726.45
521.276	12575.49
521.643	12713.79
522.009	12755.37
522.376	12768.48
522.743	12783.62
523.11	12913.33
523.477	12983.84
523.843	12935.03
524.21	12958.53
524.577	13045.98
524.943	13019.77
525.31	13117.17
525.676	13157.85
526.043	13133.21
526.409	13192.42
526.776	13290.5
527.142	13247.34
527.508	13336.15
527.874	13305.86
528.241	13351.74
528.607	13298.63
528.973	13341.57
529.339	13299.99
529.705	13393.09
530.071	13468.35
530.437	13380.21
530.803	13431.96
531.169	13416.14
531.535	13393.09
531.901	13326.88
532.267	13339.99
532.632	13370.5
532.998	13352.42
533.364	13409.59
533.73	13344.28
534.095	13407.33
534.461	13343.38
534.826	13408.91
535.192	13389.03
535.557	13386.09
535.923	13258.63
536.288	13368.91
536.653	13288.92
537.019	13290.72
537.384	13195.59
537.749	13231.97
538.114	13287.33
538.479	13143.16
538.845	13134.34
539.21	13067.23
539.575	13111.52
539.94	13007.57
540.305	13084.4
540.67	13019.09
541.034	12959.66
541.399	13015.48
541.764	12903.84
542.129	12965.99
542.494	12898.19
542.858	12896.61
543.223	12847.12
543.587	12829.04
543.952	12767.12
544.316	12773.9
544.681	12645.77
545.045	12725.32
545.41	12725.09
545.774	12766.9
546.138	12636.96
546.503	12628.14
546.867	12533.68
547.231	12692.32
547.595	12601.93
547.959	12570.52
548.324	12443.29
548.688	12468.37
549.052	12363.74
549.416	12314.7
549.779	12311.77
550.143	12298.21
550.507	12326.46
550.871	12324.87
551.235	12217.31
551.599	12286
551.962	12210.75
552.326	12188.38
552.689	12261.82
553.053	12137.99
553.417	12115.16
553.78	12158.1
554.143	12080.13
554.507	12080.59
554.87	12032
555.234	12156.06
555.597	12022.51
555.96	12015.96
556.323	11994.03
556.686	12032.23
557.05	11958.56
557.413	12008.72
557.776	11947.71
558.139	11975.05
558.502	11982.28
558.865	11890.53
559.228	11994.49
559.59	12001.49
559.953	11934.15
560.316	12013.92
560.679	12008.72
561.041	12010.31
561.404	12021.6
561.767	11947.71
562.129	11957.43
562.492	11993.36
562.854	11985
563.217	11975.96
563.579	11968.5
563.941	11980.25
564.304	12049.4
564.666	12166.46
565.028	12003.07
565.39	11996.97
565.753	12003.53
566.115	12105.44
566.477	12072.45
566.839	12130.75
567.201	12127.82
567.563	12168.27
567.925	12110.87
568.287	12116.52
568.648	12103.86
569.01	12237.87
569.372	12255.27
569.734	12119.68
570.095	12249.4
570.457	12233.8
570.819	12287.13
571.18	12240.81
571.542	12300.02
571.903	12272.22
572.265	12260.92
572.626	12322.61
572.987	12355.38
573.349	12309.51
573.71	12378.43
574.071	12332.33
574.432	12328.04
574.794	12448.49
575.155	12428.6
575.516	12362.39
575.877	12447.36
576.238	12394.02
576.599	12464.76
576.96	12411.65
577.32	12446.9
577.681	12474.93
578.042	12468.82
578.403	12481.48
578.763	12493.68
579.124	12542.72
579.485	12479.22
579.845	12526.45
580.206	12415.04
580.566	12478.09
580.927	12486.23
581.287	12521.25
581.648	12412.33
582.008	12453.68
582.368	12424.76
582.728	12494.36
583.089	12407.13
583.449	12431.99
583.809	12487.81
584.169	12436.74
584.529	12299.79
584.889	12497.98
585.249	12339.34
585.609	12316.51
585.969	12360.35
586.329	12377.08
586.688	12332.33
587.048	12349.96
587.408	12298.66
587.768	12343.63
588.127	12326
588.487	12312.44
588.846	12328.94
589.206	12309.05
589.565	12344.08
589.925	12274.25
590.284	12244.65
590.643	12291.2
591.003	12333.01
591.362	12311.31
591.721	12288.94
592.08	12283.52
592.44	12264.99
592.799	12215.27
593.158	12162.84
593.517	12192.9
593.876	12191.77
594.235	12269.51
594.593	12142.73
594.952	12240.36
595.311	12178.66
595.67	12208.72
596.029	12225.44
596.387	12229.28
596.746	12214.82
597.104	12150.64
597.463	12051.43
597.822	12257.98
598.18	12117.2
598.538	12124.2
598.897	12207.36
599.255	12167.36
599.613	12252.56
599.972	12147.48
600.33	12192.22
600.688	12154.03
601.046	12181.15
601.404	12300.69
601.762	12227.7
602.12	12229.96
602.478	12118.78
602.836	12199.91
603.194	12135.5
603.552	12177.53
603.91	12181.15
604.268	12224.09
604.625	12169.17
604.983	12179.57
605.341	12211.66
605.698	12164.65
606.056	12164.88
606.413	12165.78
606.771	12202.39
607.128	12164.88
607.485	12159
607.843	12186.35
608.2	12204.65
608.557	12213.24
608.914	12201.26
609.272	12245.78
609.629	12248.04
609.986	12347.47
610.343	12191.32
610.7	12331.43
611.057	12271.09
611.414	12284.2
611.771	12226.57
612.127	12342.5
612.484	12326
612.841	12387.02
613.198	12368.94
613.554	12219.57
613.911	12323.74
614.267	12361.26
614.624	12350.86
614.98	12372.78
615.337	12385.89
615.693	12448.49
616.05	12384.08
616.406	12411.65
616.762	12417.53
617.118	12443.29
617.475	12422.05
617.831	12477.86
618.187	12554.25
618.543	12455.72
618.899	12587.47
619.255	12516.73
619.611	12476.28
619.967	12521.48
620.323	12603.51
620.678	12536.85
621.034	12476.06
621.39	12498.65
621.746	12506.11
622.101	12674.69
622.457	12527.58
622.812	12548.37
623.168	12558.31
623.523	12522.38
623.879	12597.86
624.234	12454.14
624.589	12553.79
624.945	12462.72
625.3	12516.06
625.655	12545.21
626.01	12550.63
626.365	12528.94
626.72	12496.85
627.075	12535.04
627.43	12488.71
627.785	12482.16
628.14	12469.95
628.495	12586.56
628.85	12463.85
629.205	12452.33
629.559	12558.54
629.914	12422.27
630.269	12471.31
630.623	12450.75
630.978	12488.71
631.332	12389.73
631.687	12485.55
632.041	12468.82
632.396	12400.13
632.75	12407.13
633.104	12371.43
633.459	12329.85
633.813	12309.28
634.167	12321.94
634.521	12302.73
634.875	12300.69
635.229	12250.75
635.583	12316.51
635.937	12244.42
636.291	12252.33
636.645	12230.64
636.999	12162.17
637.352	12185.67
637.706	12125.56
638.06	12214.14
638.413	12140.7
638.767	12121.94
639.121	12164.65
639.474	12029.29
639.828	12098.44
640.181	12051.89
640.534	12107.25
640.888	12058.89
641.241	11952.23
641.594	12043.53
641.947	11974.83
642.301	12047.37
642.654	12030.19
643.007	12036.75
643.36	12006.92
643.713	11969.85
644.066	11958.1
644.419	11955.62
644.771	11878.33
645.124	11788.62
645.477	11765.11
645.83	11669.07
646.182	11663.87
646.535	11535.29
646.888	11566.7
647.24	11480.83
647.593	11553.82
647.945	11526.93
648.298	11498
648.65	11505.23
649.002	11525.12
649.355	11600.82
649.707	11524.44
650.059	11603.31
650.411	11768.28
650.763	11747.71
651.115	11821.16
651.467	11789.07
651.819	11795.62
652.171	11725.34
652.523	11851.89
652.875	11772.57
653.227	11757.43
653.578	11778.45
653.93	11860.25
654.282	11714.49
654.633	11806.24
654.985	11746.36
655.337	11761.27
655.688	11821.38
656.039	11788.84
656.391	11691.44
656.742	11666.36
657.094	11741.61
657.445	11753.82
657.796	11768.96
658.147	11770.99
658.498	11741.39
658.849	11730.54
659.2	11795.62
659.551	11659.58
659.902	11776.64
660.253	11765.79
660.604	11806.92
660.955	11751.78
661.306	11781.84
661.656	11829.97
662.007	11837.2
662.358	11829.29
662.708	11767.6
663.059	11873.13
663.409	11665.23
663.76	11811.89
664.11	11808.96
664.461	11859.35
664.811	11877.65
665.161	11913.13
665.511	11829.07
665.862	11866.13
666.212	11887.6
666.562	11829.52
666.912	11826.58
667.262	11825.9
667.612	11910.42
667.962	11893.25
668.312	11823.64
668.662	11875.62
669.011	11875.39
669.361	11709.3
669.711	11818.22
670.06	11736.41
670.41	11806.47
670.76	11787.71
671.109	11856.64
671.459	11773.02
671.808	11821.38
672.157	11799.46
672.507	11643.54
672.856	11715.4
673.205	11819.12
673.554	11752.01
673.904	11719.47
674.253	11815.06
674.602	11657.55
674.951	11473.14
675.3	11534.39
675.649	11645.8
675.998	11597.66
676.346	11709.75
676.695	11733.93
677.044	11601.73
677.393	11589.53
677.741	11634.95
678.09	11571.45
678.438	11600.15
678.787	11577.77
679.135	11562.41
679.484	11516.53
679.832	11513.82
680.181	11411.23
680.529	11472.24
680.877	11380.04
681.225	11474.73
681.573	11451.68
681.922	11450.32
682.27	11370.77
682.618	11400.15
682.966	11302.98
683.314	11363.99
683.661	11282.42
684.009	11344.11
684.357	11213.94
684.705	11200.84
685.053	11261.4
685.4	11195.86
685.748	11224.79
686.095	11145.47
686.443	11142.76
686.79	11156.54
687.138	11087.84
687.485	11173.94
687.832	11044.68
688.18	11061.18
688.527	10959.03
688.874	10960.16
689.221	10906.38
689.568	10879.26
689.915	10942.76
690.262	10954.51
690.609	10860.51
690.956	10807.63
691.303	10763.11
691.65	10738.93
691.997	10705.03
692.344	10630.23
692.69	10641.75
693.037	10649.44
693.383	10570.8
693.73	10512.72
694.077	10500.97
694.423	10471.82
694.769	10355.89
695.116	10331.71
695.462	10311.59
695.808	10326.73
696.155	10320.63
696.501	10246.74
696.847	10206.74
697.193	10160.18
697.539	10149.34
697.885	10159.73
698.231	10031.83
698.577	10070.92
698.923	10014.65
699.269	9886.97
699.614	9954.77
699.96	9868.89
700.306	9925.84
700.651	9852.17
700.997	9807.2
701.342	9787.77
701.688	9713.64
702.033	9738.28
702.379	9679.97
702.724	9685.62
703.069	9679.75
703.415	9538.28
703.76	9550.48
704.105	9607.88
704.45	9563.14
704.795	9460.77
705.14	9432.97
705.485	9421
705.83	9416.93
706.175	9339.87
706.52	9349.13
706.865	9269.81
707.209	9333.31
707.554	9245.86
707.899	9243.37
708.243	9213.54
708.588	9189.36
708.932	9122.47
709.277	9098.52
709.621	9085.41
709.966	9018.07
710.31	9018.29
710.654	8981.91
710.998	8968.35
711.342	9016.49
711.687	8983.49
712.031	8953.21
712.375	8863.04
712.719	8895.81
713.063	8861.69
713.407	8904.4
713.75	8824.4
714.094	8769.26
714.438	8723.84
714.782	8773.1
715.125	8754.57
715.469	8737.4
715.812	8748.02
716.156	8667.57
716.499	8674.12
716.843	8707.57
717.186	8636.84
717.53	8695.14
717.873	8700.79
718.216	8650.39
718.559	8616.95
718.902	8598.87
719.246	8645.65
719.589	8532.21
719.932	8564.75
720.275	8513.9
720.617	8549.83
720.96	8531.3
721.303	8488.14
721.646	8532.66
721.989	8481.58
722.331	8472.55
722.674	8468.48
723.016	8519.78
723.359	8455.37
723.701	8462.6
724.044	8381.93
724.386	8391.64
724.729	8412.21
725.071	8442.26
725.413	8409.5
725.755	8397.75
726.097	8320.01
726.439	8315.26
726.782	8340.12
727.124	8394.36
727.465	8331.08
727.807	8299.89
728.149	8326.33
728.491	8337.18
728.833	8315.94
729.175	8266.22
729.516	8316.39
729.858	8287.24
730.199	8263.51
730.541	8305.32
730.882	8297.86
731.224	8305.54
731.565	8323.17
731.906	8309.61
732.248	8289.95
732.589	8250.63
732.93	8218.54
733.271	8241.82
733.612	8256.05
733.953	8287.24
734.294	8237.98
734.635	8255.15
734.976	8282.04
735.317	8205.66
735.658	8231.2
735.999	8278.65
736.339	8237.98
736.68	8235.04
737.021	8307.35
737.361	8288.6
737.702	8369.27
738.042	8294.92
738.383	8278.2
738.723	8301.93
739.063	8385.77
739.404	8319.1
739.744	8349.61
740.084	8290.86
740.424	8329.72
740.764	8311.65
741.104	8377.41
741.444	8398.65
741.784	8312.1
742.124	8416.73
742.464	8433.22
742.804	8431.42
743.143	8451.08
743.483	8463.05
743.823	8431.42
744.162	8503.73
744.502	8493.34
744.841	8503.05
745.181	8587.12
745.52	8561.58
745.86	8623.73
746.199	8609.27
746.538	8705.99
746.877	8689.94
747.216	8745.08
747.556	8787.34
747.895	8890.61
748.234	8894.46
748.573	8979.65
748.911	8989.14
749.25	9040.89
749.589	9061.23
749.928	9170.83
750.267	9256.03
750.605	9211.28
750.944	9367.66
751.283	9409.24
751.621	9569.01
751.96	9574.21
752.298	9664.83
752.636	9715
752.975	9849.01
753.313	9911.83
753.651	9947.08
753.989	10067.08
754.327	10133.07
754.666	10212.61
755.004	10371.93
755.342	10494.41
755.679	10566.5
756.017	10666.84
756.355	10888.08
756.693	10944.12
757.031	11097.11
757.368	11204.9
757.706	11325.13
758.044	11453.48
758.381	11565.8
758.719	11790.2
759.056	11943.64
759.394	12032.45
759.731	12155.16
760.068	12349.73
760.405	12361.48
760.743	12577.75
761.08	12731.87
761.417	12892.77
761.754	13035.59
762.091	13247.11
762.428	13404.85
762.765	13344.28
763.102	13658.62
763.438	13803.48
763.775	13886.41
764.112	14107.2
764.449	14230.36
764.785	14417.47
765.122	14552.61
765.458	14655.89
765.795	14800.97
766.131	14961.64
766.467	15034.63
766.804	15085.71
767.14	15300.39
767.476	15365.92
767.812	15496.32
768.148	15718.68
768.485	15772.69
768.821	15899.69
769.157	16028.28
769.492	16136.75
769.828	16258.33
770.164	16223.98
770.5	16382.39
770.836	16595.04
771.171	16555.5
771.507	16633.69
771.842	16704.19
772.178	16810.63
772.513	16917.97
772.849	17013.34
773.184	17055.82
773.519	17154.13
773.855	17150.96
774.19	17402.71
774.525	17338.3
774.86	17370.16
775.195	17550.27
775.53	17507.34
775.865	17465.08
776.2	17451.74
776.535	17513.89
776.87	17560.67
777.205	17566.09
777.539	17547.79
777.874	17839.53
778.209	17610.61
778.543	17780.32
778.878	17646.77
779.212	17853.54
779.547	17789.36
779.881	17943.71
780.215	17843.82
780.55	17877.95
780.884	17910.49
781.218	17862.58
781.552	17941.68
781.886	17862.58
782.22	17831.62
782.554	17821
782.888	17777.84
783.222	17809.02
783.556	17799.08
783.889	17783.49
784.223	17799.31
784.557	17785.07
784.89	17776.48
785.224	17771.96
785.557	17674.56
785.891	17808.35
786.224	17631.17
786.558	17807.89
786.891	17682.92
787.224	17595.7
787.557	17554.34
787.891	17678.86
788.224	17581.01
788.557	17570.61
788.89	17541.91
789.223	17561.35
789.556	17422.37
789.888	17475.02
790.221	17492.87
790.554	17349.83
790.887	17313.9
791.219	17247
791.552	17229.38
791.884	17131.98
792.217	17258.76
792.549	17058.08
792.882	17086.56
793.214	17082.49
793.546	17095.14
793.879	17066.44
794.211	16948.71
794.543	17092.43
794.875	17011.3
795.207	17024.86
795.539	16856.51
795.871	16964.75
796.203	16834.13
796.535	16711.88
796.867	16673.69
797.198	16741.93
797.53	16710.97
797.862	16655.38
798.193	16676.17
798.525	16499.23
798.856	16488.61
799.188	16367.48
799.519	16390.3
799.85	16310.76
800.182	16405.9
800.513	16314.37
800.844	16265.56
801.175	16284.77
801.506	16317.54
801.837	16192.34
802.168	16115.51
802.499	16115.28
802.83	16048.62
803.161	16024.66
803.491	16077.54
803.822	15970.88
804.153	15931.11
804.483	15792.35
804.814	15736.31
805.145	15722.98
805.475	15795.29
805.805	15694.05
806.136	15678.01
806.466	15770.66
806.796	15632.36
807.126	15552.13
807.457	15574.05
807.787	15595.3
808.117	15411.8
808.447	15428.97
808.777	15442.08
809.107	15394.62
809.436	15366.83
809.766	15316.21
810.096	15304.68
810.426	15242.31
810.755	15291.8
811.085	15161.41
811.414	15231.01
811.744	15051.13
812.073	15054.29
812.403	15045.03
812.732	14975.88
813.061	14943.79
813.39	14904.47
813.719	14899.5
814.049	14992.15
814.378	14878.25
814.707	14892.49
815.036	14774.53
815.365	14801.87
815.693	14671.48
816.022	14699.05
816.351	14641.65
816.68	14559.17
817.008	14622.89
817.337	14581.54
817.665	14471.48
817.994	14578.37
818.322	14478.94
818.651	14412.5
818.979	14363.92
819.307	14442.33
819.636	14406.4
819.964	14221.55
820.292	14434.42
820.62	14376.35
820.948	14318.95
821.276	14423.8
821.604	14375.89
821.932	14249.57
822.259	14278.04
822.587	14379.51
822.915	14323.47
823.243	14259.74
823.57	14248.66
823.898	14390.13
824.225	14292.96
824.553	14296.35
824.88	14290.92
825.207	14358.04
825.535	14278.72
825.862	14349.91
826.189	14268.55
826.516	14374.54
826.843	14337.7
827.17	14447.76
827.497	14391.49
827.824	14313.75
828.151	14381.99
828.478	14304.26
828.805	14362.79
829.131	14249.12
829.458	14270.81
829.785	14280.98
830.111	14240.53
830.438	14339.06
830.764	14380.19
831.09	14353.07
831.417	14318.27
831.743	14309.68
832.069	14252.28
832.395	14224.03
832.722	14323.92
833.048	14266.29
833.374	14214.99
833.7	14198.72
834.026	14161.66
834.351	14257.7
834.677	14147.42
835.003	14288.21
835.329	14216.58
835.654	14189.68
835.98	14119.85
836.306	14189.68
836.631	14027.43
836.956	14156.24
837.282	14088.44
837.607	14008.45
837.932	14053.42
838.258	14047.31
838.583	13991.27
838.908	14002.12
839.233	14002.12
839.558	13920.54
839.883	13771.84
840.208	13871.95
840.533	13822.24
840.858	13779.3
841.182	13894.32
841.507	13849.58
841.832	13753.76
842.156	13702.46
842.481	13752.63
842.805	13713.54
843.13	13637.16
843.454	13592.41
843.778	13559.19
844.103	13591.51
844.427	13613.43
844.751	13551.96
845.075	13469.48
845.399	13450.72
845.723	13314.23
846.047	13315.81
846.371	13206.21
846.695	13277.84
847.019	13190.16
847.343	13082.37
847.666	13045.98
847.99	12904.07
848.313	13044.63
848.637	12876.05
848.96	12907.68
849.284	12804.18
849.607	12716.5
849.931	12700.46
850.254	12624.75
850.577	12590.86
850.9	12527.58
851.223	12514.25
851.546	12448.94
851.869	12375.04
852.192	12371.43
852.515	12300.47
852.838	12359.68
853.161	12267.93
853.483	12192.45
853.806	12166.46
854.129	12161.26
854.451	12119.68
854.774	12059.12
855.096	12011.66
855.419	11954.94
855.741	11844.43
856.063	11872
856.385	11834.04
856.708	11759.46
857.03	11699.13
857.352	11715.62
857.674	11737.77
857.996	11706.81
858.318	11664.33
858.64	11614.38
858.961	11563.09
859.283	11446.25
859.605	11392.69
859.926	11442.64
860.248	11448.06
860.57	11398.8
860.891	11372.36
861.212	11340.49
861.534	11325.58
861.855	11255.3
862.176	11335.52
862.498	11336.65
862.819	11326.03
863.14	11218.91
863.461	11159.03
863.782	11211.68
864.103	11158.58
864.424	11159.25
864.745	11114.51
865.065	11082.42
865.386	11055.53
865.707	10990.67
866.027	10999.71
866.348	10950.22
866.668	11061.4
866.989	10944.35
867.309	10958.58
867.63	10959.26
867.95	10939.37
868.27	10898.02
868.59	10879.94
868.91	10848.75
869.23	10858.7
869.55	10790.22
869.87	10847.62
870.19	10779.15
870.51	10838.36
870.83	10749.77
871.15	10753.16
871.469	10681.3
871.789	10768.76
872.109	10675.43
872.428	10604.92
872.748	10711.36
873.067	10599.72
873.386	10644.01
873.706	10658.7
874.025	10605.37
874.344	10490.12
874.663	10543.23
874.982	10549.55
875.301	10517.92
875.62	10467.07
875.939	10459.39
876.258	10380.97
876.577	10403.79
876.896	10415.55
877.214	10377.81
877.533	10359.05
877.852	10400.63
878.17	10349.56
878.489	10392.95
878.807	10376.9
879.125	10312.27
879.444	10302.78
879.762	10278.83
880.08	10277.24
880.398	10206.29
880.716	10178.72
881.034	10184.14
881.352	10207.64
881.67	10118.6
881.988	10185.49
882.306	10122.67
882.624	10093.75
882.941	10074.31
883.259	9997.7
883.577	10023.01
883.894	9925.84
884.212	10009.45
884.529	9975.1
884.846	9901.43
885.164	9897.59
885.481	9848.55
885.798	9917.03
886.115	9790.03
886.432	9771.04
886.75	9742.34
887.067	9778.73
887.383	9719.07
887.7	9738.05
888.017	9745.96
888.334	9754.09
888.651	9659.63
888.967	9661.89
889.284	9619.41
889.6	9554.33
889.917	9473.42
890.233	9516.13
890.55	9493.54
890.866	9448.79
891.182	9442.69
891.498	9377.61
891.815	9326.99
892.131	9344.84
892.447	9344.61
892.763	9316.82
893.079	9237.95
893.395	9231.4
893.71	9273.43
894.026	9218.51
894.342	9102.36
894.657	9101.68
894.973	9086.31
895.289	9119.76
895.604	9077.73
895.92	8965.87
896.235	8950.95
896.55	8960.89
896.865	8920.67
897.181	8891.97
897.496	8844.51
897.811	8868.92
898.126	8783.5
898.441	8766.32
898.756	8740.56
899.071	8731.07
899.386	8682.48
899.7	8541.24
900.015	8468.48
900.33	8557.06
900.644	8555.48
900.959	8497.63
901.273	8553
901.588	8432.55
901.902	8405.65
902.216	8340.57
902.531	8369.27
902.845	8333.79
903.159	8261.93
903.473	8270.52
903.787	8146.45
904.101	8162.05
904.415	8211.76
904.729	8083.4
905.042	8078.21
905.356	8044.31
905.67	8040.24
905.984	8038.88
906.297	7968.6
906.611	7927.25
906.924	7957.98
907.237	7961.37
907.551	7854.71
907.864	7829.85
908.177	7786.24
908.491	7738.78
908.804	7773.81
909.117	7705.79
909.43	7605
909.743	7553.02
910.056	7578.78
910.368	7575.85
910.681	7568.61
910.994	7522.74
911.307	7414.27
911.619	7368.85
911.932	7480.93
912.244	7343.54
912.557	7379.24
912.869	7318.9
913.181	7289.75
913.494	7246.59
913.806	7226.25
914.118	7228.96
914.43	7184.9
914.742	7170.88
915.054	7103.09
915.366	7076.88
915.678	7032.36
915.99	6980.38
916.302	7007.5
916.613	7014.5
916.925	6923.43
917.236	6932.25
917.548	6891.57
917.859	6871.01
918.171	6761.4
918.482	6874.17
918.794	6804.79
919.105	6746.49
919.416	6758.92
919.727	6707.17
920.038	6672.59
920.349	6628.53
920.66	6591.69
920.971	6637.57
921.282	6581.07
921.593	6510.56
921.903	6550.34
922.214	6482.32
922.525	6440.06
922.835	6424.24
923.146	6365.93
923.456	6409.77
923.767	6317.8
924.077	6361.41
924.387	6283
924.697	6314.64
925.008	6230.57
925.318	6176.11
925.628	6241.64
925.938	6163.23
926.248	6166.39
926.558	6145.15
926.867	6107.41
927.177	6087.07
927.487	6049.11
927.796	5983.57
928.106	5988.32
928.416	5993.51
928.725	5989.22
929.034	5909
929.344	5930.01
929.653	5842.78
929.962	5829.9
930.271	5800.3
930.581	5796.91
930.89	5748.32
931.199	5745.84
931.508	5738.83
931.817	5754.42
932.125	5721.88
932.434	5658.61
932.743	5616.8
933.051	5609.34
933.36	5575.45
933.669	5560.08
933.977	5571.38
934.286	5572.28
934.594	5569.35
934.902	5466.07
935.21	5463.13
935.519	5423.13
935.827	5424.49
936.135	5393.76
936.443	5375.9
936.751	5344.72
937.059	5336.58
937.367	5299.3
937.674	5305.17
937.982	5262.69
938.29	5244.16
938.597	5214.78
938.905	5130.03
939.213	5158.28
939.52	5089.13
939.827	5084.39
940.135	5077.61
940.442	5096.36
940.749	5015.24
941.056	5044.16
941.363	5006.87
941.67	4956.93
941.977	4977.95
942.284	4934.56
942.591	4936.14
942.898	4924.16
943.205	4906.99
943.511	4882.58
943.818	4865.41
944.125	4797.16
944.431	4852.75
944.738	4795.35
945.044	4786.54
945.35	4757.16
945.657	4682.36
945.963	4727.33
946.269	4670.84
946.575	4652.76
946.881	4591.52
947.187	4619.31
947.493	4631.06
947.799	4633.32
948.105	4578.18
948.41	4543.38
948.716	4508.36
949.022	4535.7
949.327	4473.33
949.633	4443.5
949.938	4426.32
950.244	4424.74
950.549	4430.84
950.854	4341.35
951.16	4326.44
951.465	4353.56
951.77	4290.96
952.075	4312.65
952.38	4303.39
952.685	4278.98
952.99	4290.28
953.294	4248.93
953.599	4234.01
953.904	4179.1
954.209	4203.05
954.513	4188.82
954.818	4151.53
955.122	4117.18
955.426	4140.91
955.731	4084.19
956.035	4104.07
956.339	4054.58
956.643	4034.47
956.948	4004.87
957.252	3996.05
957.556	4045.32
957.86	3977.3
958.163	3958.09
958.467	3962.38
958.771	3948.82
959.075	3948.6
959.378	3912.21
959.682	3907.24
959.985	3850.75
960.289	3852.1
960.592	3816.17
960.896	3819.11
961.199	3772.78
961.502	3798.54
961.805	3774.14
962.108	3789.96
962.411	3752.9
962.714	3753.35
963.017	3704.54
963.32	3711.31
963.623	3676.74
963.926	3654.59
964.228	3627.25
964.531	3637.64
964.833	3638.55
965.136	3578.21
965.438	3595.16
965.741	3535.5
966.043	3577.99
966.345	3516.97
966.648	3514.94
966.95	3490.3
967.252	3476.97
967.554	3464.54
967.856	3446.69
968.158	3436.07
968.46	3428.16
968.761	3400.81
969.063	3405.79
969.365	3356.07
969.666	3373.24
969.968	3353.81
970.269	3321.04
970.571	3303.42
970.872	3305
971.174	3272.68
971.475	3281.72
971.776	3282.17
972.077	3213.7
972.378	3327.6
972.679	3233.36
972.98	3234.04
973.281	3218.45
973.582	3182.52
973.883	3154.72
974.183	3176.41
974.484	3157.88
974.785	3160.59
975.085	3134.83
975.386	3090.09
975.686	3102.52
975.986	3089.18
976.287	3079.92
976.587	3055.96
976.887	3010.54
977.187	2986.59
977.487	3041.95
977.787	2981.39
978.087	2986.81
978.387	2972.58
978.687	2959.92
978.987	2935.97
979.286	2914.95
979.586	2916.31
979.885	2920.6
980.185	2887.16
980.484	2852.35
980.784	2861.17
981.083	2855.07
981.382	2808.74
981.682	2830.43
981.981	2837.21
982.28	2779.14
982.579	2804.22
982.878	2757.44
983.177	2762.64
983.475	2769.87
983.774	2697.33
984.073	2721.96
984.372	2701.4
984.67	2682.87
984.969	2735.75
985.267	2682.42
985.566	2662.53
985.864	2638.12
986.162	2628.18
986.461	2626.6
986.759	2602.87
987.057	2639.48
987.355	2595.64
987.653	2556.09
987.951	2583.89
988.249	2568.75
988.547	2542.31
988.844	2540.95
989.142	2539.37
989.44	2497.56
989.737	2519.71
990.035	2496.88
990.332	2476.09
990.63	2485.13
990.927	2455.98
991.224	2454.85
991.521	2423.89
991.819	2416.89
992.116	2415.08
992.413	2414.17
992.71	2380.73
993.006	2369.66
993.303	2386.15
993.6	2358.13
993.897	2303.22
994.193	2320.84
994.49	2299.37
994.787	2330.79
995.083	2297.34
995.379	2283.1
995.676	2263.22
995.972	2284.01
996.268	2240.17
996.565	2243.78
996.861	2220.51
997.157	2247.62
997.453	2210.56
997.749	2214.41
998.044	2170.34
998.34	2185.71
998.636	2152.94
998.932	2150
999.227	2129.44
999.523	2133.73
999.818	2134.41
1000.114	2125.37
1000.409	2121.75
1000.704	2107.06
1001	2067.52
1001.295	2090.57
1001.59	2069.78
1001.885	2081.98
1002.18	2038.82
1002.475	2016.67
1002.77	1992.49
1003.065	1968.99
1003.359	1997.24
1003.654	1980.06
1003.949	1961.98
1004.243	1934.41
1004.538	1931.02
1004.832	1962.21
1005.127	1926.95
1005.421	1939.16
1005.715	1893.74
1006.009	1902.32
1006.304	1879.27
1006.598	1850.12
1006.892	1859.84
1007.186	1861.65
1007.48	1860.52
1007.773	1845.6
1008.067	1781.65
1008.361	1788.2
1008.655	1809.67
1008.948	1769.44
1009.242	1749.33
1009.535	1768.99
1009.829	1775.09
1010.122	1770.8
1010.415	1748.65
1010.708	1729.9
1011.001	1727.86
1011.295	1727.41
1011.588	1674.53
1011.881	1726.28
1012.173	1674.98
1012.466	1686.74
1012.759	1672.27
1013.052	1659.17
1013.344	1644.02
1013.637	1654.42
1013.93	1644.02
1014.222	1591.37
1014.514	1611.03
1014.807	1581.2
1015.099	1593.63
1015.391	1584.82
1015.683	1595.66
1015.976	1547.76
1016.268	1548.89
1016.56	1556.12
1016.851	1559.51
1017.143	1532.39
1017.435	1539.62
1017.727	1504.37
1018.018	1485.61
1018.31	1467.08
1018.602	1499.85
1018.893	1453.75
1019.185	1458.94
1019.476	1471.83
1019.767	1450.81
1020.058	1426.86
1020.35	1408.78
1020.641	1429.11
1020.932	1427.53
1021.223	1388.66
1021.514	1380.53
1021.804	1415.78
1022.095	1381.88
1022.386	1357.7
1022.677	1356.8
1022.967	1336.91
1023.258	1331.72
1023.548	1326.97
1023.839	1297.14
1024.129	1313.19
1024.419	1302.11
1024.709	1277.71
1025	1286.07
1025.29	1279.06
1025.58	1256.69
1025.87	1231.38
1026.16	1236.58
1026.449	1267.99
1026.739	1222.57
1027.029	1222.34
1027.319	1230.25
1027.608	1215.79
1027.898	1213.98
1028.187	1209.69
1028.477	1173.08
1028.766	1171.49
1029.055	1159.29
1029.344	1162
1029.634	1159.29
1029.923	1147.31
1030.212	1149.57
1030.501	1165.85
1030.79	1111.16
1031.078	1104.83
1031.367	1126.07
1031.656	1102.12
1031.945	1104.6
1032.233	1080.88
1032.522	1109.35
1032.81	1051.05
1033.099	1064.38
1033.387	1071.61
1033.675	1064.83
1033.963	1026.64
1034.251	1020.54
1034.54	1030.48
1034.828	1052.18
1035.116	1025.74
1035.403	1032.29
1035.691	1022.8
1035.979	1000.43
1036.267	999.75
1036.554	959.07
1036.842	969.47
1037.129	969.24
1037.417	961.56
1037.704	963.36
1037.992	953.42
1038.279	930.6
1038.566	956.59
1038.853	956.59
1039.14	956.59
