Data from hue_310_FLMS001491_95.txt Node
Date: Mon Feb 06 15:50:29 GMT 2017
User: dcchb
Spectrometer: FLMS00149
Trigger mode: 0
Integration Time (sec): 2.000000E-2
Scans to average: 10
Electric dark correction enabled: true
Nonlinearity correction enabled: false
Boxcar width: 0
XAxis mode: Wavelengths
Number of Pixels in Spectrum: 2048
>>>>>Begin Spectral Data<<<<<
341.393	-6.27
341.776	-6.27
342.16	-6.27
342.543	-57.34
342.927	-65.25
343.31	-65.48
343.693	-57.57
344.077	-57.57
344.46	-49.89
344.843	-70.68
345.226	-49.66
345.61	-31.58
345.993	-19.15
346.376	-6.72
346.759	0.28
347.142	21.52
347.525	40.96
347.908	51.13
348.291	95.65
348.674	88.87
349.057	109.88
349.44	118.02
349.823	145.59
350.206	155.76
350.588	186.94
350.971	226.94
351.354	228.98
351.737	235.3
352.119	249.32
352.502	260.39
352.884	262.87
353.267	282.53
353.65	291.35
354.032	302.2
354.414	284.79
354.797	304.23
355.179	314.4
355.562	323.21
355.944	317.56
356.326	332.93
356.709	335.41
357.091	321.86
357.473	335.87
357.855	318.92
358.238	325.25
358.62	327.96
359.002	332.03
359.384	333.16
359.766	335.41
360.148	321.4
360.53	338.8
360.912	325.7
361.294	337.67
361.676	328.86
362.057	322.53
362.439	328.18
362.821	348.52
363.203	323.89
363.584	312.82
363.966	324.12
364.348	318.92
364.729	311.91
365.111	295.19
365.493	312.59
365.874	324.79
366.256	324.34
366.637	304
367.019	289.09
367.4	307.39
367.781	336.09
368.163	332.03
368.544	318.92
368.925	299.03
369.306	300.84
369.688	300.61
370.069	292.48
370.45	296.55
370.831	296.55
371.212	298.13
371.593	315.53
371.974	298.81
372.355	314.62
372.736	298.81
373.117	326.83
373.498	301.97
373.879	311.46
374.26	321.18
374.641	315.3
375.021	294.29
375.402	321.4
375.783	321.18
376.163	323.66
376.544	306.49
376.925	316.66
377.305	328.18
377.686	318.24
378.066	346.94
378.447	332.48
378.827	320.27
379.208	352.14
379.588	349.65
379.968	326.38
380.349	335.41
380.729	317.56
381.109	308.3
381.489	307.85
381.87	325.47
382.25	336.77
382.63	317.56
383.01	333.83
383.39	341.29
383.77	337
384.15	360.27
384.53	337.67
384.91	311.91
385.29	346.71
385.67	338.58
386.049	342.65
386.429	342.19
386.809	332.48
387.189	355.98
387.568	347.84
387.948	339.93
388.328	343.32
388.707	363.89
389.087	347.62
389.466	353.04
389.846	385.13
390.225	356.43
390.605	369.31
390.984	366.37
391.363	350.56
391.743	353.95
392.122	376.54
392.501	385.36
392.881	372.93
393.26	368.63
393.639	344.45
394.018	368.41
394.397	389.2
394.776	381.97
395.155	369.54
395.534	376.32
395.913	351.01
396.292	378.13
396.671	387.39
397.05	415.19
397.429	392.81
397.808	386.26
398.186	386.04
398.565	396.66
398.944	370.22
399.323	407.5
399.701	397.79
400.08	391.46
400.458	400.72
400.837	421.29
401.215	397.33
401.594	412.93
401.972	407.5
402.351	405.47
402.729	408.41
403.107	419.93
403.486	430.55
403.864	437.79
404.242	434.17
404.62	425.36
404.999	412.93
405.377	434.4
405.755	428.75
406.133	449.08
406.511	477.56
406.889	440.95
407.267	465.35
407.645	462.64
408.023	472.59
408.401	482.3
408.779	482.76
409.156	470.1
409.534	499.48
409.912	498.57
410.29	503.32
410.667	499.03
411.045	505.35
411.422	498.8
411.8	536.77
412.178	544.22
412.555	549.87
412.933	541.74
413.31	520.72
413.687	563.43
414.065	546.71
414.442	567.27
414.819	589.65
415.197	566.82
415.574	588.06
415.951	616.99
416.328	584.9
416.705	609.53
417.082	597.78
417.46	610.89
417.837	640.94
418.214	636.42
418.591	659.7
418.967	663.54
419.344	668.97
419.721	666.25
420.098	660.6
420.475	673.94
420.852	689.3
421.228	730.88
421.605	719.13
421.982	738.57
422.358	735.4
422.735	730.88
423.111	732.24
423.488	748.74
423.864	758.45
424.241	756.87
424.617	794.16
424.994	781.73
425.37	748.74
425.746	779.47
426.123	794.39
426.499	826.02
426.875	824.89
427.251	820.37
427.627	834.38
428.003	859.02
428.379	870.32
428.756	878.68
429.132	898.56
429.507	905.12
429.883	893.59
430.259	936.98
430.635	895.4
431.011	934.27
431.387	940.14
431.763	957.55
432.138	959.13
432.514	957.09
432.89	994.61
433.265	996.41
433.641	994.38
434.016	1030.76
434.392	1019.69
434.767	1053.14
435.143	1075.96
435.518	1059.24
435.894	1073.7
436.269	1069.18
436.644	1093.14
437.02	1113.25
437.395	1107.6
437.77	1115.06
438.145	1118.22
438.52	1133.59
438.895	1166.81
439.271	1157.99
439.646	1205.9
440.021	1214.71
440.395	1195.05
440.77	1186.24
441.145	1217.65
441.52	1210.19
441.895	1181.72
442.27	1259.23
442.645	1212.45
443.019	1234.83
443.394	1252
443.769	1269.85
444.143	1225.56
444.518	1291.77
444.892	1266.92
445.267	1266.24
445.641	1257.88
446.016	1245.45
446.39	1315.73
446.764	1263.53
447.139	1295.16
447.513	1294.03
447.887	1292.68
448.262	1324.32
448.636	1288.61
449.01	1321.38
449.384	1322.73
449.758	1337.65
450.132	1343.3
450.506	1331.09
450.88	1355.5
451.254	1329.06
451.628	1386.23
452.002	1380.81
452.376	1382.39
452.75	1379.91
453.123	1366.12
453.497	1410.64
453.871	1403.41
454.244	1404.09
454.618	1439.34
454.992	1428.04
455.365	1445.44
455.739	1491.99
456.112	1451.09
456.486	1484.99
456.859	1513.24
457.232	1524.31
457.606	1503.97
457.979	1505.78
458.352	1532.9
458.725	1528.38
459.099	1556.85
459.472	1569.96
459.845	1594.59
460.218	1577.87
460.591	1608.6
460.964	1611.31
461.337	1650.86
461.71	1633.69
462.083	1664.65
462.456	1621.71
462.829	1671.2
463.201	1681.14
463.574	1682.05
463.947	1682.05
464.32	1698.99
464.692	1734.02
465.065	1741.93
465.438	1740.58
465.81	1760.46
466.183	1777.86
466.555	1825.55
466.928	1843.17
467.3	1838.2
467.672	1837.75
468.045	1874.58
468.417	1814.02
468.789	1867.35
469.161	1915.49
469.534	1946.9
469.906	1919.78
470.278	1925.88
470.65	1958.65
471.022	1995.48
471.394	2012.88
471.766	2035.03
472.138	2044.75
472.51	2073
472.882	2077.29
473.253	2087.91
473.625	2107.12
473.997	2147.12
474.369	2155.71
474.74	2188.93
475.112	2164.97
475.484	2244.74
475.855	2244.07
476.227	2268.7
476.598	2292.2
476.97	2357.73
477.341	2342.37
477.713	2384.63
478.084	2359.77
478.455	2439.31
478.827	2457.84
479.198	2490.16
479.569	2463.49
479.94	2560.44
480.311	2574
480.682	2596.6
481.053	2636.15
481.424	2646.99
481.795	2674.56
482.166	2694.9
482.537	2701.91
482.908	2746.2
483.279	2786.2
483.65	2776.03
484.021	2861.45
484.391	2872.98
484.762	2864.61
485.133	2901.9
485.503	2917.49
485.874	2974.22
486.244	2985.06
486.615	3058.28
486.985	3072.97
487.356	3106.19
487.726	3105.29
488.097	3206.3
488.467	3154.1
488.837	3214.21
489.207	3273.42
489.578	3286.52
489.948	3326.3
490.318	3320.65
490.688	3343.92
491.058	3382.79
491.428	3409.68
491.798	3432.73
492.168	3477.03
492.538	3478.38
492.908	3524.03
493.278	3545.05
493.648	3563.58
494.017	3599.74
494.387	3587.31
494.757	3661.66
495.126	3687.87
495.496	3638.38
495.866	3661.43
496.235	3670.02
496.605	3723.8
496.974	3768.54
497.344	3782.33
497.713	3805.61
498.082	3816
498.452	3854.64
498.821	3825.94
499.19	3865.72
499.559	3882.44
499.928	3915.21
500.298	3904.36
500.667	3988.2
501.036	3947.52
501.405	3958.14
501.774	3999.73
502.143	4011.02
502.512	4006.5
502.88	4041.98
503.249	4037.92
503.618	4049.22
503.987	4073.4
504.356	4088.31
504.724	4059.61
505.093	4083.56
505.462	4086.05
505.83	4114.3
506.199	4174.41
506.567	4171.25
506.936	4140.96
507.304	4196.1
507.672	4213.05
508.041	4242.43
508.409	4260.51
508.777	4266.61
509.145	4298.93
509.514	4305.93
509.882	4300.28
510.25	4335.99
510.618	4330.79
510.986	4308.42
511.354	4339.15
511.722	4392.94
512.09	4394.74
512.458	4393.84
512.826	4381.86
513.193	4415.99
513.561	4438.36
513.929	4432.03
514.297	4463.67
514.664	4545.7
515.032	4496.66
515.4	4508.41
515.767	4513.16
516.135	4528.52
516.502	4474.29
516.869	4541.18
517.237	4574.85
517.604	4520.39
517.972	4592.25
518.339	4612.36
518.706	4567.17
519.073	4615.98
519.44	4674.28
519.808	4646.94
520.175	4631.8
520.542	4709.54
520.909	4700.72
521.276	4700.05
521.643	4730.55
522.009	4759.71
522.376	4782.08
522.743	4769.42
523.11	4797.22
523.477	4814.85
523.843	4857.78
524.21	4880.15
524.577	4914.5
524.943	4899.81
525.31	4917.22
525.676	4954.05
526.043	5027.72
526.409	5012.35
526.776	5083.99
527.142	5047.83
527.508	5158.34
527.874	5097.1
528.241	5166.93
528.607	5195.85
528.973	5199.02
529.339	5187.72
529.705	5202.41
530.071	5314.04
530.437	5275.17
530.803	5327.37
531.169	5326.47
531.535	5321.72
531.901	5333.02
532.267	5392.68
532.632	5390.88
532.998	5415.96
533.364	5417.32
533.73	5494.38
534.095	5508.61
534.461	5513.36
534.826	5514.71
535.192	5581.6
535.557	5604.43
535.923	5541.61
536.288	5612.79
536.653	5670.87
537.019	5699.12
537.384	5644.65
537.749	5699.12
538.114	5723.07
538.479	5735.27
538.845	5784.99
539.21	5744.31
539.575	5758.1
539.94	5796.74
540.305	5814.82
540.67	5849.39
541.034	5902.95
541.399	5895.72
541.764	5945.66
542.129	5989.05
542.494	5940.01
542.858	6035.6
543.223	6038.09
543.587	6071.99
543.952	6027.69
544.316	6108.37
544.681	6099.78
545.045	6203.96
545.41	6151.08
545.774	6227.92
546.138	6238.99
546.503	6236.5
546.867	6234.02
547.231	6312.66
547.595	6316.95
547.959	6338.87
548.324	6327.57
548.688	6411.64
549.052	6364.18
549.416	6402.15
549.779	6414.35
550.143	6416.38
550.507	6477.63
550.871	6535.93
551.235	6567.34
551.599	6566.66
551.962	6570.96
552.326	6602.59
552.689	6581.35
553.053	6602.37
553.417	6636.94
553.78	6721.46
554.143	6739.54
554.507	6672.88
554.87	6745.42
555.234	6792.19
555.597	6785.87
555.96	6835.13
556.323	6790.84
556.686	6860.67
557.05	6855.02
557.413	6860.89
557.776	6888.01
558.139	6917.16
558.502	6923.26
558.865	6960.78
559.228	6944.51
559.59	7019.98
559.953	6998.52
560.316	7075.58
560.679	7099.3
561.041	7107.89
561.404	7098.63
561.767	7170.94
562.129	7174.78
562.492	7165.74
562.854	7256.36
563.217	7252.52
563.579	7236.93
563.941	7229.92
564.304	7302.92
564.666	7387.66
565.028	7305.63
565.39	7345.4
565.753	7349.24
566.115	7393.99
566.477	7417.71
566.839	7457.04
567.201	7514.66
567.563	7456.13
567.925	7552.17
568.287	7566.41
568.648	7642.12
569.01	7633.3
569.372	7675.79
569.734	7717.14
570.095	7638.73
570.457	7826.52
570.819	7789.68
571.18	7778.84
571.542	7806.63
571.903	7961.2
572.265	7908.78
572.626	7990.13
572.987	8077.81
573.349	8086.62
573.71	8103.8
574.071	8182.21
574.432	8296.79
574.794	8283
575.155	8288.2
575.516	8378.14
575.877	8434.86
576.238	8492.71
576.599	8605.25
576.96	8658.59
577.32	8676.44
577.681	8797.57
578.042	8849.54
578.403	8911.23
578.763	9023.32
579.124	9080.04
579.485	9256.76
579.845	9339.25
580.206	9446.36
580.566	9510.31
580.927	9706.02
581.287	9761.38
581.648	9954.82
582.008	10050.41
582.368	10190.97
582.728	10257.64
583.089	10526.56
583.449	10685.43
583.809	10867.57
584.169	11078.86
584.529	11230.72
584.889	11507.1
585.249	11576.02
585.609	11835
585.969	12116.57
586.329	12275.67
586.688	12506.17
587.048	12646.05
587.408	12946.83
587.768	13181.63
588.127	13389.31
588.487	13664.78
588.846	13944.77
589.206	14097.31
589.565	14383.18
589.925	14721.93
590.284	14972.54
590.643	15276.04
591.003	15568.69
591.362	15863.59
591.721	16181.1
592.08	16351.72
592.44	16713.52
592.799	17007.07
593.158	17236.21
593.517	17545.81
593.876	17911.22
594.235	18170.43
594.593	18552.34
594.952	18813.8
595.311	19111.42
595.67	19333.56
596.029	19831.63
596.387	20090.15
596.746	20500.99
597.104	20547.99
597.463	20959.73
597.822	21370.12
598.18	21488.08
598.538	21872.25
598.897	22295.74
599.255	22373.03
599.613	22982.73
599.972	23137.75
600.33	23599.66
600.688	23717.17
601.046	24172.08
601.404	24531.16
601.762	24759.41
602.12	25093.63
602.478	25259.05
602.836	25639.16
603.194	25795.54
603.552	26255.41
603.91	26268.74
604.268	26703.31
604.625	26993.7
604.983	27266.68
605.341	27343.97
605.698	27753
606.056	28058.53
606.413	28216.26
606.771	28536.26
607.128	28811.95
607.485	28966.98
607.843	29286.07
608.2	29553.18
608.557	29888.99
608.914	29964.69
609.272	30293.95
609.629	30625.24
609.986	30942.52
610.343	31010.99
610.7	31309.29
611.057	31464.99
611.414	31579.11
611.771	31934.58
612.127	32108.36
612.484	32322.6
612.841	32509.94
613.198	32608.24
613.554	32761.23
613.911	33124.16
614.267	33156.25
614.624	33392.62
614.98	33674.65
615.337	33866.28
615.693	33986.06
616.05	34130.68
616.406	34402.32
616.762	34502.88
617.118	34558.7
617.475	34762.53
617.831	35019.93
618.187	35103.54
618.543	35249.07
618.899	35560.7
619.255	35614.94
619.611	35638.67
619.967	35847.93
620.323	36050.18
620.678	35998.21
621.034	36194.36
621.39	36211.31
621.746	36183.96
622.101	36759.99
622.457	36616.49
622.812	36785.53
623.168	36936.49
623.523	37141.23
623.879	37290.38
624.234	37126.31
624.589	37165.41
624.945	37252.86
625.3	37492.86
625.655	37704.38
626.01	37805.84
626.365	37752.06
626.72	37859.17
627.075	37947.31
627.43	37858.95
627.785	37768.78
628.14	38071.82
628.495	38207.64
628.85	38218.03
629.205	38052.16
629.559	38280.63
629.914	38160.64
630.269	38324.7
630.623	38226.4
630.978	38186.4
631.332	38478.14
631.687	38527.41
632.041	38484.02
632.396	38499.16
632.75	38386.39
633.104	38659.38
633.459	38357.69
633.813	38468.88
634.167	38508.2
634.521	38523.56
634.875	38567.18
635.229	38536.67
635.583	38435.2
635.937	38395.21
636.291	38437.69
636.645	38655.76
636.999	38535.31
637.352	38582.32
637.706	38413.96
638.06	38506.16
638.413	38514.75
638.767	38405.83
639.121	38571.92
639.474	38424.36
639.828	38486.95
640.181	38473.85
640.534	38513.39
640.888	38409.44
641.241	38263.46
641.594	38349.56
641.947	38545.71
642.301	38483.56
642.654	38425.03
643.007	38469.1
643.36	38235.21
643.713	38421.42
644.066	38430.23
644.419	38125.16
644.771	38099.39
645.124	37672.74
645.477	37626.19
645.83	37512.97
646.182	37338.51
646.535	37185.52
646.888	37310.94
647.24	37102.81
647.593	37261.22
647.945	37338.28
648.298	37079.31
648.65	37155.01
649.002	37036.6
649.355	37113.88
649.707	37060.1
650.059	37333.76
650.411	37740.08
650.763	37739.86
651.115	38147.98
651.467	37990.47
651.819	38009.45
652.171	37870.02
652.523	37864.6
652.875	37803.81
653.227	37859.85
653.578	38074.31
653.93	37954.09
654.282	37761.78
654.633	37606.3
654.985	37747.99
655.337	37877.25
655.688	37787.76
656.039	38019.85
656.391	37644.72
656.742	37719.52
657.094	37700.08
657.445	37884.71
657.796	37710.48
658.147	37581.67
658.498	37784.37
658.849	37709.12
659.2	37631.16
659.551	37539.63
659.902	37721.1
660.253	37644.49
660.604	37740.08
660.955	37533.31
661.306	37734.66
661.656	37583.93
662.007	37686.3
662.358	37747.54
662.708	37578.73
663.059	37526.98
663.409	37311.39
663.76	37707.31
664.11	37680.65
664.461	37681.78
664.811	37621.89
665.161	37640.2
665.511	37596.36
665.862	37621.21
666.212	37630.71
666.562	37667.31
666.912	37590.71
667.262	37489.92
667.612	37505.29
667.962	37491.27
668.312	37468.22
668.662	37594.77
669.011	37365.63
669.361	37399.98
669.711	37462.8
670.06	37354.78
670.41	37353.88
670.76	37316.36
671.109	37468.45
671.459	37385.06
671.808	37291.73
672.157	37310.94
672.507	37202.24
672.856	37188.46
673.205	37206.76
673.554	37408.56
673.904	37198.17
674.253	37445.4
674.602	37344.39
674.951	36826.43
675.3	36540.79
675.649	37137.16
675.998	37106.88
676.346	37192.75
676.695	37228
677.044	37045.41
677.393	37198.17
677.741	37081.12
678.09	36962.7
678.438	36992.98
678.787	37117.95
679.135	37018.29
679.484	36884.28
679.832	36971.06
680.181	36698.53
680.529	36850.84
680.877	36726.55
681.225	36796.6
681.573	36912.31
681.922	36734.46
682.27	36530.62
682.618	36591.41
682.966	36498.31
683.314	36538.08
683.661	36425.09
684.009	36243.85
684.357	36208.82
684.705	36156.39
685.053	36318.2
685.4	36197.52
685.748	36009.96
686.095	36094.47
686.443	35916.17
686.79	35762.28
687.138	35960.92
687.485	35873.01
687.832	35641.83
688.18	35732.9
688.527	35654.71
688.874	35538.11
689.221	35550.76
689.568	35305.12
689.915	35336.75
690.262	35336.53
690.609	35232.35
690.956	35056.99
691.303	35064.9
691.65	35008.85
691.997	34982.41
692.344	34734.74
692.69	34737
693.037	34702.42
693.383	34513.95
693.73	34640.95
694.077	34375.88
694.423	34332.26
694.769	34309.44
695.116	34248.87
695.462	34232.6
695.808	34102.44
696.155	34149.67
696.501	33864.7
696.847	33870.8
697.193	33646.86
697.539	33683.01
697.885	33427.43
698.231	33475.33
698.577	33426.07
698.923	33411.61
699.269	33187.21
699.614	33084.38
699.96	33087.77
700.306	33082.8
700.651	32939.53
700.997	32862.7
701.342	32745.64
701.688	32664.28
702.033	32651.4
702.379	32594.68
702.724	32472.42
703.069	32535.02
703.415	32085.54
703.76	32119.66
704.105	32165.99
704.45	32010.29
704.795	31999.44
705.14	31987.01
705.485	31850.52
705.83	31664.99
706.175	31812.78
706.52	31676.51
706.865	31501.83
707.209	31612.33
707.554	31424.09
707.899	31420.7
708.243	31284.88
708.588	31160.37
708.932	31034.27
709.277	31041.95
709.621	30897.55
709.966	30806.48
710.31	30893.48
710.654	30669.31
710.998	30752.92
711.342	30726.25
711.687	30659.36
712.031	30509.31
712.375	30460.72
712.719	30396.55
713.063	30440.61
713.407	30452.59
713.75	30312.71
714.094	30247.4
714.438	30028.65
714.782	30046.5
715.125	30131.47
715.469	30043.79
715.812	29845.83
716.156	29651.93
716.499	29740.74
716.843	29801.53
717.186	29699.84
717.53	29862.77
717.873	29705.72
718.216	29586.62
718.559	29486.51
718.902	29318.16
719.246	29436.12
719.589	29279.74
719.932	29157.48
720.275	29209.46
720.617	29117.03
720.96	29095.34
721.303	29119.52
721.646	28979.86
721.989	28820.09
722.331	28925.85
722.674	28847.89
723.016	28862.35
723.359	28905.06
723.701	28837.72
724.044	28723.14
724.386	28616.25
724.729	28768.57
725.071	28515.01
725.413	28505.07
725.755	28515.69
726.097	28503.94
726.439	28270.73
726.782	28273.66
727.124	28351.18
727.465	28239.99
727.807	28296.04
728.149	28169.71
728.491	28090.39
728.833	28229.37
729.175	28057.4
729.516	27882.26
729.858	27959.77
730.199	27904.41
730.541	27798.42
730.882	27811.75
731.224	27951.64
731.565	27722.27
731.906	27734.92
732.248	27788.25
732.589	27589.16
732.93	27527.92
733.271	27499.67
733.612	27612.21
733.953	27586.45
734.294	27440.46
734.635	27404.53
734.976	27424.87
735.317	27181.04
735.658	27215.39
735.999	27174.48
736.339	27224.43
736.68	27253.35
737.021	27289.06
737.361	26950.53
737.702	27227.14
738.042	26968.61
738.383	27052.68
738.723	27007.93
739.063	27001.61
739.404	26932.23
739.744	26811.33
740.084	26650.43
740.424	26637.55
740.764	26551.45
741.104	26804.78
741.444	26602.07
741.784	26513.71
742.124	26612.92
742.464	26523.88
742.804	26484.78
743.143	26389.19
743.483	26374.96
743.823	26251.12
744.162	26312.13
744.502	26360.27
744.841	26041.41
745.181	26317.1
745.52	26075.3
745.86	26172.93
746.199	26053.16
746.538	26095.19
746.877	26102.2
747.216	26041.41
747.556	25842.09
747.895	25869.66
748.234	25706.05
748.573	25723
748.911	25773.16
749.25	25668.31
749.589	25680.96
749.928	25588.99
750.267	25584.47
750.605	25460.18
750.944	25520.06
751.283	25359.39
751.621	25464.02
751.96	25232.16
752.298	25361.65
752.636	25396.45
752.975	25108.32
753.313	25156.46
753.651	25131.6
753.989	24976.12
754.327	25001.66
754.666	24897.93
755.004	24890.7
755.342	24968.67
755.679	24916.01
756.017	24720.08
756.355	24769.8
756.693	24655
757.031	24643.93
757.368	24501.79
757.706	24433.99
758.044	24387.44
758.381	24393.31
758.719	24315.35
759.056	24350.83
759.394	24183.38
759.731	24126.43
760.068	24037.16
760.405	23901.35
760.743	23947.9
761.08	24012.98
761.417	23822.48
761.754	23714.91
762.091	23702.03
762.428	23700.68
762.765	23467.91
763.102	23522.15
763.438	23329.84
763.775	23273.57
764.112	23274.25
764.449	23293.68
764.785	23231.54
765.122	23048.94
765.458	22941.15
765.795	22902.05
766.131	22841.26
766.467	22719.46
766.804	22642.85
767.14	22502.06
767.476	22535.51
767.812	22465.91
768.148	22490.31
768.485	22319.24
768.821	22094.16
769.157	22193.15
769.492	22107.5
769.828	22088.29
770.164	21893.04
770.5	21853.04
770.836	21889.88
771.171	21637.91
771.507	21693.27
771.842	21570.11
772.178	21640.17
772.513	21499.83
772.849	21411.92
773.184	21274.07
773.519	21387.74
773.855	21180.74
774.19	21027.07
774.525	20987.3
774.86	20938.26
775.195	20956.12
775.53	20808.1
775.865	20708.89
776.2	20636.12
776.535	20533.98
776.87	20533.08
777.205	20334.89
777.539	20237.26
777.874	20282.46
778.209	20152.75
778.543	20126.31
778.878	20051.28
779.212	20054.44
779.547	19882.02
779.881	19987.78
780.215	19817.39
780.55	19765.41
780.884	19632.08
781.218	19551.41
781.552	19588.92
781.886	19556.6
782.22	19386.89
782.554	19339.66
782.888	19152.32
783.222	19086.79
783.556	19015.15
783.889	19033.45
784.223	18804.99
784.557	18788.94
784.89	18797.53
785.224	18677.76
785.557	18637.31
785.891	18587.82
786.224	18473.47
786.558	18550.76
786.891	18368.61
787.224	18238.45
787.557	18205.91
787.891	18195.28
788.224	18135.62
788.557	18116.42
788.89	18119.58
789.223	18046.59
789.556	17882.07
789.888	17819.02
790.221	17781.51
790.554	17668.29
790.887	17584.23
791.219	17591.46
791.552	17534.74
791.884	17515.3
792.217	17431.91
792.549	17283.9
792.882	17247.74
793.214	17215.88
793.546	17154.41
793.879	17040.74
794.211	16971.81
794.543	17057.24
794.875	17021.53
795.207	17069.66
795.539	16871.7
795.871	16917.58
796.203	16696.79
796.535	16633.29
796.867	16555.78
797.198	16537.47
797.53	16521.88
797.862	16394.65
798.193	16481.21
798.525	16291.83
798.856	16415.67
799.188	16172.51
799.519	16112.18
799.85	16071.05
800.182	16070.14
800.513	16038.05
800.844	16021.56
801.175	16038.05
801.506	15926.42
801.837	15889.36
802.168	15827.21
802.499	15727.33
802.83	15667.22
803.161	15625.86
803.491	15586.54
803.822	15635.13
804.153	15523.04
804.483	15428.13
804.814	15326.43
805.145	15307.45
805.475	15307.9
805.805	15250.73
806.136	15239.2
806.466	15259.77
806.796	15196.72
807.126	15126.21
807.457	14976.16
807.787	14995.37
808.117	14999.21
808.447	14822.27
808.777	14962.37
809.107	14906.56
809.436	14854.13
809.766	14819.33
810.096	14691.87
810.426	14621.82
810.755	14693.23
811.085	14636.96
811.414	14521.93
811.744	14478.55
812.073	14391.09
812.403	14514.93
812.732	14402.39
813.061	14328.49
813.39	14238.33
813.719	14220.47
814.049	14349.28
814.378	14251.43
814.707	14220.47
815.036	14200.14
815.365	14110.87
815.693	14001.27
816.022	13997.88
816.351	13989.29
816.68	13894.15
817.008	13966.02
817.337	13774.61
817.665	13753.37
817.994	13851.9
818.322	13856.64
818.651	13681.5
818.979	13658
819.307	13768.73
819.636	13600.83
819.964	13640.6
820.292	13647.83
820.62	13643.09
820.948	13529.87
821.276	13523.77
821.604	13523.32
821.932	13579.36
822.259	13578
822.587	13445.13
822.915	13535.52
823.243	13589.08
823.57	13502.07
823.898	13504.79
824.225	13443.54
824.553	13438.8
824.88	13487.39
825.207	13428.63
825.535	13457.56
825.862	13474.96
826.189	13423.88
826.516	13562.41
826.843	13486.48
827.17	13472.47
827.497	13422.75
827.824	13478.35
828.151	13470.44
828.478	13448.97
828.805	13558.57
829.131	13427.73
829.458	13427.05
829.785	13412.13
830.111	13409.42
830.438	13440.38
830.764	13454.17
831.09	13405.35
831.417	13305.92
831.743	13366.94
832.069	13398.8
832.395	13364.68
832.722	13387.05
833.048	13280.39
833.374	13350.89
833.7	13244.45
834.026	13349.08
834.351	13326.94
834.677	13249.43
835.003	13295.98
835.329	13250.56
835.654	13288.75
835.98	13187.28
836.306	13191.35
836.631	13126.72
836.956	13165.81
837.282	13215.75
837.607	13148.41
837.932	13143.21
838.258	13039.71
838.583	13081.52
838.908	13060.96
839.233	13060.28
839.558	13020.73
839.883	12960.85
840.208	12890.57
840.533	12903.9
840.858	12924.69
841.182	12847.18
841.507	12874.29
841.832	12844.46
842.156	12766.5
842.481	12760.4
842.805	12775.31
843.13	12741.19
843.454	12733.28
843.778	12606.5
844.103	12643.11
844.427	12627.07
844.751	12634.75
845.075	12510.01
845.399	12559.5
845.723	12483.8
846.047	12446.28
846.371	12367.41
846.695	12386.4
847.019	12290.58
847.343	12268.89
847.666	12110.7
847.99	12104.15
848.313	12053.98
848.637	11917.26
848.96	11988.22
849.284	11922.68
849.607	11882.23
849.931	11813.98
850.254	11748
850.577	11746.64
850.9	11602.24
851.223	11603.82
851.546	11556.36
851.869	11514.1
852.192	11474.78
852.515	11486.53
852.838	11348.46
853.161	11345.29
853.483	11356.59
853.806	11236.6
854.129	11309.36
854.451	11230.04
854.774	11178.52
855.096	11055.81
855.419	11081.12
855.741	11096.26
856.063	11010.16
856.385	11031.4
856.708	10935.59
857.03	10931.07
857.352	10942.37
857.674	10846.78
857.996	10819.43
858.318	10877.06
858.64	10805.2
858.961	10706.67
859.283	10741.69
859.605	10622.38
859.926	10569.04
860.248	10553.68
860.57	10507.12
860.891	10660.79
861.212	10542.83
861.534	10442.72
861.855	10463.28
862.176	10456.28
862.498	10516.16
862.819	10457.18
863.14	10378.09
863.461	10407.92
863.782	10400.01
864.103	10391.65
864.424	10341.48
864.745	10278.88
865.065	10240.24
865.386	10198.43
865.707	10206.34
866.027	10201.6
866.348	10192.1
866.668	10165.44
866.989	10207.47
867.309	10163.86
867.63	10126.8
867.95	10126.34
868.27	9960.92
868.59	10097.64
868.91	10007.48
869.23	10067.36
869.55	10065.1
869.87	9982.84
870.19	9973.13
870.51	10005.9
870.83	9943.52
871.15	9912.56
871.469	9915.73
871.789	9941.94
872.109	9908.04
872.428	9862.17
872.748	9898.78
873.067	9869.4
873.386	9892.68
873.706	9896.97
874.025	9801.38
874.344	9736.52
874.663	9810.65
874.982	9740.14
875.301	9747.14
875.62	9734.26
875.939	9715.96
876.258	9718.45
876.577	9593.48
876.896	9635.28
877.214	9644.32
877.533	9621.95
877.852	9567.26
878.17	9648.16
878.489	9637.54
878.807	9629.86
879.125	9543.31
879.444	9558.45
879.762	9525.91
880.08	9521.39
880.398	9369.08
880.716	9439.81
881.034	9402.97
881.352	9402.97
881.67	9403.65
881.988	9332.92
882.306	9333.82
882.624	9263.99
882.941	9263.77
883.259	9214.96
883.577	9229.42
883.894	9205.01
884.212	9204.33
884.529	9201.17
884.846	9169.31
885.164	9189.65
885.481	9148.97
885.798	9187.84
886.115	9053.83
886.432	9087.73
886.75	9016.32
887.067	9071.68
887.383	8981.52
887.7	8951.46
888.017	8970.67
888.334	8958.92
888.651	8937.22
888.967	8881.18
889.284	8865.81
889.6	8816.1
889.917	8780.39
890.233	8826.94
890.55	8705.14
890.866	8727.96
891.182	8729.09
891.498	8691.13
891.815	8708.08
892.131	8658.59
892.447	8642.32
892.763	8593.28
893.079	8534.75
893.395	8570
893.71	8570
894.026	8497.69
894.342	8488.42
894.657	8457.91
894.973	8364.81
895.289	8403.9
895.604	8399.16
895.92	8328.88
896.235	8333.4
896.55	8290.01
896.865	8328.43
897.181	8211.82
897.496	8235.55
897.811	8218.6
898.126	8160.52
898.441	8132.27
898.756	8139.96
899.071	8089.34
899.386	8030.13
899.7	7966.4
900.015	8034.2
900.33	7927.98
900.644	7883.47
900.959	7903.58
901.273	7850.92
901.588	7810.92
901.902	7797.37
902.216	7800.53
902.531	7739.97
902.845	7711.27
903.159	7659.06
903.473	7680.98
903.787	7603.02
904.101	7601.66
904.415	7564.83
904.729	7579.07
905.042	7513.31
905.356	7412.06
905.67	7487.77
905.984	7513.76
906.297	7388.79
906.611	7404.61
906.924	7339.52
907.237	7352.63
907.551	7292.75
907.864	7275.8
908.177	7251.17
908.491	7216.82
908.804	7208.91
909.117	7144.5
909.43	7120.77
909.743	7122.81
910.056	7119.42
910.368	7075.35
910.681	7016.14
910.994	6957.16
911.307	7046.65
911.619	6904.73
911.932	6932.53
912.244	6899.31
912.557	6842.81
912.869	6835.13
913.181	6770.27
913.494	6747.9
913.806	6702.03
914.118	6715.36
914.43	6707
914.742	6706.32
915.054	6627.45
915.366	6653.89
915.678	6596.95
915.99	6568.47
916.302	6465.2
916.613	6485.08
916.925	6468.81
917.236	6468.81
917.548	6413
917.859	6380.91
918.171	6316.05
918.482	6347.23
918.794	6291.64
919.105	6261.59
919.416	6239.44
919.727	6268.59
920.038	6205.32
920.349	6138.65
920.66	6124.87
920.971	6086.45
921.282	6097.75
921.593	6075.15
921.903	6050.29
922.214	6022.27
922.525	6003.97
922.835	5959.45
923.146	5933.23
923.456	5926.91
923.767	5873.57
924.077	5869.28
924.387	5896.17
924.697	5819.34
925.008	5792.9
925.318	5806.23
925.628	5784.99
925.938	5777.31
926.248	5625.45
926.558	5666.8
926.867	5595.62
927.177	5630.19
927.487	5582.73
927.796	5571.44
928.106	5557.65
928.416	5506.8
928.725	5485.11
929.034	5459.8
929.344	5527.37
929.653	5449.4
929.962	5435.85
930.271	5386.81
930.581	5359.92
930.89	5352.46
931.199	5306.13
931.508	5319.69
931.817	5282.18
932.125	5251.44
932.434	5232.91
932.743	5232.24
933.051	5188.17
933.36	5154.05
933.669	5096.42
933.977	5103.43
934.286	5139.36
934.594	5095.29
934.902	5037.89
935.21	4989.76
935.519	4976.65
935.827	5021.62
936.135	4993.15
936.443	4918.8
936.751	4914.73
937.059	4893.49
937.367	4886.26
937.674	4858.91
937.982	4842.64
938.29	4855.07
938.597	4827.27
938.905	4799.03
939.213	4789.54
939.52	4765.35
939.827	4711.8
940.135	4716.54
940.442	4682.65
940.749	4698.46
941.056	4667.28
941.363	4602.65
941.67	4547.73
941.977	4600.61
942.284	4530.33
942.591	4572.14
942.898	4518.58
943.205	4531.91
943.511	4517.68
943.818	4475.19
944.125	4430.67
944.431	4422.31
944.738	4421.41
945.044	4395.87
945.35	4356.55
945.657	4318.81
945.963	4356.1
946.269	4288.76
946.575	4304.12
946.881	4261.41
947.187	4226.39
947.493	4254.18
947.799	4231.81
948.105	4195.2
948.41	4180.96
948.716	4198.59
949.022	4140.96
949.327	4170.79
949.633	4135.31
949.938	4102.77
950.244	4087.41
950.549	4023
950.854	4049.67
951.16	4038.82
951.465	4018.93
951.77	3974.19
952.075	3980.29
952.38	3968.31
952.685	3964.25
952.99	3925.83
953.294	3884.47
953.599	3861.88
953.904	3877.47
954.209	3854.19
954.513	3804.93
954.818	3826.4
955.122	3806.06
955.426	3836.57
955.731	3778.04
956.035	3738.49
956.339	3751.82
956.643	3759.28
956.948	3739.39
957.252	3724.03
957.556	3710.92
957.86	3675.21
958.163	3673.63
958.467	3649.68
958.771	3638.6
959.075	3613.07
959.378	3609.91
959.682	3575.33
959.985	3547.76
960.289	3564.93
960.592	3525.39
960.896	3482.9
961.199	3514.99
961.502	3483.35
961.805	3435.22
962.108	3440.87
962.411	3415.56
962.714	3405.39
963.017	3448.78
963.32	3443.36
963.623	3371.27
963.926	3389.12
964.228	3389.8
964.531	3350.02
964.833	3346.64
965.136	3310.93
965.438	3285.85
965.741	3304.38
966.043	3258.73
966.345	3280.42
966.648	3222.34
966.95	3207.88
967.252	3193.87
967.554	3237.71
967.856	3212.4
968.158	3136.25
968.46	3164.04
968.761	3171.5
969.063	3176.02
969.365	3109.13
969.666	3122.46
969.968	3037.04
970.269	3047.43
970.571	3062.57
970.872	3039.3
971.174	3020.54
971.475	3006.53
971.776	3056.47
972.077	3011.5
972.378	2939.87
972.679	2965.63
972.98	2953.2
973.281	2940.32
973.582	2974.22
973.883	2934.44
974.183	2904.39
974.484	2914.33
974.785	2858.06
975.085	2844.73
975.386	2881.11
975.686	2827.55
975.986	2840.89
976.287	2821.45
976.587	2816.48
976.887	2790.27
977.187	2766.31
977.487	2800.89
977.787	2740.55
978.087	2760.66
978.387	2728.57
978.687	2731.28
978.987	2690.83
979.286	2681.57
979.586	2691.06
979.885	2659.87
980.185	2644.51
980.484	2651.96
980.784	2619.87
981.083	2638.86
981.382	2619.2
981.682	2609.71
981.981	2617.61
982.28	2588.69
982.579	2562.47
982.878	2578.97
983.177	2541.23
983.475	2545.53
983.774	2524.28
984.073	2517.28
984.372	2525.19
984.67	2472.99
984.969	2480.9
985.267	2456.26
985.566	2466.21
985.864	2469.14
986.162	2441.57
986.461	2442.7
986.759	2454.68
987.057	2407
987.355	2390.73
987.653	2412.87
987.951	2398.41
988.249	2358.19
988.547	2349.37
988.844	2356.38
989.142	2356.83
989.44	2314.35
989.737	2282.03
990.035	2354.57
990.332	2305.98
990.63	2294.23
990.927	2274.8
991.224	2283.16
991.521	2234.35
991.819	2231.64
992.116	2242.26
992.413	2213.78
992.71	2218.53
993.006	2170.39
993.303	2182.6
993.6	2170.62
993.897	2169.94
994.193	2149.83
994.49	2141.47
994.787	2135.14
995.083	2115.03
995.379	2092.66
995.676	2115.71
995.972	2109.61
996.268	2073.45
996.565	2079.1
996.861	2035.94
997.157	2065.09
997.453	2034.13
997.749	2060.79
998.044	2011.53
998.34	2007.91
998.636	1963.62
998.932	2018.76
999.227	1991.87
999.523	1991.42
999.818	1974.69
1000.114	1934.02
1000.409	1945.77
1000.704	1962.72
1001	1908.93
1001.295	1891.98
1001.59	1878.88
1001.885	1936.28
1002.18	1868.93
1002.475	1877.97
1002.77	1867.8
1003.065	1841.82
1003.359	1857.18
1003.654	1812.66
1003.949	1805.88
1004.243	1854.92
1004.538	1802.72
1004.832	1797.07
1005.127	1832.78
1005.421	1785.32
1005.715	1781.03
1006.009	1784.19
1006.304	1740.8
1006.598	1722.95
1006.892	1724.76
1007.186	1724.08
1007.48	1701.48
1007.773	1725.21
1008.067	1719.56
1008.361	1674.81
1008.655	1685.89
1008.948	1663.29
1009.242	1672.55
1009.535	1646.11
1009.829	1633.46
1010.122	1608.6
1010.415	1629.17
1010.708	1637.53
1011.001	1600.47
1011.295	1608.38
1011.588	1588.72
1011.881	1583.52
1012.173	1551.88
1012.466	1569.05
1012.759	1561.37
1013.052	1531.99
1013.344	1516.17
1013.637	1519.11
1013.93	1505.33
1014.222	1516.85
1014.514	1532.67
1014.807	1479.79
1015.099	1497.87
1015.391	1477.76
1015.683	1473.92
1015.976	1473.01
1016.268	1431.88
1016.56	1416.29
1016.851	1437.53
1017.143	1443.63
1017.435	1407.48
1017.727	1419.68
1018.018	1384.88
1018.31	1384.2
1018.602	1344.65
1018.893	1378.33
1019.185	1353.24
1019.476	1366.8
1019.767	1367.7
1020.058	1345.78
1020.35	1315.28
1020.641	1292
1020.932	1322.06
1021.223	1293.81
1021.514	1292.68
1021.804	1282.06
1022.095	1278.67
1022.386	1262.4
1022.677	1273.92
1022.967	1281.6
1023.258	1248.16
1023.548	1243.41
1023.839	1218.78
1024.129	1224.66
1024.419	1230.76
1024.709	1182.17
1025	1204.09
1025.29	1193.02
1025.58	1188.05
1025.87	1176.07
1026.16	1159.57
1026.449	1176.75
1026.739	1137.2
1027.029	1165
1027.319	1130.2
1027.608	1139.69
1027.898	1102.63
1028.187	1108.5
1028.477	1106.69
1028.766	1092.46
1029.055	1092.01
1029.344	1082.74
1029.634	1095.39
1029.923	1064.66
1030.212	1060.37
1030.501	1066.7
1030.79	1065.79
1031.078	1037.77
1031.367	1028.05
1031.656	1033.93
1031.945	1040.03
1032.233	1037.77
1032.522	1015.62
1032.81	993.93
1033.099	1006.58
1033.387	982.18
1033.675	999.35
1033.963	966.13
1034.251	963.2
1034.54	971.78
1034.828	952.35
1035.116	952.12
1035.403	945.34
1035.691	931.56
1035.979	910.99
1036.267	932.24
1036.554	928.17
1036.842	929.07
1037.129	923.2
1037.417	918.45
1037.704	906.47
1037.992	882.07
1038.279	918.45
1038.566	890.2
1038.853	890.2
1039.14	890.2
