Data from hue_240_FLMS001491_00009.txt Node
Date: Tue Feb 07 16:34:59 GMT 2017
User: dcchb
Spectrometer: FLMS00149
Trigger mode: 0
Integration Time (sec): 2.000000E-2
Scans to average: 10
Electric dark correction enabled: true
Nonlinearity correction enabled: false
Boxcar width: 0
XAxis mode: Wavelengths
Number of Pixels in Spectrum: 2048
>>>>>Begin Spectral Data<<<<<
341.393	-10.56
341.776	-10.56
342.16	-10.56
342.543	-44.01
342.927	-59.6
343.31	-46.27
343.693	-71.58
344.077	-53.5
344.46	-65.93
344.843	-71.81
345.226	-35.2
345.61	-27.97
345.993	-27.51
346.376	9.55
346.759	23.33
347.142	26.72
347.525	29.21
347.908	39.83
348.291	71.92
348.674	98.81
349.057	100.39
349.44	134.74
349.823	139.94
350.206	181.29
350.588	188.53
350.971	201.86
351.354	227.4
351.737	205.93
352.119	244.34
352.502	246.83
352.884	280.73
353.267	274.85
353.65	283.89
354.032	287.28
354.414	303.55
354.797	297.68
355.179	306.94
355.562	313.49
355.944	321.4
356.326	330.9
356.709	332.03
357.091	340.16
357.473	322.99
357.855	320.73
358.238	314.4
358.62	322.53
359.002	344.68
359.384	330.22
359.766	334.74
360.148	350.33
360.53	335.19
360.912	322.08
361.294	333.16
361.676	322.76
362.057	331.57
362.439	321.86
362.821	333.16
363.203	322.76
363.584	321.4
363.966	310.78
364.348	310.56
364.729	312.14
365.111	298.58
365.493	340.39
365.874	333.16
366.256	316.66
366.637	322.99
367.019	325.7
367.4	295.87
367.781	313.04
368.163	307.62
368.544	299.26
368.925	319.37
369.306	315.3
369.688	309.88
370.069	325.92
370.45	317.56
370.831	303.55
371.212	316.21
371.593	322.31
371.974	289.54
372.355	305.13
372.736	321.63
373.117	302.87
373.498	321.63
373.879	322.53
374.26	316.43
374.641	317.11
375.021	320.95
375.402	325.47
375.783	296.32
376.163	324.34
376.544	310.33
376.925	329.99
377.305	323.44
377.686	316.66
378.066	314.17
378.447	307.39
378.827	344.68
379.208	321.18
379.588	315.53
379.968	338.13
380.349	331.12
380.729	326.83
381.109	329.54
381.489	327.28
381.87	325.02
382.25	325.7
382.63	339.71
383.01	332.93
383.39	339.03
383.77	332.03
384.15	339.71
384.53	333.61
384.91	340.39
385.29	354.4
385.67	341.52
386.049	341.06
386.429	350.56
386.809	357.56
387.189	338.35
387.568	369.76
387.948	337.9
388.328	331.35
388.707	365.47
389.087	362.31
389.466	360.05
389.846	318.69
390.225	367.73
390.605	350.78
390.984	377.45
391.363	359.82
391.743	369.31
392.122	378.58
392.501	368.63
392.881	370.89
393.26	384.68
393.639	370.22
394.018	373.38
394.397	361.63
394.776	373.38
395.155	379.71
395.534	376.77
395.913	370.67
396.292	376.09
396.671	388.75
397.05	390.1
397.429	387.16
397.808	396.43
398.186	400.05
398.565	393.94
398.944	386.94
399.323	396.2
399.701	405.47
400.08	397.56
400.458	418.58
400.837	406.37
401.215	405.02
401.594	395.53
401.972	420.38
402.351	409.54
402.729	433.72
403.107	424.68
403.486	433.72
403.864	431.23
404.242	440.5
404.62	441.4
404.999	424
405.377	431.46
405.755	429.42
406.133	422.87
406.511	455.41
406.889	437.79
407.267	460.84
407.645	468.29
408.023	470.55
408.401	458.8
408.779	478.24
409.156	478.91
409.534	483.66
409.912	492.02
410.29	505.13
410.667	485.69
411.045	499.48
411.422	493.6
411.8	529.31
412.178	503.55
412.555	503.77
412.933	562.08
413.31	546.71
413.687	536.31
414.065	564.56
414.442	543.77
414.819	536.77
415.197	553.71
415.574	582.87
415.951	591.68
416.328	597.55
416.705	616.54
417.082	588.74
417.46	618.8
417.837	624.45
418.214	652.24
418.591	614.5
418.967	628.29
419.344	659.02
419.721	666.25
420.098	661.28
420.475	647.95
420.852	661.28
421.228	680.26
421.605	675.29
421.982	675.07
422.358	684.78
422.735	706.93
423.111	739.7
423.488	715.74
423.864	719.59
424.241	725.46
424.617	768.17
424.994	757.1
425.37	742.18
425.746	758.68
426.123	770.66
426.499	793.26
426.875	811.33
427.251	825.8
427.627	822.41
428.003	827.61
428.379	850.43
428.756	842.07
429.132	857.21
429.507	871.67
429.883	895.85
430.259	892.69
430.635	863.54
431.011	879.81
431.387	919.13
431.763	931.11
432.138	949.86
432.514	951.9
432.89	953.48
433.265	968.39
433.641	1022.18
434.016	1017.66
434.392	1023.53
434.767	1030.31
435.143	1051.33
435.518	1069.18
435.894	1097.43
436.269	1080.03
436.644	1097.88
437.02	1113.7
437.395	1158.44
437.77	1179.46
438.145	1177.2
438.52	1193.25
438.895	1209.74
439.271	1210.87
439.646	1236.63
440.021	1234.37
440.395	1245.9
440.77	1212.68
441.145	1261.49
441.52	1270.76
441.895	1270.53
442.27	1287.93
442.645	1323.19
443.019	1332.22
443.394	1328.84
443.769	1357.53
444.143	1336.52
444.518	1351.89
444.892	1365.9
445.267	1361.15
445.641	1395.73
446.016	1408.38
446.39	1440.47
446.764	1437.08
447.139	1424.88
447.513	1447.25
447.887	1434.37
448.262	1463.97
448.636	1455.84
449.01	1492.67
449.384	1499
449.758	1513.46
450.132	1523.86
450.506	1519.56
450.88	1556.4
451.254	1542.61
451.628	1568.83
452.002	1550.07
452.376	1578.32
452.75	1608.83
453.123	1620.8
453.497	1640.24
453.871	1621.03
454.244	1693.8
454.618	1687.24
454.992	1713.91
455.365	1675.94
455.739	1750.74
456.112	1790.97
456.486	1764.53
456.859	1774.7
457.232	1802.72
457.606	1814.25
457.979	1827.35
458.352	1867.8
458.725	1930.4
459.099	1887.69
459.472	1927.69
459.845	1958.65
460.218	1980.8
460.591	1976.28
460.964	1960.68
461.337	2013.11
461.71	2048.59
462.083	2098.31
462.456	2075.93
462.829	2072.54
463.201	2099.44
463.574	2109.83
463.947	2187.12
464.32	2192.99
464.692	2198.19
465.065	2231.18
465.438	2264.18
465.81	2294.01
466.183	2309.6
466.555	2350.5
466.928	2372.2
467.3	2381.01
467.672	2398.64
468.045	2442.03
468.417	2451.29
468.789	2442.93
469.161	2450.61
469.534	2546.88
469.906	2567.45
470.278	2611.51
470.65	2599.54
471.022	2665.07
471.394	2686.99
471.766	2770.83
472.138	2738.06
472.51	2792.53
472.882	2865.07
473.253	2850.6
473.625	2917.95
473.997	2921.79
474.369	2951.39
474.74	2989.13
475.112	3051.5
475.484	3102.12
475.855	3124.49
476.227	3144.38
476.598	3232.97
476.97	3237.71
477.341	3327.2
477.713	3345.05
478.084	3350.93
478.455	3426.63
478.827	3477.03
479.198	3536.01
479.569	3580.3
479.94	3666.63
480.311	3677.7
480.682	3768.54
481.053	3794.31
481.424	3865.94
481.795	3902.78
482.166	3958.37
482.537	3958.14
482.908	4057.35
483.279	4042.66
483.65	4176.67
484.021	4244.46
484.391	4263
484.762	4279.72
485.133	4314.52
485.503	4325.37
485.874	4467.06
486.244	4486.27
486.615	4536.66
486.985	4596.77
487.356	4672.48
487.726	4663.21
488.097	4791.34
488.467	4790.44
488.837	4914.28
489.207	4993.37
489.578	4988.4
489.948	4960.15
490.318	5083.09
490.688	5131
491.058	5199.69
491.428	5183.2
491.798	5232.01
492.168	5289.18
492.538	5343.19
492.908	5397.2
493.278	5489.4
493.648	5447.37
494.017	5528.05
494.387	5552.23
494.757	5575.5
495.126	5663.41
495.496	5643.98
495.866	5705.44
496.235	5755.39
496.605	5766.01
496.974	5777.98
497.344	5858.66
497.713	5827.93
498.082	5941.14
498.452	5956.51
498.821	5994.93
499.19	6012.33
499.559	6022.05
499.928	6070.86
500.298	6100.01
500.667	6127.58
501.036	6177.07
501.405	6151.08
501.774	6221.81
502.143	6207.35
502.512	6185.43
502.88	6278.31
503.249	6285.99
503.618	6274.92
503.987	6325.31
504.356	6413
504.724	6360.34
505.093	6385.88
505.462	6402.6
505.83	6442.15
506.199	6451.19
506.567	6567.12
506.936	6502.94
507.304	6563.05
507.672	6589.94
508.041	6519.89
508.409	6664.51
508.777	6671.52
509.145	6675.81
509.514	6743.16
509.882	6722.14
510.25	6718.3
510.618	6736.83
510.986	6828.58
511.354	6826.32
511.722	6809.14
512.09	6892.3
512.458	6834.45
512.826	6866.99
513.193	6899.08
513.561	6908.58
513.929	6887.33
514.297	6974.34
514.664	6965.07
515.032	7048.46
515.4	6995.58
515.767	7030.83
516.135	7021.79
516.502	6973.88
516.869	7145.18
517.237	7114.67
517.604	7118.29
517.972	7143.6
518.339	7209.13
518.706	7171.62
519.073	7205.29
519.44	7211.39
519.808	7171.17
520.175	7205.97
520.542	7266.53
520.909	7283.25
521.276	7317.6
521.643	7348.79
522.009	7333.87
522.376	7326.42
522.743	7358.73
523.11	7400.09
523.477	7466.3
523.843	7438.96
524.21	7482.12
524.577	7521.89
524.943	7553.53
525.31	7565.06
525.676	7612.51
526.043	7575.9
526.409	7560.76
526.776	7666.07
527.142	7625.62
527.508	7682.34
527.874	7671.49
528.241	7663.58
528.607	7704.03
528.973	7721.21
529.339	7760.53
529.705	7707.2
530.071	7784.03
530.437	7826.29
530.803	7756.91
531.169	7774.77
531.535	7774.77
531.901	7701.1
532.267	7827.65
532.632	7794.88
532.998	7791.49
533.364	7823.13
533.73	7769.8
534.095	7807.31
534.461	7839.4
534.826	7849.79
535.192	7767.31
535.557	7839.62
535.923	7829.68
536.288	7865.39
536.653	7844.6
537.019	7789
537.384	7786.07
537.749	7837.36
538.114	7818.38
538.479	7741.77
538.845	7822.45
539.21	7758.5
539.575	7774.99
539.94	7801.43
540.305	7817.48
540.67	7763.92
541.034	7749.23
541.399	7807.08
541.764	7821.77
542.129	7812.05
542.494	7742.9
542.858	7742.45
543.223	7720.53
543.587	7701.1
543.952	7730.02
544.316	7721.66
544.681	7656.58
545.045	7703.58
545.41	7784.26
545.774	7729.8
546.138	7716.24
546.503	7667.43
546.867	7666.97
547.231	7671.72
547.595	7731.38
547.959	7657.26
548.324	7697.93
548.688	7645.05
549.052	7659.97
549.416	7686.86
549.779	7644.38
550.143	7671.95
550.507	7660.65
550.871	7595.79
551.235	7653.64
551.599	7675.33
551.962	7680.76
552.326	7631.95
552.689	7654.09
553.053	7636.01
553.417	7622.91
553.78	7711.27
554.143	7608.22
554.507	7570.48
554.87	7682.79
555.234	7702
555.597	7649.12
555.96	7652.28
556.323	7680.53
556.686	7638.5
557.05	7657.48
557.413	7629.23
557.776	7675.79
558.139	7751.72
558.502	7710.81
558.865	7671.72
559.228	7658.61
559.59	7730.47
559.953	7683.24
560.316	7762.34
560.679	7748.78
561.041	7850.92
561.404	7810.25
561.767	7845.27
562.129	7825.39
562.492	7845.95
562.854	7827.42
563.217	7838.49
563.579	7822.9
563.941	7877.82
564.304	7864.26
564.666	7960.98
565.028	7943.8
565.39	7948.77
565.753	7946.51
566.115	7957.36
566.477	8012.5
566.839	7931.83
567.201	8106.74
567.563	8063.57
567.925	8072.61
568.287	8052.27
568.648	8083.01
569.01	8124.36
569.372	8192.16
569.734	8138.15
570.095	8174.76
570.457	8162.33
570.819	8243.46
571.18	8211.14
571.542	8266.28
571.903	8257.92
572.265	8269.44
572.626	8291.82
572.987	8276.68
573.349	8376.56
573.71	8366.16
574.071	8325.94
574.432	8328.2
574.794	8435.54
575.155	8395.32
575.516	8472.38
575.877	8393.51
576.238	8426.05
576.599	8431.25
576.96	8523.67
577.32	8547.63
577.681	8527.97
578.042	8555.76
578.403	8576.78
578.763	8594.41
579.124	8643.9
579.485	8593.5
579.845	8663.56
580.206	8628.76
580.566	8675.08
580.927	8650.22
581.287	8690.22
581.648	8630.34
582.008	8796.44
582.368	8766.61
582.728	8747.85
583.089	8791.24
583.449	8784.23
583.809	8819.03
584.169	8802.31
584.529	8793.72
584.889	8839.82
585.249	8826.27
585.609	8834.4
585.969	8846.6
586.329	8836.43
586.688	8902.2
587.048	8887.28
587.408	8861.97
587.768	8890.44
588.127	8858.13
588.487	8850.9
588.846	8940.39
589.206	8882.31
589.565	8924.34
589.925	8936.77
590.284	8891.35
590.643	8939.71
591.003	8999.14
591.362	8990.78
591.721	9038.91
592.08	8986.94
592.44	9046.82
592.799	9010.67
593.158	9035.07
593.517	9064
593.876	9104.68
594.235	9047.05
594.593	8998.46
594.952	9078.91
595.311	8995.53
595.67	9054.96
596.029	9130.21
596.387	9141.06
596.746	9107.16
597.104	9165.47
597.463	9110.33
597.822	9129.08
598.18	9153.49
598.538	9210.44
598.897	9133.15
599.255	9109.2
599.613	9258.12
599.972	9170.21
600.33	9197.33
600.688	9194.84
601.046	9200.72
601.404	9244.33
601.762	9179.25
602.12	9226.48
602.478	9243.43
602.836	9200.49
603.194	9189.65
603.552	9241.17
603.91	9223.77
604.268	9235.75
604.625	9190.32
604.983	9291.34
605.341	9216.76
605.698	9315.52
606.056	9253.6
606.413	9284.33
606.771	9238.01
607.128	9325.24
607.485	9274.39
607.843	9247.5
608.2	9330.66
608.557	9390.32
608.914	9303.31
609.272	9314.39
609.629	9337.66
609.986	9377.21
610.343	9406.14
610.7	9411.11
611.057	9430.77
611.414	9376.76
611.771	9339.02
612.127	9412.46
612.484	9431.22
612.841	9447.49
613.198	9451.79
613.554	9407.49
613.911	9513.93
614.267	9508.51
614.624	9463.31
614.98	9532.01
615.337	9429.64
615.693	9509.64
616.05	9517.77
616.406	9560.48
616.762	9487.26
617.118	9485.68
617.475	9486.81
617.831	9522.97
618.187	9576.98
618.543	9580.82
618.899	9600.26
619.255	9570.65
619.611	9545.12
619.967	9656.3
620.323	9620.14
620.678	9614.94
621.034	9591.44
621.39	9543.76
621.746	9543.99
622.101	9661.27
622.457	9570.43
622.812	9623.98
623.168	9657.2
623.523	9629.63
623.879	9647.26
624.234	9602.97
624.589	9622.85
624.945	9629.86
625.3	9567.04
625.655	9619.92
626.01	9635.74
626.365	9617.2
626.72	9612.23
627.075	9538.11
627.43	9552.57
627.785	9534.5
628.14	9594.38
628.495	9581.27
628.85	9591.67
629.205	9516.42
629.559	9542.18
629.914	9587.15
630.269	9513.25
630.623	9534.95
630.978	9537.21
631.332	9523.65
631.687	9571.33
632.041	9514.16
632.396	9496.53
632.75	9468.28
633.104	9473.71
633.459	9425.35
633.813	9416.08
634.167	9371.79
634.521	9426.02
634.875	9423.31
635.229	9417.44
635.583	9377.21
635.937	9393.71
636.291	9391
636.645	9342.64
636.999	9357.1
637.352	9355.74
637.706	9311.22
638.06	9327.95
638.413	9339.25
638.767	9304.22
639.121	9304.9
639.474	9203.43
639.828	9218.57
640.181	9212.24
640.534	9317.55
640.888	9246.82
641.241	9249.98
641.594	9218.35
641.947	9276.2
642.301	9244.56
642.654	9223.54
643.007	9231.23
643.36	9179.7
643.713	9138.35
644.066	9150.55
644.419	9165.92
644.771	9152.13
645.124	8986.71
645.477	8999.14
645.83	8953.95
646.182	8869.88
646.535	8835.98
646.888	8905.36
647.24	8859.48
647.593	8930.44
647.945	8871.46
648.298	8880.27
648.65	8714.4
649.002	8826.94
649.355	8893.38
649.707	8777.9
650.059	8834.85
650.411	8985.13
650.763	8938.58
651.115	9063.32
651.467	9063.32
651.819	9003.21
652.171	8999.14
652.523	9009.09
652.875	9005.92
653.227	8975.41
653.578	9054.28
653.93	9033.94
654.282	8992.14
654.633	8980.16
654.985	8991.68
655.337	9015.19
655.688	8979.48
656.039	9021.06
656.391	9018.8
656.742	8982.87
657.094	9025.13
657.445	9019.93
657.796	8941.74
658.147	8960.5
658.498	8970.22
658.849	8951.23
659.2	8988.52
659.551	8914.85
659.902	8993.49
660.253	8913.95
660.604	8969.99
660.955	8932.25
661.306	8971.8
661.656	8934.28
662.007	8955.53
662.358	8893.16
662.708	9050.21
663.059	9011.57
663.409	8938.58
663.76	8987.16
664.11	8952.82
664.461	9010.44
664.811	8949.65
665.161	8996.88
665.511	8929.77
665.862	9042.3
666.212	8989.88
666.562	9026.03
666.912	8971.8
667.262	8941.29
667.612	9024
667.962	8931.57
668.312	8930.67
668.662	9016.77
669.011	8893.61
669.361	8979.93
669.711	8947.17
670.06	8946.49
670.41	8912.36
670.76	8898.13
671.109	8951.69
671.459	8945.81
671.808	8913.95
672.157	8943.78
672.507	8839.82
672.856	8863.1
673.205	8864.91
673.554	8879.15
673.904	8874.85
674.253	8937.45
674.602	8921.18
674.951	8825.14
675.3	8761.41
675.649	8876.89
675.998	8840.95
676.346	8861.97
676.695	8861.07
677.044	8809.54
677.393	8843.44
677.741	8847.06
678.09	8792.59
678.438	8798.92
678.787	8773.61
679.135	8784.68
679.484	8738.58
679.832	8764.12
680.181	8638.47
680.529	8732.03
680.877	8627.63
681.225	8693.39
681.573	8714.63
681.922	8661.07
682.27	8599.38
682.618	8598.02
682.966	8628.08
683.314	8574.97
683.661	8548.31
684.009	8553.5
684.357	8513.96
684.705	8467.18
685.053	8530.23
685.4	8455.2
685.748	8466.27
686.095	8443.22
686.443	8439.16
686.79	8403
687.138	8406.16
687.485	8364.36
687.832	8414.75
688.18	8372.72
688.527	8302.89
688.874	8271.48
689.221	8269.67
689.568	8238.71
689.915	8208.43
690.262	8201.2
690.609	8217.02
690.956	8227.86
691.303	8146.51
691.65	8123.01
691.997	8103.12
692.344	8087.98
692.69	8047.75
693.037	8032.16
693.383	8027.19
693.73	8034.2
694.077	8009.34
694.423	7963.91
694.769	7929.11
695.116	7937.93
695.462	7870.81
695.808	7913.29
696.155	7874.43
696.501	7827.42
696.847	7785.39
697.193	7691.38
697.539	7761.66
697.885	7704.26
698.231	7578.39
698.577	7644.83
698.923	7651.61
699.269	7664.26
699.614	7562.12
699.96	7463.82
700.306	7483.7
700.651	7471.27
700.997	7474.66
701.342	7426.98
701.688	7420.88
702.033	7397.15
702.379	7395.57
702.724	7388.56
703.069	7351.95
703.415	7226.31
703.76	7265.4
704.105	7257.49
704.45	7271.5
704.795	7256.59
705.14	7155.57
705.485	7191.73
705.83	7116.48
706.175	7162.81
706.52	7088.68
706.865	7117.84
707.209	7085.29
707.554	7046.2
707.899	7065.18
708.243	7012.08
708.588	7026.99
708.932	6988.8
709.277	6926.88
709.621	6971.17
709.966	6880.33
710.31	6935.02
710.654	6859.76
710.998	6866.77
711.342	6906.99
711.687	6835.36
712.031	6815.47
712.375	6795.36
712.719	6801.69
713.063	6776.38
713.407	6821.8
713.75	6773.44
714.094	6751.74
714.438	6745.42
714.782	6712.2
715.125	6735.47
715.469	6720.78
715.812	6665.42
716.156	6656.15
716.499	6587.68
716.843	6621.35
717.186	6596.95
717.53	6659.09
717.873	6603.5
718.216	6583.84
718.559	6607.11
718.902	6548.36
719.246	6584.52
719.589	6550.39
719.932	6549.26
720.275	6516.95
720.617	6538.19
720.96	6559.88
721.303	6537.29
721.646	6570.73
721.989	6459.77
722.331	6524.18
722.674	6465.2
723.016	6502.94
723.359	6504.74
723.701	6511.52
724.044	6449.15
724.386	6407.57
724.729	6501.81
725.071	6451.19
725.413	6415.71
725.755	6440.79
726.097	6416.84
726.439	6391.98
726.782	6376.84
727.124	6407.12
727.465	6374.8
727.807	6368.25
728.149	6387.01
728.491	6388.59
728.833	6355.82
729.175	6347.69
729.516	6357.4
729.858	6355.82
730.199	6362.83
730.541	6294.58
730.882	6284.86
731.224	6412.09
731.565	6309.27
731.906	6358.08
732.248	6327.57
732.589	6266.11
732.93	6297.97
733.271	6333.68
733.612	6365.31
733.953	6354.24
734.294	6307.24
734.635	6269.27
734.976	6380.68
735.317	6260.46
735.658	6271.08
735.999	6285.54
736.339	6275.6
736.68	6344.52
737.021	6368.93
737.361	6291.64
737.702	6330.29
738.042	6342.26
738.383	6330.51
738.723	6375.26
739.063	6344.3
739.404	6390.62
739.744	6379.78
740.084	6328.03
740.424	6339.55
740.764	6375.48
741.104	6349.27
741.444	6302.72
741.784	6365.54
742.124	6380.45
742.464	6395.37
742.804	6393.11
743.143	6405.99
743.483	6425.2
743.823	6396.27
744.162	6417.51
744.502	6459.55
744.841	6467.68
745.181	6486.21
745.52	6491.41
745.86	6535.25
746.199	6546.78
746.538	6569.83
746.877	6580.45
747.216	6621.13
747.556	6582.26
747.895	6665.42
748.234	6683.72
748.573	6713.78
748.911	6731.63
749.25	6788.8
749.589	6785.19
749.928	6893.66
750.267	6936.6
750.605	6916.48
750.944	6995.8
751.283	6980.44
751.621	7073.32
751.96	7066.76
752.298	7134.11
752.636	7219.98
752.975	7223.37
753.313	7305.18
753.651	7432.86
753.989	7440.31
754.327	7489.8
754.666	7560.54
755.004	7689.8
755.342	7728.89
755.679	7748.55
756.017	7839.17
756.355	7919.4
756.693	7980.86
757.031	8174.53
757.368	8191.93
757.706	8279.39
758.044	8388.54
758.381	8513.96
758.719	8556.89
759.056	8684.35
759.394	8729.54
759.731	8796.89
760.068	8867.17
760.405	8978.35
760.743	9074.62
761.08	9225.8
761.417	9204.56
761.754	9361.17
762.091	9536.08
762.428	9598.22
762.765	9649.29
763.102	9818.33
763.438	9847.48
763.775	9963.64
764.112	10106.68
764.449	10265.32
764.785	10193.91
765.122	10334.25
765.458	10309.84
765.795	10472.1
766.131	10603.85
766.467	10560.68
766.804	10735.37
767.14	10739.89
767.476	10883.84
767.812	10942.59
768.148	10993.67
768.485	11103.49
768.821	11119.76
769.157	11183.72
769.492	11277.05
769.828	11302.13
770.164	11386.88
770.5	11391.85
770.836	11511.17
771.171	11483.6
771.507	11600.88
771.842	11579.41
772.178	11644.95
772.513	11684.27
772.849	11683.82
773.184	11756.58
773.519	11878.16
773.855	11785.28
774.19	11739.86
774.525	11794.77
774.86	11942.12
775.195	11987.99
775.53	11886.75
775.865	11921.78
776.2	11987.76
776.535	11869.57
776.87	11971.95
777.205	11954.09
777.539	11950.48
777.874	12047.42
778.209	12002.9
778.543	11971.04
778.878	11969.46
779.212	12103.47
779.547	11964.71
779.881	12097.37
780.215	11979.63
780.55	12117.93
780.884	11982.79
781.218	12069.34
781.552	11961.1
781.886	12063.92
782.22	11997.71
782.554	12034.32
782.888	11950.93
783.222	11933.08
783.556	11923.81
783.889	11918.16
784.223	11793.87
784.557	11843.81
784.89	11866.64
785.224	11829.58
785.557	11804.27
785.891	11780.99
786.224	11813.53
786.558	11849.69
786.891	11713.87
787.224	11684.95
787.557	11736.92
787.891	11638.85
788.224	11723.59
788.557	11657.15
788.89	11640.2
789.223	11715.91
789.556	11627.77
789.888	11626.64
790.221	11574.67
790.554	11428.23
790.887	11482.69
791.219	11495.8
791.552	11505.97
791.884	11428.23
792.217	11399.3
792.549	11456.25
792.882	11341.68
793.214	11365.63
793.546	11385.97
793.879	11253.55
794.211	11204.73
794.543	11245.41
794.875	11229.14
795.207	11245.64
795.539	11216.03
795.871	11181.68
796.203	11084.74
796.535	11068.01
796.867	11044.51
797.198	11024.17
797.53	11088.13
797.862	10918.19
798.193	10960.67
798.525	10921.35
798.856	11002.93
799.188	10826.44
799.519	10802.94
799.85	10804.97
800.182	10798.42
800.513	10738.76
800.844	10723.39
801.175	10782.37
801.506	10744.41
801.837	10684.3
802.168	10716.38
802.499	10621.25
802.83	10544.19
803.161	10620.57
803.491	10590.74
803.822	10561.13
804.153	10513.68
804.483	10495.37
804.814	10430.52
805.145	10426.9
805.475	10367.69
805.805	10386.45
806.136	10355.49
806.466	10343.51
806.796	10311.42
807.126	10267.13
807.457	10261.26
807.787	10249.96
808.117	10286.34
808.447	10208.15
808.777	10295.38
809.107	10170.18
809.436	10139.68
809.766	10160.24
810.096	10087.7
810.426	10049.28
810.755	10087.47
811.085	10019.23
811.414	10070.3
811.744	9949.4
812.073	9921.38
812.403	9974.71
812.732	9896.29
813.061	9869.63
813.39	9814.71
813.719	9863.3
814.049	9866.69
814.378	9834.37
814.707	9755.51
815.036	9781.27
815.365	9727.26
815.693	9671.67
816.022	9682.06
816.351	9670.99
816.68	9621.95
817.008	9635.74
817.337	9576.3
817.665	9539.01
817.994	9620.82
818.322	9475.06
818.651	9553.7
818.979	9484.55
819.307	9582.18
819.636	9494.04
819.964	9494.5
820.292	9455.63
820.62	9513.25
820.948	9511.9
821.276	9465.12
821.604	9420.37
821.932	9424.44
822.259	9508.28
822.587	9398.45
822.915	9341.28
823.243	9480.49
823.57	9476.42
823.898	9406.59
824.225	9428.51
824.553	9427.61
824.88	9428.06
825.207	9417.89
825.535	9411.11
825.862	9490.43
826.189	9404.55
826.516	9454.05
826.843	9502.41
827.17	9361.84
827.497	9426.02
827.824	9510.77
828.151	9473.25
828.478	9548.51
828.805	9520.26
829.131	9420.37
829.458	9428.96
829.785	9404.55
830.111	9427.83
830.438	9478.68
830.764	9461.05
831.09	9424.44
831.417	9478
831.743	9472.12
832.069	9427.15
832.395	9429.41
832.722	9435.29
833.048	9401.62
833.374	9405.91
833.7	9400.26
834.026	9358.45
834.351	9400.94
834.677	9420.15
835.003	9323.2
835.329	9343.54
835.654	9322.52
835.98	9317.1
836.306	9322.52
836.631	9263.99
836.956	9285.46
837.282	9387.83
837.607	9259.25
837.932	9210.89
838.258	9280.72
838.583	9269.87
838.908	9254.05
839.233	9230.77
839.558	9206.59
839.883	9112.13
840.208	9194.84
840.533	9138.12
840.858	9140.16
841.182	9131.57
841.507	9078.01
841.832	9033.72
842.156	9099.25
842.481	9096.99
842.805	8978.13
843.13	9022.64
843.454	9003.21
843.778	8893.83
844.103	8946.04
844.427	8981.97
844.751	8946.26
845.075	8883.66
845.399	8846.6
845.723	8809.32
846.047	8851.35
846.371	8770
846.695	8800.05
847.019	8706.04
847.343	8679.15
847.666	8601.41
847.99	8650.45
848.313	8574.97
848.637	8517.57
848.96	8599.6
849.284	8477.12
849.607	8457.91
849.931	8467.86
850.254	8357.35
850.577	8323.45
850.9	8292.72
851.223	8294.98
851.546	8277.58
851.869	8212.04
852.192	8222.89
852.515	8092.5
852.838	8139.73
853.161	8170.24
853.483	8049.11
853.806	8019.73
854.129	7999.85
854.451	7996
854.774	7912.62
855.096	7933.18
855.419	7928.89
855.741	7920.75
856.063	7856.57
856.385	7852.51
856.708	7830.59
857.03	7753.07
857.352	7765.5
857.674	7739.97
857.996	7775.22
858.318	7667.43
858.64	7692.96
858.961	7647.77
859.283	7601.66
859.605	7604.38
859.926	7576.58
860.248	7636.01
860.57	7547.2
860.891	7552.4
861.212	7555.34
861.534	7597.14
861.855	7423.82
862.176	7499.97
862.498	7500.42
862.819	7566.19
863.14	7406.42
863.461	7412.52
863.782	7431.27
864.103	7460.43
864.424	7374.33
864.745	7427.66
865.065	7307.21
865.386	7315.34
865.707	7301.79
866.027	7317.6
866.348	7356.25
866.668	7287.77
866.989	7277.61
867.309	7330.71
867.63	7308.79
867.95	7302.01
868.27	7182.69
868.59	7237.83
868.91	7241.9
869.23	7237.38
869.55	7170.26
869.87	7201.45
870.19	7167.1
870.51	7251.84
870.83	7209.36
871.15	7184.05
871.469	7174.56
871.789	7112.41
872.109	7120.55
872.428	7058.85
872.748	7052.07
873.067	7072.64
873.386	7112.19
873.706	7073.09
874.025	7020.44
874.344	7057.95
874.663	7024.96
874.982	6946.54
875.301	6984.28
875.62	6975.47
875.939	6907.22
876.258	6940.66
876.577	6968.46
876.896	6940.89
877.214	6928.69
877.533	6930.5
877.852	6839.2
878.17	6909.71
878.489	6907.67
878.807	6809.37
879.125	6859.99
879.444	6822.7
879.762	6830.16
880.08	6849.82
880.398	6816.83
880.716	6858.63
881.034	6791.74
881.352	6810.05
881.67	6780.9
881.988	6800.33
882.306	6763.04
882.624	6745.64
882.941	6737.28
883.259	6716.26
883.577	6698.64
883.894	6646.21
884.212	6623.61
884.529	6642.37
884.846	6630.62
885.164	6619.77
885.481	6582.03
885.798	6568.7
886.115	6577.74
886.432	6557.85
886.75	6527.12
887.067	6509.26
887.383	6529.83
887.7	6490.96
888.017	6502.94
888.334	6498.19
888.651	6443.5
888.967	6443.95
889.284	6405.09
889.6	6394.69
889.917	6353.79
890.233	6351.98
890.55	6300.23
890.866	6319.89
891.182	6284.41
891.498	6302.72
891.815	6330.74
892.131	6266.11
892.447	6224.07
892.763	6198.54
893.079	6172.78
893.395	6197.41
893.71	6140.69
894.026	6155.37
894.342	6139.78
894.657	6086
894.973	6062.5
895.289	6088.71
895.604	6053.91
895.92	6071.76
896.235	6008.71
896.55	5938.66
896.865	6006.68
897.181	5939.79
897.496	5957.19
897.811	5901.14
898.126	5901.37
898.441	5865.21
898.756	5893.46
899.071	5820.02
899.386	5802.16
899.7	5749.06
900.015	5784.31
900.33	5752
900.644	5739.79
900.959	5771.2
901.273	5703.41
901.588	5671.09
901.902	5638.33
902.216	5608.27
902.531	5629.96
902.845	5623.86
903.159	5618.67
903.473	5557.2
903.787	5526.46
904.101	5528.05
904.415	5512.91
904.729	5443.08
905.042	5452.34
905.356	5407.37
905.67	5396.75
905.984	5376.86
906.297	5424.55
906.611	5338.67
906.924	5328.05
907.237	5340.71
907.551	5308.84
907.864	5266.13
908.177	5273.59
908.491	5292.35
908.804	5201.5
909.117	5189.98
909.43	5175.29
909.743	5132.8
910.056	5147.72
910.368	5163.99
910.681	5038.12
910.994	5079.7
911.307	5055.97
911.619	5015.97
911.932	5028.17
912.244	4969.42
912.557	5025.91
912.869	4999.02
913.181	4907.27
913.494	4944.56
913.806	4916.76
914.118	4917.44
914.43	4876.09
914.742	4884.22
915.054	4878.57
915.366	4797.67
915.678	4831.34
915.99	4823.66
916.302	4731.91
916.613	4707.05
916.925	4739.82
917.236	4726.49
917.548	4726.71
917.859	4667.5
918.171	4653.27
918.482	4618.92
918.794	4619.37
919.105	4589.77
919.416	4568.75
919.727	4568.07
920.038	4549.99
920.349	4546.15
920.66	4524.01
920.971	4502.54
921.282	4458.24
921.593	4454.85
921.903	4429.09
922.214	4447.4
922.525	4392.48
922.835	4380.05
923.146	4360.17
923.456	4334.18
923.767	4314.07
924.077	4322.43
924.387	4307.74
924.697	4252.83
925.008	4308.87
925.318	4269.32
925.628	4225.48
925.938	4234.07
926.248	4185.48
926.558	4164.47
926.867	4173.73
927.177	4134.41
927.487	4107.97
927.796	4112.26
928.106	4075.88
928.416	4049.89
928.725	4048.76
929.034	4016.45
929.344	4056.67
929.653	4004.02
929.962	3975.32
930.271	3964.02
930.581	3964.47
930.89	3921.76
931.199	3940.74
931.508	3914.53
931.817	3922.89
932.125	3893.51
932.434	3909.56
932.743	3833.63
933.051	3850.35
933.36	3843.8
933.669	3790.69
933.977	3815.78
934.286	3765.16
934.594	3780.97
934.902	3755.44
935.21	3709.34
935.519	3694.87
935.827	3685.84
936.135	3710.47
936.443	3677.93
936.751	3681.54
937.059	3631.83
937.367	3639.28
937.674	3617.59
937.982	3638.83
938.29	3615.78
938.597	3615.33
938.905	3527.2
939.213	3566.74
939.52	3543.92
939.827	3531.72
940.135	3506.4
940.442	3483.58
940.749	3497.37
941.056	3470.93
941.363	3443.58
941.67	3486.97
941.977	3427.76
942.284	3398.39
942.591	3432.06
942.898	3359.52
943.205	3386.63
943.511	3386.18
943.818	3371.95
944.125	3321.1
944.431	3321.1
944.738	3303.47
945.044	3301.89
945.35	3274.77
945.657	3228.22
945.963	3246.07
946.269	3220.99
946.575	3209.69
946.881	3181.44
947.187	3216.24
947.493	3144.15
947.799	3186.87
948.105	3153.87
948.41	3122.01
948.716	3142.12
949.022	3111.16
949.327	3123.14
949.633	3087.21
949.938	3093.99
950.244	3080.2
950.549	3068.45
950.854	3038.39
951.16	3005.85
951.465	3025.51
951.77	3005.63
952.075	2988
952.38	2980.77
952.685	2975.35
952.99	2962.01
953.294	2945.29
953.599	2955.23
953.904	2889.47
954.209	2898.29
954.513	2898.29
954.818	2867.1
955.122	2922.69
955.426	2855.35
955.731	2846.54
956.035	2841.56
956.339	2828.91
956.643	2808.34
956.948	2761.34
957.252	2776.03
957.556	2770.83
957.86	2753.88
958.163	2758.18
958.467	2752.53
958.771	2737.61
959.075	2722.02
959.378	2698.06
959.682	2720.89
959.985	2705.52
960.289	2695.13
960.592	2659.42
960.896	2674.56
961.199	2632.53
961.502	2630.5
961.805	2604.51
962.108	2587.33
962.411	2566.77
962.714	2595.24
963.017	2600.67
963.32	2574.9
963.623	2550.05
963.926	2543.04
964.228	2529.48
964.531	2529.26
964.833	2527
965.136	2521.12
965.438	2488.8
965.741	2468.01
966.043	2475.02
966.345	2473.89
966.648	2459.65
966.95	2468.24
967.252	2406.09
967.554	2414.46
967.856	2432.53
968.158	2412.42
968.46	2401.58
968.761	2359.99
969.063	2381.24
969.365	2356.15
969.666	2355.25
969.968	2350.96
970.269	2331.52
970.571	2332.2
970.872	2320.45
971.174	2305.76
971.475	2335.81
971.776	2297.85
972.077	2287.45
972.378	2277.51
972.679	2287.23
972.98	2232.09
973.281	2260.34
973.582	2242.03
973.883	2201.35
974.183	2209.04
974.484	2218.98
974.785	2187.8
975.085	2177.63
975.386	2218.3
975.686	2178.76
975.986	2155.48
976.287	2153.67
976.587	2139.89
976.887	2113
977.187	2150.73
977.487	2119.32
977.787	2107.35
978.087	2103.73
978.387	2085.65
978.687	2136.05
978.987	2090.17
979.286	2034.35
979.586	2071.41
979.885	2062.6
980.185	2062.6
980.484	2052.66
980.784	2033
981.083	1989.83
981.382	2065.76
981.682	1980.12
981.981	1987.35
982.28	2012.43
982.579	1980.8
982.878	1966.78
983.177	1954.13
983.475	1931.08
983.774	1938.54
984.073	1939.89
984.372	1924.07
984.67	1907.58
984.969	1909.61
985.267	1908.71
985.566	1890.4
985.864	1880.69
986.162	1875.94
986.461	1846.56
986.759	1835.94
987.057	1870.74
987.355	1814.7
987.653	1828.03
987.951	1848.37
988.249	1815.83
988.547	1815.6
988.844	1809.95
989.142	1790.74
989.44	1784.87
989.737	1795.49
990.035	1769.28
990.332	1778.54
990.63	1765.89
990.927	1755.49
991.224	1740.12
991.521	1746.68
991.819	1720.01
992.116	1729.95
992.413	1714.59
992.71	1674.59
993.006	1683.85
993.303	1672.1
993.6	1689.5
993.897	1674.14
994.193	1695.83
994.49	1649.28
994.787	1662.84
995.083	1637.53
995.379	1629.17
995.676	1646.57
995.972	1632.33
996.268	1635.04
996.565	1594.59
996.861	1608.83
997.157	1602.73
997.453	1619.9
997.749	1596.17
998.044	1602.73
998.34	1562.95
998.636	1550.3
998.932	1565.89
999.227	1581.94
999.523	1543.29
999.818	1522.95
1000.114	1516.63
1000.409	1530.41
1000.704	1494.71
1001	1496.74
1001.295	1510.3
1001.59	1485.89
1001.885	1504.65
1002.18	1468.27
1002.475	1483.41
1002.77	1467.81
1003.065	1456.52
1003.359	1459.68
1003.654	1414.26
1003.949	1456.06
1004.243	1407.25
1004.538	1401.83
1004.832	1415.39
1005.127	1404.31
1005.421	1387.14
1005.715	1387.36
1006.009	1385.78
1006.304	1391.88
1006.598	1379.91
1006.892	1359.12
1007.186	1364.09
1007.48	1363.86
1007.773	1317.54
1008.067	1340.59
1008.361	1312.11
1008.655	1342.17
1008.948	1320.25
1009.242	1312.56
1009.535	1305.56
1009.829	1258.33
1010.122	1278.67
1010.415	1276.63
1010.708	1278.89
1011.001	1252.45
1011.295	1249.97
1011.588	1254.71
1011.881	1219.91
1012.173	1250.42
1012.466	1234.6
1012.759	1248.84
1013.052	1233.47
1013.344	1201.61
1013.637	1208.16
1013.93	1188.27
1014.222	1202.06
1014.514	1192.57
1014.807	1170.65
1015.099	1165.22
1015.391	1168.61
1015.683	1151.89
1015.976	1148.27
1016.268	1142.85
1016.56	1136.07
1016.851	1151.44
1017.143	1129.07
1017.435	1121.16
1017.727	1125.22
1018.018	1115.51
1018.31	1152.34
1018.602	1089.52
1018.893	1105.56
1019.185	1095.39
1019.476	1074.38
1019.767	1075.06
1020.058	1072.8
1020.35	1070.54
1020.641	1043.42
1020.932	1066.24
1021.223	1053.36
1021.514	1035.51
1021.804	1038.45
1022.095	1013.36
1022.386	1019.24
1022.677	1021.72
1022.967	982.86
1023.258	1016.3
1023.548	986.7
1023.839	993.25
1024.129	967.94
1024.419	950.31
1024.709	992.8
1025	962.52
1025.29	967.04
1025.58	959.81
1025.87	929.75
1026.16	955.06
1026.449	938.56
1026.739	932.46
1027.029	912.35
1027.319	920.71
1027.608	946.7
1027.898	923.42
1028.187	887.26
1028.477	912.57
1028.766	895.17
1029.055	895.63
1029.344	896.3
1029.634	881.39
1029.923	899.02
1030.212	858.11
1030.501	888.85
1030.79	856.98
1031.078	854.5
1031.367	836.42
1031.656	843.2
1031.945	834.16
1032.233	825.8
1032.522	824.44
1032.81	812.46
1033.099	817.44
1033.387	811.79
1033.675	819.47
1033.963	813.59
1034.251	822.63
1034.54	793.03
1034.828	783.31
1035.116	778.79
1035.403	796.42
1035.691	793.93
1035.979	798.23
1036.267	767.95
1036.554	769.75
1036.842	745.35
1037.129	761.84
1037.417	774.95
1037.704	754.61
1037.992	747.61
1038.279	756.87
1038.566	735.86
1038.853	735.86
1039.14	735.86
