Data from hue_160_FLMS001491_00035.txt Node
Date: Tue Feb 07 16:51:06 GMT 2017
User: dcchb
Spectrometer: FLMS00149
Trigger mode: 0
Integration Time (sec): 2.000000E-2
Scans to average: 10
Electric dark correction enabled: true
Nonlinearity correction enabled: false
Boxcar width: 0
XAxis mode: Wavelengths
Number of Pixels in Spectrum: 2048
>>>>>Begin Spectral Data<<<<<
341.393	-22.37
341.776	-22.37
342.16	-22.37
342.543	-38.42
342.927	-61.92
343.31	-77.96
343.693	-64.86
344.077	-83.39
344.46	-47.68
344.843	-39.32
345.226	-46.78
345.61	-23.73
345.993	-12.66
346.376	-16.95
346.759	11.98
347.142	28.02
347.525	40.45
347.908	56.95
348.291	68.7
348.674	91.07
349.057	116.16
349.44	153.44
349.823	160.45
350.206	163.84
350.588	214.68
350.971	211.75
351.354	225.53
351.737	231.63
352.119	236.6
352.502	262.82
352.884	301.46
353.267	279.09
353.65	299.65
354.032	291.52
354.414	298.75
354.797	310.95
355.179	320.44
355.562	318.64
355.944	311.86
356.326	324.29
356.709	326.77
357.091	319.99
357.473	339.43
357.855	330.61
358.238	339.2
358.62	354.57
359.002	312.99
359.384	346.88
359.766	339.2
360.148	334.68
360.53	334.45
360.912	340.1
361.294	354.11
361.676	343.49
362.057	327
362.439	323.61
362.821	316.15
363.203	300.11
363.584	324.51
363.966	332.19
364.348	315.02
364.729	326.09
365.111	312.31
365.493	324.06
365.874	326.55
366.256	309.82
366.637	308.47
367.019	333.32
367.4	308.24
367.781	339.88
368.163	304.62
368.544	319.54
368.925	314.34
369.306	303.27
369.688	317.28
370.069	317.28
370.45	326.77
370.831	308.92
371.212	291.29
371.593	297.62
371.974	305.98
372.355	331.52
372.736	307.79
373.117	310.73
373.498	315.92
373.879	305.08
374.26	306.88
374.641	337.39
375.021	321.12
375.402	332.19
375.783	312.99
376.163	303.95
376.544	320.22
376.925	330.84
377.305	319.77
377.686	314.12
378.066	327.22
378.447	329.26
378.827	333.1
379.208	318.86
379.588	342.36
379.968	326.09
380.349	326.55
380.729	307.34
381.109	323.83
381.489	333.78
381.87	352.31
382.25	359.31
382.63	356.83
383.01	351.86
383.39	334.23
383.77	337.62
384.15	336.26
384.53	343.04
384.91	336.49
385.29	362.7
385.67	347.11
386.049	354.11
386.429	339.43
386.809	360.22
387.189	343.95
387.568	359.99
387.948	350.27
388.328	341.91
388.707	358.41
389.087	375.36
389.466	345.75
389.846	346.66
390.225	364.96
390.605	341.91
390.984	340.78
391.363	362.02
391.743	371.29
392.122	352.76
392.501	375.81
392.881	382.14
393.26	372.65
393.639	350.95
394.018	370.16
394.397	370.61
394.776	355.47
395.155	371.06
395.534	377.17
395.913	354.11
396.292	373.32
396.671	393.89
397.05	368.13
397.429	376.26
397.808	370.84
398.186	367.45
398.565	375.58
398.944	385.75
399.323	409.48
399.701	407.45
400.08	385.53
400.458	387.11
400.837	390.72
401.215	400.44
401.594	385.53
401.972	389.14
402.351	389.82
402.729	396.15
403.107	382.36
403.486	416.26
403.864	391.63
404.242	385.07
404.62	412.64
404.999	391.85
405.377	397.73
405.755	388.46
406.133	414.45
406.511	421.01
406.889	391.63
407.267	431.18
407.645	402.25
408.023	420.55
408.401	429.59
408.779	428.69
409.156	447.9
409.534	434.34
409.912	419.65
410.29	452.19
410.667	444.51
411.045	450.38
411.422	441.57
411.8	446.77
412.178	470.04
412.555	479.08
412.933	454.68
413.31	461.23
413.687	486.31
414.065	460.33
414.442	472.76
414.819	486.54
415.197	490.38
415.574	474.11
415.951	486.99
416.328	508.91
416.705	505.98
417.082	480.67
417.46	477.95
417.837	487.44
418.214	495.35
418.591	512.75
418.967	505.98
419.344	506.65
419.721	515.92
420.098	514.79
420.475	509.14
420.852	516.6
421.228	514.11
421.605	535.35
421.982	533.77
422.358	546.65
422.735	531.29
423.111	510.95
423.488	533.09
423.864	552.75
424.241	545.97
424.617	558.63
424.994	556.14
425.37	560.89
425.746	562.02
426.123	558.63
426.499	542.13
426.875	580.32
427.251	602.02
427.627	580.78
428.003	580.32
428.379	584.17
428.756	596.37
429.132	614.45
429.507	598.63
429.883	609.7
430.259	602.47
430.635	620.1
431.011	618.29
431.387	644.28
431.763	658.51
432.138	642.47
432.514	636.14
432.89	649.7
433.265	654.22
433.641	653.99
434.016	671.85
434.392	667.78
434.767	672.3
435.143	693.99
435.518	677.04
435.894	710.72
436.269	697.83
436.644	724.73
437.02	730.6
437.395	733.31
437.77	720.88
438.145	740.09
438.52	728.79
438.895	745.52
439.271	772.41
439.646	779.87
440.021	771.05
440.395	754.56
440.77	785.97
441.145	762.24
441.52	793.2
441.895	787.55
442.27	790.04
442.645	795.91
443.019	833.65
443.394	796.82
443.769	797.95
444.143	805.4
444.518	839.53
444.892	839.98
445.267	837.49
445.641	842.24
446.016	827.77
446.39	835.68
446.764	844.27
447.139	856.25
447.513	839.98
447.887	847.44
448.262	877.49
448.636	858.51
449.01	917.26
449.384	910.03
449.758	899.64
450.132	907.32
450.506	920.43
450.88	928.79
451.254	928.79
451.628	935.12
452.002	939.86
452.376	948
452.75	956.59
453.123	955
453.497	992.06
453.871	973.99
454.244	1010.14
454.618	998.39
454.992	1019.41
455.365	1021.44
455.739	1047.43
456.112	1061.22
456.486	1074.77
456.859	1066.64
457.232	1092.17
457.606	1089.24
457.979	1080.65
458.352	1110.93
458.725	1124.49
459.099	1157.26
459.472	1150.93
459.845	1181.66
460.218	1175.34
460.591	1197.93
460.964	1210.14
461.337	1198.39
461.71	1244.04
462.083	1287.88
462.456	1278.61
462.829	1273.19
463.201	1306.86
463.574	1322.45
463.947	1313.64
464.32	1369.68
464.692	1383.47
465.065	1395.44
465.438	1396.35
465.81	1430.92
466.183	1432.28
466.555	1462.33
466.928	1475.67
467.3	1470.02
467.672	1533.29
468.045	1556.34
468.417	1549.34
468.789	1599.51
469.161	1602.67
469.534	1620.75
469.906	1672.72
470.278	1666.85
470.65	1714.53
471.022	1738.94
471.394	1795.66
471.766	1810.12
472.138	1868.65
472.51	1930.34
472.882	1948.42
473.253	1951.59
473.625	1994.52
473.997	2055.54
474.369	2067.06
474.74	2111.58
475.112	2166.27
475.484	2208.98
475.855	2253.05
476.227	2301.18
476.598	2393.38
476.97	2438.13
477.341	2495.98
477.713	2541.4
478.084	2603.77
478.455	2695.52
478.827	2754.05
479.198	2820.94
479.569	2862.75
479.94	2962.86
480.311	2980.71
480.682	3106.81
481.053	3235.17
481.424	3288.28
481.795	3331.44
482.166	3438.55
482.537	3541.38
482.908	3597.19
483.279	3730.98
483.65	3774.36
484.021	3925.77
484.391	3973.91
484.762	4101.59
485.133	4174.13
485.503	4296.38
485.874	4435.36
486.244	4523.95
486.615	4603.04
486.985	4718.29
487.356	4867.89
487.726	4947.21
488.097	5072.41
488.467	5126.87
488.837	5316.92
489.207	5440.99
489.578	5594.66
489.948	5655.9
490.318	5804.59
490.688	5877.36
491.058	6018.37
491.428	6119.61
491.798	6290.68
492.168	6355.54
492.538	6491.35
492.908	6603.22
493.278	6800.05
493.648	6864.23
494.017	6949.65
494.387	7102.64
494.757	7203.65
495.126	7287.94
495.496	7452.46
495.866	7482.06
496.235	7666.01
496.605	7724.54
496.974	7836.63
497.344	7986.91
497.713	8044.08
498.082	8167.92
498.452	8320.01
498.821	8383.28
499.19	8430.96
499.559	8521.81
499.928	8628.25
500.298	8664.18
500.667	8799.54
501.036	8819.43
501.405	9018.29
501.774	8923.61
502.143	9120.44
502.512	9117.73
502.88	9279.3
503.249	9306.65
503.618	9346.19
503.987	9448.79
504.356	9538.96
504.724	9584.83
505.093	9612.63
505.462	9699.18
505.83	9757.03
506.199	9875.9
506.567	9936.01
506.936	9919.06
507.304	10027.76
507.672	10104.37
508.041	10112.28
508.409	10221.65
508.777	10275.66
509.145	10289.9
509.514	10352.95
509.882	10472.27
510.25	10496
510.618	10479.27
510.986	10505.49
511.354	10644.24
511.722	10664.8
512.09	10713.84
512.458	10672.71
512.826	10780.28
513.193	10869.09
513.561	10839.26
513.929	10929.88
514.297	11025.92
514.664	11096.66
515.032	11044
515.4	11082.65
515.767	11131.68
516.135	11110.44
516.502	11080.39
516.869	11253.49
517.237	11236.31
517.604	11173.27
517.972	11287.84
518.339	11311.79
518.706	11246.03
519.073	11362.64
519.44	11302.3
519.808	11417.33
520.175	11408.97
520.542	11468.62
520.909	11491.9
521.276	11424.56
521.643	11589.53
522.009	11578
522.376	11579.36
522.743	11609.41
523.11	11669.07
523.477	11692.12
523.843	11725.12
524.21	11818.9
524.577	11838.33
524.943	11793.36
525.31	11865.22
525.676	11935.28
526.043	11995.62
526.409	11890.31
526.776	11999.68
527.142	12006.24
527.508	11964.43
527.874	11997.88
528.241	11935.73
528.607	11964.43
528.973	11999.23
529.339	11896.86
529.705	11999.46
530.071	12065.45
530.437	12007.14
530.803	12002.85
531.169	12069.97
531.535	12014.37
531.901	11961.27
532.267	11982.28
532.632	12004.43
532.998	11923.3
533.364	11925.34
533.73	11895.51
534.095	11997.65
534.461	11874.26
534.826	11913.59
535.192	11939.35
535.557	11984.77
535.923	11835.62
536.288	11823.42
536.653	11845.11
537.019	11729.41
537.384	11775.51
537.749	11731.89
538.114	11718.79
538.479	11710.88
538.845	11688.05
539.21	11654.83
539.575	11657.09
539.94	11601.95
540.305	11602.86
540.67	11558.11
541.034	11448.74
541.399	11476.76
541.764	11411.68
542.129	11411.9
542.494	11347.05
542.858	11324
543.223	11328.06
543.587	11371.68
543.952	11281.74
544.316	11156.54
544.681	11160.84
545.045	11204.23
545.41	11212.81
545.774	11109.99
546.138	11096.43
546.503	11069.09
546.867	10994.51
547.231	11106.37
547.595	11017.11
547.959	10956.32
548.324	10933.5
548.688	11018.02
549.052	10926.27
549.416	10855.31
549.779	10746.38
550.143	10757.91
550.507	10756.33
550.871	10728.76
551.235	10623.68
551.599	10697.8
551.962	10672.49
552.326	10681.53
552.689	10677.91
553.053	10609.66
553.417	10613.73
553.78	10685.14
554.143	10583.9
554.507	10633.84
554.87	10468.2
555.234	10590
555.597	10487.41
555.96	10504.36
556.323	10524.24
556.686	10459.84
557.05	10446.96
557.413	10431.36
557.776	10430.46
558.139	10410.35
558.502	10461.19
558.865	10372.61
559.228	10429.56
559.59	10410.35
559.953	10311.37
560.316	10422.32
560.679	10377.58
561.041	10383.91
561.404	10405.6
561.767	10471.59
562.129	10369.44
562.492	10410.35
562.854	10390.69
563.217	10399.05
563.579	10400.18
563.941	10404.7
564.304	10439.27
564.666	10513.17
565.028	10418.26
565.39	10446.5
565.753	10456.67
566.115	10502.32
566.477	10530.8
566.839	10450.8
567.201	10482.66
567.563	10526.5
567.925	10531.47
568.287	10487.41
568.648	10526.95
569.01	10560.4
569.372	10534.41
569.734	10549.33
570.095	10604.92
570.457	10525.6
570.819	10636.1
571.18	10570.34
571.542	10577.12
571.903	10604.47
572.265	10589.55
572.626	10631.58
572.987	10625.26
573.349	10660.51
573.71	10641.53
574.071	10645.14
574.432	10696.44
574.794	10768.98
575.155	10678.36
575.516	10663
575.877	10681.08
576.238	10731.7
576.599	10623.9
576.96	10674.07
577.32	10707.06
577.681	10721.3
578.042	10763.78
578.403	10803.11
578.763	10706.16
579.124	10702.32
579.485	10788.42
579.845	10757.23
580.206	10772.37
580.566	10752.49
580.927	10785.71
581.287	10730.57
581.648	10705.71
582.008	10787.51
582.368	10694.63
582.728	10732.37
583.089	10633.62
583.449	10745.93
583.809	10711.81
584.169	10722.43
584.529	10704.58
584.889	10778.7
585.249	10664.35
585.609	10561.3
585.969	10696.44
586.329	10677.46
586.688	10639.95
587.048	10648.31
587.408	10583
587.768	10578.7
588.127	10627.52
588.487	10598.37
588.846	10667.29
589.206	10555.43
589.565	10510.68
589.925	10544.81
590.284	10559.04
590.643	10557.46
591.003	10577.12
591.362	10573.06
591.721	10465.04
592.08	10490.8
592.44	10564.47
592.799	10524.02
593.158	10528.76
593.517	10483.79
593.876	10569.67
594.235	10411.48
594.593	10494.19
594.952	10533.28
595.311	10484.7
595.67	10464.58
596.029	10524.02
596.387	10517.69
596.746	10508.65
597.104	10501.64
597.463	10443.57
597.822	10480.18
598.18	10455.77
598.538	10432.04
598.897	10484.47
599.255	10438.14
599.613	10533.73
599.972	10496
600.33	10490.12
600.688	10439.73
601.046	10477.01
601.404	10533.28
601.762	10528.99
602.12	10579.38
602.478	10512.72
602.836	10494.87
603.194	10503.68
603.552	10435.21
603.91	10423.45
604.268	10449.89
604.625	10389.56
604.983	10487.18
605.341	10439.05
605.698	10518.59
606.056	10530.12
606.413	10521.08
606.771	10557.69
607.128	10489.22
607.485	10487.86
607.843	10519.27
608.2	10556.56
608.557	10577.35
608.914	10456.67
609.272	10554.07
609.629	10560.4
609.986	10594.75
610.343	10521.98
610.7	10567.18
611.057	10593.85
611.414	10571.25
611.771	10598.59
612.127	10648.76
612.484	10605.82
612.841	10724.69
613.198	10595.88
613.554	10593.39
613.911	10640.17
614.267	10644.47
614.624	10677.91
614.98	10719.04
615.337	10645.82
615.693	10677.69
616.05	10636.56
616.406	10734.63
616.762	10710
617.118	10714.97
617.475	10658.48
617.831	10741.19
618.187	10820.96
618.543	10795.2
618.899	10740.96
619.255	10779.83
619.611	10733.05
619.967	10738.47
620.323	10856.89
620.678	10773.05
621.034	10727.85
621.39	10723.56
621.746	10740.51
622.101	10791.81
622.457	10745.48
622.812	10769.21
623.168	10779.38
623.523	10808.98
623.879	10799.49
624.234	10804.46
624.589	10733.96
624.945	10810.79
625.3	10824.8
625.655	10745.48
626.01	10797.68
626.365	10690.57
626.72	10694.18
627.075	10727.85
627.43	10785.03
627.785	10711.81
628.14	10763.78
628.495	10742.99
628.85	10731.7
629.205	10715.65
629.559	10691.24
629.914	10723.11
630.269	10677.91
630.623	10626.84
630.978	10644.01
631.332	10702.77
631.687	10688.53
632.041	10681.98
632.396	10747.29
632.75	10650.57
633.104	10608.08
633.459	10590.68
633.813	10660.06
634.167	10626.61
634.521	10559.95
634.875	10614.64
635.229	10590.46
635.583	10572.38
635.937	10567.18
636.291	10493.74
636.645	10527.63
636.999	10521.98
637.352	10498.48
637.706	10486.96
638.06	10465.04
638.413	10512.94
638.767	10417.81
639.121	10460.29
639.474	10395.43
639.828	10373.96
640.181	10423.91
640.534	10405.6
640.888	10267.98
641.241	10303.23
641.594	10364.93
641.947	10335.1
642.301	10296.23
642.654	10300.97
643.007	10392.5
643.36	10399.05
643.713	10340.97
644.066	10375.32
644.419	10354.08
644.771	10211.26
645.124	10122.45
645.477	10124.03
645.83	10077.93
646.182	10026.85
646.535	9977.14
646.888	9989.57
647.24	10003.8
647.593	10040.87
647.945	9975.1
648.298	9958.83
648.65	10012.62
649.002	9892.17
649.355	9974.43
649.707	9925.84
650.059	9998.61
650.411	10127.87
650.763	10107.76
651.115	10210.58
651.467	10213.29
651.819	10238.37
652.171	10277.02
652.523	10156.12
652.875	10153.63
653.227	10128.1
653.578	10185.49
653.93	10167.19
654.282	10107.3
654.633	10065.95
654.985	10141.2
655.337	10181.43
655.688	10158.38
656.039	10240.86
656.391	10160.86
656.742	10133.74
657.094	10187.08
657.445	10238.83
657.796	10241.76
658.147	10131.94
658.498	10150.47
658.849	10162.44
659.2	10117.7
659.551	10147.08
659.902	10159.73
660.253	10206.96
660.604	10149.56
660.955	10082.22
661.306	10184.59
661.656	10188.21
662.007	10175.1
662.358	10228.66
662.708	10209.68
663.059	10185.95
663.409	10154.54
663.76	10187.08
664.11	10225.95
664.461	10176.23
664.811	10187.75
665.161	10149.56
665.511	10172.84
665.862	10224.82
666.212	10269.33
666.562	10266.17
666.912	10206.96
667.262	10258.04
667.612	10248.77
667.962	10271.14
668.312	10252.61
668.662	10270.24
669.011	10169.45
669.361	10220.52
669.711	10220.97
670.06	10202.9
670.41	10152.28
670.76	10146.17
671.109	10208.55
671.459	10245.61
671.808	10169
672.157	10200.41
672.507	10136
672.856	10161.54
673.205	10163.57
673.554	10145.72
673.904	10130.36
674.253	10162.67
674.602	10152.73
674.951	9994.31
675.3	9995.9
675.649	10130.81
675.998	10109.56
676.346	10106.63
676.695	10192.73
677.044	9982.56
677.393	9976.69
677.741	10056.68
678.09	10034.99
678.438	9998.16
678.787	10062.79
679.135	10037.02
679.484	9992.73
679.832	9910.7
680.181	9925.39
680.529	9947.54
680.877	9870.7
681.225	9936.69
681.573	9983.01
681.922	9899.4
682.27	9756.35
682.618	9832.51
682.966	9836.58
683.314	9792.96
683.661	9829.35
684.009	9747.99
684.357	9712.29
684.705	9752.96
685.053	9765.39
685.4	9708.67
685.748	9596.13
686.095	9666.86
686.443	9581.44
686.79	9633.42
687.138	9651.72
687.485	9609.01
687.832	9606.08
688.18	9577.6
688.527	9477.49
688.874	9518.85
689.221	9438.17
689.568	9517.72
689.915	9380.54
690.262	9452.41
690.609	9357.95
690.956	9383.26
691.303	9307.78
691.65	9234.11
691.997	9305.74
692.344	9211.96
692.69	9182.36
693.037	9133.77
693.383	9094.45
693.73	9122.47
694.077	8979.88
694.423	9018.75
694.769	8978.07
695.116	8963.38
695.462	8974.91
695.808	8938.97
696.155	8962.48
696.501	8886.09
696.847	8867.79
697.193	8795.25
697.539	8808.81
697.885	8752.99
698.231	8677.96
698.577	8703.05
698.923	8672.77
699.269	8565.2
699.614	8602.94
699.96	8578.31
700.306	8548.7
700.651	8485.43
700.997	8478.87
701.342	8438.42
701.688	8484.07
702.033	8398.2
702.379	8373.34
702.724	8365.2
703.069	8331.08
703.415	8207.47
703.76	8256.51
704.105	8278.43
704.45	8198.43
704.795	8138.09
705.14	8177.86
705.485	8176.06
705.83	8147.36
706.175	8100.13
706.52	8078.21
706.865	8017.64
707.209	8026.68
707.554	7965.89
707.899	8037.08
708.243	7960.02
708.588	7952.79
708.932	7897.19
709.277	7878.66
709.621	7852.22
709.966	7900.81
710.31	7898.55
710.654	7799.34
710.998	7747.14
711.342	7733.81
711.687	7787.14
712.031	7717.31
712.375	7691.1
712.719	7738.78
713.063	7708.95
713.407	7676.86
713.75	7658.56
714.094	7611.78
714.438	7577.65
714.782	7576.98
715.125	7612.23
715.469	7569.97
715.812	7595.51
716.156	7471.44
716.499	7482.97
716.843	7494.94
717.186	7520.93
717.53	7507.15
717.873	7534.27
718.216	7458.79
718.559	7479.13
718.902	7443.65
719.246	7442.52
719.589	7335.4
719.932	7405.68
720.275	7391.9
720.617	7338.34
720.96	7341.5
721.303	7419.24
721.646	7364.33
721.989	7303.54
722.331	7359.58
722.674	7353.93
723.016	7378.34
723.359	7326.81
723.701	7287.72
724.044	7271.9
724.386	7200.04
724.729	7315.29
725.071	7280.94
725.413	7267.61
725.755	7236.19
726.097	7254.5
726.439	7179.25
726.782	7208.85
727.124	7284.33
727.465	7205.23
727.807	7168.17
728.149	7206.82
728.491	7197.1
728.833	7215.4
729.175	7193.71
729.516	7158.23
729.858	7162.75
730.199	7228.74
730.541	7183.77
730.882	7153.48
731.224	7188.74
731.565	7152.58
731.906	7178.34
732.248	7202.07
732.589	7113.49
732.93	7096.08
733.271	7182.64
733.612	7206.82
733.953	7146.25
734.294	7197.78
734.635	7172.69
734.976	7182.86
735.317	7142.41
735.658	7129.53
735.999	7130.66
736.339	7138.57
736.68	7151.45
737.021	7182.18
737.361	7154.84
737.702	7202.75
738.042	7219.92
738.383	7158.91
738.723	7184.22
739.063	7224.67
739.404	7233.26
739.744	7274.61
740.084	7263.76
740.424	7323.65
740.764	7214.73
741.104	7243.88
741.444	7283.42
741.784	7266.48
742.124	7252.92
742.464	7277.1
742.804	7351.45
743.143	7359.58
743.483	7371.78
743.823	7336.08
744.162	7458.11
744.502	7436.19
744.841	7461.05
745.181	7460.37
745.52	7466.7
745.86	7545.11
746.199	7591.66
746.538	7580.59
746.877	7676.86
747.216	7661.72
747.556	7739.68
747.895	7794.15
748.234	7761.83
748.573	7799.12
748.911	7922.5
749.25	7939.9
749.589	7939.68
749.928	7997.08
750.267	8110.97
750.605	8177.86
750.944	8218.31
751.283	8269.16
751.621	8379.44
751.96	8392.32
752.298	8574.46
752.636	8584.18
752.975	8663.95
753.313	8726.55
753.651	8833.89
753.989	8897.85
754.327	9064.85
754.666	9024.85
755.004	9200.66
755.342	9353.65
755.679	9444.5
756.017	9545.29
756.355	9709.58
756.693	9766.07
757.031	9874.09
757.368	10000.64
757.706	10129.68
758.044	10292.61
758.381	10356.56
758.719	10579.61
759.056	10767.63
759.394	10877
759.731	10935.53
760.068	11026.6
760.405	11226.82
760.743	11377.55
761.08	11541.17
761.417	11710.2
761.754	11815.96
762.091	12006.24
762.428	12158.78
762.765	12259.56
763.102	12516.06
763.438	12558.54
763.775	12756.95
764.112	12937.29
764.449	13101.8
764.785	13230.84
765.122	13311.97
765.458	13442.36
765.795	13617.04
766.131	13805.06
766.467	13942.23
766.804	14003.93
767.14	14143.58
767.476	14260.42
767.812	14293.86
768.148	14492.27
768.485	14667.86
768.821	14574.76
769.157	14888.65
769.492	15010.23
769.828	15052.49
770.164	15123.44
770.5	15270.56
770.836	15386.04
771.171	15362.08
771.507	15527.73
771.842	15524.56
772.178	15711.9
772.513	15761.39
772.849	15881.39
773.184	15845.23
773.519	16069.63
773.855	16038.9
774.19	16157.32
774.525	16165
774.86	16284.77
775.195	16239.35
775.53	16396.18
775.865	16308.95
776.2	16312.11
776.535	16360.25
776.87	16464.43
777.205	16556.4
777.539	16523.18
777.874	16601.6
778.209	16502.62
778.543	16579.45
778.878	16655.38
779.212	16636.62
779.547	16611.99
779.881	16732.67
780.215	16727.02
780.55	16782.84
780.884	16715.49
781.218	16653.8
781.552	16741.48
781.886	16816.28
782.22	16715.94
782.554	16744.19
782.888	16625.78
783.222	16678.66
783.556	16665.78
783.889	16564.31
784.223	16558.66
784.557	16547.59
784.89	16717.98
785.224	16623.07
785.557	16690.63
785.891	16555.72
786.224	16589.85
786.558	16617.64
786.891	16464.2
787.224	16556.4
787.557	16576.29
787.891	16520.24
788.224	16477.76
788.557	16570.86
788.89	16589.17
789.223	16510.75
789.556	16423.3
789.888	16429.4
790.221	16389.4
790.554	16237.09
790.887	16313.47
791.219	16259.01
791.552	16190.99
791.884	16197.31
792.217	16205.68
792.549	16190.53
792.882	16054.95
793.214	15974.72
793.546	16082.97
793.879	15993.48
794.211	15923.42
794.543	15915.51
794.875	16003.42
795.207	16013.14
795.539	15820.6
795.871	15859.92
796.203	15757.55
796.535	15765.91
796.867	15748.06
797.198	15647.72
797.53	15673.03
797.862	15558.01
798.193	15597.56
798.525	15451.57
798.856	15611.79
799.188	15422.42
799.519	15393.04
799.85	15336.55
800.182	15292.71
800.513	15363.21
800.844	15201.41
801.175	15331.57
801.506	15223.33
801.837	15233.27
802.168	15220.84
802.499	15090.45
802.83	14989.89
803.161	14978.36
803.491	15056.1
803.822	15037.8
804.153	14984.69
804.483	14867.41
804.814	14799.38
805.145	14833.28
805.475	14858.37
805.805	14692.5
806.136	14828.08
806.466	14718.03
806.796	14717.58
807.126	14587.64
807.457	14605.72
807.787	14560.97
808.117	14558.26
808.447	14443.46
808.777	14520.07
809.107	14351.04
809.436	14435.78
809.766	14330.02
810.096	14388.1
810.426	14323.92
810.755	14424.93
811.085	14339.51
811.414	14216.58
811.744	14130.93
812.073	14135.45
812.403	14194.43
812.732	14095
813.061	14093.41
813.39	14052.29
813.719	14050.93
814.049	14053.64
814.378	13989.24
814.707	13950.14
815.036	13951.05
815.365	13898.84
815.693	13809.81
816.022	13792.41
816.351	13716.48
816.68	13704.05
817.008	13788.79
817.337	13644.84
817.665	13674.89
817.994	13686.42
818.322	13623.82
818.651	13625.63
818.979	13458.4
819.307	13659.08
819.636	13558.06
819.964	13495.01
820.292	13531.85
820.62	13558.74
820.948	13499.53
821.276	13565.74
821.604	13545.63
821.932	13477.16
822.259	13580.21
822.587	13525.07
822.915	13441.68
823.243	13537.27
823.57	13391.96
823.898	13470.38
824.225	13438.29
824.553	13427.22
824.88	13468.8
825.207	13528.46
825.535	13426.31
825.862	13477.61
826.189	13426.77
826.516	13567.1
826.843	13494.11
827.17	13502.02
827.497	13546.99
827.824	13556.93
828.151	13542.69
828.478	13453.66
828.805	13627.21
829.131	13493.2
829.458	13508.35
829.785	13422.7
830.111	13466.54
830.438	13528.68
830.764	13541.11
831.09	13551.51
831.417	13433.32
831.743	13476.26
832.069	13472.41
832.395	13452.08
832.722	13538.63
833.048	13437.61
833.374	13469.93
833.7	13364.39
834.026	13392.42
834.351	13448.91
834.677	13404.62
835.003	13385.86
835.329	13512.41
835.654	13320.1
835.98	13311.06
836.306	13347.67
836.631	13332.08
836.956	13335.02
837.282	13326.2
837.607	13276.94
837.932	13241.69
838.258	13242.14
838.583	13252.08
838.908	13113.55
839.233	13112.88
839.558	13065.19
839.883	13078.07
840.208	13055.48
840.533	13111.29
840.858	13074.23
841.182	13018.41
841.507	13030.84
841.832	12944.29
842.156	12918.3
842.481	12988.36
842.805	12855.26
843.13	12872.66
843.454	12791.3
843.778	12850.51
844.103	12860.23
844.427	12724.41
844.751	12710.63
845.075	12603.74
845.399	12661.36
845.723	12628.37
846.047	12605.09
846.371	12524.87
846.695	12505.21
847.019	12369.17
847.343	12362.16
847.666	12307.47
847.99	12268.83
848.313	12241.94
848.637	12183.63
848.96	12136.86
849.284	12069.97
849.607	12030.87
849.931	12044.88
850.254	11907.03
850.577	11959.91
850.9	11802.85
851.223	11782.06
851.546	11714.04
851.869	11662.74
852.192	11708.39
852.515	11538.91
852.838	11566.7
853.161	11564.89
853.483	11458.68
853.806	11417.78
854.129	11385.01
854.451	11345.69
854.774	11316.09
855.096	11303.66
855.419	11169.42
855.741	11173.94
856.063	11205.13
856.385	11089.2
856.708	11110.67
857.03	11124.45
857.352	11051.69
857.674	11049.65
857.996	11004.68
858.318	10944.57
858.64	10950.67
858.961	10910
859.283	10897.34
859.605	10829.32
859.926	10846.04
860.248	10788.19
860.57	10763.33
860.891	10718.59
861.212	10671.36
861.534	10626.16
861.855	10658.25
862.176	10642.43
862.498	10625.26
862.819	10651.25
863.14	10531.25
863.461	10633.17
863.782	10606.73
864.103	10534.19
864.424	10460.29
864.745	10454.41
865.065	10464.36
865.386	10424.58
865.707	10430.01
866.027	10344.81
866.348	10345.72
866.668	10362.89
866.989	10345.72
867.309	10283.35
867.63	10273.18
867.95	10299.39
868.27	10278.83
868.59	10226.85
868.91	10224.14
869.23	10244.25
869.55	10225.27
869.87	10303.68
870.19	10155.67
870.51	10220.97
870.83	10190.24
871.15	10121.09
871.469	10215.1
871.789	10189.11
872.109	10101.2
872.428	9995.22
872.748	10110.92
873.067	10051.04
873.386	10032.5
873.706	9985.05
874.025	9923.35
874.344	9933.75
874.663	9910.93
874.982	9948.89
875.301	9912.96
875.62	9914.09
875.939	9934.43
876.258	9881.1
876.577	9778.5
876.896	9827.09
877.214	9747.54
877.533	9849.46
877.852	9851.94
878.17	9752.29
878.489	9788.67
878.807	9732.85
879.125	9727.65
879.444	9710.71
879.762	9681.1
880.08	9705.96
880.398	9642.01
880.716	9659.18
881.034	9658.73
881.352	9636.58
881.67	9628.67
881.988	9548.45
882.306	9522.01
882.624	9516.59
882.941	9419.87
883.259	9467.55
883.577	9483.59
883.894	9449.02
884.212	9415.12
884.529	9458.28
884.846	9385.52
885.164	9402.46
885.481	9347.78
885.798	9292.64
886.115	9293.09
886.432	9258.74
886.75	9211.74
887.067	9267.55
887.383	9242.69
887.7	9237.5
888.017	9194.11
888.334	9178.06
888.651	9169.25
888.967	9149.14
889.284	9054.45
889.6	9032.98
889.917	8967.67
890.233	8991.63
890.55	8914.12
890.866	8961.8
891.182	8905.53
891.498	8854.91
891.815	8866.43
892.131	8822.37
892.447	8806.77
892.763	8750.28
893.079	8802.03
893.395	8734.69
893.71	8690.84
894.026	8694.69
894.342	8663.5
894.657	8590.06
894.973	8610.62
895.289	8572.88
895.604	8543.05
895.92	8516.16
896.235	8451.98
896.55	8466.44
896.865	8419.89
897.181	8386.22
897.496	8404.3
897.811	8328.37
898.126	8316.84
898.441	8266
898.756	8294.92
899.071	8178.32
899.386	8198.43
899.7	8146.23
900.015	8101.93
900.33	8050.18
900.644	8059.22
900.959	8033.01
901.273	7979.23
901.588	8014.7
901.902	7914.37
902.216	7897.42
902.531	7867.82
902.845	7882.28
903.159	7816.07
903.473	7757.31
903.787	7767.03
904.101	7770.87
904.415	7696.29
904.729	7609.52
905.042	7601.38
905.356	7597.99
905.67	7569.97
905.984	7616.3
906.297	7487.03
906.611	7535.17
906.924	7460.14
907.237	7474.15
907.551	7403.42
907.864	7396.64
908.177	7399.13
908.491	7392.12
908.804	7338.34
909.117	7245.91
909.43	7217.89
909.743	7193.94
910.056	7173.6
910.368	7167.5
910.681	7074.62
910.994	7090.44
911.307	7071.9
911.619	6980.83
911.932	7016.31
912.244	6915.3
912.557	7012.47
912.869	6901.06
913.181	6890.44
913.494	6892.47
913.806	6827.17
914.118	6808.63
914.43	6739.03
914.742	6779.71
915.054	6709.43
915.366	6696.77
915.678	6665.59
915.99	6633.5
916.302	6583.56
916.613	6635.98
916.925	6590.56
917.236	6535.2
917.548	6459.94
917.859	6506.95
918.171	6475.08
918.482	6433.96
918.794	6408.87
919.105	6400.06
919.416	6358.7
919.727	6316.67
920.038	6319.38
920.349	6276.67
920.66	6220.63
920.971	6231.25
921.282	6214.3
921.593	6159.84
921.903	6121.19
922.214	6116.22
922.525	6101.31
922.835	6049.56
923.146	6004.14
923.456	6028.99
923.767	6006.17
924.077	5905.38
924.387	5970.24
924.697	5936.57
925.008	5866.96
925.318	5891.14
925.628	5859.28
925.938	5784.25
926.248	5797.14
926.558	5800.53
926.867	5752.84
927.177	5744.71
927.487	5726.18
927.796	5660.87
928.106	5719.62
928.416	5632.17
928.725	5626.29
929.034	5575.9
929.344	5577.48
929.653	5593.75
929.962	5490.48
930.271	5550.59
930.581	5473.75
930.89	5459.52
931.199	5433.08
931.508	5459.29
931.817	5406.86
932.125	5386.07
932.434	5387.43
932.743	5299.75
933.051	5285.74
933.36	5255.91
933.669	5221.78
933.977	5242.35
934.286	5235.34
934.594	5193.31
934.902	5222.24
935.21	5174.55
935.519	5073.09
935.827	5156.47
936.135	5135.68
936.443	5018.63
936.751	5061.11
937.059	5016.14
937.367	5036.93
937.674	4995.8
937.982	4994.22
938.29	4931.4
938.597	4932.98
938.905	4903.37
939.213	4893.88
939.52	4865.41
939.827	4866.76
940.135	4831.06
940.442	4796.48
940.749	4794
941.056	4787.44
941.363	4752.42
941.67	4730.5
941.977	4665.41
942.284	4675.13
942.591	4675.81
942.898	4646.21
943.205	4615.25
943.511	4568.92
943.818	4589.48
944.125	4541.12
944.431	4551.07
944.738	4565.53
945.044	4521.24
945.35	4484.4
945.657	4456.83
945.963	4403.95
946.269	4410.51
946.575	4395.36
946.881	4368.7
947.187	4390.17
947.493	4422.93
947.799	4362.6
948.105	4296.16
948.41	4328.25
948.716	4296.84
949.022	4261.13
949.327	4274.69
949.633	4227.91
949.938	4221.13
950.244	4181.36
950.549	4127.58
950.854	4176.61
951.16	4127.58
951.465	4130.06
951.77	4120.12
952.075	4059.78
952.38	4096.39
952.685	4087.35
952.99	4048.93
953.294	3990.86
953.599	3998.99
953.904	4000.35
954.209	3960.12
954.513	3938.2
954.818	3892.33
955.122	3940.91
955.426	3883.06
955.731	3907.02
956.035	3850.07
956.339	3860.46
956.643	3869.95
956.948	3843.74
957.252	3788.37
957.556	3787.7
957.86	3764.87
958.163	3807.13
958.467	3763.97
958.771	3687.59
959.075	3725.33
959.378	3690.98
959.682	3701.6
959.985	3652.56
960.289	3627.7
960.592	3663.41
960.896	3614.37
961.199	3620.02
961.502	3595.39
961.805	3615.5
962.108	3537.99
962.411	3546.8
962.714	3523.52
963.017	3504.99
963.32	3498.67
963.623	3512.22
963.926	3488.5
964.228	3431.32
964.531	3430.64
964.833	3452.79
965.136	3380.02
965.438	3373.92
965.741	3352.23
966.043	3361.04
966.345	3340.03
966.648	3324.66
966.95	3309.74
967.252	3276.07
967.554	3282.4
967.856	3276.3
968.158	3273.81
968.46	3259.8
968.761	3225.9
969.063	3213.7
969.365	3198.79
969.666	3227.03
969.968	3193.81
970.269	3156.08
970.571	3135.96
970.872	3142.97
971.174	3115.17
971.475	3046.25
971.776	3112.01
972.077	3064.1
972.378	3078.56
972.679	3042.63
972.98	3051.22
973.281	3046.25
973.582	3042.41
973.883	3011.67
974.183	2995.85
974.484	2993.37
974.785	2950.88
975.085	2978.45
975.386	2955.18
975.686	2941.84
975.986	2912.92
976.287	2929.87
976.587	2878.57
976.887	2856.2
977.187	2890.09
977.487	2862.52
977.787	2840.38
978.087	2808.29
978.387	2801.51
978.687	2803.54
978.987	2799.25
979.286	2784.33
979.586	2752.7
979.885	2780.72
980.185	2746.37
980.484	2706.14
980.784	2749.08
981.083	2691.68
981.382	2719.25
981.682	2706.14
981.981	2688.06
982.28	2687.84
982.579	2629.99
982.878	2639.03
983.177	2612.36
983.475	2608.07
983.774	2615.52
984.073	2553.83
984.372	2561.29
984.67	2574.4
984.969	2528.75
985.267	2538.01
985.566	2549.99
985.864	2527.39
986.162	2504.57
986.461	2463.66
986.759	2492.59
987.057	2463.66
987.355	2468.18
987.653	2438.35
987.951	2429.31
988.249	2391.35
988.547	2409.88
988.844	2413.27
989.142	2432.7
989.44	2382.54
989.737	2329.43
990.035	2343.22
990.332	2340.73
990.63	2363.55
990.927	2341.86
991.224	2309.09
991.521	2339.6
991.819	2305.7
992.116	2282.43
992.413	2245.82
992.71	2273.39
993.006	2247.62
993.303	2245.82
993.6	2234.29
993.897	2225.93
994.193	2215.99
994.49	2208.3
994.787	2203.78
995.083	2157.23
995.379	2193.16
995.676	2157.01
995.972	2133.05
996.268	2139.38
996.565	2096.22
996.861	2136.22
997.157	2106.84
997.453	2119.72
997.749	2090.34
998.044	2088.08
998.34	2064.13
998.636	2083.56
998.932	2065.26
999.227	2034.52
999.523	2013.05
999.818	2035.2
1000.114	1987.97
1000.409	1994.98
1000.704	1973.28
1001	1943.68
1001.295	1977.35
1001.59	1967.86
1001.885	1970.8
1002.18	1925.15
1002.475	1924.24
1002.77	1940.29
1003.065	1894.41
1003.359	1921.31
1003.654	1894.19
1003.949	1892.38
1004.243	1868.2
1004.538	1877.69
1004.832	1847.64
1005.127	1853.06
1005.421	1840.63
1005.715	1832.95
1006.009	1863.45
1006.304	1782.78
1006.598	1790.69
1006.892	1781.65
1007.186	1780.74
1007.48	1765.83
1007.773	1721.99
1008.067	1773.51
1008.361	1717.02
1008.655	1714.08
1008.948	1725.83
1009.242	1691.03
1009.535	1684.48
1009.829	1669.33
1010.122	1642.89
1010.415	1678.37
1010.708	1642.67
1011.001	1654.42
1011.295	1627.98
1011.588	1614.19
1011.881	1610.81
1012.173	1595.21
1012.466	1592.73
1012.759	1592.73
1013.052	1578.94
1013.344	1557.02
1013.637	1550.47
1013.93	1547.08
1014.222	1533.07
1014.514	1535.78
1014.807	1524.93
1015.099	1495.33
1015.391	1494.88
1015.683	1477.25
1015.976	1477.7
1016.268	1478.83
1016.56	1453.75
1016.851	1456.91
1017.143	1482.45
1017.435	1462.79
1017.727	1406.29
1018.018	1412.84
1018.31	1415.78
1018.602	1406.29
1018.893	1418.49
1019.185	1373.07
1019.476	1382.11
1019.767	1402
1020.058	1362.45
1020.35	1363.81
1020.641	1351.38
1020.932	1333.98
1021.223	1307.99
1021.514	1336.69
1021.804	1321.32
1022.095	1299.63
1022.386	1300.76
1022.677	1296.92
1022.967	1281.77
1023.258	1282.23
1023.548	1274.09
1023.839	1231.15
1024.129	1273.19
1024.419	1253.75
1024.709	1252.4
1025	1222.11
1025.29	1216.47
1025.58	1216.01
1025.87	1199.74
1026.16	1187.09
1026.449	1205.17
1026.739	1178.95
1027.029	1150.7
1027.319	1153.42
1027.608	1143.7
1027.898	1150.48
1028.187	1124.49
1028.477	1128.78
1028.766	1127.88
1029.055	1115
1029.344	1122.46
1029.634	1134.43
1029.923	1094.43
1030.212	1110.03
1030.501	1098.28
1030.79	1090.14
1031.078	1084.72
1031.367	1047.2
1031.656	1069.12
1031.945	1062.34
1032.233	1031.16
1032.522	1035
1032.81	1015.11
1033.099	1026.41
1033.387	1035.68
1033.675	1018.96
1033.963	1011.05
1034.251	995
1034.54	1010.59
1034.828	985.28
1035.116	977.15
1035.403	978.51
1035.691	978.51
1035.979	970.14
1036.267	972.4
1036.554	957.04
1036.842	947.32
1037.129	938.51
1037.417	938.28
1037.704	932.86
1037.992	930.37
1038.279	912.29
1038.566	907.77
1038.853	907.77
1039.14	907.77
