Data from hue_210_FLMS001491_00059.txt Node
Date: Tue Feb 07 16:41:24 GMT 2017
User: dcchb
Spectrometer: FLMS00149
Trigger mode: 0
Integration Time (sec): 2.000000E-2
Scans to average: 10
Electric dark correction enabled: true
Nonlinearity correction enabled: false
Boxcar width: 0
XAxis mode: Wavelengths
Number of Pixels in Spectrum: 2048
>>>>>Begin Spectral Data<<<<<
341.393	-9.96
341.776	-9.96
342.16	-9.96
342.543	-61.93
342.927	-61.26
343.31	-62.39
343.693	-87.24
344.077	-60.35
344.46	-50.18
344.843	-59.67
345.226	-27.58
345.61	-37.75
345.993	-16.96
346.376	-7.7
346.759	30.04
347.142	17.16
347.525	33.66
347.908	30.49
348.291	79.08
348.674	105.75
349.057	113.66
349.44	131.73
349.823	153.65
350.206	143.48
350.588	183.94
350.971	182.13
351.354	198.62
351.737	242.01
352.119	233.2
352.502	241.79
352.884	274.33
353.267	304.16
353.65	290.37
354.032	279.98
354.414	313.88
354.797	298.28
355.179	297.38
355.562	331.95
355.944	310.71
356.326	314.55
356.709	333.54
357.091	326.08
357.473	324.95
357.855	352.74
358.238	327.21
358.62	346.19
359.002	355.46
359.384	352.07
359.766	338.96
360.148	326.53
360.53	325.85
360.912	333.31
361.294	322.92
361.676	339.86
362.057	314.78
362.439	311.16
362.821	324.72
363.203	327.43
363.584	337.38
363.966	324.05
364.348	302.58
364.729	314.1
365.111	290.37
365.493	303.71
365.874	313.65
366.256	311.62
366.637	309.36
367.019	292.41
367.4	297.83
367.781	298.74
368.163	309.58
368.544	304.16
368.925	313.2
369.306	326.98
369.688	284.72
370.069	287.44
370.45	309.13
370.831	310.49
371.212	306.64
371.593	300.99
371.974	301.45
372.355	311.62
372.736	298.28
373.117	290.83
373.498	305.29
373.879	307.55
374.26	307.32
374.641	291.05
375.021	314.33
375.402	312.75
375.783	308.9
376.163	323.37
376.544	313.2
376.925	332.18
377.305	304.16
377.686	297.61
378.066	312.75
378.447	331.73
378.827	317.94
379.208	315.01
379.588	315.23
379.968	324.95
380.349	325.85
380.729	307.77
381.109	333.08
381.489	334.67
381.87	335.8
382.25	305.29
382.63	345.51
383.01	331.5
383.39	323.14
383.77	333.08
384.15	336.02
384.53	347.1
384.91	330.82
385.29	320.66
385.67	315.68
386.049	362.24
386.429	342.58
386.809	331.28
387.189	341.22
387.568	344.84
387.948	327.43
388.328	339.19
388.707	348.45
389.087	344.61
389.466	340.77
389.846	361.33
390.225	319.07
390.605	322.01
390.984	357.04
391.363	357.72
391.743	371.28
392.122	340.99
392.501	350.26
392.881	378.28
393.26	362.46
393.639	347.1
394.018	362.24
394.397	367.66
394.776	369.47
395.155	368.11
395.534	380.31
395.913	359.75
396.292	377.15
396.671	366.76
397.05	400.43
397.429	389.58
397.808	356.36
398.186	371.28
398.565	373.08
398.944	375.8
399.323	381.67
399.701	368.11
400.08	389.13
400.458	381.67
400.837	393.42
401.215	407.43
401.594	385.29
401.972	410.37
402.351	398.85
402.729	411.95
403.107	411.05
403.486	408.56
403.864	407.21
404.242	410.14
404.62	426.64
404.999	439.3
405.377	418.96
405.755	414.21
406.133	446.08
406.511	454.89
406.889	450.82
407.267	455.57
407.645	465.96
408.023	454.21
408.401	481.56
408.779	476.36
409.156	464.61
409.534	508.22
409.912	489.92
410.29	489.24
410.667	499.86
411.045	493.98
411.422	527.2
411.8	520.88
412.178	539.41
412.555	543.25
412.933	551.38
413.31	543.25
413.687	562.46
414.065	578.73
414.442	592.96
414.819	582.34
415.197	612.4
415.574	612.85
415.951	613.98
416.328	608.11
416.705	630.25
417.082	634.09
417.46	637.71
417.837	671.61
418.214	659.86
418.591	672.28
418.967	692.62
419.344	675.22
419.721	675.22
420.098	707.09
420.475	731.04
420.852	706.63
421.228	723.36
421.605	748.67
421.982	770.36
422.358	770.81
422.735	802.68
423.111	800.87
423.488	814.2
423.864	808.1
424.241	831.15
424.617	867.53
424.994	846.74
425.37	846.74
425.746	880.19
426.123	914.09
426.499	880.41
426.875	930.81
427.251	936.23
427.627	967.64
428.003	974.65
428.379	988.43
428.756	997.25
429.132	1011.71
429.507	1018.72
429.883	1032.28
430.259	1023.24
430.635	1064.82
431.011	1062.33
431.387	1076.79
431.763	1096
432.138	1085.16
432.514	1131.26
432.89	1135.78
433.265	1151.82
433.641	1188.43
434.016	1218.94
434.392	1262.33
434.767	1269.78
435.143	1274.53
435.518	1289.9
435.894	1296.22
436.269	1332.38
436.644	1375.09
437.02	1384.13
437.395	1377.58
437.77	1437.69
438.145	1431.59
438.52	1460.51
438.895	1482.43
439.271	1506.16
439.646	1525.14
440.021	1558.81
440.395	1587.06
440.77	1541.87
441.145	1580.96
441.52	1618.7
441.895	1646.27
442.27	1638.36
442.645	1664.35
443.019	1703.44
443.394	1713.39
443.769	1714.74
444.143	1727.17
444.518	1762.2
444.892	1778.7
445.267	1810.79
445.641	1833.61
446.016	1814.4
446.39	1850.33
446.764	1820.28
447.139	1837.23
447.513	1885.59
447.887	1856.66
448.262	1865.25
448.636	1919.03
449.01	1911.35
449.384	1927.62
449.758	1957.45
450.132	1981.85
450.506	1981.4
450.88	2014.85
451.254	2000.16
451.628	2021.18
452.002	2094.17
452.376	2084.68
452.75	2088.52
453.123	2112.25
453.497	2125.58
453.871	2176.2
454.244	2212.36
454.618	2232.02
454.992	2251.9
455.365	2229.76
455.739	2326.25
456.112	2317.89
456.486	2348.4
456.859	2392.69
457.232	2401.28
457.606	2401.28
457.979	2412.13
458.352	2487.15
458.725	2487.6
459.099	2509.75
459.472	2548.85
459.845	2577.55
460.218	2568.73
460.591	2615.06
460.964	2624.1
461.337	2691.44
461.71	2738.22
462.083	2781.83
462.456	2732.34
462.829	2806.01
463.201	2813.7
463.574	2811.89
463.947	2848.95
464.32	2914.71
464.692	2956.97
465.065	2937.76
465.438	3013.47
465.81	3053.46
466.183	3127.59
466.555	3137.08
466.928	3140.69
467.3	3160.58
467.672	3183.4
468.045	3279.9
468.417	3265.66
468.789	3305.44
469.161	3342.27
469.534	3407.13
469.906	3432.44
470.278	3482.38
470.65	3516.05
471.022	3556.5
471.394	3617.74
471.766	3661.36
472.138	3701.58
472.51	3747.46
472.882	3808.25
473.253	3834.69
473.625	3865.42
473.997	3944.97
474.369	3981.35
474.74	4019.54
475.112	4054.12
475.484	4159.88
475.855	4236.03
476.227	4236.26
476.598	4350.83
476.97	4359.19
477.341	4439.64
477.713	4439.19
478.084	4522.35
478.455	4705.85
478.827	4658.39
479.198	4777.94
479.569	4792.85
479.94	4910.37
480.311	4949.01
480.682	5052.06
481.053	5140.19
481.424	5186.06
481.795	5228.32
482.166	5313.52
482.537	5378.15
482.908	5466.06
483.279	5520.97
483.65	5634.19
484.021	5655.88
484.391	5734.07
484.762	5812.94
485.133	5769.55
485.503	5898.59
485.874	5966.61
486.244	5986.27
486.615	6148.52
486.985	6217.22
487.356	6328.63
487.726	6334.06
488.097	6472.81
488.467	6506.26
488.837	6604.78
489.207	6607.5
489.578	6717.32
489.948	6730.2
490.318	6861.95
490.688	6888.39
491.058	6964.77
491.428	7010.87
491.798	7092.45
492.168	7222.39
492.538	7186.01
492.908	7285.44
493.278	7327.93
493.648	7403.63
494.017	7444.31
494.387	7475.72
494.757	7500.81
495.126	7627.13
495.496	7539.45
495.866	7667.35
496.235	7681.82
496.605	7803.62
496.974	7826.22
497.344	7813.57
497.713	7891.76
498.082	7906.44
498.452	7926.56
498.821	7966.56
499.19	8049.49
499.559	8079.1
499.928	8130.62
500.298	8150.28
500.667	8172.65
501.036	8117.29
501.405	8255.81
501.774	8228.24
502.143	8263.05
502.512	8300.78
502.88	8372.65
503.249	8336.72
503.618	8463.94
503.987	8423.04
504.356	8471.63
504.724	8465.07
505.093	8510.27
505.462	8453.32
505.83	8523.15
506.199	8521.12
506.567	8682.7
506.936	8628.23
507.304	8673.88
507.672	8750.72
508.041	8753.2
508.409	8678.18
508.777	8761.34
509.145	8794.56
509.514	8747.55
509.882	8824.61
510.25	8881.33
510.618	8805.86
510.986	8794.56
511.354	8828.23
511.722	8981.9
512.09	8966.3
512.458	8931.05
512.826	9005.62
513.193	9008.11
513.561	9024.16
513.929	9072.97
514.297	9068.22
514.664	9066.64
515.032	9039.07
515.4	9075.45
515.767	9104.61
516.135	9079.75
516.502	9014.21
516.869	9123.59
517.237	9125.4
517.604	9003.82
517.972	9098.96
518.339	9133.76
518.706	9129.69
519.073	9087.88
519.44	9116.81
519.808	9165.17
520.175	9150.48
520.542	9229.35
520.909	9196.81
521.276	9139.41
521.643	9230.03
522.009	9216.92
522.376	9228.22
522.743	9263.92
523.11	9244.04
523.477	9266.18
523.843	9270.7
524.21	9333.07
524.577	9328.78
524.943	9267.54
525.31	9278.39
525.676	9365.62
526.043	9391.15
526.409	9355.9
526.776	9387.99
527.142	9364.03
527.508	9382.11
527.874	9317.03
528.241	9395.67
528.607	9365.62
528.973	9368.33
529.339	9284.49
529.705	9386.63
530.071	9372.62
530.437	9369.01
530.803	9358.84
531.169	9339.4
531.535	9369.23
531.901	9279.29
532.267	9272.06
532.632	9227.99
532.998	9276.13
533.364	9207.88
533.73	9172.85
534.095	9260.08
534.461	9180.54
534.826	9152.97
535.192	9155.9
535.557	9198.39
535.923	9132.85
536.288	9108.9
536.653	9144.38
537.019	9006.08
537.384	9029.8
537.749	9000.65
538.114	8928.79
538.479	8884.27
538.845	8899.86
539.21	8854.67
539.575	8926.08
539.94	8863.48
540.305	8860.32
540.67	8795.91
541.034	8727.89
541.399	8716.59
541.764	8689.93
542.129	8623.26
542.494	8683.83
542.858	8620.78
543.223	8561.79
543.587	8577.16
543.952	8480.89
544.316	8477.96
544.681	8438.86
545.045	8417.17
545.41	8389.37
545.774	8385.3
546.138	8323.83
546.503	8283.16
546.867	8313.44
547.231	8301.69
547.595	8254.01
547.959	8173.1
548.324	8208.81
548.688	8137.17
549.052	8131.3
549.416	8095.14
549.779	8055.59
550.143	8006.78
550.507	7964.3
550.871	7913.9
551.235	7975.37
551.599	7943.73
551.962	7836.84
552.326	7876.16
552.689	7876.84
553.053	7771.98
553.417	7768.82
553.78	7787.58
554.143	7755.49
554.507	7728.6
554.87	7677.98
555.234	7757.52
555.597	7620.8
555.96	7628.94
556.323	7592.33
556.686	7593.68
557.05	7610.86
557.413	7614.93
557.776	7515.95
558.139	7502.39
558.502	7510.97
558.865	7470.75
559.228	7502.39
559.59	7472.11
559.953	7439.11
560.316	7476.17
560.679	7450.19
561.041	7423.29
561.404	7397.53
561.767	7435.95
562.129	7416.06
562.492	7415.38
562.854	7384.42
563.217	7330.64
563.579	7381.26
563.941	7363.63
564.304	7403.86
564.666	7436.63
565.028	7411.32
565.39	7396.85
565.753	7392.33
566.115	7403.18
566.477	7442.05
566.839	7414.48
567.201	7441.15
567.563	7320.47
567.925	7465.55
568.287	7381.94
568.648	7377.64
569.01	7422.16
569.372	7466.91
569.734	7410.19
570.095	7424.42
570.457	7472.11
570.819	7425.33
571.18	7392.79
571.542	7454.48
571.903	7480.92
572.265	7426.68
572.626	7446.8
572.987	7477.98
573.349	7476.63
573.71	7437.53
574.071	7496.29
574.432	7462.84
574.794	7598.43
575.155	7518.88
575.516	7544.19
575.877	7533.8
576.238	7480.92
576.599	7555.27
576.96	7505.33
577.32	7579.45
577.681	7617.86
578.042	7527.02
578.403	7524.99
578.763	7552.1
579.124	7564.98
579.485	7543.74
579.845	7593.91
580.206	7573.57
580.566	7593.91
580.927	7581.93
581.287	7655.6
581.648	7635.72
582.008	7639.78
582.368	7615.83
582.728	7652.21
583.089	7666.68
583.449	7717.3
583.809	7729.5
584.169	7698.31
584.529	7642.04
584.889	7745.32
585.249	7666.22
585.609	7634.81
585.969	7687.47
586.329	7689.95
586.688	7683.63
587.048	7663.06
587.408	7667.81
587.768	7662.84
588.127	7723.62
588.487	7670.74
588.846	7760.46
589.206	7694.47
589.565	7716.17
589.925	7721.36
590.284	7727.69
590.643	7733.34
591.003	7735.6
591.362	7746.9
591.721	7814.92
592.08	7784.19
592.44	7764.08
592.799	7738.09
593.158	7734.47
593.517	7787.35
593.876	7767.01
594.235	7747.8
594.593	7780.57
594.952	7798.2
595.311	7758.88
595.67	7749.84
596.029	7788.71
596.387	7799.78
596.746	7803.17
597.104	7718.88
597.463	7759.1
597.822	7825.54
598.18	7734.7
598.538	7777.86
598.897	7798.88
599.255	7701.25
599.613	7839.55
599.972	7766.79
600.33	7818.54
600.688	7786
601.046	7785.54
601.404	7851.76
601.762	7809.95
602.12	7849.5
602.478	7826.67
602.836	7869.61
603.194	7839.55
603.552	7825.77
603.91	7768.82
604.268	7853.56
604.625	7750.74
604.983	7811.98
605.341	7785.54
605.698	7833.68
606.056	7883.62
606.413	7856.73
606.771	7895.82
607.128	7854.24
607.485	7796.17
607.843	7798.65
608.2	7861.25
608.557	7920
608.914	7822.83
609.272	7905.54
609.629	7928.82
609.986	7864.86
610.343	7885.65
610.7	7965.43
611.057	7915.26
611.414	7903.05
611.771	7943.28
612.127	7967.69
612.484	7932.88
612.841	7965.2
613.198	7896.05
613.554	7905.09
613.911	8039.32
614.267	7959.32
614.624	7951.64
614.98	7981.24
615.337	7944.18
615.693	8009.27
616.05	7968.36
616.406	7987.12
616.762	7971.53
617.118	8025.99
617.475	7990.06
617.831	8031.87
618.187	7980.34
618.543	8040.45
618.899	8071.86
619.255	7988.7
619.611	8029.61
619.967	8068.02
620.323	8053.11
620.678	8042.49
621.034	8017.63
621.39	8041.58
621.746	8040.9
622.101	8076.61
622.457	8047.68
622.812	8027.57
623.168	8093.11
623.523	8130.17
623.879	8136.04
624.234	8066.21
624.589	8094.01
624.945	8070.96
625.3	8101.69
625.655	8062.37
626.01	8075.25
626.365	8083.16
626.72	8045.2
627.075	8058.76
627.43	8035.48
627.785	8005.43
628.14	8028.48
628.495	7996.39
628.85	8021.24
629.205	8004.52
629.559	8146.44
629.914	8017.63
630.269	8052.88
630.623	7965.65
630.978	7954.35
631.332	7998.19
631.687	7993.45
632.041	7973.34
632.396	8016.95
632.75	7937.86
633.104	7947.12
633.459	8005.65
633.813	7882.49
634.167	7916.61
634.521	7907.57
634.875	7935.82
635.229	7861.25
635.583	7867.35
635.937	7900.8
636.291	7817.86
636.645	7842.04
636.999	7874.58
637.352	7857.86
637.706	7807.69
638.06	7865.99
638.413	7811.31
638.767	7828.03
639.121	7821.25
639.474	7765.43
639.828	7772.89
640.181	7783.96
640.534	7748.93
640.888	7711.87
641.241	7651.76
641.594	7789.84
641.947	7730.18
642.301	7740.8
642.654	7744.42
643.007	7760.91
643.36	7756.17
643.713	7714.81
644.066	7752.1
644.419	7720.46
644.771	7649.05
645.124	7565.21
645.477	7553.69
645.83	7545.1
646.182	7490.41
646.535	7440.69
646.888	7470.52
647.24	7491.99
647.593	7484.53
647.945	7459.45
648.298	7440.47
648.65	7442.95
649.002	7456.29
649.355	7463.97
649.707	7444.54
650.059	7534.25
650.411	7556.17
650.763	7569.5
651.115	7599.33
651.467	7603.63
651.819	7622.16
652.171	7606.57
652.523	7563.4
652.875	7619.9
653.227	7554.59
653.578	7612.89
653.93	7552.56
654.282	7629.62
654.633	7552.78
654.985	7609.96
655.337	7636.85
655.688	7614.47
656.039	7612.89
656.391	7618.77
656.742	7609.73
657.094	7572.67
657.445	7683.17
657.796	7630.29
658.147	7715.49
658.498	7649.28
658.849	7688.37
659.2	7627.81
659.551	7653.8
659.902	7639.56
660.253	7638.66
660.604	7647.24
660.955	7656.73
661.306	7649.73
661.656	7661.71
662.007	7649.95
662.358	7697.41
662.708	7682.04
663.059	7629.62
663.409	7708.48
663.76	7702.16
664.11	7708.71
664.461	7719.78
664.811	7708.26
665.161	7728.82
665.511	7701.7
665.862	7709.16
666.212	7708.26
666.562	7759.56
666.912	7682.95
667.262	7714.59
667.612	7693.79
667.962	7750.29
668.312	7702.16
668.662	7725.88
669.011	7760.01
669.361	7720.46
669.711	7688.37
670.06	7698.09
670.41	7739.9
670.76	7700.57
671.109	7689.05
671.459	7701.25
671.808	7682.04
672.157	7730.86
672.507	7631.2
672.856	7673.23
673.205	7693.34
673.554	7671.2
673.904	7671.87
674.253	7720.46
674.602	7625.1
674.951	7588.03
675.3	7542.16
675.649	7638.66
675.998	7646.56
676.346	7592.55
676.695	7667.35
677.044	7596.85
677.393	7542.84
677.741	7632.33
678.09	7550.07
678.438	7531.09
678.787	7532.44
679.135	7537.64
679.484	7464.65
679.832	7537.64
680.181	7482.28
680.529	7476.17
680.877	7403.63
681.225	7481.6
681.573	7452.9
681.922	7427.14
682.27	7418.55
682.618	7461.26
682.966	7407.93
683.314	7398.66
683.661	7380.36
684.009	7327.93
684.357	7350.98
684.705	7322.73
685.053	7342.62
685.4	7279.57
685.748	7259.68
686.095	7277.53
686.443	7259.91
686.79	7229.4
687.138	7244.54
687.485	7218.55
687.832	7216.75
688.18	7111.89
688.527	7129.97
688.874	7124.54
689.221	7057.2
689.568	7064.21
689.915	7006.13
690.262	7016.52
690.609	7041.38
690.956	6978.79
691.303	6970.65
691.65	6930.43
691.997	6918.9
692.344	6903.08
692.69	6873.25
693.037	6902.86
693.383	6804.55
693.73	6826.93
694.077	6749.86
694.423	6778.11
694.769	6731.56
695.116	6715.52
695.462	6679.58
695.808	6681.17
696.155	6705.8
696.501	6622.18
696.847	6608.17
697.193	6592.13
697.539	6603.2
697.885	6541.28
698.231	6503.09
698.577	6517.55
698.923	6477.33
699.269	6438.01
699.614	6431.23
699.96	6362.98
700.306	6348.07
700.651	6359.37
700.997	6313.04
701.342	6284.79
701.688	6280.27
702.033	6264.45
702.379	6202.76
702.724	6267.39
703.069	6233.49
703.415	6118.02
703.76	6181.74
704.105	6164.8
704.45	6117.57
704.795	6062.88
705.14	6037.79
705.485	6022.88
705.83	5984.91
706.175	6014.52
706.52	5972.94
706.865	5969.09
707.209	5934.75
707.554	5927.06
707.899	5931.58
708.243	5919.83
708.588	5884.35
708.932	5805.93
709.277	5833.96
709.621	5844.13
709.966	5807.52
710.31	5845.93
710.654	5772.72
710.998	5741.08
711.342	5772.72
711.687	5759.38
712.031	5679.84
712.375	5741.76
712.719	5702.43
713.063	5738.37
713.407	5678.71
713.75	5656.11
714.094	5638.48
714.438	5670.8
714.782	5622.66
715.125	5619.05
715.469	5614.75
715.812	5621.08
716.156	5549.9
716.499	5597.58
716.843	5650.01
717.186	5559.16
717.53	5614.53
717.873	5539.05
718.216	5536.11
718.559	5512.61
718.902	5515.32
719.246	5482.1
719.589	5525.04
719.932	5507.41
720.275	5489.11
720.617	5524.13
720.96	5491.59
721.303	5454.98
721.646	5454.31
721.989	5468.09
722.331	5427.19
722.674	5424.93
723.016	5510.35
723.359	5400.75
723.701	5453.85
724.044	5419.05
724.386	5407.75
724.729	5451.82
725.071	5412.5
725.413	5452.27
725.755	5411.82
726.097	5420.18
726.439	5384.48
726.782	5369.11
727.124	5421.99
727.465	5378.15
727.807	5374.53
728.149	5398.71
728.491	5380.18
728.833	5404.36
729.175	5381.77
729.516	5379.73
729.858	5360.52
730.199	5336.79
730.541	5370.01
730.882	5382.22
731.224	5395.1
731.565	5363.91
731.906	5362.33
732.248	5396.68
732.589	5280.52
732.93	5349.22
733.271	5403.91
733.612	5376.12
733.953	5397.81
734.294	5395.78
734.635	5368.43
734.976	5405.04
735.317	5360.3
735.658	5378.6
735.999	5404.82
736.339	5367.98
736.68	5449.11
737.021	5420.41
737.361	5381.99
737.702	5431.48
738.042	5451.37
738.383	5436.68
738.723	5471.03
739.063	5484.81
739.404	5487.75
739.744	5463.57
740.084	5455.89
740.424	5501.76
740.764	5485.04
741.104	5514.19
741.444	5534.08
741.784	5524.81
742.124	5564.59
742.464	5570.91
742.804	5510.58
743.143	5556.68
743.483	5635.77
743.823	5626.05
744.162	5647.3
744.502	5688.65
744.841	5710.12
745.181	5736.78
745.52	5748.76
745.86	5746.28
746.199	5856.33
746.538	5877.35
746.877	5927.06
747.216	5934.97
747.556	5938.36
747.895	6038.7
748.234	6103.55
748.573	6058.58
748.911	6155.98
749.25	6221.74
749.589	6231.01
749.928	6295.19
750.267	6387.39
750.605	6480.49
750.944	6502.19
751.283	6594.84
751.621	6643.2
751.96	6725.23
752.298	6832.8
752.636	6924.1
752.975	6946.24
753.313	7068.73
753.651	7223.07
753.989	7320.7
754.327	7405.89
754.666	7475.95
755.004	7569.96
755.342	7815.37
755.679	7902.15
756.017	7920.23
756.355	8151.86
756.693	8169.49
757.031	8389.6
757.368	8504.62
757.706	8620.55
758.044	8802.47
758.381	8905.51
758.719	9045.17
759.056	9271.61
759.394	9373.52
759.731	9551.15
760.068	9639.28
760.405	9788.66
760.743	9958.14
761.08	10166.72
761.417	10292.37
761.754	10454.85
762.091	10656.2
762.428	10784.11
762.765	10889.19
763.102	11126.02
763.438	11295.96
763.775	11345.45
764.112	11663.18
764.449	11801.48
764.785	11898.2
765.122	12025.43
765.458	12189.72
765.795	12354.92
766.131	12553.55
766.467	12657.28
766.804	12855.92
767.14	12980.66
767.476	13124.39
767.812	13180.43
768.148	13356.7
768.485	13443.7
768.821	13536.58
769.157	13736.57
769.492	13907.42
769.828	14019.5
770.164	14020.86
770.5	14204.13
770.836	14373.62
771.171	14441.87
771.507	14620.39
771.842	14482.09
772.178	14701.07
772.513	14840.5
772.849	14874.17
773.184	14948.52
773.519	15113.03
773.855	15165.01
774.19	15215.18
774.525	15266.48
774.86	15344.89
775.195	15491.56
775.53	15506.92
775.865	15513.48
776.2	15552.12
776.535	15511.22
776.87	15647.94
777.205	15647.26
777.539	15683.19
777.874	15856.52
778.209	15722.28
778.543	15791.89
778.878	15849.96
779.212	15910.53
779.547	15789.18
779.881	15920.47
780.215	16026.91
780.55	16056.29
780.884	15975.61
781.218	16038.21
781.552	16102.61
781.886	16010.64
782.22	16084.99
782.554	16049.06
782.888	16009.51
783.222	16076.85
783.556	16028.04
783.889	15956.85
784.223	15925.22
784.557	15969.06
784.89	16078.89
785.224	15919.79
785.557	15899.23
785.891	16005.21
786.224	15940.58
786.558	16006.12
786.891	15863.07
787.224	15834.6
787.557	15955.5
787.891	15898.78
788.224	15915.05
788.557	15947.14
788.89	15942.84
789.223	15936.06
789.556	15795.05
789.888	15856.07
790.221	15881.38
790.554	15724.77
790.887	15731.78
791.219	15683.42
791.552	15714.6
791.884	15647.26
792.217	15637.09
792.549	15651.55
792.882	15545.11
793.214	15535.4
793.546	15616.75
793.879	15524.78
794.211	15510.76
794.543	15574.04
794.875	15448.17
795.207	15551.22
795.539	15379.47
795.871	15421.73
796.203	15274.84
796.535	15364.78
796.867	15200.26
797.198	15238.91
797.53	15234.39
797.862	15155.07
798.193	15214.05
798.525	15036.43
798.856	15103.09
799.188	14979.93
799.519	14962.53
799.85	14832.36
800.182	14903.1
800.513	14880.95
800.844	14781.07
801.175	14859.71
801.506	14850.89
801.837	14773.61
802.168	14771.8
802.499	14776.77
802.83	14712.59
803.161	14625.36
803.491	14713.5
803.822	14674.63
804.153	14623.78
804.483	14513.73
804.814	14492.49
805.145	14439.83
805.475	14459.72
805.805	14366.61
806.136	14394.64
806.466	14377.46
806.796	14299.5
807.126	14248.2
807.457	14231.02
807.787	14264.24
808.117	14183.79
808.447	14118.48
808.777	14183.34
809.107	14134.08
809.436	14109.22
809.766	14085.49
810.096	14014.98
810.426	13934.99
810.755	14019.05
811.085	14000.97
811.414	13941.99
811.744	13820.19
812.073	13845.05
812.403	13828.32
812.732	13796.01
813.061	13796.91
813.39	13748.78
813.719	13712.62
814.049	13769.79
814.378	13706.74
814.707	13629.46
815.036	13654.77
815.365	13598.05
815.693	13529.12
816.022	13495.68
816.351	13468.56
816.68	13422.23
817.008	13504.94
817.337	13408.22
817.665	13427.66
817.994	13267.43
818.322	13377.71
818.651	13264.95
818.979	13271.95
819.307	13309.92
819.636	13299.75
819.964	13164.61
820.292	13259.98
820.62	13250.26
820.948	13165.06
821.276	13233.99
821.604	13168.91
821.932	13230.37
822.259	13153.31
822.587	13223.82
822.915	13136.82
823.243	13179.75
823.57	13232.41
823.898	13206.64
824.225	13065.63
824.553	13192.63
824.88	13144.05
825.207	13336.81
825.535	13175.91
825.862	13219.53
826.189	13155.35
826.516	13189.7
826.843	13271.05
827.17	13270.37
827.497	13255.46
827.824	13226.53
828.151	13275.12
828.478	13190.37
828.805	13265.63
829.131	13216.14
829.458	13264.95
829.785	13195.35
830.111	13146.76
830.438	13263.14
830.764	13285.96
831.09	13213.42
831.417	13209.36
831.743	13213.2
832.069	13189.47
832.395	13197.83
832.722	13179.3
833.048	13098.85
833.374	13171.39
833.7	13052.52
834.026	13144.5
834.351	13030.83
834.677	13127.1
835.003	13186.76
835.329	13137.95
835.654	13047.78
835.98	13118.06
836.306	13064.28
836.631	12975.01
836.956	13091.39
837.282	13085.07
837.607	12952.41
837.932	12921.45
838.258	12976.59
838.583	12885.97
838.908	12844.85
839.233	12945.18
839.558	12858.63
839.883	12771.63
840.208	12794.9
840.533	12794
840.858	12849.59
841.182	12836.26
841.507	12786.09
841.832	12669.03
842.156	12708.13
842.481	12653.66
842.805	12619.54
843.13	12575.93
843.454	12520.79
843.778	12563.72
844.103	12518.98
844.427	12481.47
844.751	12531.18
845.075	12487.34
845.399	12485.08
845.723	12363.95
846.047	12402.6
846.371	12244.86
846.695	12285.99
847.019	12152.89
847.343	12116.05
847.666	12063.85
847.99	11939.78
848.313	12039.22
848.637	12051.87
848.96	11866.57
849.284	11829.51
849.607	11744.31
849.931	11691.66
850.254	11640.13
850.577	11655.72
850.9	11591.32
851.223	11544.99
851.546	11493.47
851.869	11480.81
852.192	11438.78
852.515	11319.91
852.838	11352.91
853.161	11352.68
853.483	11249.18
853.806	11224.32
854.129	11236.98
854.451	11144.55
854.774	11095.97
855.096	11111.78
855.419	11063.65
855.741	11011.45
856.063	10932.58
856.385	10949.3
856.708	10864.56
857.03	10908.63
857.352	10861.62
857.674	10892.35
857.996	10804.22
858.318	10738.91
858.64	10832.24
858.961	10636.32
859.283	10659.59
859.605	10680.38
859.926	10659.14
860.248	10556.32
860.57	10547.28
860.891	10523.78
861.212	10481.97
861.534	10478.58
861.855	10454.85
862.176	10575.08
862.498	10474.74
862.819	10468.41
863.14	10422.54
863.461	10321.52
863.782	10340.5
864.103	10395.19
864.424	10284.46
864.745	10331.24
865.065	10238.36
865.386	10228.19
865.707	10249.66
866.027	10183.9
866.348	10171.7
866.668	10227.51
866.989	10161.75
867.309	10100.74
867.63	10158.14
867.95	10129.66
868.27	10103
868.59	10063.9
868.91	10060.96
869.23	10060.74
869.55	9990.46
869.87	10049.44
870.19	9946.17
870.51	10040.85
870.83	10036.33
871.15	9941.65
871.469	9970.8
871.789	9987.29
872.109	9921.08
872.428	9857.58
872.748	9905.49
873.067	9846.28
873.386	9867.3
873.706	9800.86
874.025	9839.28
874.344	9760.18
874.663	9799.28
874.982	9747.98
875.301	9803.12
875.62	9724.25
875.939	9719.05
876.258	9698.04
876.577	9691.26
876.896	9718.37
877.214	9653.29
877.533	9679.96
877.852	9648.55
878.17	9606.51
878.489	9598.83
878.807	9566.97
879.125	9613.52
879.444	9555.67
879.762	9503.92
880.08	9529.45
880.398	9471.6
880.716	9455.33
881.034	9500.08
881.352	9482.22
881.67	9400.19
881.988	9386.41
882.306	9376.01
882.624	9367.88
882.941	9327.2
883.259	9285.84
883.577	9292.85
883.894	9147.99
884.212	9271.61
884.529	9225.05
884.846	9180.54
885.164	9121.78
885.481	9115.9
885.798	9198.61
886.115	9077.94
886.432	9105.96
886.75	9116.36
887.067	9096.7
887.383	8996.36
887.7	9050.82
888.017	8986.42
888.334	8983.03
888.651	8964.72
888.967	9038.17
889.284	8922.24
889.6	8857.38
889.917	8817.38
890.233	8835.23
890.55	8715.69
890.866	8779.64
891.182	8744.84
891.498	8748.23
891.815	8733.77
892.131	8686.54
892.447	8656.71
892.763	8622.58
893.079	8601.79
893.395	8605.86
893.71	8578.74
894.026	8489.03
894.342	8543.26
894.657	8415.58
894.973	8401.57
895.289	8414.45
895.604	8456.94
895.92	8293.78
896.235	8303.27
896.55	8307.79
896.865	8288.36
897.181	8275.25
897.496	8211.97
897.811	8179.43
898.126	8168.81
898.441	8123.61
898.756	8098.53
899.071	8050.4
899.386	8027.12
899.7	8003.84
900.015	7943.51
900.33	7975.6
900.644	7905.31
900.959	7919.1
901.273	7924.07
901.588	7856.05
901.902	7826.9
902.216	7783.28
902.531	7750.06
902.845	7706.22
903.159	7673.91
903.473	7667.58
903.787	7596.17
904.101	7606.11
904.415	7567.7
904.729	7564.08
905.042	7561.14
905.356	7472.56
905.67	7423.97
905.984	7470.98
906.297	7432.33
906.611	7422.84
906.924	7388.94
907.237	7339.45
907.551	7302.39
907.864	7236.41
908.177	7234.6
908.491	7242.28
908.804	7176.75
909.117	7133.13
909.43	7049.52
909.743	7020.37
910.056	7042.51
910.368	7007.94
910.681	6992.57
910.994	6923.65
911.307	6954.38
911.619	6921.84
911.932	6928.84
912.244	6875.06
912.557	6828.73
912.869	6833.48
913.181	6746.93
913.494	6716.42
913.806	6678.91
914.118	6729.98
914.43	6684.33
914.742	6640.94
915.054	6592.81
915.366	6638.46
915.678	6543.99
915.99	6486.37
916.302	6505.35
916.613	6480.27
916.925	6436.2
917.236	6434.62
917.548	6387.39
917.859	6380.38
918.171	6365.24
918.482	6306.94
918.794	6298.35
919.105	6247.73
919.416	6248.41
919.727	6188.3
920.038	6212.48
920.349	6179.03
920.66	6092.03
920.971	6132.93
921.282	6132.71
921.593	6084.8
921.903	6071.01
922.214	5976.1
922.525	6008.19
922.835	5941.3
923.146	5925.03
923.456	5952.37
923.767	5919.83
924.077	5875.31
924.387	5854.07
924.697	5785.37
925.008	5807.52
925.318	5804.13
925.628	5795.77
925.938	5725.03
926.248	5714.41
926.558	5700.4
926.867	5666.28
927.177	5654.3
927.487	5644.58
927.796	5552.38
928.106	5544.47
928.416	5584.47
928.725	5518.94
929.034	5544.47
929.344	5472.61
929.653	5509.9
929.962	5458.37
930.271	5343.35
930.581	5367.75
930.89	5371.14
931.199	5374.53
931.508	5344.7
931.817	5369.34
932.125	5269.68
932.434	5303.8
932.743	5165.27
933.051	5221.77
933.36	5260.86
933.669	5160.98
933.977	5166.86
934.286	5116.01
934.594	5146.07
934.902	5084.15
935.21	5031.27
935.519	5043.92
935.827	5085.5
936.135	5055.9
936.443	4989.23
936.751	4982.23
937.059	4992.85
937.367	4934.77
937.674	4913.75
937.982	4856.36
938.29	4905.17
938.597	4878.95
938.905	4812.51
939.213	4804.61
939.52	4766.64
939.827	4784.94
940.135	4741.56
940.442	4742.69
940.749	4671.73
941.056	4740.43
941.363	4638.06
941.67	4671.05
941.977	4644.16
942.284	4646.19
942.591	4605.97
942.898	4566.42
943.205	4568
943.511	4488.23
943.818	4500.88
944.125	4496.82
944.431	4470.6
944.738	4472.64
945.044	4458.4
945.35	4457.27
945.657	4431.51
945.963	4376.14
946.269	4319.65
946.575	4313.54
946.881	4332.75
947.187	4331.62
947.493	4254.56
947.799	4269.03
948.105	4230.61
948.41	4235.58
948.716	4226.32
949.022	4176.6
949.327	4182.93
949.633	4107
949.938	4160.78
950.244	4137.96
950.549	4059.09
950.854	4096.38
951.16	4070.39
951.465	4064.29
951.77	3998.98
952.075	4019.54
952.38	4003.95
952.685	4031.52
952.99	3950.39
953.294	3952.88
953.599	3939.32
953.904	3901.13
954.209	3867.68
954.513	3911.3
954.818	3883.05
955.122	3823.16
955.426	3884.86
955.731	3813.44
956.035	3814.35
956.339	3806.89
956.643	3793.33
956.948	3742.94
957.252	3720.11
957.556	3705.43
957.86	3714.01
958.163	3700.45
958.467	3692.32
958.771	3685.09
959.075	3701.36
959.378	3626.56
959.682	3641.47
959.985	3576.39
960.289	3579.55
960.592	3577.29
960.896	3550.4
961.199	3537.52
961.502	3540.68
961.805	3526.45
962.108	3495.26
962.411	3479.67
962.714	3462.72
963.017	3474.47
963.32	3432.44
963.623	3412.33
963.926	3425.43
964.228	3450.06
964.531	3385.21
964.833	3372.33
965.136	3368.03
965.438	3333.68
965.741	3297.53
966.043	3296.85
966.345	3306.34
966.648	3261.14
966.95	3250.97
967.252	3246
967.554	3259.34
967.856	3231.54
968.158	3222.05
968.46	3209.84
968.761	3187.02
969.063	3189.51
969.365	3183.63
969.666	3144.31
969.968	3087.59
970.269	3128.72
970.571	3105.67
970.872	3104.99
971.174	3094.14
971.475	3061.83
971.776	3027.93
972.077	3019.57
972.378	3018.44
972.679	2996.29
972.98	2997.2
973.281	2988.61
973.582	2975.95
973.883	2955.61
974.183	2941.83
974.484	2911.55
974.785	2863.64
975.085	2904.99
975.386	2920.81
975.686	2905.67
975.986	2833.36
976.287	2882.4
976.587	2828.61
976.887	2803.75
977.187	2800.14
977.487	2811.89
977.787	2760.82
978.087	2789.52
978.387	2763.98
978.687	2749.74
978.987	2714.04
979.286	2739.35
979.586	2692.57
979.885	2699.58
980.185	2710.42
980.484	2700.48
980.784	2634.72
981.083	2654.15
981.382	2641.95
981.682	2629.75
981.981	2612.12
982.28	2618.22
982.579	2592.23
982.878	2594.72
983.177	2562.4
983.475	2594.04
983.774	2589.3
984.073	2538.68
984.372	2563.99
984.67	2553.37
984.969	2506.13
985.267	2517.66
985.566	2487.6
985.864	2442.63
986.162	2473.82
986.461	2455.06
986.759	2415.74
987.057	2397.89
987.355	2415.06
987.653	2425.01
987.951	2378.45
988.249	2400.37
988.547	2367.83
988.844	2351.34
989.142	2391.34
989.44	2376.19
989.737	2327.38
990.035	2293.71
990.332	2292.81
990.63	2302.07
990.927	2295.29
991.224	2282.19
991.521	2312.69
991.819	2258.68
992.116	2250.55
992.413	2246.48
992.71	2228.18
993.006	2232.24
993.303	2227.05
993.6	2227.27
993.897	2194.96
994.193	2204.45
994.49	2174.39
994.787	2163.32
995.083	2180.49
995.379	2148.18
995.676	2163.09
995.972	2127.61
996.268	2128.74
996.565	2077.22
996.861	2087.39
997.157	2070.44
997.453	2026.37
997.749	2068.86
998.044	2018.69
998.34	2038.8
998.636	2036.99
998.932	2014.62
999.227	1987.96
999.523	2022.76
999.818	1981.85
1000.114	1978.24
1000.409	2008.29
1000.704	1950.22
1001	1947.05
1001.295	1937.11
1001.59	1935.3
1001.885	1945.7
1002.18	1892.14
1002.475	1900.05
1002.77	1906.83
1003.065	1877
1003.359	1877.9
1003.654	1858.47
1003.949	1826.15
1004.243	1820.5
1004.538	1835.19
1004.832	1798.13
1005.127	1825.25
1005.421	1805.59
1005.715	1781.41
1006.009	1779.6
1006.304	1751.58
1006.598	1730.79
1006.892	1740.05
1007.186	1766.72
1007.48	1721.52
1007.773	1709.09
1008.067	1737.34
1008.361	1679.04
1008.655	1685.14
1008.948	1695.31
1009.242	1678.59
1009.535	1628.19
1009.829	1627.06
1010.122	1645.14
1010.415	1627.74
1010.708	1616.21
1011.001	1609.66
1011.295	1595.88
1011.588	1603.79
1011.881	1604.69
1012.173	1576.89
1012.466	1547.52
1012.759	1556.78
1013.052	1543.9
1013.344	1550.45
1013.637	1529.66
1013.93	1538.25
1014.222	1503.9
1014.514	1528.99
1014.807	1475.65
1015.099	1488.76
1015.391	1498.25
1015.683	1480.17
1015.976	1462.09
1016.268	1447.63
1016.56	1459.38
1016.851	1423.68
1017.143	1456.22
1017.435	1447.86
1017.727	1413.96
1018.018	1405.37
1018.31	1385.71
1018.602	1387.97
1018.893	1373.74
1019.185	1373.96
1019.476	1347.75
1019.767	1358.37
1020.058	1367.63
1020.35	1336.22
1020.641	1312.95
1020.932	1320.4
1021.223	1323.11
1021.514	1328.54
1021.804	1295.77
1022.095	1297.13
1022.386	1273.17
1022.677	1247.86
1022.967	1244.7
1023.258	1265.04
1023.548	1261.42
1023.839	1232.27
1024.129	1259.84
1024.419	1223.68
1024.709	1207.41
1025	1212.38
1025.29	1191.82
1025.58	1172.84
1025.87	1166.06
1026.16	1193.63
1026.449	1177.81
1026.739	1145.94
1027.029	1159.96
1027.319	1134.65
1027.608	1151.59
1027.898	1146.85
1028.187	1126.51
1028.477	1131.48
1028.766	1100.3
1029.055	1107.3
1029.344	1083.35
1029.634	1091.03
1029.923	1053.97
1030.212	1079.96
1030.501	1054.65
1030.79	1034.76
1031.078	1034.99
1031.367	1048.55
1031.656	1031.15
1031.945	1023.91
1032.233	1033.86
1032.522	1017.36
1032.81	1027.3
1033.099	981.43
1033.387	1009.45
1033.675	985.5
1033.963	997.7
1034.251	987.98
1034.54	964.48
1034.828	972.84
1035.116	967.19
1035.403	966.97
1035.691	935.33
1035.979	966.51
1036.267	953.18
1036.554	944.37
1036.842	945.72
1037.129	910.92
1037.417	912.73
1037.704	916.35
1037.992	909.34
1038.279	887.87
1038.566	896.91
1038.853	896.91
1039.14	896.91
