Data from hue_300_FLMS001491_00034.txt Node
Date: Tue Feb 07 15:50:38 GMT 2017
User: dcchb
Spectrometer: FLMS00149
Trigger mode: 0
Integration Time (sec): 2.000000E-2
Scans to average: 10
Electric dark correction enabled: true
Nonlinearity correction enabled: false
Boxcar width: 0
XAxis mode: Wavelengths
Number of Pixels in Spectrum: 2048
>>>>>Begin Spectral Data<<<<<
341.393	-10.44
341.776	-10.44
342.16	-10.44
342.543	-56.09
342.927	-76.2
343.31	-62.64
343.693	-76.88
344.077	-61.51
344.46	-44.79
344.843	-57.22
345.226	-64.9
345.61	-24.22
345.993	-17.44
346.376	-1.62
346.759	20.07
347.142	27.3
347.525	31.14
347.908	53.52
348.291	74.98
348.674	83.12
349.057	121.08
349.44	112.27
349.823	142.55
350.206	157.69
350.588	185.26
350.971	199.27
351.354	234.53
351.737	234.98
352.119	251.7
352.502	259.61
352.884	284.02
353.267	290.35
353.65	276.33
354.032	281.76
354.414	291.48
354.797	303.68
355.179	316.79
355.562	317.69
355.944	302.55
356.326	305.94
356.709	330.57
357.091	342.1
357.473	335.54
357.855	324.24
358.238	340.51
358.62	332.15
359.002	343.68
359.384	306.16
359.766	334.86
360.148	322.66
360.53	326.73
360.912	329.21
361.294	326.05
361.676	323.79
362.057	330.34
362.439	337.58
362.821	315.2
363.203	334.64
363.584	328.76
363.966	323.11
364.348	323.79
364.729	322.66
365.111	312.94
365.493	317.01
365.874	312.94
366.256	292.38
366.637	305.71
367.019	301.64
367.4	310.91
367.781	313.62
368.163	297.8
368.544	311.59
368.925	307.97
369.306	304.81
369.688	315.66
370.069	294.41
370.45	298.48
370.831	322.89
371.212	297.35
371.593	319.72
371.974	309.33
372.355	318.82
372.736	315.88
373.117	302.55
373.498	319.27
373.879	297.8
374.26	299.38
374.641	311.59
375.021	308.2
375.402	295.09
375.783	310.01
376.163	313.4
376.544	331.93
376.925	327.86
377.305	306.16
377.686	305.26
378.066	324.02
378.447	298.25
378.827	333.96
379.208	318.59
379.588	316.56
379.968	306.39
380.349	324.47
380.729	318.82
381.109	340.06
381.489	341.64
381.87	332.15
382.25	314.98
382.63	339.84
383.01	342.1
383.39	351.59
383.77	339.61
384.15	340.97
384.53	338.71
384.91	340.06
385.29	350
385.67	328.08
386.049	357.91
386.429	345.49
386.809	359.5
387.189	373.06
387.568	342.55
387.948	350
388.328	344.36
388.707	347.97
389.087	337.58
389.466	341.87
389.846	352.49
390.225	375.31
390.605	357.24
390.984	346.16
391.363	361.53
391.743	361.53
392.122	372.6
392.501	344.13
392.881	373.96
393.26	389.55
393.639	370.12
394.018	362.21
394.397	391.59
394.776	394.98
395.155	378.93
395.534	365.37
395.913	370.34
396.292	370.12
396.671	384.81
397.05	403.11
397.429	378.03
397.808	365.82
398.186	372.38
398.565	370.8
398.944	375.09
399.323	388.65
399.701	386.16
400.08	395.65
400.458	398.82
400.837	395.65
401.215	380.74
401.594	403.79
401.972	404.24
402.351	421.64
402.729	420.51
403.107	415.31
403.486	418.93
403.864	415.31
404.242	434.52
404.62	454.86
404.999	446.95
405.377	454.86
405.755	443.56
406.133	466.39
406.511	428.42
406.889	468.19
407.267	479.27
407.645	470.91
408.023	471.81
408.401	467.97
408.779	490.11
409.156	477.23
409.534	493.5
409.912	498.93
410.29	488.53
410.667	524.46
411.045	527.4
411.422	485.14
411.8	508.42
412.178	533.95
412.555	508.19
412.933	557.01
413.31	544.12
413.687	569.43
414.065	576.21
414.442	571.69
414.819	590.45
415.197	598.59
415.574	611.69
415.951	610.11
416.328	594.74
416.705	602.88
417.082	614.86
417.46	641.3
417.837	635.2
418.214	628.87
418.591	662.99
418.967	673.61
419.344	669.32
419.721	673.16
420.098	685.36
420.475	692.14
420.852	704.12
421.228	706.61
421.605	746.38
421.982	737.34
422.358	741.41
422.735	741.63
423.111	760.84
423.488	753.61
423.864	760.39
424.241	789.77
424.617	792.03
424.994	792.93
425.37	804.23
425.746	795.42
426.123	848.97
426.499	834.29
426.875	833.38
427.251	867.73
427.627	840.39
428.003	887.84
428.379	868.64
428.756	868.86
429.132	909.99
429.507	907.05
429.883	929.65
430.259	930.78
430.635	931.01
431.011	939.82
431.387	972.59
431.763	978.46
432.138	984.11
432.514	1006.48
432.89	986.6
433.265	1029.99
433.641	1047.16
434.016	1051.91
434.392	1052.13
434.767	1069.53
435.143	1079.7
435.518	1095.3
435.894	1085.8
436.269	1100.72
436.644	1141.62
437.02	1145.69
437.395	1115.41
437.77	1151.11
438.145	1177.1
438.52	1162.41
438.895	1178.23
439.271	1188.85
439.646	1211.45
440.021	1208.51
440.395	1219.81
440.77	1220.26
441.145	1242.86
441.52	1235.41
441.895	1231.56
442.27	1249.42
442.645	1274.05
443.019	1287.83
443.394	1256.2
443.769	1277.44
444.143	1275.86
444.518	1291
444.892	1290.09
445.267	1268.4
445.641	1319.02
446.016	1302.52
446.39	1332.58
446.764	1316.53
447.139	1309.75
447.513	1314.27
447.887	1338
448.262	1320.15
448.636	1320.37
449.01	1309.98
449.384	1360.83
449.758	1357.44
450.132	1381.16
450.506	1378.23
450.88	1354.72
451.254	1368.28
451.628	1373.03
452.002	1397.21
452.376	1412.12
452.75	1405.57
453.123	1402.41
453.497	1401.28
453.871	1402.86
454.244	1446.93
454.618	1472.91
454.992	1460.03
455.365	1493.7
455.739	1526.47
456.112	1497.09
456.486	1498.22
456.859	1558.56
457.232	1544.32
457.606	1559.24
457.979	1552.01
458.352	1558.56
458.725	1577.09
459.099	1616.64
459.472	1614.15
459.845	1614.6
460.218	1625.23
460.591	1632.01
460.964	1618.45
461.337	1665.68
461.71	1671.33
462.083	1682.63
462.456	1683.76
462.829	1683.76
463.201	1716.75
463.574	1723.08
463.947	1735.73
464.32	1745.45
464.692	1795.16
465.065	1801.49
465.438	1792.68
465.81	1783.41
466.183	1784.09
466.555	1822.96
466.928	1843.75
467.3	1826.8
467.672	1879.23
468.045	1907.7
468.417	1919
468.789	1905.67
469.161	1937.31
469.534	1987.48
469.906	1985.89
470.278	1992.67
470.65	2002.62
471.022	2011.88
471.394	2052.11
471.766	2021.15
472.138	2022.96
472.51	2104.08
472.882	2121.71
473.253	2114.03
473.625	2147.92
473.997	2196.06
474.369	2201.26
474.74	2193.35
475.112	2230.63
475.484	2261.82
475.855	2306.56
476.227	2288.49
476.598	2336.62
476.97	2319.67
477.341	2362.61
477.713	2420.46
478.084	2403.74
478.455	2441.7
478.827	2450.74
479.198	2525.77
479.569	2519.44
479.94	2520.12
480.311	2558.31
480.682	2592.88
481.053	2638.31
481.424	2669.94
481.795	2704.52
482.166	2711.07
482.537	2723.5
482.908	2764.86
483.279	2769.83
483.65	2796.27
484.021	2851.63
484.391	2846.44
484.762	2914.91
485.133	2925.08
485.503	2937.28
485.874	2946.09
486.244	3027.67
486.615	3016.38
486.985	3043.49
487.356	3097.73
487.726	3114.45
488.097	3154.9
488.467	3123.49
488.837	3234.45
489.207	3220.44
489.578	3254.11
489.948	3251.85
490.318	3292.07
490.688	3308.57
491.058	3329.81
491.428	3364.39
491.798	3383.37
492.168	3439.42
492.538	3463.14
492.908	3517.83
493.278	3506.53
493.648	3505.85
494.017	3557.38
494.387	3560.54
494.757	3572.29
495.126	3577.94
495.496	3631.5
495.866	3618.39
496.235	3600.09
496.605	3650.48
496.974	3673.76
497.344	3698.39
497.713	3672.18
498.082	3735.23
498.452	3748.33
498.821	3764.15
499.19	3743.81
499.559	3787.43
499.928	3794.89
500.298	3825.62
500.667	3857.71
501.036	3825.62
501.405	3859.97
501.774	3855.9
502.143	3917.82
502.512	3879.4
502.88	3932.06
503.249	3893.41
503.618	3943.81
503.987	3937.48
504.356	3977.25
504.724	4022.9
505.093	4012.28
505.462	4010.47
505.83	4039.63
506.199	4069
506.567	4047.08
506.936	4072.39
507.304	4118.27
507.672	4118.49
508.041	4119.62
508.409	4148.1
508.777	4114.88
509.145	4217.25
509.514	4166.63
509.882	4196.91
510.25	4181.09
510.618	4195.55
510.986	4217.93
511.354	4253.86
511.722	4261.77
512.09	4292.73
512.458	4275.78
512.826	4277.36
513.193	4338.15
513.561	4320.52
513.929	4323.46
514.297	4350.35
514.664	4385.83
515.032	4347.64
515.4	4407.07
515.767	4392.61
516.135	4420.41
516.502	4395.32
516.869	4419.73
517.237	4409.79
517.604	4476.22
517.972	4441.65
518.339	4478.03
518.706	4479.84
519.073	4478.71
519.44	4563
519.808	4487.75
520.175	4557.8
520.542	4538.37
520.909	4573.17
521.276	4560.06
521.643	4602.32
522.009	4589.22
522.376	4631.25
522.743	4631.47
523.11	4690.68
523.477	4711.02
523.843	4678.7
524.21	4774.52
524.577	4739.27
524.943	4789.44
525.31	4791.02
525.676	4860.39
526.043	4814.07
526.409	4884.35
526.776	4896.55
527.142	4939.94
527.508	4898.36
527.874	4964.57
528.241	4978.81
528.607	4967.28
528.973	5007.28
529.339	5010.45
529.705	5054.97
530.071	5103.33
530.437	5142.2
530.803	5169.77
531.169	5132.25
531.535	5157.56
531.901	5196.88
532.267	5181.06
532.632	5223.55
532.998	5307.39
533.364	5299.03
533.73	5278.91
534.095	5314.85
534.461	5307.61
534.826	5348.52
535.192	5371.79
535.557	5413.15
535.923	5339.7
536.288	5380.61
536.653	5434.62
537.019	5449.08
537.384	5496.31
537.749	5522.07
538.114	5507.38
538.479	5540.83
538.845	5546.48
539.21	5549.19
539.575	5579.02
539.94	5624.22
540.305	5618.79
540.67	5587.16
541.034	5699.02
541.399	5676.64
541.764	5692.24
542.129	5705.8
542.494	5765.68
542.858	5834.38
543.223	5769.75
543.587	5815.17
543.952	5835.96
544.316	5879.8
544.681	5866.7
545.045	5916.19
545.41	5957.77
545.774	5992.79
546.138	5981.72
546.503	6005
546.867	6021.95
547.231	6060.14
547.595	6076.86
547.959	6077.99
548.324	6154.82
548.688	6106.46
549.052	6146.46
549.416	6108.27
549.779	6186.69
550.143	6194.6
550.507	6228.04
550.871	6271.21
551.235	6254.03
551.599	6304.65
551.962	6292
552.326	6300.13
552.689	6297.65
553.053	6327.25
553.417	6368.38
553.78	6423.74
554.143	6377.19
554.507	6439.79
554.87	6446.57
555.234	6454.7
555.597	6476.17
555.96	6437.75
556.323	6500.8
556.686	6516.17
557.05	6590.29
557.413	6600.01
557.776	6616.51
558.139	6628.71
558.502	6612.67
558.865	6616.73
559.228	6678.43
559.59	6692.89
559.953	6738.31
560.316	6802.94
560.679	6789.61
561.041	6736.96
561.404	6866.22
561.767	6837.29
562.129	6780.57
562.492	6893.79
562.854	6871.87
563.217	6892.66
563.579	6890.85
563.941	6947.8
564.304	6990.06
564.666	6975.82
565.028	7011.52
565.39	7005.65
565.753	7043.39
566.115	7068.7
566.477	7035.25
566.839	7127.23
567.201	7124.29
567.563	7154.35
567.925	7192.99
568.287	7231.63
568.648	7244.96
569.01	7295.13
569.372	7428.46
569.734	7294.91
570.095	7401.57
570.457	7434.34
570.819	7503.26
571.18	7462.36
571.542	7597.72
571.903	7540.1
572.265	7515.92
572.626	7602.47
572.987	7624.62
573.349	7728.79
573.71	7754.56
574.071	7780.77
574.432	7898.28
574.794	7956.58
575.155	7961.33
575.516	7991.84
575.877	8063.25
576.238	8137.82
576.599	8134.66
576.96	8263.24
577.32	8348.89
577.681	8388.66
578.042	8490.81
578.403	8533.52
578.763	8693.51
579.124	8753.85
579.485	8848.31
579.845	9022.32
580.206	9059.38
580.566	9161.52
580.927	9273.39
581.287	9408.52
581.648	9571.01
582.008	9717.89
582.368	9856.87
582.728	10000.6
583.089	10141.84
583.449	10303.87
583.809	10459.8
584.169	10735.27
584.529	10748.6
584.889	11034.92
585.249	11133.68
585.609	11336.16
585.969	11525.76
586.329	11761.68
586.688	12022.01
587.048	12220.65
587.408	12372.29
587.768	12659.74
588.127	12903.57
588.487	13053.63
588.846	13352.6
589.206	13653.61
589.565	13843.66
589.925	14086.59
590.284	14362.97
590.643	14628.95
591.003	14842.96
591.362	15193.68
591.721	15496.05
592.08	15738.75
592.44	16053.77
592.799	16342.35
593.158	16565.17
593.517	16909.8
593.876	17178.71
594.235	17355.21
594.593	17784.12
594.952	18001.07
595.311	18232.25
595.67	18536.87
596.029	19012.34
596.387	19345.21
596.746	19594.02
597.104	19869.04
597.463	20086.66
597.822	20410.27
598.18	20669.92
598.538	20783.37
598.897	21304.48
599.255	21415.89
599.613	22002.77
599.972	22165.7
600.33	22528.63
600.688	22635.97
601.046	22965.91
601.404	23395.95
601.762	23511.43
602.12	23944.19
602.478	24143.28
602.836	24428.02
603.194	24575.81
603.552	24835.69
603.91	25117.72
604.268	25402.91
604.625	25493.07
604.983	25819.62
605.341	25974.19
605.698	26324.24
606.056	26592.7
606.413	26804
606.771	27057.55
607.128	27426.81
607.485	27286.92
607.843	27513.58
608.2	27996.96
608.557	28349.49
608.914	28351.08
609.272	28665.42
609.629	28886.43
609.986	29217.49
610.343	29203.94
610.7	29608.22
611.057	29713.3
611.414	29859.51
611.771	30126.17
612.127	30345.83
612.484	30393.06
612.841	30692.94
613.198	30684.8
613.554	30938.81
613.911	31353.48
614.267	31394.84
614.624	31497.21
614.98	31742.63
615.337	32066.23
615.693	32021.71
616.05	32199.11
616.406	32463.28
616.762	32489.05
617.118	32701.02
617.475	32705.54
617.831	32953.67
618.187	32998.64
618.543	33143.49
618.899	33404.28
619.255	33494.9
619.611	33505.52
619.967	33804.49
620.323	33895.79
620.678	33958.84
621.034	33986.86
621.39	34103.69
621.746	34081.55
622.101	34623.68
622.457	34524.47
622.812	34638.59
623.168	34749.1
623.523	34926.27
623.879	35007.4
624.234	34959.72
624.589	35135.3
624.945	35102.09
625.3	35282.65
625.655	35343.21
626.01	35457.33
626.365	35618.46
626.72	35341.85
627.075	35632.92
627.43	35572.81
627.785	35567.61
628.14	35607.61
628.495	35827.26
628.85	35808.51
629.205	35759.47
629.559	35924.66
629.914	35922.18
630.269	36056.86
630.623	35877.21
630.978	35903.42
631.332	36102.51
631.687	36193.36
632.041	36094.83
632.396	36083.75
632.75	36083.3
633.104	36146.58
633.459	36042.4
633.813	36148.61
634.167	36070.42
634.521	36120.14
634.875	36161.49
635.229	36146.8
635.583	35946.81
635.937	36183.41
636.291	36200.14
636.645	36101.61
636.999	36124.21
637.352	36134.37
637.706	35963.08
638.06	36128.27
638.413	36063.64
638.767	36106.8
639.121	36139.57
639.474	36095.51
639.828	36076.07
640.181	36151.55
640.534	36193.13
640.888	36062.06
641.241	35934.15
641.594	35994.72
641.947	36204.43
642.301	36156.3
642.654	36057.99
643.007	36126.01
643.36	36069.29
643.713	36092.79
644.066	36075.85
644.419	35964.44
644.771	35755.85
645.124	35375.98
645.477	35228.64
645.83	35227.96
646.182	35015.76
646.535	34930.11
646.888	35157.45
647.24	34881.98
647.593	35029.09
647.945	35103.89
648.298	34936.89
648.65	34855.09
649.002	34732.6
649.355	34936.44
649.707	35033.61
650.059	35028.42
650.411	35435.41
650.763	35594.73
651.115	35822.97
651.467	35815.51
651.819	35792.01
652.171	35726.48
652.523	35665.69
652.875	35672.01
653.227	35569.19
653.578	35692.58
653.93	35621.17
654.282	35521.96
654.633	35459.36
654.985	35567.38
655.337	35593.6
655.688	35629.53
656.039	35771.45
656.391	35458.46
656.742	35500.27
657.094	35608.51
657.445	35753.59
657.796	35515.63
658.147	35480.15
658.498	35620.49
658.849	35651.9
659.2	35551.57
659.551	35512.47
659.902	35687.38
660.253	35551.79
660.604	35506.14
660.955	35398.35
661.306	35502.53
661.656	35356.09
662.007	35511.57
662.358	35455.75
662.708	35418.69
663.059	35412.13
663.409	35121.52
663.76	35545.46
664.11	35414.17
664.461	35547.95
664.811	35502.53
665.161	35473.83
665.511	35361.74
665.862	35310.22
666.212	35406.71
666.562	35438.35
666.912	35425.01
667.262	35330.55
667.612	35365.58
667.962	35471.79
668.312	35389.76
668.662	35437.44
669.011	35394.28
669.361	35417.78
669.711	35410.78
670.06	35229.09
670.41	35246.71
670.76	35086.49
671.109	35298.69
671.459	35233.61
671.808	35077.68
672.157	35310.89
672.507	35095.98
672.856	35183.21
673.205	35141.18
673.554	35177.11
673.904	35060.96
674.253	35310.89
674.602	35115.42
674.951	34565.6
675.3	34477.7
675.649	35091.69
675.998	34867.29
676.346	35061.18
676.695	35200.16
677.044	34854.18
677.393	35086.49
677.741	35145.93
678.09	34967.4
678.438	34799.72
678.787	34931.92
679.135	34862.32
679.484	34720.17
679.832	34754.75
680.181	34496.45
680.529	34674.98
680.877	34637.46
681.225	34512.72
681.573	34793.85
681.922	34533.51
682.27	34376.68
682.618	34478.15
682.966	34370.81
683.314	34434.98
683.661	34378.04
684.009	34028.89
684.357	34179.85
684.705	34055.56
685.053	34072.28
685.4	34026.18
685.748	33819.41
686.095	33969.46
686.443	33755.23
686.79	33761.1
687.138	33803.36
687.485	33783.02
687.832	33647.66
688.18	33588.68
688.527	33462.81
688.874	33318.4
689.221	33313.88
689.568	33264.17
689.915	33214.9
690.262	33246.32
690.609	33209.03
690.956	32950.05
691.303	32978.3
691.65	32905.08
691.997	32851.3
692.344	32642.49
692.69	32741.24
693.037	32707.35
693.383	32304.87
693.73	32515.49
694.077	32391.2
694.423	32333.57
694.769	32318.88
695.116	32121.82
695.462	32117.98
695.808	32054.71
696.155	32057.65
696.501	31957.76
696.847	31915.95
697.193	31537.43
697.539	31774.49
697.885	31493.59
698.231	31492.91
698.577	31412.47
698.923	31341.51
699.269	31199.36
699.614	31235.52
699.96	31115.07
700.306	31160.49
700.651	30936.32
700.997	30750.34
701.342	30741.07
701.688	30677.8
702.033	30579.72
702.379	30601.19
702.724	30473.73
703.069	30593.05
703.415	30218.15
703.76	30281.65
704.105	30185.15
704.45	30161.88
704.795	29840.98
705.14	29821.32
705.485	29852.51
705.83	29771.6
706.175	29873.97
706.52	29684.83
706.865	29564.6
707.209	29583.13
707.554	29520.54
707.899	29486.19
708.243	29302.69
708.588	29282.35
708.932	29139.98
709.277	29065.86
709.621	29099.08
709.966	28906.54
710.31	29130.72
710.654	28773.21
710.998	28837.84
711.342	28813.21
711.687	28784.51
712.031	28633.56
712.375	28458.87
712.719	28581.8
713.063	28579.32
713.407	28499.32
713.75	28395.82
714.094	28304.75
714.438	28239.22
714.782	28379.55
715.125	28105.66
715.469	28228.59
715.812	28050.52
716.156	27799
716.499	27963.97
716.843	28049.39
717.186	27757.65
717.53	27956.51
717.873	27918.55
718.216	27858.21
718.559	27744.31
718.902	27434.94
719.246	27528.27
719.589	27587.03
719.932	27363.76
720.275	27309.75
720.617	27351.1
720.96	27366.24
721.303	27396.98
721.646	27295.74
721.989	27139.36
722.331	27302.74
722.674	27104.1
723.016	27152.46
723.359	26979.14
723.701	27042.64
724.044	26801.74
724.386	26733.94
724.729	26880.38
725.071	26767.39
725.413	26820.72
725.755	26819.82
726.097	26682.87
726.439	26524.91
726.782	26623.44
727.124	26738.69
727.465	26474.06
727.807	26500.73
728.149	26476.1
728.491	26425.7
728.833	26520.39
729.175	26390.9
729.516	26214.41
729.858	26300.51
730.199	26191.36
730.541	26287.18
730.882	26197.23
731.224	26293.5
731.565	26035.88
731.906	26116.56
732.248	26033.62
732.589	25926.96
732.93	25850.58
733.271	25901.65
733.612	26047.18
733.953	25938.94
734.294	25858.49
734.635	25736
734.976	25769.9
735.317	25657.81
735.658	25622.79
735.999	25595.22
736.339	25652.39
736.68	25710.24
737.021	25622.56
737.361	25530.36
737.702	25548.89
738.042	25533.3
738.383	25467.08
738.723	25456.01
739.063	25384.6
739.404	25384.83
739.744	25338.05
740.084	25191.16
740.424	25231.61
740.764	25188.45
741.104	25193.42
741.444	25114.1
741.784	25077.94
742.124	25095.12
742.464	25093.99
742.804	24985.06
743.143	24970.83
743.483	24997.49
743.823	24827.33
744.162	24865.07
744.502	24782.36
744.841	24805.18
745.181	24865.29
745.52	24727.67
745.86	24817.38
746.199	24639.99
746.538	24724.73
746.877	24809.25
747.216	24757.72
747.556	24614.45
747.895	24608.12
748.234	24562.02
748.573	24562.48
748.911	24544.85
749.25	24489.48
749.589	24399.09
749.928	24504.85
750.267	24449.71
750.605	24430.95
750.944	24410.84
751.283	24351.86
751.621	24408.81
751.96	24234.8
752.298	24190.96
752.636	24215.14
752.975	24079.78
753.313	24089.27
753.651	24212.88
753.989	24010.85
754.327	23989.84
754.666	23789.39
755.004	23974.02
755.342	24046.78
755.679	23867.8
756.017	23826.68
756.355	23720.46
756.693	23762.72
757.031	23764.98
757.368	23666.91
757.706	23660.8
758.044	23600.02
758.381	23637.3
758.719	23496.97
759.056	23496.74
759.394	23519.57
759.731	23335.84
760.068	23282.74
760.405	23296.97
760.743	23228.27
761.08	23329.06
761.417	23132.68
761.754	23190.76
762.091	23070.09
762.428	23006.13
762.765	22925
763.102	22927.94
763.438	22817.44
763.775	22762.75
764.112	22694.73
764.449	22766.14
764.785	22662.64
765.122	22639.14
765.458	22431.01
765.795	22471.01
766.131	22428.97
766.467	22367.51
766.804	22212.03
767.14	22036.21
767.476	22164.12
767.812	22042.99
768.148	22133.16
768.485	21942.21
768.821	21854.52
769.157	21817.69
769.492	21742.66
769.828	21778.82
770.164	21471.48
770.5	21570.24
770.836	21504.7
771.171	21364.37
771.507	21394.65
771.842	21184.26
772.178	21095.67
772.513	21059.74
772.849	20958.28
773.184	20793.54
773.519	20895.23
773.855	20824.95
774.19	20734.78
774.525	20642.58
774.86	20641.22
775.195	20517.84
775.53	20478.29
775.865	20482.13
776.2	20244.4
776.535	20040.11
776.87	20132.99
777.205	20033.56
777.539	19998.53
777.874	19986.55
778.209	19892.09
778.543	19774.35
778.878	19691.87
779.212	19679.89
779.547	19577.52
779.881	19676.28
780.215	19582.72
780.55	19502.95
780.884	19396.51
781.218	19284.42
781.552	19291.65
781.886	19212.11
782.22	19078.55
782.554	19053.92
782.888	18883.3
783.222	18872.23
783.556	18694.16
783.889	18655.96
784.223	18534.39
784.557	18512.69
784.89	18653.93
785.224	18497.55
785.557	18390.89
785.891	18326.71
786.224	18309.98
786.558	18332.81
786.891	18066.15
787.224	18017.34
787.557	18010.33
787.891	17905.48
788.224	17924.46
788.557	17909.09
788.89	17792.71
789.223	17795.65
789.556	17647.18
789.888	17632.04
790.221	17500.29
790.554	17399.5
790.887	17340.07
791.219	17332.84
791.552	17314.08
791.884	17240.86
792.217	17219.17
792.549	17183.91
792.882	17074.99
793.214	16940.98
793.546	16922
793.879	16780.76
794.211	16675.9
794.543	16841.77
794.875	16815.11
795.207	16786.18
795.539	16689.01
795.871	16660.76
796.203	16436.81
796.535	16339.42
796.867	16291.28
797.198	16292.64
797.53	16306.65
797.862	16143.26
798.193	16174
798.525	16079.31
798.856	16146.43
799.188	15927
799.519	15911.18
799.85	15854.46
800.182	15820.56
800.513	15849.26
800.844	15751.18
801.175	15792.99
801.506	15768.36
801.837	15665.76
802.168	15579.66
802.499	15490.17
802.83	15451.75
803.161	15417.18
803.491	15435.94
803.822	15440.68
804.153	15313.68
804.483	15187.81
804.814	15219.22
805.145	15176.28
805.475	15140.12
805.805	15115.04
806.136	15059.45
806.466	15070.07
806.796	14982.16
807.126	14858.78
807.457	14872.11
807.787	14888.15
808.117	14748.27
808.447	14800.47
808.777	14809.51
809.107	14672.11
809.436	14716.86
809.766	14711.21
810.096	14543.98
810.426	14536.3
810.755	14497.66
811.085	14414.72
811.414	14468.28
811.744	14340.82
812.073	14316.42
812.403	14319.58
812.732	14205.91
813.061	14210.88
813.39	14036.42
813.719	14065.58
814.049	14159.59
814.378	14103.09
814.707	13988.29
815.036	13960.72
815.365	13924.34
815.693	13792.36
816.022	13883.43
816.351	13817.22
816.68	13772.7
817.008	13771.57
817.337	13603.89
817.665	13538.81
817.994	13629.2
818.322	13759.14
818.651	13562.76
818.979	13462.65
819.307	13605.25
819.636	13482.99
819.964	13326.39
820.292	13483.22
820.62	13484.57
820.948	13309.21
821.276	13459.26
821.604	13320.96
821.932	13425.59
822.259	13423.33
822.587	13379.72
822.915	13348.08
823.243	13409.77
823.57	13318.03
823.898	13346.73
824.225	13346.73
824.553	13312.15
824.88	13317.8
825.207	13342.88
825.535	13311.92
825.862	13304.92
826.189	13332.26
826.516	13350.34
826.843	13306.5
827.17	13363
827.497	13291.36
827.824	13364.35
828.151	13364.58
828.478	13325.26
828.805	13355.99
829.131	13345.37
829.458	13280.29
829.785	13210.46
830.111	13252.26
830.438	13319.38
830.764	13287.52
831.09	13270.12
831.417	13191.7
831.743	13319.38
832.069	13265.6
832.395	13246.39
832.722	13169.55
833.048	13169.55
833.374	13133.85
833.7	13113.29
834.026	13097.24
834.351	13139.05
834.677	13141.98
835.003	13120.52
835.329	13133.4
835.654	13103.79
835.98	13006.85
836.306	13023.12
836.631	12999.62
836.956	13043.68
837.282	13039.61
837.607	12923.23
837.932	12935.89
838.258	12958.49
838.583	12882.1
838.908	12821.54
839.233	12843.91
839.558	12821.32
839.883	12804.82
840.208	12750.58
840.533	12759.4
840.858	12794.88
841.182	12761.2
841.507	12709.45
841.832	12610.02
842.156	12622.68
842.481	12612.28
842.805	12600.98
843.13	12694.54
843.454	12547.42
843.778	12493.41
844.103	12497.93
844.427	12495.22
844.751	12435.79
845.075	12477.6
845.399	12340.65
845.723	12240.09
846.047	12259.07
846.371	12184.72
846.695	12152.63
847.019	12040.32
847.343	12091.62
847.666	12010.49
847.99	11868.12
848.313	11907.67
848.637	11852.53
848.96	11815.24
849.284	11795.13
849.607	11713.1
849.931	11719.88
850.254	11583.83
850.577	11477.85
850.9	11483.95
851.223	11463.16
851.546	11397.4
851.869	11360.34
852.192	11380
852.515	11225.88
852.838	11257.06
853.161	11199.89
853.483	11134.13
853.806	11105.88
854.129	11111.08
854.451	10999.44
854.774	11038.99
855.096	10992.66
855.419	10956.51
855.741	10978.88
856.063	10901.82
856.385	10816.4
856.708	10894.81
857.03	10793.8
857.352	10789.05
857.674	10755.16
857.996	10717.87
858.318	10654.14
858.64	10725.55
858.961	10606.91
859.283	10619.79
859.605	10563.07
859.926	10602.84
860.248	10511.55
860.57	10410.53
860.891	10450.53
861.212	10438.78
861.534	10431.77
861.855	10285.34
862.176	10390.19
862.498	10406.46
862.819	10302.06
863.14	10265.45
863.461	10285.79
863.782	10253.7
864.103	10267.26
864.424	10224.1
864.745	10276.3
865.065	10157.43
865.386	10155.4
865.707	10109.75
866.027	10089.41
866.348	10161.5
866.668	10067.26
866.989	10081.5
867.309	10004.89
867.63	9978.23
867.95	10061.61
868.27	9932.8
868.59	9950.43
868.91	9984.1
869.23	9943.88
869.55	9909.75
869.87	9965.8
870.19	9926.93
870.51	9902.97
870.83	9923.76
871.15	9818.46
871.469	9839.02
871.789	9810.77
872.109	9816.2
872.428	9823.43
872.748	9797.89
873.067	9783.43
873.386	9782.07
873.706	9765.58
874.025	9705.69
874.344	9645.58
874.663	9662.98
874.982	9639.93
875.301	9581.4
875.62	9644.68
875.939	9573.27
876.258	9631.57
876.577	9586.6
876.896	9565.58
877.214	9532.14
877.533	9448.75
877.852	9498.01
878.17	9546.83
878.489	9488.75
878.807	9490.78
879.125	9440.61
879.444	9423.66
879.762	9406.04
880.08	9394.74
880.398	9346.83
880.716	9407.39
881.034	9319.49
881.352	9318.58
881.67	9269.32
881.988	9304.35
882.306	9289.66
882.624	9240.17
882.941	9263.22
883.259	9159.49
883.577	9228.42
883.894	9198.81
884.212	9142.32
884.529	9112.49
884.846	9128.53
885.164	9081.98
885.481	9062.54
885.798	9050.12
886.115	8961.08
886.432	8985.48
886.75	8902.55
887.067	8932.83
887.383	8990
887.7	8916.79
888.017	8865.94
888.334	8855.09
888.651	8844.7
888.967	8865.04
889.284	8764.47
889.6	8807.64
889.917	8691.25
890.233	8790.69
890.55	8744.13
890.866	8669.79
891.182	8642.44
891.498	8579.85
891.815	8587.08
892.131	8506.63
892.447	8540.52
892.763	8542.78
893.079	8479.51
893.395	8429.34
893.71	8482.22
894.026	8445.16
894.342	8352.28
894.657	8320.42
894.973	8352.73
895.289	8310.93
895.604	8235.9
895.92	8279.06
896.235	8181.66
896.55	8163.36
896.865	8161.32
897.181	8203.13
897.496	8183.02
897.811	8131.04
898.126	8073.87
898.441	8021.67
898.756	7987.54
899.071	7944.38
899.386	7965.85
899.7	7907.55
900.015	7898.06
900.33	7841.11
900.644	7864.61
900.959	7765.18
901.273	7798.85
901.588	7764.73
901.902	7662.36
902.216	7699.42
902.531	7648.12
902.845	7640.89
903.159	7573.09
903.473	7546.65
903.787	7515.92
904.101	7493.32
904.415	7506.88
904.729	7490.38
905.042	7431.63
905.356	7377.39
905.67	7352.76
905.984	7415.58
906.297	7354.57
906.611	7272.08
906.924	7326.09
907.237	7239.54
907.551	7174.46
907.864	7235.02
908.177	7166.1
908.491	7107.57
908.804	7111.41
909.117	7084.07
909.43	7071.86
909.743	7020.11
910.056	7019.21
910.368	6930.17
910.681	6911.64
910.994	6945.54
911.307	6897.4
911.619	6808.59
911.932	6864.18
912.244	6771.98
912.557	6753
912.869	6733.57
913.181	6762.94
913.494	6739.44
913.806	6651.08
914.118	6629.16
914.43	6635.26
914.742	6577.64
915.054	6560.92
915.366	6566.11
915.678	6494.48
915.99	6471.43
916.302	6386.68
916.613	6370.41
916.925	6394.14
917.236	6339
917.548	6335.61
917.859	6302.16
918.171	6234.14
918.482	6208.61
918.794	6155.73
919.105	6253.58
919.416	6185.56
919.727	6162.51
920.038	6161.15
920.349	6073.02
920.66	6069.18
920.971	6107.82
921.282	6032.57
921.593	5945.79
921.903	5960.03
922.214	5979.46
922.525	5893.14
922.835	5887.26
923.146	5850.2
923.456	5861.72
923.767	5783.31
924.077	5830.09
924.387	5763.42
924.697	5758.68
925.008	5771.11
925.318	5745.34
925.628	5722.75
925.938	5618.34
926.248	5616.53
926.558	5647.27
926.867	5582.41
927.177	5555.97
927.487	5526.82
927.796	5478.23
928.106	5513.26
928.416	5446.59
928.725	5479.59
929.034	5392.58
929.344	5448.63
929.653	5378.8
929.962	5333.6
930.271	5335.64
930.581	5383.32
930.89	5281.4
931.199	5296.32
931.508	5276.88
931.817	5260.16
932.125	5213.38
932.434	5167.05
932.743	5155.98
933.051	5118.92
933.36	5108.07
933.669	5067.17
933.977	5041.18
934.286	5057.68
934.594	5007.96
934.902	4978.58
935.21	4924.8
935.519	4957.12
935.827	4951.69
936.135	4913.95
936.443	4871.69
936.751	4853.84
937.059	4889.32
937.367	4862.65
937.674	4848.42
937.982	4772.26
938.29	4749.44
938.597	4766.84
938.905	4748.08
939.213	4670.12
939.52	4696.56
939.827	4728.87
940.135	4631.93
940.442	4626.05
940.749	4581.08
941.056	4617.01
941.363	4597.35
941.67	4587.63
941.977	4508.77
942.284	4497.69
942.591	4491.36
942.898	4485.26
943.205	4447.3
943.511	4461.54
943.818	4464.25
944.125	4360.52
944.431	4406.17
944.738	4378.6
945.044	4324.14
945.35	4341.76
945.657	4320.52
945.963	4264.48
946.269	4229.22
946.575	4243.24
946.881	4177.7
947.187	4261.09
947.493	4177.93
947.799	4176.12
948.105	4112.62
948.41	4117.14
948.716	4138.38
949.022	4098.15
949.327	4083.92
949.633	4061.77
949.938	4038.95
950.244	4028.78
950.549	4001.89
950.854	4002.56
951.16	3972.06
951.465	3951.72
951.77	3941.32
952.075	3938.61
952.38	3895.22
952.685	3881.89
952.99	3871.04
953.294	3815.9
953.599	3884.15
953.904	3812.06
954.209	3807.99
954.513	3789.46
954.818	3739.75
955.122	3735.23
955.426	3707.2
955.731	3746.75
956.035	3702.23
956.339	3678.28
956.643	3646.42
956.948	3650.48
957.252	3615.91
957.556	3609.58
957.86	3624.04
958.163	3559.64
958.467	3607.77
958.771	3585.85
959.075	3562.35
959.378	3540.43
959.682	3562.12
959.985	3531.84
960.289	3504.5
960.592	3489.81
960.896	3494.78
961.199	3440.09
961.502	3425.86
961.805	3382.92
962.108	3415.46
962.411	3421.11
962.714	3389.7
963.017	3392.86
963.32	3340.43
963.623	3337.95
963.926	3366.2
964.228	3290.04
964.531	3295.01
964.833	3275.58
965.136	3248.23
965.438	3195.58
965.741	3247.33
966.043	3236.93
966.345	3180.21
966.648	3176.6
966.95	3180.66
967.252	3187.22
967.554	3175.92
967.856	3115.58
968.158	3110.61
968.46	3104.73
968.761	3104.73
969.063	3089.37
969.365	3081.01
969.666	3066.09
969.968	3031.06
970.269	3039.65
970.571	2971.18
970.872	2989.94
971.174	2956.26
971.475	2966.43
971.776	2956.94
972.077	2925.53
972.378	2924.4
972.679	2905.64
972.98	2907
973.281	2875.59
973.582	2920.33
973.883	2873.33
974.183	2876.49
974.484	2849.6
974.785	2808.7
975.085	2829.49
975.386	2857.28
975.686	2817.06
975.986	2764.4
976.287	2769.38
976.587	2748.81
976.887	2750.39
977.187	2698.19
977.487	2752.88
977.787	2681.24
978.087	2692.54
978.387	2687.8
978.687	2675.14
978.987	2687.34
979.286	2683.95
979.586	2626.33
979.885	2609.15
980.185	2652.32
980.484	2585.88
980.784	2613.22
981.083	2571.42
981.382	2560.79
981.682	2545.88
981.981	2540.91
982.28	2551.08
982.579	2532.77
982.878	2522.6
983.177	2506.56
983.475	2542.26
983.774	2432.21
984.073	2463.17
984.372	2460.01
984.67	2461.14
984.969	2470.4
985.267	2464.75
985.566	2442.61
985.864	2368.03
986.162	2373.23
986.461	2385.88
986.759	2383.62
987.057	2378.88
987.355	2351.08
987.653	2343.4
987.951	2339.56
988.249	2311.76
988.547	2338.2
988.844	2300.69
989.142	2260.24
989.44	2275.83
989.737	2278.09
990.035	2257.53
990.332	2276.51
990.63	2253.46
990.927	2216.4
991.224	2233.57
991.521	2207.36
991.819	2210.29
992.116	2209.62
992.413	2175.04
992.71	2160.58
993.006	2156.51
993.303	2155.16
993.6	2161.93
993.897	2134.59
994.193	2147.7
994.49	2123.29
994.787	2089.85
995.083	2073.35
995.379	2088.94
995.676	2078.55
995.972	2071.77
996.268	2077.19
996.565	2060.47
996.861	2012.79
997.157	2008.27
997.453	2005.33
997.749	1992.22
998.044	1980.47
998.34	1984.31
998.636	1956.06
998.932	1969.4
999.227	1945.67
999.523	1941.38
999.818	1939.79
1000.114	1916.74
1000.409	1883.98
1000.704	1880.81
1001	1883.52
1001.295	1866.58
1001.59	1888.04
1001.885	1894.6
1002.18	1883.75
1002.475	1854.15
1002.77	1826.35
1003.065	1793.81
1003.359	1810.31
1003.654	1819.34
1003.949	1790.65
1004.243	1773.7
1004.538	1768.72
1004.832	1784.54
1005.127	1756.75
1005.421	1743.41
1005.715	1717.65
1006.009	1719.46
1006.304	1692.34
1006.598	1708.39
1006.892	1693.47
1007.186	1680.14
1007.48	1672
1007.773	1668.39
1008.067	1673.59
1008.361	1662.51
1008.655	1654.6
1008.948	1637.88
1009.242	1620.25
1009.535	1617.54
1009.829	1622.97
1010.122	1591.55
1010.415	1547.94
1010.708	1550.65
1011.001	1572.8
1011.295	1544.55
1011.588	1553.14
1011.881	1525.79
1012.173	1531.22
1012.466	1526.92
1012.759	1473.82
1013.052	1523.76
1013.344	1518.79
1013.637	1494.16
1013.93	1480.37
1014.222	1463.65
1014.514	1460.03
1014.807	1455.29
1015.099	1437.89
1015.391	1458
1015.683	1430.65
1015.976	1413.25
1016.268	1394.72
1016.56	1392.24
1016.851	1393.37
1017.143	1397.89
1017.435	1367.38
1017.727	1352.01
1018.018	1358.79
1018.31	1364.89
1018.602	1369.19
1018.893	1342.3
1019.185	1310.66
1019.476	1338.91
1019.767	1309.3
1020.058	1335.06
1020.35	1306.14
1020.641	1286.7
1020.932	1259.36
1021.223	1270.21
1021.514	1258.68
1021.804	1237.67
1022.095	1242.64
1022.386	1229.08
1022.677	1224.78
1022.967	1202.19
1023.258	1228.85
1023.548	1199.47
1023.839	1201.28
1024.129	1185.24
1024.419	1194.73
1024.709	1152.7
1025	1169.19
1025.29	1152.7
1025.58	1158.8
1025.87	1140.27
1026.16	1129.42
1026.449	1137.55
1026.739	1099.82
1027.029	1125.8
1027.319	1122.41
1027.608	1121.06
1027.898	1109.53
1028.187	1084.67
1028.477	1103.21
1028.766	1058.23
1029.055	1083.09
1029.344	1065.01
1029.634	1070.89
1029.923	1046.71
1030.212	1056.2
1030.501	1037.9
1030.79	1015.3
1031.078	1022.08
1031.367	1018.46
1031.656	1016.88
1031.945	993.15
1032.233	1012.36
1032.522	986.37
1032.81	982.98
1033.099	990.44
1033.387	968.52
1033.675	976.43
1033.963	992.93
1034.251	957.67
1034.54	960.61
1034.828	938.01
1035.116	905.92
1035.403	945.24
1035.691	912.7
1035.979	911.57
1036.267	891.01
1036.554	889.2
1036.842	910.67
1037.129	902.31
1037.417	871.57
1037.704	894.85
1037.992	886.94
1038.279	867.73
1038.566	862.08
1038.853	862.08
1039.14	862.08
