Data from hue_340_FLMS001491_6.txt Node
Date: Mon Feb 06 15:42:13 GMT 2017
User: dcchb
Spectrometer: FLMS00149
Trigger mode: 0
Integration Time (sec): 2.000000E-2
Scans to average: 10
Electric dark correction enabled: true
Nonlinearity correction enabled: false
Boxcar width: 0
XAxis mode: Wavelengths
Number of Pixels in Spectrum: 2048
>>>>>Begin Spectral Data<<<<<
341.393	-22.47
341.776	-22.47
342.16	-22.47
342.543	-57.05
342.927	-79.87
343.31	-70.61
343.693	-83.49
344.077	-57.72
344.46	-67.22
344.843	-63.15
345.226	-38.97
345.61	-32.64
345.993	-2.36
346.376	-12.75
346.759	5.1
347.142	53.46
347.525	29.05
347.908	72.22
348.291	68.6
348.674	94.59
349.057	105.89
349.44	114.47
349.823	129.84
350.206	155.83
350.588	199.44
350.971	219.1
351.354	236.28
351.737	219.56
352.119	235.83
352.502	281.7
352.884	249.39
353.267	284.41
353.65	303.62
354.032	310.85
354.414	312.66
354.797	310.63
355.179	323.06
355.562	318.54
355.944	323.51
356.326	349.72
356.709	325.32
357.091	335.03
357.473	346.11
357.855	353.79
358.238	336.84
358.62	346.56
359.002	354.92
359.384	344.75
359.766	345.88
360.148	327.58
360.53	335.03
360.912	321.25
361.294	330.97
361.676	323.06
362.057	323.51
362.439	325.99
362.821	325.32
363.203	314.02
363.584	308.37
363.966	311.53
364.348	307.24
364.729	320.12
365.111	304.75
365.493	320.8
365.874	319.67
366.256	316.5
366.637	298.88
367.019	285.77
367.4	312.21
367.781	289.61
368.163	299.1
368.544	304.53
368.925	304.53
369.306	280.12
369.688	318.54
370.069	310.4
370.45	323.73
370.831	294.36
371.212	311.08
371.593	300.68
371.974	285.77
372.355	336.62
372.736	308.37
373.117	313.79
373.498	330.97
373.879	329.16
374.26	321.02
374.641	312.44
375.021	319.89
375.402	337.29
375.783	311.76
376.163	326.67
376.544	314.47
376.925	319.21
377.305	324.19
377.686	315.15
378.066	309.72
378.447	307.01
378.827	311.76
379.208	312.66
379.588	314.92
379.968	335.49
380.349	317.86
380.729	339.33
381.109	335.03
381.489	340.91
381.87	330.74
382.25	332.32
382.63	343.17
383.01	341.36
383.39	344.75
383.77	337.29
384.15	343.39
384.53	340.01
384.91	327.58
385.29	343.85
385.67	331.19
386.049	334.36
386.429	334.58
386.809	334.13
387.189	344.75
387.568	333.45
387.948	339.78
388.328	335.71
388.707	335.71
389.087	357.18
389.466	366.22
389.846	350.85
390.225	342.72
390.605	375.26
390.984	359.89
391.363	349.72
391.743	344.75
392.122	349.5
392.501	380
392.881	361.02
393.26	385.43
393.639	360.34
394.018	372.32
394.397	349.95
394.776	366.9
395.155	376.39
395.534	386.56
395.913	361.47
396.292	361.02
396.671	390.63
397.05	378.87
397.429	387.69
397.808	381.81
398.186	390.85
398.565	377.97
398.944	372.09
399.323	381.59
399.701	375.03
400.08	385.43
400.458	390.63
400.837	396.05
401.215	413.68
401.594	411.19
401.972	399.44
402.351	403.73
402.729	411.19
403.107	381.36
403.486	386.11
403.864	420.91
404.242	414.13
404.62	390.17
404.999	415.94
405.377	406.67
405.755	411.42
406.133	426.56
406.511	424.3
406.889	420.23
407.267	430.17
407.645	425.65
408.023	449.61
408.401	441.47
408.779	448.02
409.156	458.19
409.534	422.94
409.912	448.7
410.29	438.31
410.667	449.38
411.045	475.59
411.422	441.7
411.8	462.49
412.178	466.78
412.555	459.55
412.933	468.82
413.31	482.37
413.687	497.52
414.065	502.26
414.442	485.31
414.819	497.74
415.197	534.12
415.574	510.4
415.951	517.18
416.328	531.19
416.705	520.79
417.082	515.59
417.46	532.09
417.837	539.77
418.214	536.84
418.591	541.58
418.967	561.24
419.344	552.2
419.721	588.36
420.098	565.08
420.475	576.61
420.852	588.81
421.228	600.34
421.605	585.2
421.982	596.72
422.358	594.46
422.735	604.63
423.111	579.32
423.488	595.14
423.864	604.18
424.241	606.21
424.617	612.31
424.994	611.64
425.37	621.81
425.746	644.63
426.123	655.48
426.499	639.66
426.875	640.11
427.251	643.95
427.627	662.71
428.003	657.96
428.379	673.33
428.756	665.87
429.132	677.62
429.507	696.61
429.883	703.84
430.259	718.53
430.635	708.36
431.011	707
431.387	718.07
431.763	719.43
432.138	725.53
432.514	754.68
432.89	709.71
433.265	757.85
433.641	768.24
434.016	773.67
434.392	791.52
434.767	792.2
435.143	792.42
435.518	808.92
435.894	809.6
436.269	805.3
436.644	814.12
437.02	827.68
437.395	837.85
437.77	845.53
438.145	836.72
438.52	864.06
438.895	863.83
439.271	859.77
439.646	876.04
440.021	873.55
440.395	861.12
440.77	914.91
441.145	883.04
441.52	898.41
441.895	889.14
442.27	877.62
442.645	907.45
443.019	930.27
443.394	930.5
443.769	927.79
444.143	936.37
444.518	945.41
444.892	932.31
445.267	967.79
445.641	940.22
446.016	937.28
446.39	950.61
446.764	958.29
447.139	960.78
447.513	1001.23
447.887	969.82
448.262	972.98
448.636	984.96
449.01	979.99
449.384	981.8
449.758	982.02
450.132	999.87
450.506	1012.98
450.88	1008.91
451.254	1025.18
451.628	1012.08
452.002	1040.55
452.376	1011.85
452.75	1026.54
453.123	1037.39
453.497	1069.7
453.871	1052.53
454.244	1069.48
454.618	1107.44
454.992	1109.7
455.365	1073.09
455.739	1104.73
456.112	1099.08
456.486	1126.43
456.859	1128.23
457.232	1135.69
457.606	1155.58
457.979	1142.92
458.352	1195.58
458.725	1186.08
459.099	1206.2
459.472	1201.9
459.845	1214.11
460.218	1218.17
460.591	1246.42
460.964	1233.54
461.337	1263.82
461.71	1275.57
462.083	1284.84
462.456	1281
462.829	1287.1
463.201	1315.12
463.574	1321.67
463.947	1334.33
464.32	1360.32
464.692	1367.32
465.065	1367.77
465.438	1379.07
465.81	1402.35
466.183	1398.28
466.555	1428.11
466.928	1456.13
467.3	1436.47
467.672	1466.76
468.045	1464.5
468.417	1504.95
468.789	1491.84
469.161	1531.39
469.534	1536.36
469.906	1555.11
470.278	1580.88
470.65	1619.52
471.022	1624.27
471.394	1657.94
471.766	1633.53
472.138	1666.75
472.51	1693.19
472.882	1726.64
473.253	1762.34
473.625	1750.82
473.997	1788.33
474.369	1784.71
474.74	1811.38
475.112	1851.83
475.484	1880.53
475.855	1907.65
476.227	1899.06
476.598	1953.3
476.97	1973.18
477.341	2000.98
477.713	2045.95
478.084	2052.95
478.455	2092.95
478.827	2130.69
479.198	2163.23
479.569	2179.73
479.94	2220.63
480.311	2215.66
480.682	2292.95
481.053	2312.38
481.424	2344.7
481.795	2382.21
482.166	2417.92
482.537	2444.58
482.908	2514.41
483.279	2497.91
483.65	2547.4
484.021	2627.4
484.391	2613.62
484.762	2605.71
485.133	2687.97
485.503	2703.11
485.874	2750.79
486.244	2792.14
486.615	2781.75
486.985	2856.32
487.356	2874.18
487.726	2955.08
488.097	2974.06
488.467	2948.3
488.837	3029.43
489.207	3085.7
489.578	3165.47
489.948	3112.14
490.318	3205.69
490.688	3200.49
491.058	3288.4
491.428	3287.27
491.798	3304.22
492.168	3425.12
492.538	3399.36
492.908	3444.1
493.278	3440.94
493.648	3473.48
494.017	3525.91
494.387	3553.25
494.757	3581.05
495.126	3621.5
495.496	3638.68
495.866	3651.78
496.235	3696.53
496.605	3723.87
496.974	3748.05
497.344	3751.89
497.713	3764.32
498.082	3809.74
498.452	3825.79
498.821	3864.66
499.19	3860.36
499.559	3929.74
499.928	3933.81
500.298	3922.06
500.667	3973.36
501.036	4006.12
501.405	4014.48
501.774	4030.76
502.143	4060.59
502.512	4012.9
502.88	4031.66
503.249	4105.1
503.618	4137.87
503.987	4157.98
504.356	4120.24
504.724	4212.67
505.093	4211.09
505.462	4174.71
505.83	4238.43
506.199	4227.59
506.567	4338.77
506.936	4298.32
507.304	4377.41
507.672	4368.37
508.041	4370.63
508.409	4378.54
508.777	4426.45
509.145	4446.56
509.514	4435.04
509.882	4470.52
510.25	4446.34
510.618	4524.08
510.986	4521.59
511.354	4521.36
511.722	4581.02
512.09	4597.75
512.458	4569.72
512.826	4624.41
513.193	4649.27
513.561	4633
513.929	4670.29
514.297	4719.33
514.664	4761.58
515.032	4729.72
515.4	4762.26
515.767	4742.83
516.135	4805.88
516.502	4723.39
516.869	4821.47
517.237	4834.35
517.604	4787.35
517.972	4845.42
518.339	4865.76
518.706	4837.97
519.073	4879.09
519.44	4859.66
519.808	4980.34
520.175	4919.55
520.542	5045.42
520.909	4994.35
521.276	5013.78
521.643	5040.9
522.009	5052.42
522.376	5098.75
522.743	5076.83
523.11	5131.52
523.477	5185.98
523.843	5192.98
524.21	5204.28
524.577	5268.69
524.943	5251.97
525.31	5243.38
525.676	5312.3
526.043	5303.04
526.409	5395.01
526.776	5454.45
527.142	5397.73
527.508	5411.74
527.874	5477.05
528.241	5509.36
528.607	5571.96
528.973	5535.35
529.339	5573.99
529.705	5624.84
530.071	5613.76
530.437	5656.02
530.803	5706.87
531.169	5746.87
531.535	5712.07
531.901	5683.14
532.267	5773.99
532.632	5816.92
532.998	5802.69
533.364	5856.02
533.73	5893.53
534.095	5956.58
534.461	5932.4
534.826	5942.34
535.192	5973.98
535.557	5995
535.923	6004.94
536.288	6063.24
536.653	6129.91
537.019	6102.57
537.384	6109.35
537.749	6134.66
538.114	6184.15
538.479	6187.76
538.845	6182.79
539.21	6228.44
539.575	6265.27
539.94	6310.24
540.305	6329.45
540.67	6286.97
541.034	6356.8
541.399	6337.81
541.764	6411.94
542.129	6439.05
542.494	6475.89
542.858	6475.44
543.223	6461.65
543.587	6514.98
543.952	6585.04
544.316	6538.94
544.681	6616.22
545.045	6628.2
545.41	6642.66
545.774	6640.63
546.138	6695.32
546.503	6738.26
546.867	6772.6
547.231	6738.48
547.595	6797.46
547.959	6887.63
548.324	6844.01
548.688	6865.48
549.052	6917.46
549.416	6910
549.779	6910
550.143	6968.53
550.507	7001.3
550.871	7047.85
551.235	7021.86
551.599	7008.08
551.962	7090.34
552.326	7118.13
552.689	7122.2
553.053	7174.4
553.417	7152.71
553.78	7218.02
554.143	7207.85
554.507	7262.08
554.87	7246.49
555.234	7319.48
555.597	7285.36
555.96	7327.62
556.323	7370.55
556.686	7312.25
557.05	7424.11
557.413	7451.68
557.776	7422.53
558.139	7497.33
558.502	7510.89
558.865	7506.82
559.228	7534.39
559.59	7582.75
559.953	7575.07
560.316	7679.02
560.679	7591.57
561.041	7701.17
561.404	7737.55
561.767	7752.69
562.129	7752.69
562.492	7800.6
562.854	7831.79
563.217	7749.98
563.579	7889.86
563.941	7927.83
564.304	7912.24
564.666	7904.78
565.028	7973.48
565.39	7974.83
565.753	7985.45
566.115	8066.36
566.477	8042.85
566.839	8113.13
567.201	8121.95
567.563	8179.8
567.925	8238.1
568.287	8189.74
568.648	8214.83
569.01	8236.29
569.372	8318.78
569.734	8358.1
570.095	8414.37
570.457	8421.83
570.819	8464.99
571.18	8468.61
571.542	8562.39
571.903	8500.92
572.265	8618.66
572.626	8714.93
572.987	8637.19
573.349	8748.15
573.71	8787.47
574.071	8849.39
574.432	8890.51
574.794	8923.96
575.155	8973
575.516	9092.77
575.877	9073.56
576.238	9203.95
576.599	9264.74
576.96	9316.49
577.32	9379.99
577.681	9474.68
578.042	9507.67
578.403	9662.25
578.763	9703.6
579.124	9791.06
579.485	9939.75
579.845	10022.24
580.206	10054.55
580.566	10096.81
580.927	10278.5
581.287	10451.15
581.648	10457.93
582.008	10677.59
582.368	10811.14
582.728	10943.12
583.089	11087.52
583.449	11224.01
583.809	11423.1
584.169	11570.44
584.529	11746.03
584.889	11959.36
585.249	12132.01
585.609	12306.92
585.969	12547.59
586.329	12654.94
586.688	12875.04
587.048	13127.47
587.408	13414.46
587.768	13562.26
588.127	13759.31
588.487	13963.83
588.846	14326.08
589.206	14499.41
589.565	14688.55
589.925	14996.34
590.284	15260.06
590.643	15494.63
591.003	15687.85
591.362	16075.86
591.721	16258.68
592.08	16549.52
592.44	16917.65
592.799	17175.49
593.158	17458.88
593.517	17711.3
593.876	18047.34
594.235	18212.53
594.593	18587.66
594.952	18838.05
595.311	19219.28
595.67	19494.08
596.029	19837.8
596.387	20149.88
596.746	20442.53
597.104	20685.91
597.463	20906.02
597.822	21374.03
598.18	21521.37
598.538	21756.62
598.897	22222.82
599.255	22316.38
599.613	22797.49
599.972	23061.89
600.33	23311.83
600.688	23580.75
601.046	23956.56
601.404	24213.73
601.762	24467.73
602.12	24844.45
602.478	25052.58
602.836	25385
603.194	25371.44
603.552	25799
603.91	25914.47
604.268	26371.41
604.625	26502.26
604.983	26858.4
605.341	26937.27
605.698	27412.74
606.056	27686.4
606.413	27796.01
606.771	28031.03
607.128	28479.38
607.485	28444.12
607.843	28650
608.2	29149.87
608.557	29315.97
608.914	29544.44
609.272	29757.31
609.629	29995.5
609.986	30262.16
610.343	30277.3
610.7	30780.56
611.057	30948.01
611.414	31074.34
611.771	31341.45
612.127	31670.03
612.484	31833.87
612.841	32014.88
613.198	32032.28
613.554	32252.16
613.911	32546.16
614.267	32744.12
614.624	32820.51
614.98	33039.94
615.337	33413.94
615.693	33324.22
616.05	33526.25
616.406	33809.86
616.762	33771.89
617.118	33977.09
617.475	34131.43
617.831	34311.09
618.187	34600.57
618.543	34583.62
618.899	34828.36
619.255	34827.01
619.611	34842.15
619.967	35285.75
620.323	35464.73
620.678	35320.78
621.034	35481
621.39	35547.44
621.746	35568.68
622.101	36083.25
622.457	35883.25
622.812	35972.74
623.168	36144.71
623.523	36202.79
623.879	36540.18
624.234	36359.85
624.589	36517.81
624.945	36684.13
625.3	36738.82
625.655	36868.76
626.01	36938.59
626.365	36972.04
626.72	36921.42
627.075	37003.45
627.43	37127.74
627.785	37182.43
628.14	37122.31
628.495	37213.61
628.85	37392.59
629.205	37296.77
629.559	37481.4
629.914	37416.77
630.269	37483.44
630.623	37482.53
630.978	37445.92
631.332	37573.83
631.687	37748.51
632.041	37682.75
632.396	37768.17
632.75	37623.77
633.104	37682.07
633.459	37524.79
633.813	37780.38
634.167	37666.48
634.521	37684.79
634.875	37748.97
635.229	37737.21
635.583	37608.86
635.937	37576.99
636.291	37558.01
636.645	37769.53
636.999	37585.58
637.352	37804.1
637.706	37668.06
638.06	37747.38
638.413	37637.78
638.767	37457
639.121	37721.62
639.474	37472.81
639.828	37543.55
640.181	37694.05
640.534	37648.4
640.888	37524.79
641.241	37371.57
641.594	37526.15
641.947	37709.64
642.301	37625.8
642.654	37602.08
643.007	37472.36
643.36	37537.67
643.713	37533.83
644.066	37649.98
644.419	37485.02
644.771	37289.99
645.124	36867.18
645.477	36803.91
645.83	36774.75
646.182	36541.54
646.535	36515.78
646.888	36659.5
647.24	36370.7
647.593	36469
647.945	36487.76
648.298	36370.92
648.65	36435.1
649.002	36314.43
649.355	36407.08
649.707	36229.23
650.059	36509.22
650.411	36834.86
650.763	36965.48
651.115	37314.85
651.467	37230.33
651.819	37125.48
652.171	37081.86
652.523	37165.03
652.875	37172.03
653.227	36909.89
653.578	37128.19
653.93	37110.79
654.282	37000.96
654.633	37005.26
654.985	37003.45
655.337	37042.54
655.688	37031.92
656.039	37116.67
656.391	36896.78
656.742	36882.1
657.094	36881.87
657.445	37047.06
657.796	36927.52
658.147	36801.65
658.498	36794.64
658.849	36868.08
659.2	36961.87
659.551	36786.5
659.902	36893.85
660.253	36826.05
660.604	36853.4
660.955	36594.65
661.306	36789.89
661.656	36799.84
662.007	36810.23
662.358	36743.12
662.708	36770.46
663.059	36714.64
663.409	36557.36
663.76	36850.91
664.11	36791.25
664.461	36694.08
664.811	36810.23
665.161	36665.6
665.511	36571.14
665.862	36678.71
666.212	36748.77
666.562	36754.19
666.912	36672.84
667.262	36585.83
667.612	36691.59
667.962	36685.94
668.312	36615.21
668.662	36782.44
669.011	36584.93
669.361	36630.8
669.711	36535.21
670.06	36585.15
670.41	36488.66
670.76	36458.6
671.109	36581.76
671.459	36535.66
671.808	36440.07
672.157	36565.72
672.507	36316.91
672.856	36417.25
673.205	36449.79
673.554	36621.99
673.904	36406.4
674.253	36618.83
674.602	36441.65
674.951	36032.4
675.3	35857.49
675.649	36339.06
675.998	36244.6
676.346	36330.92
676.695	36431.03
677.044	36145.39
677.393	36277.59
677.741	36163.92
678.09	36160.76
678.438	36022
678.787	36144.04
679.135	36168.67
679.484	35906.08
679.832	36032.4
680.181	35812.52
680.529	35856.13
680.877	35908.56
681.225	35812.52
681.573	36129.35
681.922	35710.83
682.27	35676.48
682.618	35682.58
682.966	35699.3
683.314	35714.44
683.661	35656.82
684.009	35356.26
684.357	35324.62
684.705	35466.09
685.053	35233.55
685.4	35300.44
685.748	35083.05
686.095	34999.66
686.443	35004.86
686.79	35067.91
687.138	35047.57
687.485	35099.77
687.832	34845.76
688.18	34906.55
688.527	34720.57
688.874	34690.29
689.221	34685.54
689.568	34626.34
689.915	34425.44
690.262	34571.65
690.609	34356.96
690.956	34240.13
691.303	34256.4
691.65	34024.09
691.997	34072.68
692.344	33924.21
692.69	34000.36
693.037	33990.42
693.383	33748.17
693.73	33829.07
694.077	33572.58
694.423	33433.15
694.769	33463.2
695.116	33270.66
695.462	33382.53
695.808	33245.35
696.155	33337.56
696.501	33029.77
696.847	33117
697.193	32868.64
697.539	32972.37
697.885	32749.55
698.231	32652.83
698.577	32635.2
698.923	32486.28
699.269	32402.21
699.614	32258.04
699.96	32260.97
700.306	32300.52
700.651	32012.84
700.997	31908.21
701.342	31950.93
701.688	31940.76
702.033	31802.23
702.379	31669.12
702.724	31567.21
703.069	31763.36
703.415	31262.13
703.76	31311.85
704.105	31314.33
704.45	31301.45
704.795	31093.77
705.14	31003.15
705.485	30960.22
705.83	30860.11
706.175	30861.24
706.52	30791.41
706.865	30756.15
707.209	30606.55
707.554	30534.24
707.899	30710.73
708.243	30389.61
708.588	30466.44
708.932	30279.78
709.277	30231.87
709.621	30301.48
709.966	29987.81
710.31	30045.21
710.654	29870.08
710.998	29944.42
711.342	29937.42
711.687	29971.99
712.031	29634.6
712.375	29606.35
712.719	29620.37
713.063	29578.11
713.407	29737.2
713.75	29367.49
714.094	29574.26
714.438	29343.08
714.782	29407.94
715.125	29151.9
715.469	29325.23
715.812	29119.36
716.156	28949.42
716.499	28975.41
716.843	29150.1
717.186	28914.17
717.53	28916.43
717.873	28945.35
718.216	28776.09
718.559	28724.34
718.902	28551.92
719.246	28632.82
719.589	28579.94
719.932	28447.51
720.275	28409.78
720.617	28364.58
720.96	28280.74
721.303	28362.55
721.646	28430.79
721.989	28135.88
722.331	28188.09
722.674	28130.23
723.016	28154.19
723.359	28111.25
723.701	28167.07
724.044	27888.21
724.386	27830.81
724.729	27922.56
725.071	27864.93
725.413	27803.24
725.755	27717.59
726.097	27624.71
726.439	27471.27
726.782	27513.08
727.124	27627.65
727.465	27456.58
727.807	27434.21
728.149	27412.97
728.491	27496.35
728.833	27478.5
729.175	27276.92
729.516	27257.49
729.858	27302.01
730.199	27247.77
730.541	27117.83
730.882	27144.27
731.224	27257.04
731.565	27046.42
731.906	26926.2
732.248	26939.98
732.589	26815.02
732.93	26785.86
733.271	26759.88
733.612	26795.58
733.953	26863.38
734.294	26731.4
734.635	26617.51
734.976	26604.4
735.317	26514.91
735.658	26468.13
735.999	26502.48
736.339	26516.94
736.68	26540.9
737.021	26477.4
737.361	26269.94
737.702	26493.22
738.042	26361.02
738.383	26294.13
738.723	26376.16
739.063	26222.71
739.404	26332.32
739.744	26253.67
740.084	25994.47
740.424	26062.04
740.764	26035.83
741.104	26121.47
741.444	25876.28
741.784	25868.83
742.124	25810.07
742.464	25824.53
742.804	25836.28
743.143	25860.01
743.483	25786.34
743.823	25566.23
744.162	25549.74
744.502	25545.44
744.841	25465.9
745.181	25585.22
745.52	25492.56
745.86	25545.9
746.199	25408.27
746.538	25403.75
746.877	25457.31
747.216	25396.52
747.556	25445.33
747.895	25288.05
748.234	25174.15
748.573	25122.63
748.911	25100.94
749.25	25050.09
749.589	24977.55
749.928	25026.59
750.267	25152.01
750.605	25032.46
750.944	24922.64
751.283	24827.27
751.621	24913.6
751.96	24774.62
752.298	24753.37
752.636	24708.86
752.975	24629.99
753.313	24681.96
753.651	24694.39
753.989	24449.88
754.327	24540.5
754.666	24254.4
755.004	24312.71
755.342	24308.87
755.679	24316.32
756.017	24094.41
756.355	24230.9
756.693	24098.7
757.031	24120.17
757.368	23973.51
757.706	23953.62
758.044	23869.1
758.381	23898.26
758.719	23804.47
759.056	23721.54
759.394	23724.02
759.731	23648.54
760.068	23485.61
760.405	23509.11
760.743	23365.39
761.08	23394.31
761.417	23311.83
761.754	23201.32
762.091	23264.37
762.428	23154.55
762.765	22950.71
763.102	23035.45
763.438	22842.92
763.775	22760.88
764.112	22755.46
764.449	22844.72
764.785	22671.85
765.122	22527.44
765.458	22458.52
765.795	22458.52
766.131	22423.49
766.467	22325.19
766.804	22232.08
767.14	22157.28
767.476	22093.56
767.812	21968.59
768.148	21989.83
768.485	21889.27
768.821	21786.45
769.157	21772.21
769.492	21691.08
769.828	21660.57
770.164	21436.17
770.5	21474.14
770.836	21423.97
771.171	21272.79
771.507	21221.04
771.842	21093.81
772.178	21158.89
772.513	21005
772.849	20938.56
773.184	20932.46
773.519	20793.7
773.855	20751.67
774.19	20609.75
774.525	20561.85
774.86	20463.54
775.195	20502.19
775.53	20465.35
775.865	20307.39
776.2	20138.81
776.535	20056.77
776.87	20054.06
777.205	20037.79
777.539	19875.54
777.874	19989.21
778.209	19743.11
778.543	19719.61
778.878	19541.76
779.212	19625.6
779.547	19412.5
779.881	19455.43
780.215	19311.48
780.55	19397.13
780.884	19242.33
781.218	19108.1
781.552	19213.18
781.886	19038.27
782.22	18979.74
782.554	18949.69
782.888	18707.21
783.222	18669.24
783.556	18543.37
783.889	18629.24
784.223	18406.2
784.557	18398.51
784.89	18443.03
785.224	18222.7
785.557	18238.29
785.891	18157.84
786.224	18223.83
786.558	18178.18
786.891	17905.42
787.224	17915.14
787.557	17834.23
787.891	17842.37
788.224	17840.79
788.557	17776.38
788.89	17663.39
789.223	17612.55
789.556	17519.67
789.888	17512.44
790.221	17374.81
790.554	17259.33
790.887	17269.28
791.219	17165.55
791.552	17196.51
791.884	17090.53
792.217	17050.07
792.549	16935.28
792.882	16813.02
793.214	16936.18
793.546	16869.97
793.879	16630.65
794.211	16584.32
794.543	16675.39
794.875	16592.69
795.207	16624.1
795.539	16561.27
795.871	16576.87
796.203	16368.06
796.535	16247.84
796.867	16283.54
797.198	16180.94
797.53	16227.5
797.862	16046.26
798.193	16149.76
798.525	15972.59
798.856	16021.4
799.188	15880.61
799.519	15823.67
799.85	15702.31
800.182	15805.36
800.513	15738.47
800.844	15571.02
801.175	15686.27
801.506	15645.59
801.837	15539.38
802.168	15405.82
802.499	15461.87
802.83	15335.54
803.161	15325.83
803.491	15327.86
803.822	15254.19
804.153	15157.24
804.483	15101.2
804.814	14990.02
805.145	15042.44
805.475	14967.42
805.805	14925.84
806.136	14870.24
806.466	14860.98
806.796	14840.64
807.126	14702.57
807.457	14664.37
807.787	14679.29
808.117	14647.65
808.447	14573.98
808.777	14621.44
809.107	14576.47
809.436	14498.5
809.766	14529.24
810.096	14311.62
810.426	14294.89
810.755	14395.45
811.085	14404.72
811.414	14285.4
811.744	14214.22
812.073	14199.3
812.403	14102.36
812.732	13997.95
813.061	14096.48
813.39	13962.25
813.719	13989.14
814.049	14022.13
814.378	13955.47
814.707	13958.18
815.036	13787.79
815.365	13778.97
815.693	13650.84
816.022	13705.98
816.351	13708.92
816.68	13472.77
817.008	13634.57
817.337	13516.16
817.665	13463.05
817.994	13562.26
818.322	13483.16
818.651	13365.2
818.979	13336.27
819.307	13338.31
819.636	13398.64
819.964	13306.22
820.292	13338.76
820.62	13299.21
820.948	13275.48
821.276	13248.37
821.604	13268.93
821.932	13261.47
822.259	13232.1
822.587	13167.01
822.915	13213.34
823.243	13213.34
823.57	13202.94
823.898	13260.34
824.225	13170.85
824.553	13190.51
824.88	13248.37
825.207	13301.47
825.535	13201.14
825.862	13186
826.189	13251.3
826.516	13255.15
826.843	13240.91
827.17	13234.36
827.497	13274.35
827.824	13279.78
828.151	13296.5
828.478	13150.06
828.805	13237.29
829.131	13133.79
829.458	13228.25
829.785	13108.71
830.111	13072.1
830.438	13222.6
830.764	13093.79
831.09	13140.12
831.417	13181.7
831.743	13207.69
832.069	13137.18
832.395	13011.76
832.722	13080.69
833.048	13069.61
833.374	13161.36
833.7	13030.97
834.026	12981.71
834.351	13019.22
834.677	13046.79
835.003	13000.01
835.329	13049.05
835.654	12937.64
835.98	12889.73
836.306	12952.1
836.631	12801.15
836.956	12879.56
837.282	12895.83
837.607	12893.12
837.932	12761.37
838.258	12833.46
838.583	12779.23
838.908	12745.1
839.233	12744.88
839.558	12710.75
839.883	12673.69
840.208	12672.11
840.533	12614.48
840.858	12626.69
841.182	12607.03
841.507	12634.6
841.832	12539.46
842.156	12556.86
842.481	12534.94
842.805	12500.82
843.13	12399.35
843.454	12508.5
843.778	12283.65
844.103	12356.19
844.427	12261.27
844.751	12325
845.075	12278.9
845.399	12241.61
845.723	12175.17
846.047	12196.42
846.371	12078.91
846.695	12105.8
847.019	11946.48
847.343	11941.06
847.666	11903.99
847.99	11790.55
848.313	11819.48
848.637	11741.06
848.96	11735.41
849.284	11716.43
849.607	11656.54
849.931	11678.24
850.254	11447.74
850.577	11467.17
850.9	11415.19
851.223	11404.35
851.546	11335.42
851.869	11221.75
852.192	11326.38
852.515	11153.05
852.838	11134.07
853.161	11183.79
853.483	11061.98
853.806	11009.33
854.129	11044.81
854.451	10955.77
854.774	10908.99
855.096	10850.92
855.419	10828.77
855.741	10840.75
856.063	10771.37
856.385	10760.97
856.708	10791.71
857.03	10698.83
857.352	10706.96
857.674	10635.78
857.996	10594.65
858.318	10548.1
858.64	10560.08
858.961	10528.66
859.283	10471.49
859.605	10462.9
859.926	10457.71
860.248	10376.13
860.57	10434.88
860.891	10389.46
861.212	10251.83
861.534	10291.38
861.855	10220.42
862.176	10289.12
862.498	10281.44
862.819	10218.62
863.14	10235.34
863.461	10198.28
863.782	10114.44
864.103	10209.35
864.424	10106.75
864.745	10105.17
865.065	10011.39
865.386	10047.09
865.707	10090.48
866.027	10055.46
866.348	10033.99
866.668	10045.51
866.989	9992.63
867.309	9904.5
867.63	9931.62
867.95	9977.72
868.27	9845.74
868.59	9868.12
868.91	9890.94
869.23	9880.77
869.55	9790.6
869.87	9860.21
870.19	9780.21
870.51	9781.11
870.83	9766.88
871.15	9696.37
871.469	9724.84
871.789	9797.16
872.109	9721.45
872.428	9668.12
872.748	9695.01
873.067	9705.41
873.386	9682.13
873.706	9635.35
874.025	9614.34
874.344	9609.59
874.663	9642.36
874.982	9558.29
875.301	9509.93
875.62	9481.69
875.939	9548.8
876.258	9527.33
876.577	9445.08
876.896	9472.87
877.214	9456.83
877.533	9418.64
877.852	9480.78
878.17	9375.93
878.489	9393.1
878.807	9358.07
879.125	9406.21
879.444	9327.11
879.762	9316.94
880.08	9304.97
880.398	9291.63
880.716	9307.9
881.034	9252.09
881.352	9213.22
881.67	9230.84
881.988	9205.76
882.306	9163.05
882.624	9150.85
882.941	9114.92
883.259	9095.71
883.577	9053.45
883.894	8997.4
884.212	9016.39
884.529	9022.49
884.846	8994.47
885.164	8961.25
885.481	8943.39
885.798	9033.79
886.115	9000.57
886.432	8873.57
886.75	8883.51
887.067	8861.36
887.383	8806.45
887.7	8826.56
888.017	8733.91
888.334	8826.79
888.651	8730.07
888.967	8722.38
889.284	8657.07
889.6	8547.7
889.917	8603.74
890.233	8622.73
890.55	8588.15
890.866	8554.48
891.182	8572.33
891.498	8562.39
891.815	8529.39
892.131	8426.12
892.447	8439.68
892.763	8424.76
893.079	8383.64
893.395	8334.15
893.71	8377.53
894.026	8277.42
894.342	8363.07
894.657	8229.97
894.973	8229.06
895.289	8226.8
895.604	8168.73
895.92	8203.08
896.235	8159.69
896.55	8163.3
896.865	8112.68
897.181	8061.38
897.496	8031.33
897.811	8001.27
898.126	8002.85
898.441	7896.87
898.756	7992.46
899.071	7868.62
899.386	7934.16
899.7	7785.91
900.015	7830.88
900.33	7716.31
900.644	7800.83
900.959	7772.58
901.273	7705.69
901.588	7620.04
901.902	7646.03
902.216	7603.77
902.531	7611.9
902.845	7545.01
903.159	7482.64
903.473	7514.51
903.787	7493.26
904.101	7393.61
904.415	7448.07
904.729	7417.11
905.042	7369.65
905.356	7387.28
905.67	7331.69
905.984	7335.98
906.297	7255.76
906.611	7189.54
906.924	7225.02
907.237	7174.63
907.551	7174.18
907.864	7137.57
908.177	7142.31
908.491	7146.15
908.804	7091.01
909.117	7059.15
909.43	7005.59
909.743	6991.36
910.056	6898.93
910.368	6881.98
910.681	6912.71
910.994	6885.82
911.307	6811.25
911.619	6821.87
911.932	6750.23
912.244	6732.38
912.557	6749.78
912.869	6701.19
913.181	6675.66
913.494	6626.17
913.806	6602.21
914.118	6585.94
914.43	6601.99
914.742	6519.96
915.054	6436.79
915.366	6489.9
915.678	6448.32
915.99	6483.12
916.302	6378.26
916.613	6337.81
916.925	6330.58
917.236	6326.06
917.548	6327.19
917.859	6266.63
918.171	6223.47
918.482	6245.39
918.794	6192.05
919.105	6162.45
919.416	6087.88
919.727	6124.94
920.038	6073.87
920.349	6008.78
920.66	6068.22
920.971	5997.03
921.282	5986.64
921.593	5981.89
921.903	5903.7
922.214	5876.13
922.525	5887.2
922.835	5862.35
923.146	5792.52
923.456	5840.65
923.767	5802.69
924.077	5814.44
924.387	5765.17
924.697	5719.07
925.008	5672.75
925.318	5658.74
925.628	5641.56
925.938	5595.01
926.248	5605.63
926.558	5599.75
926.867	5582.35
927.177	5530.83
927.487	5507.55
927.796	5455.35
928.106	5474.79
928.416	5401.57
928.725	5432.07
929.034	5390.04
929.344	5410.83
929.653	5367.9
929.962	5301.68
930.271	5299.42
930.581	5301.68
930.89	5254
931.199	5223.04
931.508	5186.88
931.817	5170.39
932.125	5217.84
932.434	5186.21
932.743	5165.19
933.051	5121.57
933.36	5116.6
933.669	5035.02
933.977	5008.13
934.286	5035.93
934.594	5020.56
934.902	4956.83
935.21	4956.61
935.519	4929.94
935.827	4910.51
936.135	4872.99
936.443	4840.68
936.751	4856.27
937.059	4815.14
937.367	4830.51
937.674	4800.23
937.982	4741.7
938.29	4748.93
938.597	4789.61
938.905	4727.01
939.213	4690.4
939.52	4641.59
939.827	4593.45
940.135	4612.89
940.442	4635.03
940.749	4564.53
941.056	4598.65
941.363	4542.83
941.67	4566.56
941.977	4521.82
942.284	4491.99
942.591	4481.59
942.898	4437.52
943.205	4452.67
943.511	4418.09
943.818	4416.73
944.125	4378.54
944.431	4339.45
944.738	4333.35
945.044	4313.46
945.35	4336.06
945.657	4266
945.963	4233.01
946.269	4235.27
946.575	4255.61
946.881	4195.5
947.187	4227.59
947.493	4197.08
947.799	4181.94
948.105	4132
948.41	4120.02
948.716	4114.37
949.022	4070.3
949.327	4055.16
949.633	4035.95
949.938	4022.17
950.244	4019.68
950.549	3957.99
950.854	3939.46
951.16	3993.24
951.465	3993.92
951.77	3949.4
952.075	3906.69
952.38	3927.26
952.685	3845.9
952.99	3862.17
953.294	3826.47
953.599	3853.59
953.904	3842.74
954.209	3800.93
954.513	3774.94
954.818	3752.57
955.122	3741.72
955.426	3730.88
955.731	3724.1
956.035	3695.17
956.339	3695.17
956.643	3682.52
956.948	3644.1
957.252	3615.17
957.556	3603.2
957.86	3601.16
958.163	3665.34
958.467	3556.19
958.771	3585.34
959.075	3588.06
959.378	3561.62
959.682	3544.21
959.985	3487.04
960.289	3489.75
960.592	3460.83
960.896	3477.32
961.199	3467.15
961.502	3421.28
961.805	3399.81
962.108	3391
962.411	3413.37
962.714	3362.75
963.017	3363.65
963.32	3338.34
963.623	3292.7
963.926	3336.54
964.228	3309.64
964.531	3241.17
964.833	3247.95
965.136	3218.12
965.438	3213.6
965.741	3224
966.043	3210.44
966.345	3221.29
966.648	3190.78
966.95	3184.68
967.252	3161.4
967.554	3140.61
967.856	3132.7
968.158	3106.71
968.46	3109.42
968.761	3088.63
969.063	3068.75
969.365	3048.63
969.666	3066.04
969.968	3050.89
970.269	3012.48
970.571	3000.73
970.872	3009.54
971.174	2972.25
971.475	2974.96
971.776	2930.45
972.077	2944.68
972.378	2912.14
972.679	2930.67
972.98	2928.86
973.281	2887.06
973.582	2917.11
973.883	2900.16
974.183	2866.94
974.484	2836.66
974.785	2832.14
975.085	2859.71
975.386	2825.59
975.686	2774.29
975.986	2791.24
976.287	2761.64
976.587	2770.45
976.887	2740.85
977.187	2733.84
977.487	2732.94
977.787	2720.51
978.087	2673.05
978.387	2684.8
978.687	2710.56
978.987	2667.18
979.286	2652.94
979.586	2628.76
979.885	2654.29
980.185	2655.88
980.484	2579.27
980.784	2595.09
981.083	2591.25
981.382	2598.7
981.682	2543.34
981.981	2532.72
982.28	2529.78
982.579	2521.87
982.878	2539.95
983.177	2508.31
983.475	2513.28
983.774	2492.49
984.073	2481.42
984.372	2456.11
984.67	2452.27
984.969	2483
985.267	2403.23
985.566	2434.41
985.864	2424.24
986.162	2420.85
986.461	2387.18
986.759	2379.95
987.057	2365.94
987.355	2352.61
987.653	2377.47
987.951	2341.76
988.249	2291.82
988.547	2335.21
988.844	2307.19
989.142	2293.63
989.44	2327.3
989.737	2280.52
990.035	2273.51
990.332	2240.52
990.63	2279.62
990.927	2243.01
991.224	2198.94
991.521	2232.61
991.819	2199.39
992.116	2232.16
992.413	2204.81
992.71	2160.52
993.006	2140.41
993.303	2137.02
993.6	2177.02
993.897	2165.72
994.193	2121.88
994.49	2122.33
994.787	2077.13
995.083	2075.33
995.379	2059.51
995.676	2087.3
995.972	2066.74
996.268	2042.56
996.565	2027.42
996.861	2018.61
997.157	2036.68
997.453	2031.94
997.749	2040.3
998.044	2014.54
998.34	1999.4
998.636	1955.1
998.932	1976.35
999.227	1959.85
999.523	1925.95
999.818	1962.11
1000.114	1941.09
1000.409	1930.92
1000.704	1880.08
1001	1893.41
1001.295	1889.79
1001.59	1870.36
1001.885	1860.42
1002.18	1863.35
1002.475	1863.58
1002.77	1849.34
1003.065	1827.2
1003.359	1817.71
1003.654	1859.06
1003.949	1785.84
1004.243	1800.76
1004.538	1778.16
1004.832	1767.76
1005.127	1764.83
1005.421	1745.84
1005.715	1738.16
1006.009	1752.17
1006.304	1737.26
1006.598	1692.06
1006.892	1690.93
1007.186	1681.66
1007.48	1684.83
1007.773	1683.25
1008.067	1674.89
1008.361	1664.72
1008.655	1662.23
1008.948	1614.1
1009.242	1654.09
1009.535	1628.11
1009.829	1603.93
1010.122	1604.38
1010.415	1579.52
1010.708	1585.4
1011.001	1571.61
1011.295	1561.67
1011.588	1599.41
1011.881	1580.42
1012.173	1582.23
1012.466	1578.39
1012.759	1537.26
1013.052	1520.99
1013.344	1497.71
1013.637	1496.58
1013.93	1507.43
1014.222	1483.93
1014.514	1476.7
1014.807	1471.95
1015.099	1474.66
1015.391	1453.42
1015.683	1437.15
1015.976	1446.19
1016.268	1427.66
1016.56	1411.16
1016.851	1416.81
1017.143	1394.89
1017.435	1400.09
1017.727	1374.78
1018.018	1374.55
1018.31	1353.09
1018.602	1357.15
1018.893	1326.42
1019.185	1335.01
1019.476	1339.98
1019.767	1351.73
1020.058	1333.43
1020.35	1312.18
1020.641	1295.69
1020.932	1301.79
1021.223	1292.07
1021.514	1289.36
1021.804	1282.13
1022.095	1246.65
1022.386	1269.25
1022.677	1257.04
1022.967	1251.39
1023.258	1205.52
1023.548	1230.15
1023.839	1205.29
1024.129	1232.19
1024.419	1209.13
1024.709	1172.98
1025	1174.33
1025.29	1201.23
1025.58	1165.29
1025.87	1182.47
1026.16	1179.76
1026.449	1165.07
1026.739	1164.16
1027.029	1144.05
1027.319	1097.5
1027.608	1140.66
1027.898	1130.94
1028.187	1107.22
1028.477	1106.31
1028.766	1104.5
1029.055	1070.16
1029.344	1060.66
1029.634	1052.3
1029.923	1058.86
1030.212	1086.2
1030.501	1061.79
1030.79	1030.83
1031.078	1030.38
1031.367	1031.96
1031.656	1037.16
1031.945	1027.44
1032.233	1031.06
1032.522	1015.47
1032.81	1010.04
1033.099	987.45
1033.387	982.25
1033.675	968.01
1033.963	985.86
1034.251	979.99
1034.54	963.49
1034.828	959.2
1035.116	939.54
1035.403	932.53
1035.691	946.99
1035.979	937.28
1036.267	930.27
1036.554	906.54
1036.842	893.66
1037.129	927.56
1037.417	916.04
1037.704	908.58
1037.992	908.58
1038.279	898.41
1038.566	899.09
1038.853	899.09
1039.14	899.09
