Data from hue_24_FLMS001491_00037.txt Node
Date: Tue Feb 07 17:12:11 GMT 2017
User: dcchb
Spectrometer: FLMS00149
Trigger mode: 0
Integration Time (sec): 2.000000E-2
Scans to average: 10
Electric dark correction enabled: true
Nonlinearity correction enabled: false
Boxcar width: 0
XAxis mode: Wavelengths
Number of Pixels in Spectrum: 2048
>>>>>Begin Spectral Data<<<<<
341.393	0.41
341.776	0.41
342.16	0.41
342.543	-94.28
342.927	-78.46
343.31	-61.51
343.693	-70.77
344.077	-71.45
344.46	-52.02
344.843	-58.57
345.226	-45.01
345.61	-37.78
345.993	-19.93
346.376	-0.04
346.759	-5.24
347.142	28.88
347.525	63.46
347.908	55.1
348.291	65.49
348.674	103.23
349.057	106.17
349.44	119.73
349.823	117.92
350.206	168.99
350.588	188.43
350.971	215.55
351.354	228.88
351.737	228.65
352.119	255.09
352.502	264.36
352.884	306.62
353.267	282.66
353.65	310.46
354.032	287.41
354.414	315.43
354.797	321.76
355.179	351.36
355.562	322.89
355.944	313.62
356.326	322.66
356.709	340.97
357.091	331.93
357.473	339.16
357.855	349.55
358.238	338.93
358.62	329.67
359.002	319.27
359.384	361.3
359.766	347.07
360.148	338.71
360.53	334.86
360.912	338.03
361.294	344.36
361.676	327.41
362.057	354.07
362.439	338.03
362.821	342.55
363.203	330.57
363.584	331.25
363.966	344.81
364.348	340.51
364.729	332.15
365.111	321.08
365.493	317.24
365.874	314.98
366.256	306.16
366.637	328.08
367.019	322.44
367.4	312.49
367.781	324.92
368.163	309.1
368.544	327.41
368.925	337.58
369.306	309.78
369.688	318.14
370.069	326.73
370.45	300.97
370.831	330.57
371.212	308.2
371.593	333.28
371.974	330.57
372.355	326.95
372.736	311.14
373.117	313.85
373.498	313.17
373.879	333.06
374.26	325.6
374.641	333.28
375.021	310.23
375.402	341.64
375.783	335.99
376.163	330.12
376.544	351.59
376.925	326.95
377.305	335.09
377.686	350.23
378.066	331.25
378.447	347.29
378.827	324.47
379.208	345.26
379.588	348.65
379.968	351.13
380.349	339.16
380.729	325.37
381.109	326.95
381.489	350.91
381.87	347.52
382.25	365.15
382.63	344.58
383.01	350.23
383.39	343.9
383.77	326.73
384.15	355.43
384.53	344.13
384.91	348.65
385.29	358.14
385.67	369.89
386.049	351.81
386.429	377.35
386.809	368.54
387.189	339.61
387.568	364.92
387.948	352.26
388.328	366.73
388.707	366.05
389.087	379.16
389.466	354.75
389.846	374.41
390.225	360.85
390.605	383.68
390.984	373.51
391.363	376.22
391.743	383
392.122	371.93
392.501	372.38
392.881	391.81
393.26	368.31
393.639	383
394.018	389.78
394.397	397.01
394.776	392.26
395.155	395.65
395.534	385.26
395.913	393.62
396.292	395.65
396.671	396.56
397.05	406.73
397.429	404.01
397.808	412.15
398.186	416.22
398.565	393.62
398.944	393.85
399.323	414.18
399.701	388.87
400.08	416.67
400.458	407.18
400.837	411.7
401.215	404.47
401.594	402.43
401.972	429.32
402.351	401.75
402.729	429.32
403.107	423
403.486	430.91
403.864	422.77
404.242	423.22
404.62	424.58
404.999	406.5
405.377	439.49
405.755	441.53
406.133	434.75
406.511	430.91
406.889	445.37
407.267	470.91
407.645	444.69
408.023	448.76
408.401	464.58
408.779	447.4
409.156	447.4
409.534	463.45
409.912	464.13
410.29	485.59
410.667	459.83
411.045	499.38
411.422	468.87
411.8	464.13
412.178	481.75
412.555	496.22
412.933	486.95
413.31	491.47
413.687	488.31
414.065	516.55
414.442	485.82
414.819	506.84
415.197	512.03
415.574	521.75
415.951	541.41
416.328	516.1
416.705	491.47
417.082	508.19
417.46	542.54
417.837	528.76
418.214	535.31
418.591	526.95
418.967	543.9
419.344	533.95
419.721	536.67
420.098	551.81
420.475	540.73
420.852	559.04
421.228	549.1
421.605	568.08
421.982	566.72
422.358	571.24
422.735	582.54
423.111	561.07
423.488	569.21
423.864	599.26
424.241	573.95
424.617	585.93
424.994	602.65
425.37	597.91
425.746	601.52
426.123	606.04
426.499	604.01
426.875	626.83
427.251	639.94
427.627	618.92
428.003	633.61
428.379	651.24
428.756	623.9
429.132	630
429.507	649.66
429.883	650.34
430.259	661.86
430.635	661.41
431.011	673.16
431.387	672.48
431.763	670.67
432.138	695.76
432.514	705.02
432.89	698.47
433.265	713.61
433.641	725.59
434.016	743.44
434.392	713.61
434.767	730.79
435.143	702.54
435.518	744.57
435.894	736.89
436.269	764.46
436.644	778.02
437.02	771.69
437.395	777.56
437.77	779.6
438.145	765.14
438.52	809.88
438.895	778.92
439.271	792.25
439.646	853.27
440.021	834.74
440.395	786.6
440.77	827.28
441.145	825.7
441.52	827.96
441.895	818.47
442.27	858.24
442.645	840.84
443.019	862.31
443.394	829.31
443.769	861.4
444.143	842.87
444.518	858.92
444.892	855.75
445.267	860.73
445.641	889.2
446.016	877.22
446.39	895.3
446.764	875.87
447.139	896.21
447.513	891.01
447.887	894.62
448.262	896.66
448.636	899.37
449.01	914.74
449.384	928.07
449.758	932.81
450.132	929.65
450.506	939.82
450.88	981.17
451.254	944.79
451.628	956.99
452.002	980.72
452.376	997.22
452.75	1005.58
453.123	1010.55
453.497	1032.7
453.871	1024.34
454.244	1046.26
454.618	1049.87
454.992	1072.47
455.365	1062.3
455.739	1096.88
456.112	1107.73
456.486	1085.35
456.859	1106.37
457.232	1109.08
457.606	1129.42
457.979	1117.89
458.352	1149.08
458.725	1144.11
459.099	1157.67
459.472	1165.58
459.845	1169.87
460.218	1200.6
460.591	1210.55
460.964	1220.26
461.337	1247.61
461.71	1264.11
462.083	1258.23
462.456	1304.1
462.829	1279.25
463.201	1310.21
463.574	1312.47
463.947	1315.86
464.32	1360.15
464.692	1373.25
465.065	1356.53
465.438	1395.4
465.81	1423.2
466.183	1448.06
466.555	1473.37
466.928	1467.49
467.3	1476.75
467.672	1482.4
468.045	1536.41
468.417	1537.77
468.789	1543.42
469.161	1572.35
469.534	1603.31
469.906	1581.84
470.278	1624.55
470.65	1652.57
471.022	1680.37
471.394	1707.71
471.766	1724.66
472.138	1752
472.51	1768.5
472.882	1826.8
473.253	1832.9
473.625	1845.11
473.997	1889.17
474.369	1898.66
474.74	1966.01
475.112	1994.26
475.484	2030.19
475.855	2037.19
476.227	2049.17
476.598	2141.6
476.97	2132.56
477.341	2184.31
477.713	2244.64
478.084	2236.96
478.455	2333.46
478.827	2327.81
479.198	2402.38
479.569	2438.09
479.94	2488.03
480.311	2502.49
480.682	2554.92
481.053	2627.46
481.424	2678.98
481.795	2685.08
482.166	2735.93
482.537	2780.45
482.908	2872.2
483.279	2929.15
483.65	2955.59
484.021	3004.62
484.391	3089.59
484.762	3102.7
485.133	3139.54
485.503	3190.61
485.874	3269.7
486.244	3306.76
486.615	3342.02
486.985	3410.26
487.356	3477.61
487.726	3499.07
488.097	3571.84
488.467	3627.88
488.837	3714.66
489.207	3777.49
489.578	3805.96
489.948	3860.87
490.318	3954.43
490.688	3945.62
491.058	4009.57
491.428	4033.3
491.798	4113.3
492.168	4196.23
492.538	4193.97
492.908	4238.49
493.278	4304.03
493.648	4360.52
494.017	4417.02
494.387	4492.27
494.757	4458.37
495.126	4575.43
495.496	4589.44
495.866	4626.73
496.235	4628.08
496.605	4716.22
496.974	4796.89
497.344	4819.49
497.713	4821.3
498.082	4836.44
498.452	4930.45
498.821	4953.27
499.19	5002.54
499.559	5031.69
499.928	5078.92
500.298	5124.57
500.667	5155.98
501.036	5179.26
501.405	5220.61
501.774	5208.86
502.143	5284.56
502.512	5282.98
502.88	5332.25
503.249	5370.66
503.618	5413.83
503.987	5456.99
504.356	5458.8
504.724	5500.38
505.093	5510.77
505.462	5514.39
505.83	5574.5
506.199	5653.59
506.567	5687.49
506.936	5676.42
507.304	5748.96
507.672	5807.49
508.041	5784.89
508.409	5831.89
508.777	5875.74
509.145	5897.43
509.514	5900.37
509.882	5958.9
510.25	5949.86
510.618	5976.52
510.986	6013.58
511.354	6042.74
511.722	6120.93
512.09	6131.55
512.458	6168.61
512.826	6233.47
513.193	6263.52
513.561	6224.2
513.929	6282.5
514.297	6329.51
514.664	6357.98
515.032	6320.24
515.4	6408.6
515.767	6453.12
516.135	6440.69
516.502	6394.82
516.869	6548.26
517.237	6516.62
517.604	6511.88
517.972	6556.4
518.339	6592.1
518.706	6637.52
519.073	6652.21
519.44	6682.27
519.808	6752.32
520.175	6771.98
520.542	6814.24
520.909	6846.56
521.276	6849.72
521.643	6970.85
522.009	6949.38
522.376	6987.12
522.743	7021.47
523.11	7024.86
523.477	7120
523.843	7149.15
524.21	7271.18
524.577	7239.99
524.943	7274.34
525.31	7290.39
525.676	7315.7
526.043	7424.17
526.409	7430.5
526.776	7520.44
527.142	7492.42
527.508	7541.91
527.874	7629.81
528.241	7639.3
528.607	7610.83
528.973	7788.23
529.339	7717.04
529.705	7824.84
530.071	7838.85
530.437	7890.6
530.803	7950.26
531.169	8002.69
531.535	7944.38
531.901	8025.06
532.267	8073.19
532.632	8120.87
532.998	8162.68
533.364	8191.38
533.73	8217.59
534.095	8264.15
534.461	8267.54
534.826	8386.86
535.192	8384.14
535.557	8425.05
535.923	8382.34
536.288	8487.19
536.653	8474.76
537.019	8499.17
537.384	8499.85
537.749	8579.62
538.114	8529.22
538.479	8618.71
538.845	8702.55
539.21	8695.32
539.575	8665.27
539.94	8777.58
540.305	8791.36
540.67	8821.42
541.034	8859.39
541.399	8941.19
541.764	8965.37
542.129	8943.9
542.494	9017.57
542.858	8984.58
543.223	9106.16
543.587	9144.12
543.952	9201.3
544.316	9168.76
544.681	9227.51
545.045	9301.86
545.41	9302.99
545.774	9360.39
546.138	9292.82
546.503	9408.75
546.867	9413.27
547.231	9484.91
547.595	9561.51
547.959	9464.34
548.324	9615.52
548.688	9531.01
549.052	9594.06
549.416	9619.59
549.779	9586.15
550.143	9648.29
550.507	9784.33
550.871	9759.7
551.235	9759.93
551.599	9874.27
551.962	9833.82
552.326	9913.82
552.689	9857.33
553.053	9889.87
553.417	9953.82
553.78	10032.46
554.143	10092.12
554.507	10111.56
554.87	10139.58
555.234	10248.95
555.597	10126.92
555.96	10205.11
556.323	10257.99
556.686	10243.3
557.05	10304.55
557.413	10327.14
557.776	10442.85
558.139	10411.21
558.502	10404.2
558.865	10516.97
559.228	10591.54
559.59	10570.3
559.953	10541.83
560.316	10757.64
560.679	10710.18
561.041	10752.9
561.404	10756.74
561.767	10823.18
562.129	10848.49
562.492	10973.45
562.854	10925.55
563.217	10892.1
563.579	10999.67
563.941	11059.78
564.304	11158.76
564.666	11165.77
565.028	11178.65
565.39	11175.93
565.753	11281.02
566.115	11280.79
566.477	11343.84
566.839	11383.39
567.201	11427.68
567.563	11348.81
567.925	11502.71
568.287	11511.52
568.648	11512.88
569.01	11617.96
569.372	11587.68
569.734	11642.82
570.095	11755.58
570.457	11724.85
570.819	11783.6
571.18	11763.72
571.542	11934.33
571.903	11975.01
572.265	12012.07
572.626	12041.67
572.987	12081.22
573.349	12248.45
573.71	12260.2
574.071	12283.25
574.432	12358.5
574.794	12490.93
575.155	12592.39
575.516	12512.85
575.877	12642.11
576.238	12729.11
576.599	12796.68
576.96	12833.29
577.32	12849.79
577.681	12974.08
578.042	13127.75
578.403	13120.97
578.763	13282.32
579.124	13369.78
579.485	13428.31
579.845	13608.19
580.206	13647.06
580.566	13822.87
580.927	13939.25
581.287	14115.97
581.648	14168.17
582.008	14270.99
582.368	14428.05
582.728	14561.38
583.089	14773.13
583.449	14935.16
583.809	15100.58
584.169	15299.44
584.529	15376.5
584.889	15720.9
585.249	15733.1
585.609	15858.52
585.969	16215.58
586.329	16426.42
586.688	16596.36
587.048	16772.85
587.408	16987.76
587.768	17213.74
588.127	17444.47
588.487	17767.4
588.846	18077.22
589.206	18184.34
589.565	18467.04
589.925	18840.82
590.284	18996.97
590.643	19323.97
591.003	19574.36
591.362	20042.14
591.721	20169.6
592.08	20488.46
592.44	20858.62
592.799	21038.95
593.158	21253.64
593.517	21693.85
593.876	21984.92
594.235	22335.87
594.593	22525.47
594.952	22948.73
595.311	23131.78
595.67	23523.63
596.029	23873
596.387	24360.67
596.746	24667.33
597.104	24610.61
597.463	25137.6
597.822	25462.34
598.18	25615.78
598.538	25941.65
598.897	26284.69
599.255	26414.63
599.613	27103.2
599.972	27225.46
600.33	27589.29
600.688	27831.99
601.046	28202.38
601.404	28595.14
601.762	28751.07
602.12	29198.29
602.478	29442.12
602.836	29766.41
603.194	29893.63
603.552	30225.15
603.91	30323.45
604.268	30726.16
604.625	30928.86
604.983	31283.88
605.341	31427.15
605.698	31924.77
606.056	32054.48
606.413	32407.02
606.771	32742.6
607.128	32994.34
607.485	33115.7
607.843	33478.85
608.2	33887.2
608.557	34041.55
608.914	34078.61
609.272	34678.37
609.629	34802.66
609.986	35106.83
610.343	35166.72
610.7	35729.64
611.057	35840.82
611.414	35820.94
611.771	36149.97
612.127	36425.44
612.484	36612.1
612.841	36869.72
613.198	36845.77
613.554	37180
613.911	37606.88
614.267	37638.52
614.624	37721.45
614.98	37975
615.337	38224.26
615.693	38376.12
616.05	38574.31
616.406	38851.82
616.762	38870.12
617.118	39001.42
617.475	39020.17
617.831	39403.44
618.187	39518.01
618.543	39740.61
618.899	40052.01
619.255	40114.16
619.611	40119.81
619.967	40507.82
620.323	40675.05
620.678	40575.61
621.034	40612
621.39	40701.26
621.746	40835.72
622.101	41386.67
622.457	41168.37
622.812	41447.91
623.168	41497.4
623.523	41649.94
623.879	41806.99
624.234	41619.2
624.589	41804.73
624.945	42032.52
625.3	42053.99
625.655	42038.4
626.01	41944.84
626.365	42181.67
626.72	42158.62
627.075	42330.82
627.43	42451.5
627.785	42350.48
628.14	42517.03
628.495	42653.3
628.85	42635.22
629.205	42470.48
629.559	42740.53
629.914	42668.44
630.269	42699.4
630.623	42647.88
630.978	42739.4
631.332	42988.21
631.687	43110.24
632.041	42902.78
632.396	42976.91
632.75	43009.22
633.104	43151.14
633.459	42952.27
633.813	42970.35
634.167	42925.38
634.521	43013.29
634.875	43245.15
635.229	43208.09
635.583	42927.64
635.937	43002.89
636.291	42997.7
636.645	43125.83
636.999	42934.65
637.352	43139.39
637.706	42912.73
638.06	43089.45
638.413	43099.16
638.767	42928.32
639.121	43083.8
639.474	42846.06
639.828	43145.04
640.181	43089.22
640.534	43121.99
640.888	42946.63
641.241	42962.44
641.594	42863.24
641.947	43051.03
642.301	42883.58
642.654	43065.72
643.007	43109.78
643.36	42910.02
643.713	42883.58
644.066	43063.23
644.419	42760.87
644.771	42668.44
645.124	42227.1
645.477	42335.57
645.83	41942.36
646.182	41806.09
646.535	41763.83
646.888	41727.67
647.24	41530.84
647.593	41873.21
647.945	41722.02
648.298	41526.55
648.65	41537.17
649.002	41410.85
649.355	41689.26
649.707	41563.38
650.059	41852.87
650.411	42261.22
650.763	42375.57
651.115	42716.12
651.467	42602
651.819	42593.87
652.171	42464.6
652.523	42504.83
652.875	42432.97
653.227	42399.97
653.578	42491.04
653.93	42503.25
654.282	42305.96
654.633	42208.34
654.985	42397.71
655.337	42389.58
655.688	42398.84
656.039	42541.21
656.391	42132.64
656.742	42348.22
657.094	42337.15
657.445	42410.82
657.796	42314.1
658.147	42216.7
658.498	42225.06
658.849	42224.61
659.2	42202.92
659.551	42281.11
659.902	42251.05
660.253	42193.88
660.604	42267.09
660.955	42061.9
661.306	42201.79
661.656	42195.46
662.007	42160.43
662.358	42279.98
662.708	42269.58
663.059	42038.4
663.409	41856.94
663.76	42199.53
664.11	42234.78
664.461	42276.59
664.811	42171.5
665.161	42251.5
665.511	42078.85
665.862	42123.14
666.212	42239.52
666.562	42273.42
666.912	42131.28
667.262	42177.61
667.612	42155.69
667.962	42185.29
668.312	42022.58
668.662	42164.27
669.011	42049.93
669.361	42027.78
669.711	42010.38
670.06	42070.94
670.41	41910.04
670.76	41896.94
671.109	41870.72
671.459	41917.27
671.808	41979.87
672.157	41991.17
672.507	41681.8
672.856	41770.84
673.205	41815.81
673.554	42005.41
673.904	41716.83
674.253	41988.91
674.602	41923.15
674.951	41172.43
675.3	41138.76
675.649	41749.37
675.998	41623.95
676.346	41681.35
676.695	41865.98
677.044	41457.4
677.393	41625.98
677.741	41635.93
678.09	41591.63
678.438	41496.04
678.787	41406.55
679.135	41501.01
679.484	41178.08
679.832	41383.28
680.181	41149.84
680.529	41296.05
680.877	41081.14
681.225	41119.1
681.573	41480
681.922	41137.18
682.27	40985.77
682.618	40959.33
682.966	40892.67
683.314	41053.34
683.661	40762.05
684.009	40680.02
684.357	40644.09
684.705	40757.76
685.053	40644.76
685.4	40771.54
685.748	40528.38
686.095	40592.34
686.443	40378.56
686.79	40256.07
687.138	40414.71
687.485	40400.7
687.832	40193.48
688.18	40273.47
688.527	40024.67
688.874	39943.54
689.221	39844.11
689.568	39654.73
689.915	39675.98
690.262	39690.44
690.609	39538.58
690.956	39508.52
691.303	39513.04
691.65	39160.96
691.997	39193.96
692.344	39123.9
692.69	39009.78
693.037	38960.52
693.383	38605.04
693.73	38803.68
694.077	38605.04
694.423	38599.17
694.769	38598.94
695.116	38460.64
695.462	38424.71
695.808	38217.71
696.155	38311.49
696.501	38046.19
696.847	38009.13
697.193	37752.64
697.539	38062.01
697.885	37730.72
698.231	37652.53
698.577	37620.66
698.923	37532.08
699.269	37348.58
699.614	37276.04
699.96	37253.44
700.306	37165.99
700.651	37071.53
700.997	36917.63
701.342	36920.34
701.688	36897.97
702.033	36709.73
702.379	36586.34
702.724	36518.32
703.069	36683.06
703.415	36198.33
703.76	36218.89
704.105	36122.4
704.45	36079.46
704.795	35931.22
705.14	35813.03
705.485	35909.3
705.83	35768.51
706.175	35881.5
706.52	35637.44
706.865	35562.41
707.209	35468.4
707.554	35471.57
707.899	35492.13
708.243	35219.82
708.588	35170.78
708.932	35010.11
709.277	34963.78
709.621	34977.79
709.966	34677.24
710.31	34812.83
710.654	34477.02
710.998	34751.13
711.342	34583.91
711.687	34406.28
712.031	34370.35
712.375	34176.23
712.719	34353.4
713.063	34169.45
713.407	34172.84
713.75	34032.06
714.094	33972.4
714.438	33859.18
714.782	33967.65
715.125	33844.27
715.469	33879.29
715.812	33669.81
716.156	33495.57
716.499	33605.85
716.843	33537.61
717.186	33150.5
717.53	33475.69
717.873	33414.9
718.216	33360.66
718.559	33246.99
718.902	32933.33
719.246	33082.93
719.589	32978.53
719.932	32760.9
720.275	32881.58
720.617	32800.9
720.96	32776.95
721.303	32719.32
721.646	32853.56
721.989	32590.97
722.331	32640.91
722.674	32583.06
723.016	32466
723.359	32487.01
723.701	32433.46
724.044	32276.85
724.386	32113.92
724.729	32357.07
725.071	32235.27
725.413	32136.06
725.755	32246.12
726.097	31911.21
726.439	31896.52
726.782	31824.66
727.124	31986.24
727.465	31760.48
727.807	31871.21
728.149	31729.07
728.491	31553.48
728.833	31710.99
729.175	31498.34
729.516	31574.72
729.858	31602.74
730.199	31549.41
730.541	31420.6
730.882	31292.69
731.224	31476.42
731.565	31243.88
731.906	31094.73
732.248	31213.83
732.589	31098.12
732.93	31083.21
733.271	31034.17
733.612	31094.06
733.953	31043.89
734.294	30843.89
734.635	30857.68
734.976	30742.88
735.317	30671.02
735.658	30657.46
735.999	30735.65
736.339	30657.68
736.68	30753.95
737.021	30586.5
737.361	30439.38
737.702	30663.78
738.042	30446.84
738.383	30356.45
738.723	30488.2
739.063	30290.91
739.404	30431.93
739.744	30263.34
740.084	30162.33
740.424	30272.16
740.764	30137.92
741.104	30217.24
741.444	30027.87
741.784	30026.96
742.124	30125.95
742.464	30067.19
742.804	29899.28
743.143	29869.23
743.483	29941.54
743.823	29760.08
744.162	29760.98
744.502	29889.57
744.841	29569.58
745.181	29831.94
745.52	29721.89
745.86	29640.31
746.199	29498.84
746.538	29575.9
746.877	29579.07
747.216	29590.14
747.556	29467.66
747.895	29450.48
748.234	29297.72
748.573	29341.56
748.911	29226.76
749.25	29388.11
749.589	29142.47
749.928	29164.16
750.267	29091.62
750.605	29138.4
750.944	29048.01
751.283	29003.71
751.621	28988.12
751.96	28758.3
752.298	28872.42
752.636	28891.18
752.975	28761.46
753.313	28596.27
753.651	28854.11
753.989	28477.17
754.327	28499.1
754.666	28380
755.004	28351.3
755.342	28343.17
755.679	28311.76
756.017	28208.71
756.355	28381.36
756.693	28182.04
757.031	28278.08
757.368	27967.58
757.706	27974.59
758.044	27903.18
758.381	28096.17
758.719	27952.22
759.056	27867.25
759.394	27755.84
759.731	27574.37
760.068	27559.01
760.405	27432.23
760.743	27432.68
761.08	27345
761.417	27195.4
761.754	27294.83
762.091	27237.43
762.428	27198.34
762.765	26998.8
763.102	27050.77
763.438	26940.27
763.775	26914.5
764.112	26773.26
764.449	26879.7
764.785	26735.98
765.122	26422.09
765.458	26386.61
765.795	26420.05
766.131	26383.9
766.467	26185.48
766.804	26017.13
767.14	26070.46
767.476	26032.95
767.812	25788.88
768.148	25957.24
768.485	25714.99
768.821	25593.63
769.157	25644.26
769.492	25500.08
769.828	25506.18
770.164	25289.46
770.5	25161.1
770.836	25109.13
771.171	25062.35
771.507	25007.44
771.842	24799.08
772.178	24813.99
772.513	24718.63
772.849	24724.51
773.184	24590.27
773.519	24487.45
773.855	24461.01
774.19	24301.69
774.525	24298.53
774.86	24030.51
775.195	24193.45
775.53	24023.73
775.865	23884.53
776.2	23774.47
776.535	23619.68
776.87	23578.55
777.205	23507.14
777.539	23482.05
777.874	23538.55
778.209	23249.97
778.543	23152.34
778.878	23090.65
779.212	23129.97
779.547	22947.6
779.881	23021.05
780.215	22752.13
780.55	22862.41
780.884	22705.35
781.218	22547.39
781.552	22696.31
781.886	22457.45
782.22	22370.44
782.554	22287.28
782.888	22063.78
783.222	22121.64
783.556	21978.36
783.889	21930.91
784.223	21732.49
784.557	21628.77
784.89	21862.89
785.224	21589.45
785.557	21389.45
785.891	21500.86
786.224	21366.85
786.558	21253.18
786.891	21182
787.224	21045.05
787.557	20992.17
787.891	20989.24
788.224	20928.22
788.557	20960.08
788.89	20930.48
789.223	20853.65
789.556	20567.1
789.888	20590.38
790.221	20540.21
790.554	20367.33
790.887	20384.05
791.219	20291.63
791.552	20232.42
791.884	20172.99
792.217	20195.13
792.549	20012.99
792.882	19912.2
793.214	19831.53
793.546	19837.63
793.879	19706.56
794.211	19609.39
794.543	19697.29
794.875	19543.4
795.207	19641.48
795.539	19494.59
795.871	19386.79
796.203	19301.82
796.535	19177.08
796.867	19153.8
797.198	19111.77
797.53	19085.11
797.862	19003.98
798.193	19060.7
798.525	18814.15
798.856	18910.65
799.188	18674.04
799.519	18617.32
799.85	18588.85
800.182	18613.93
800.513	18515.63
800.844	18386.14
801.175	18466.59
801.506	18394.5
801.837	18335.75
802.168	18325.58
802.499	18171.91
802.83	18074.06
803.161	18123.77
803.491	18012.14
803.822	18006.26
804.153	18045.13
804.483	17771.24
804.814	17719.27
805.145	17797
805.475	17620.06
805.805	17675.43
806.136	17586.39
806.466	17608.08
806.796	17535.32
807.126	17428.43
807.457	17365.6
807.787	17314.08
808.117	17262.78
808.447	17247.64
808.777	17263.91
809.107	17094.2
809.436	17068.21
809.766	17024.14
810.096	16943.01
810.426	16955.9
810.755	17003.35
811.085	16822.79
811.414	16890.59
811.744	16795.22
812.073	16751.38
812.403	16656.47
812.732	16640.42
813.061	16614.89
813.39	16515
813.719	16523.82
814.049	16622.12
814.378	16465.51
814.707	16400.88
815.036	16471.39
815.365	16244.5
815.693	16156.14
816.022	16207.67
816.351	16126.77
816.68	16066.2
817.008	16182.58
817.337	16002.25
817.665	15951.63
817.994	15969.93
818.322	15907.56
818.651	15884.29
818.979	15881.57
819.307	15871.86
819.636	15760.22
819.964	15694.01
820.292	15757.51
820.62	15696.49
820.948	15624.18
821.276	15675.7
821.604	15694.91
821.932	15650.39
822.259	15649.72
822.587	15685.65
822.915	15534.01
823.243	15564.29
823.57	15576.05
823.898	15644.07
824.225	15498.76
824.553	15567.01
824.88	15598.19
825.207	15595.03
825.535	15587.34
825.862	15649.94
826.189	15572.43
826.516	15539.66
826.843	15702.14
827.17	15595.25
827.497	15599.77
827.824	15620.11
828.151	15712.09
828.478	15595.71
828.805	15600
829.131	15566.78
829.458	15513.67
829.785	15478.87
830.111	15481.58
830.438	15631.86
830.764	15457.63
831.09	15540.34
831.417	15536.05
831.743	15602.49
832.069	15557.06
832.395	15463.73
832.722	15481.36
833.048	15352.32
833.374	15395.49
833.7	15325.2
834.026	15361.36
834.351	15358.2
834.677	15285.21
835.003	15426.9
835.329	15342.83
835.654	15348.48
835.98	15202.72
836.306	15294.47
836.631	15218.99
836.956	15300.57
837.282	15193.68
837.607	15141.71
837.932	15149.62
838.258	15163.17
838.583	15126.57
838.908	15015.16
839.233	15006.79
839.558	15051.99
839.883	15063.29
840.208	14906.01
840.533	14837.76
840.858	14924.31
841.182	14943.52
841.507	14843.86
841.832	14715.5
842.156	14678.67
842.481	14717.08
842.805	14738.78
843.13	14694.49
843.454	14678.67
843.778	14535.17
844.103	14623.3
844.427	14534.04
844.751	14525.45
845.075	14484.77
845.399	14431.67
845.723	14343.08
846.047	14446.58
846.371	14261.5
846.695	14178.34
847.019	14211.11
847.343	14072.13
847.666	13999.36
847.99	13944
848.313	13958.69
848.637	13847.28
848.96	13871.01
849.284	13863.32
849.607	13739.26
849.931	13614.97
850.254	13633.27
850.577	13517.57
850.9	13473.05
851.223	13352.37
851.546	13363
851.869	13285.94
852.192	13279.16
852.515	13225.82
852.838	13230.8
853.161	13114.19
853.483	12988.54
853.806	13049.11
854.129	12981.99
854.451	12861.77
854.774	12876.23
855.096	12832.84
855.419	12856.79
855.741	12748.55
856.063	12786.51
856.385	12689.12
856.708	12671.94
857.03	12610.25
857.352	12619.06
857.674	12518.95
857.996	12516.01
858.318	12444.83
858.64	12422.91
858.961	12437.82
859.283	12315.79
859.605	12247.77
859.926	12317.15
860.248	12246.19
860.57	12256.58
860.891	12268.34
861.212	12251.39
861.534	12140.2
861.855	12019.53
862.176	12185.17
862.498	12078.06
862.819	12051.62
863.14	12008.23
863.461	12059.08
863.782	11965.74
864.103	11937.95
864.424	11856.14
864.745	11911.51
865.065	11857.27
865.386	11885.29
865.707	11897.5
866.027	11790.16
866.348	11784.05
866.668	11787.67
866.989	11671.74
867.309	11614.79
867.63	11717.16
867.95	11710.61
868.27	11621.8
868.59	11594.68
868.91	11641.69
869.23	11620.9
869.55	11555.81
869.87	11555.59
870.19	11563.04
870.51	11580.44
870.83	11532.54
871.15	11445.98
871.469	11370.73
871.789	11505.87
872.109	11368.25
872.428	11333.44
872.748	11397.85
873.067	11346.1
873.386	11395.59
873.706	11366.66
874.025	11302.49
874.344	11243.05
874.663	11260
874.982	11272.2
875.301	11251.19
875.62	11204.41
875.939	11188.36
876.258	11248.7
876.577	11118.54
876.896	11232.66
877.214	11085.09
877.533	11132.77
877.852	11086.9
878.17	11072.89
878.489	11104.52
878.807	11080.57
879.125	11024.07
879.444	11013
879.762	10952.21
880.08	10922.38
880.398	10880.12
880.716	10960.8
881.034	10961.03
881.352	10951.08
881.67	10874.47
881.988	10865.43
882.306	10761.93
882.624	10796.74
882.941	10783.4
883.259	10631.99
883.577	10678.77
883.894	10737.08
884.212	10625.44
884.529	10594.93
884.846	10595.84
885.164	10541.83
885.481	10541.15
885.798	10552.22
886.115	10480.81
886.432	10473.81
886.75	10463.19
887.067	10440.14
887.383	10351.1
887.7	10400.36
888.017	10334.6
888.334	10375.96
888.651	10296.86
888.967	10310.2
889.284	10292.12
889.6	10223.64
889.917	10177.77
890.233	10161.5
890.55	10184.77
890.866	10119.92
891.182	10076.08
891.498	10139.35
891.815	10005.12
892.131	10027.94
892.447	9947.94
892.763	9859.59
893.079	9924.89
893.395	9842.18
893.71	9780.27
894.026	9858.91
894.342	9755.18
894.657	9729.65
894.973	9726.71
895.289	9608.52
895.604	9684.9
895.92	9633.83
896.235	9568.52
896.55	9502.31
896.865	9561.06
897.181	9495.98
897.496	9538.01
897.811	9494.62
898.126	9391.58
898.441	9367.85
898.756	9360.39
899.071	9289.2
899.386	9296.89
899.7	9209.88
900.015	9173.73
900.33	9131.69
900.644	9133.73
900.959	9111.36
901.273	9103.45
901.588	9061.64
901.902	9049.21
902.216	8977.35
902.531	9012.38
902.845	8925.82
903.159	8894.19
903.473	8854.64
903.787	8826.62
904.101	8787.98
904.415	8824.36
904.729	8734.87
905.042	8689.67
905.356	8651.93
905.67	8530.13
905.984	8670.46
906.297	8599.73
906.611	8531.03
906.924	8493.29
907.237	8486.97
907.551	8429.11
907.864	8379.17
908.177	8391.15
908.491	8359.96
908.804	8271.83
909.117	8277.48
909.43	8262.57
909.743	8135.11
910.056	8128.33
910.368	8111.61
910.681	8091.95
910.994	8099.86
911.307	8022.12
911.619	7957.94
911.932	8002.46
912.244	7899.41
912.557	7896.47
912.869	7851.05
913.181	7807.21
913.494	7833.65
913.806	7757.72
914.118	7750.26
914.43	7673.88
914.742	7682.02
915.054	7680.89
915.366	7609.02
915.678	7591.17
915.99	7522.92
916.302	7451.97
916.613	7442.47
916.925	7472.08
917.236	7480.66
917.548	7342.59
917.859	7402.93
918.171	7344.62
918.482	7264.4
918.794	7321.8
919.105	7215.14
919.416	7160.67
919.727	7257.39
920.038	7200.45
920.349	7132.65
920.66	7093.56
920.971	7070.28
921.282	7023.05
921.593	7033.9
921.903	6953
922.214	6913.22
922.525	6922.94
922.835	6876.61
923.146	6838.2
923.456	6805.88
923.767	6816.95
924.077	6816.05
924.387	6703.28
924.697	6697.41
925.008	6649.5
925.318	6622.38
925.628	6605.89
925.938	6568.82
926.248	6545.77
926.558	6498.77
926.867	6499.22
927.177	6478.21
927.487	6484.31
927.796	6368.83
928.106	6444.53
928.416	6330.86
928.725	6301.71
929.034	6310.07
929.344	6350.53
929.653	6296.06
929.962	6204.77
930.271	6199.79
930.581	6094.49
930.89	6156.86
931.199	6143.3
931.508	6082.96
931.817	6121.83
932.125	6068.27
932.434	6013.81
932.743	6034.15
933.051	5963.64
933.36	5925.45
933.669	5913.25
933.977	5919.35
934.286	5920.03
934.594	5884.55
934.902	5770.2
935.21	5800.48
935.519	5777.88
935.827	5762.07
936.135	5731.33
936.443	5690.2
936.751	5651.56
937.059	5641.39
937.367	5660.6
937.674	5584.67
937.982	5544.44
938.29	5530.66
938.597	5529.76
938.905	5540.38
939.213	5449.53
939.52	5449.08
939.827	5472.81
940.135	5421.74
940.442	5363.43
940.749	5381.74
941.056	5341.51
941.363	5326.82
941.67	5332.02
941.977	5277.11
942.284	5210.89
942.591	5219.48
942.898	5178.8
943.205	5160.27
943.511	5147.84
943.818	5141.74
944.125	5093.61
944.431	5106.49
944.738	5084.57
945.044	5038.02
945.35	5040.28
945.657	4960.51
945.963	4986.49
946.269	4995.53
946.575	5006.83
946.881	4934.97
947.187	4872.6
947.493	4860.39
947.799	4873.95
948.105	4864.69
948.41	4787.85
948.716	4824.24
949.022	4760.06
949.327	4699.27
949.633	4749.66
949.938	4689.33
950.244	4716.22
950.549	4703.34
950.854	4622.66
951.16	4638.03
951.465	4618.59
951.77	4588.54
952.075	4590.12
952.38	4549.44
952.685	4544.7
952.99	4508.99
953.294	4490.24
953.599	4448.88
953.904	4400.52
954.209	4391.48
954.513	4402.78
954.818	4383.12
955.122	4361.42
955.426	4355.78
955.731	4336.11
956.035	4311.93
956.339	4299.73
956.643	4289.56
956.948	4257.02
957.252	4268.32
957.556	4223.58
957.86	4238.26
958.163	4207.76
958.467	4158.49
958.771	4164.59
959.075	4140.19
959.378	4119.85
959.682	4105.16
959.985	4042.11
960.289	4038.04
960.592	4020.87
960.896	4025.16
961.199	4014.54
961.502	3954.66
961.805	3955.56
962.108	3952.62
962.411	3917.82
962.714	3945.62
963.017	3865.84
963.32	3895.67
963.623	3872.4
963.926	3877.82
964.228	3857.71
964.531	3800.99
964.833	3776.81
965.136	3744.27
965.438	3787.2
965.741	3710.14
966.043	3719.63
966.345	3711.05
966.648	3700.88
966.95	3700.43
967.252	3655.91
967.554	3636.47
967.856	3624.5
968.158	3578.17
968.46	3625.4
968.761	3582.46
969.063	3613.42
969.365	3585.63
969.666	3548.11
969.968	3516.93
970.269	3481.67
970.571	3509.92
970.872	3485.29
971.174	3480.32
971.475	3457.04
971.776	3458.62
972.077	3467.89
972.378	3397.83
972.679	3402.35
972.98	3402.81
973.281	3374.78
973.582	3346.76
973.883	3387.21
974.183	3344.5
974.484	3305.41
974.785	3286.42
975.085	3264.96
975.386	3294.11
975.686	3259.31
975.986	3244.39
976.287	3261.11
976.587	3194
976.887	3162.59
977.187	3175.47
977.487	3167.56
977.787	3123.72
978.087	3125.53
978.387	3119.65
978.687	3095.92
978.987	3136.82
979.286	3094.57
979.586	3078.97
979.885	3046.88
980.185	3038.3
980.484	3034.45
980.784	3038.75
981.083	3043.49
981.382	2997.17
981.682	2944.74
981.981	2936.6
982.28	2948.35
982.579	2951.29
982.878	2918.52
983.177	2928.69
983.475	2915.81
983.774	2894.8
984.073	2872.65
984.372	2865.64
984.67	2843.27
984.969	2840.33
985.267	2824.29
985.566	2821.35
985.864	2805.31
986.162	2797.62
986.461	2798.75
986.759	2731.64
987.057	2738.87
987.355	2734.57
987.653	2696.38
987.951	2728.47
988.249	2680.79
988.547	2693.67
988.844	2659.1
989.142	2676.5
989.44	2653.22
989.737	2678.31
990.035	2622.26
990.332	2566.22
990.63	2579.55
990.927	2580.91
991.224	2545.2
991.521	2521.02
991.819	2533.22
992.116	2544.52
992.413	2507.01
992.71	2520.34
993.006	2478.31
993.303	2516.28
993.6	2503.17
993.897	2459.33
994.193	2424.07
994.49	2456.62
994.787	2401.02
995.083	2420.91
995.379	2417.97
995.676	2392.66
995.972	2360.57
996.268	2389.5
996.565	2358.54
996.861	2348.82
997.157	2363.74
997.453	2347.92
997.749	2302.27
998.044	2286
998.34	2301.82
998.636	2284.64
998.932	2279.9
999.227	2237.19
999.523	2259.79
999.818	2221.82
1000.114	2203.97
1000.409	2212.1
1000.704	2189.5
1001	2184.08
1001.295	2167.36
1001.59	2186.34
1001.885	2143.18
1002.18	2126.46
1002.475	2137.75
1002.77	2126.23
1003.065	2107.02
1003.359	2085.1
1003.654	2067.47
1003.949	2074.48
1004.243	2068.83
1004.538	2040.36
1004.832	2030.41
1005.127	2034.48
1005.421	2005.78
1005.715	1990.64
1006.009	1974.82
1006.304	1978.66
1006.598	1964.65
1006.892	1939.79
1007.186	1951.09
1007.48	1926.46
1007.773	1939.12
1008.067	1930.08
1008.361	1907.7
1008.655	1911.77
1008.948	1887.82
1009.242	1852.11
1009.535	1870.42
1009.829	1864.77
1010.122	1840.59
1010.415	1836.07
1010.708	1838.78
1011.001	1842.85
1011.295	1811.44
1011.588	1777.31
1011.881	1779.35
1012.173	1779.12
1012.466	1723.53
1012.759	1733.02
1013.052	1723.3
1013.344	1718.78
1013.637	1709.52
1013.93	1704.77
1014.222	1711.55
1014.514	1694.38
1014.807	1655.96
1015.099	1699.35
1015.391	1660.48
1015.683	1626.81
1015.976	1650.08
1016.268	1633.14
1016.56	1611.67
1016.851	1592.91
1017.143	1617.54
1017.435	1578
1017.727	1597.66
1018.018	1601.05
1018.31	1579.13
1018.602	1535.74
1018.893	1534.61
1019.185	1533.48
1019.476	1527.6
1019.767	1495.51
1020.058	1478.56
1020.35	1488.96
1020.641	1476.75
1020.932	1477.43
1021.223	1467.26
1021.514	1436.08
1021.804	1458.22
1022.095	1441.73
1022.386	1435.63
1022.677	1415.51
1022.967	1419.58
1023.258	1423.65
1023.548	1387.49
1023.839	1382.52
1024.129	1374.84
1024.419	1344.56
1024.709	1348.62
1025	1332.13
1025.29	1340.71
1025.58	1327.15
1025.87	1297.32
1026.16	1307.49
1026.449	1312.47
1026.739	1316.53
1027.029	1277.66
1027.319	1298.45
1027.608	1260.26
1027.898	1247.16
1028.187	1271.79
1028.477	1221.17
1028.766	1218.23
1029.055	1208.51
1029.344	1202.41
1029.634	1209.87
1029.923	1218.68
1030.212	1205.12
1030.501	1213.71
1030.79	1170.77
1031.078	1177.55
1031.367	1142.98
1031.656	1152.02
1031.945	1140.72
1032.233	1142.3
1032.522	1157.44
1032.81	1112.24
1033.099	1117.67
1033.387	1131.91
1033.675	1101.62
1033.963	1082.42
1034.251	1062.53
1034.54	1088.52
1034.828	1085.58
1035.116	1060.04
1035.403	1063.21
1035.691	1033.6
1035.979	1041.74
1036.267	1023.21
1036.554	1026.6
1036.842	1017.33
1037.129	1012.13
1037.417	997.22
1037.704	1031.79
1037.992	992.93
1038.279	998.35
1038.566	959.03
1038.853	959.03
1039.14	959.03
