Data from hue_00_FLMS001491_86.txt Node
Date: Mon Feb 06 15:30:22 GMT 2017
User: dcchb
Spectrometer: FLMS00149
Trigger mode: 0
Integration Time (sec): 2.000000E-2
Scans to average: 10
Electric dark correction enabled: true
Nonlinearity correction enabled: false
Boxcar width: 0
XAxis mode: Wavelengths
Number of Pixels in Spectrum: 2048
>>>>>Begin Spectral Data<<<<<
341.393	12.29
341.776	12.29
342.16	12.29
342.543	-56.18
342.927	-61.61
343.31	-72.68
343.693	-44.89
344.077	-69.97
344.46	-56.18
344.843	-42.63
345.226	-53.7
345.61	-38.11
345.993	-20.25
346.376	-1.27
346.759	23.13
347.142	36.47
347.525	37.6
347.908	48.67
348.291	75.56
348.674	74.43
349.057	103.81
349.44	120.99
349.823	130.48
350.206	163.47
350.588	180.64
350.971	204.83
351.354	228.1
351.737	222
352.119	280.53
352.502	264.03
352.884	277.14
353.267	273.75
353.65	280.53
354.032	307.2
354.414	299.74
354.797	293.18
355.179	320.08
355.562	330.47
355.944	312.17
356.326	330.47
356.709	327.76
357.091	331.83
357.473	355.1
357.855	367.08
358.238	329.34
358.62	339.28
359.002	310.81
359.384	351.26
359.766	326.18
360.148	339.96
360.53	331.38
360.912	330.47
361.294	328.44
361.676	320.3
362.057	323.24
362.439	325.5
362.821	334.09
363.203	333.86
363.584	320.08
363.966	303.58
364.348	325.73
364.729	311.71
365.111	323.47
365.493	325.95
365.874	311.94
366.256	320.75
366.637	311.49
367.019	317.59
367.4	310.59
367.781	308.33
368.163	307.2
368.544	297.03
368.925	321.21
369.306	326.4
369.688	323.24
370.069	318.72
370.45	312.62
370.831	317.82
371.212	313.75
371.593	290.25
371.974	324.37
372.355	332.28
372.736	315.78
373.117	314.65
373.498	328.44
373.879	302.9
374.26	287.53
374.641	297.25
375.021	299.96
375.402	309.23
375.783	327.76
376.163	330.7
376.544	326.63
376.925	326.63
377.305	323.24
377.686	297.03
378.066	324.37
378.447	333.18
378.827	333.64
379.208	313.07
379.588	354.65
379.968	328.21
380.349	316.46
380.729	334.31
381.109	349
381.489	319.17
381.87	335.9
382.25	323.24
382.63	318.95
383.01	322.56
383.39	321.43
383.77	329.79
384.15	363.01
384.53	352.84
384.91	344.03
385.29	351.71
385.67	336.35
386.049	339.51
386.429	360.53
386.809	340.64
387.189	327.08
387.568	332.51
387.948	349.45
388.328	351.49
388.707	379.74
389.087	336.57
389.466	346.52
389.846	371.83
390.225	349
390.605	343.8
390.984	357.59
391.363	365.27
391.743	350.13
392.122	347.42
392.501	363.47
392.881	359.4
393.26	368.44
393.639	370.92
394.018	365.72
394.397	380.87
394.776	353.52
395.155	368.44
395.534	373.41
395.913	357.36
396.292	397.81
396.671	380.41
397.05	375.22
397.429	405.05
397.808	402.11
398.186	388.78
398.565	362.11
398.944	376.8
399.323	379.74
399.701	377.7
400.08	355.56
400.458	377.02
400.837	389.91
401.215	382
401.594	391.94
401.972	384.26
402.351	380.41
402.729	377.93
403.107	399.17
403.486	415.67
403.864	394.65
404.242	395.55
404.62	388.1
404.999	411.37
405.377	388.78
405.755	398.94
406.133	403.01
406.511	408.89
406.889	408.89
407.267	414.31
407.645	436.01
408.023	415.44
408.401	426.97
408.779	431.03
409.156	413.41
409.534	420.41
409.912	427.87
410.29	447.53
410.667	445.27
411.045	443.24
411.422	440.07
411.8	414.76
412.178	450.47
412.555	447.76
412.933	436.46
413.31	434.65
413.687	457.25
414.065	465.84
414.442	485.5
414.819	464.25
415.197	476.23
415.574	462.67
415.951	483.91
416.328	484.59
416.705	500.64
417.082	491.15
417.46	471.03
417.837	510.35
418.214	508.77
418.591	488.66
418.967	501.99
419.344	510.58
419.721	506.74
420.098	520.3
420.475	506.06
420.852	504.7
421.228	538.15
421.605	507.87
421.982	504.7
422.358	524.59
422.735	527.53
423.111	532.5
423.488	533.18
423.864	531.14
424.241	548.32
424.617	538.38
424.994	527.75
425.37	548.09
425.746	540.41
426.123	555.1
426.499	535.89
426.875	572.95
427.251	552.84
427.627	574.31
428.003	591.48
428.379	603.01
428.756	580.18
429.132	596.23
429.507	601.65
429.883	574.31
430.259	605.04
430.635	602.33
431.011	598.94
431.387	616.11
431.763	638.94
432.138	632.61
432.514	631.71
432.89	631.93
433.265	655.43
433.641	646.4
434.016	638.71
434.392	665.83
434.767	659.28
435.143	654.3
435.518	675.55
435.894	652.5
436.269	678.26
436.644	692.72
437.02	691.82
437.395	680.29
437.77	690.46
438.145	715.77
438.52	722.78
438.895	701.08
439.271	728.65
439.646	726.85
440.021	741.99
440.395	711.48
440.77	737.69
441.145	736.79
441.52	780.18
441.895	753.06
442.27	746.05
442.645	751.03
443.019	773.4
443.394	766.62
443.769	782.44
444.143	757.35
444.518	778.14
444.892	789.89
445.267	781.31
445.641	809.1
446.016	790.8
446.39	805.26
446.764	807.52
447.139	786.96
447.513	796
447.887	818.82
448.262	800.06
448.636	810.23
449.01	834.64
449.384	842.55
449.758	802.55
450.132	824.24
450.506	833.51
450.88	828.09
451.254	862.21
451.628	865.6
452.002	892.26
452.376	860.63
452.75	894.52
453.123	874.64
453.497	897.01
453.871	884.13
454.244	918.7
454.618	920.06
454.992	894.52
455.365	912.6
455.739	931.13
456.112	952.15
456.486	982.88
456.859	966.84
457.232	983.34
457.606	950.34
457.979	977.01
458.352	1014.07
458.725	1015.88
459.099	1019.72
459.472	1033.05
459.845	1020.4
460.218	1014.97
460.591	1043.22
460.964	1046.61
461.337	1055.2
461.71	1087.51
462.083	1082.32
462.456	1090.23
462.829	1096.33
463.201	1117.12
463.574	1139.94
463.947	1135.42
464.32	1153.95
464.692	1169.77
465.065	1169.09
465.438	1202.99
465.81	1232.37
466.183	1204.57
466.555	1234.18
466.928	1235.08
467.3	1252.03
467.672	1250
468.045	1286.15
468.417	1297.68
468.789	1285.02
469.161	1325.47
469.534	1343.1
469.906	1363.89
470.278	1348.52
470.65	1381.74
471.022	1419.71
471.394	1430.78
471.766	1438.92
472.138	1441.4
472.51	1496.09
472.882	1528.41
473.253	1518.24
473.625	1537.67
473.997	1566.6
474.369	1568.41
474.74	1600.72
475.112	1626.48
475.484	1679.36
475.855	1663.54
476.227	1703.77
476.598	1752.58
476.97	1745.12
477.341	1793.71
477.713	1796.65
478.084	1872.58
478.455	1909.41
478.827	1886.14
479.198	1969.3
479.569	1948.28
479.94	2018.11
480.311	2037.77
480.682	2081.39
481.053	2131.78
481.424	2194.15
481.795	2185.56
482.166	2211.1
482.537	2233.92
482.908	2308.27
483.279	2294.71
483.65	2357.54
484.021	2410.19
484.391	2410.19
484.762	2464.43
485.133	2473.24
485.503	2534.48
485.874	2578.1
486.244	2590.98
486.615	2665.55
486.985	2677.3
487.356	2760.01
487.726	2774.02
488.097	2808.82
488.467	2852.44
488.837	2914.36
489.207	2927.92
489.578	3033.45
489.948	3018.76
490.318	3044.98
490.688	3100.79
491.058	3113.22
491.428	3155.03
491.798	3222.15
492.168	3310.73
492.538	3301.24
492.908	3326.55
493.278	3353.22
493.648	3374.23
494.017	3426.44
494.387	3425.53
494.757	3476.38
495.126	3542.14
495.496	3522.03
495.866	3550.05
496.235	3628.24
496.605	3664.62
496.974	3682.7
497.344	3684.96
497.713	3744.62
498.082	3757.05
498.452	3807.67
498.821	3825.75
499.19	3841.11
499.559	3875.69
499.928	3894.67
500.298	3898.97
500.667	3915.91
501.036	3945.52
501.405	3945.97
501.774	3970.15
502.143	4039.07
502.512	4025.52
502.88	4097.83
503.249	4063.93
503.618	4121.56
503.987	4113.65
504.356	4158.62
504.724	4194.78
505.093	4187.09
505.462	4206.53
505.83	4254.66
506.199	4261.22
506.567	4292.4
506.936	4349.35
507.304	4374.88
507.672	4351.16
508.041	4379.63
508.409	4392.96
508.777	4430.48
509.145	4442.91
509.514	4445.39
509.882	4483.36
510.25	4413.75
510.618	4534.88
510.986	4580.76
511.354	4565.16
511.722	4588.89
512.09	4618.95
512.458	4609.68
512.826	4635.22
513.193	4661.21
513.561	4667.76
513.929	4693.75
514.297	4778.04
514.664	4746.85
515.032	4796.34
515.4	4837.02
515.767	4832.27
516.135	4858.04
516.502	4816
516.869	4889.9
517.237	4895.1
517.604	4883.35
517.972	4968.32
518.339	4978.48
518.706	4924.93
519.073	4967.19
519.44	4995.89
519.808	5016.45
520.175	5039.05
520.542	5054.87
520.909	5035.88
521.276	5066.17
521.643	5112.72
522.009	5178.25
522.376	5161.08
522.743	5207.41
523.11	5239.5
523.477	5263.22
523.843	5274.75
524.21	5337.35
524.577	5349.1
524.943	5401.98
525.31	5409.89
525.676	5454.18
526.043	5485.14
526.409	5466.61
526.776	5477.23
527.142	5490.56
527.508	5584.57
527.874	5621.18
528.241	5593.38
528.607	5669.54
528.973	5721.29
529.339	5696.43
529.705	5771.46
530.071	5778.69
530.437	5836.54
530.803	5838.58
531.169	5831.34
531.535	5874.96
531.901	5922.41
532.267	5952.92
532.632	5977.1
532.998	6004.9
533.364	6041.96
533.73	6019.81
534.095	6070.66
534.461	6072.69
534.826	6135.29
535.192	6117.66
535.557	6193.59
535.923	6144.56
536.288	6243.54
536.653	6237.89
537.019	6190.66
537.384	6260.03
537.749	6281.05
538.114	6325.57
538.479	6330.99
538.845	6300.48
539.21	6402.18
539.575	6361.73
539.94	6422.97
540.305	6494.15
540.67	6457.09
541.034	6509.74
541.399	6591.32
541.764	6544.09
542.129	6616.86
542.494	6622.51
542.858	6647.59
543.223	6647.37
543.587	6701.38
543.952	6695.95
544.316	6755.16
544.681	6733.24
545.045	6783.86
545.41	6788.61
545.774	6885.78
546.138	6804.43
546.503	6895.5
546.867	6875.61
547.231	6964.42
547.595	6952.44
547.959	7009.39
548.324	7018.66
548.688	6968.72
549.052	6987.25
549.416	7055.04
549.779	7100.46
550.143	7082.16
550.507	7129.16
550.871	7143.17
551.235	7175.94
551.599	7227.01
551.962	7259.33
552.326	7273.57
552.689	7288.03
553.053	7264.98
553.417	7258.88
553.78	7420
554.143	7391.98
554.507	7427.69
554.87	7424.52
555.234	7493.9
555.597	7447.35
555.96	7469.04
556.323	7531.41
556.686	7517.85
557.05	7605.53
557.413	7594.46
557.776	7576.38
558.139	7691.86
558.502	7643.95
558.865	7678.53
559.228	7728.7
559.59	7796.94
559.953	7743.84
560.316	7903.83
560.679	7835.58
561.041	7924.85
561.404	7923.04
561.767	8001.46
562.129	7940.44
562.492	7999.42
562.854	8014.56
563.217	8012.98
563.579	8065.86
563.941	8128.68
564.304	8066.09
564.666	8231.96
565.028	8200.77
565.39	8178.4
565.753	8256.14
566.115	8299.3
566.477	8271.96
566.839	8302.01
567.201	8383.59
567.563	8366.87
567.925	8473.53
568.287	8413.42
568.648	8546.3
569.01	8458.17
569.372	8576.13
569.734	8517.15
570.095	8617.71
570.457	8688.44
570.819	8677.14
571.18	8682.34
571.542	8753.53
571.903	8783.13
572.265	8802.11
572.626	8844.6
572.987	8922.34
573.349	8974.76
573.71	8954.43
574.071	9059.51
574.432	9116.91
574.794	9226.51
575.155	9210.69
575.516	9245.27
575.877	9311.93
576.238	9351.93
576.599	9431.02
576.96	9500.63
577.32	9546.73
577.681	9673.95
578.042	9691.36
578.403	9721.41
578.763	9861.29
579.124	9937.68
579.485	10021.29
579.845	10224.9
580.206	10251.34
580.566	10359.13
580.927	10442.07
581.287	10573.14
581.648	10605.68
582.008	10859.91
582.368	10937.65
582.728	10984.88
583.089	11130.64
583.449	11378.99
583.809	11402.95
584.169	11683.85
584.529	11689.49
584.889	11999.77
585.249	12091.74
585.609	12208.13
585.969	12470.94
586.329	12609.47
586.688	12843.59
587.048	12988.9
587.408	13124.71
587.768	13362.45
588.127	13503.68
588.487	13632.72
588.846	13958.59
589.206	14064.57
589.565	14287.62
589.925	14645.12
590.284	14838.56
590.643	15072
591.003	15280.36
591.362	15604.19
591.721	15758.54
592.08	16078.98
592.44	16329.82
592.799	16661.34
593.158	16788.8
593.517	16976.36
593.876	17311.72
594.235	17552.17
594.593	17767.53
594.952	18158.93
595.311	18332.48
595.67	18632.59
596.029	19046.59
596.387	19228.28
596.746	19517.99
597.104	19744.88
597.463	19888.6
597.822	20277.29
598.18	20500.34
598.538	20669.37
598.897	21118.17
599.255	21257.15
599.613	21776.01
599.972	21920.19
600.33	22121.99
600.688	22215.55
601.046	22631.35
601.404	22913.83
601.762	23187.05
602.12	23513.82
602.478	23808.27
602.836	23864.32
603.194	24074.03
603.552	24324.19
603.91	24462.04
604.268	24799.66
604.625	25019.31
604.983	25326.65
605.341	25422.02
605.698	25811.16
606.056	26069.46
606.413	26176.12
606.771	26487.07
607.128	26667.41
607.485	26786.27
607.843	26907.4
608.2	27262.64
608.557	27691.11
608.914	27692.01
609.272	28067.37
609.629	28183.3
609.986	28464.42
610.343	28462.39
610.7	28943.96
611.057	29088.13
611.414	29259.88
611.771	29351.63
612.127	29694.22
612.484	29708.91
612.841	30023.02
613.198	29901.45
613.554	30220.99
613.911	30489.68
614.267	30594.08
614.624	30788.43
614.98	30889.89
615.337	31097.35
615.693	31222.99
616.05	31411.91
616.406	31586.37
616.762	31612.13
617.118	31881.28
617.475	31824.56
617.831	32174.83
618.187	32323.98
618.543	32416.63
618.899	32644.88
619.255	32637.87
619.611	32838.32
619.967	32986.11
620.323	33142.26
620.678	33069.05
621.034	33106.11
621.39	33163.28
621.746	33262.94
622.101	33732.98
622.457	33677.39
622.812	33680.1
623.168	33911.51
623.523	33926.88
623.879	34076.25
624.234	33987.67
624.589	34123.26
624.945	34450.25
625.3	34321.22
625.655	34406.19
626.01	34512.17
626.365	34450.03
626.72	34710.36
627.075	34659.06
627.43	34604.6
627.785	34645.28
628.14	34800.3
628.495	34870.58
628.85	34783.35
629.205	34739.96
629.559	35052.5
629.914	35059.73
630.269	35042.33
630.623	35167.3
630.978	35010.46
631.332	35225.15
631.687	35298.59
632.041	35125.49
632.396	35190.12
632.75	35189.22
633.104	35337.69
633.459	35180.4
633.813	35175.43
634.167	35170.01
634.521	35155.54
634.875	35327.29
635.229	35254.53
635.583	35174.08
635.937	35310.79
636.291	35065.38
636.645	35148.99
636.999	35121.87
637.352	35208.65
637.706	35051.82
638.06	35286.16
638.413	35154.64
638.767	35102.66
639.121	35160.74
639.474	34884.59
639.828	35217.69
640.181	35179.27
640.534	35193.06
640.888	35148.09
641.241	35002.55
641.594	35165.26
641.947	35195.32
642.301	34983.35
642.654	35193.96
643.007	35127.52
643.36	35094.98
643.713	35069.9
644.066	35198.26
644.419	34994.87
644.771	34781.32
645.124	34482.12
645.477	34393.08
645.83	34218.39
646.182	34213.87
646.535	34004.61
646.888	34168.23
647.24	34122.58
647.593	34225.63
647.945	34062.24
648.298	34021.34
648.65	33829.03
649.002	33846.65
649.355	33923.26
649.707	33976.14
650.059	34126.19
650.411	34403.25
650.763	34446.86
651.115	34837.81
651.467	34795.55
651.819	34695.22
652.171	34673.07
652.523	34593.53
652.875	34529.35
653.227	34400.99
653.578	34692.51
653.93	34670.36
654.282	34473.75
654.633	34390.37
654.985	34468.11
655.337	34530.93
655.688	34410.48
656.039	34542.68
656.391	34282.57
656.742	34361.44
657.094	34440.08
657.445	34510.36
657.796	34318.28
658.147	34432.4
658.498	34344.04
658.849	34410.93
659.2	34446.86
659.551	34447.99
659.902	34614.32
660.253	34357.83
660.604	34434.21
660.955	34207.77
661.306	34449.12
661.656	34398.95
662.007	34331.61
662.358	34349.92
662.708	34325.51
663.059	34372.06
663.409	34099.98
663.76	34358.73
664.11	34234.21
664.461	34342.68
664.811	34352.4
665.161	34226.76
665.511	34162.8
665.862	34293.65
666.212	34340.65
666.562	34351.5
666.912	34370.48
667.262	34310.37
667.612	34198.73
667.962	34227.21
668.312	34240.99
668.662	34377.49
669.011	34322.57
669.361	34299.97
669.711	34276.47
670.06	34226.08
670.41	34187.21
670.76	34140.2
671.109	34264.72
671.459	34027.21
671.808	34065.86
672.157	34145.4
672.507	34037.83
672.856	34024.5
673.205	34075.8
673.554	34098.85
673.904	33918.51
674.253	34101.79
674.602	34038.29
674.951	33522.14
675.3	33267.68
675.649	33947.89
675.998	33868.12
676.346	33826.54
676.695	34082.58
677.044	33740.21
677.393	33906.09
677.741	33884.39
678.09	33904.28
678.438	33849.14
678.787	33854.56
679.135	33760.78
679.484	33603.72
679.832	33770.72
680.181	33544.06
680.529	33637.62
680.877	33556.49
681.225	33621.12
681.573	33773.21
681.922	33374.12
682.27	33353.11
682.618	33515.81
682.966	33444.63
683.314	33400.11
683.661	33318.53
684.009	33097.52
684.357	33165.09
684.705	33135.26
685.053	33074.7
685.4	32950.63
685.748	32814.36
686.095	32888.49
686.443	32693.69
686.79	32773.91
687.138	32789.96
687.485	32797.41
687.832	32734.14
688.18	32752.44
688.527	32445.11
688.874	32476.97
689.221	32524.2
689.568	32382.51
689.915	32359.69
690.262	32311.1
690.609	32164.44
690.956	32057.77
691.303	31950.88
691.65	31958.34
691.997	31815.07
692.344	31678.35
692.69	31682.42
693.037	31676.54
693.383	31575.53
693.73	31639.7
694.077	31425.25
694.423	31333.5
694.769	31361.75
695.116	31145.03
695.462	31152.49
695.808	31089.21
696.155	31110.23
696.501	30872.27
696.847	30910.23
697.193	30660.07
697.539	30805.6
697.885	30583.24
698.231	30467.08
698.577	30544.14
698.923	30597.47
699.269	30344.82
699.614	30226.86
699.96	30168.11
700.306	30122.23
700.651	29980.77
700.997	29896.25
701.342	29905.74
701.688	29809.24
702.033	29683.37
702.379	29763.14
702.724	29520.44
703.069	29749.81
703.415	29306.21
703.76	29379.88
704.105	29408.35
704.45	29287.22
704.795	29079.32
705.14	29118.42
705.485	29019.89
705.83	28995.25
706.175	28982.37
706.52	28897.4
706.865	28792.55
707.209	28679.78
707.554	28616.51
707.899	28628.03
708.243	28478.88
708.588	28477.98
708.932	28270.3
709.277	28212.22
709.621	28262.17
709.966	28140.81
710.31	28216.52
710.654	27975.62
710.998	28024.43
711.342	28023.98
711.687	27941.5
712.031	27760.94
712.375	27584.22
712.719	27866.02
713.063	27786.02
713.407	27703.54
713.75	27601.84
714.094	27526.82
714.438	27424
714.782	27459.7
715.125	27256.77
715.469	27486.14
715.812	27262.64
716.156	27185.36
716.499	27172.25
716.843	27182.42
717.186	26921.41
717.53	27114.4
717.873	27139.71
718.216	27008.41
718.559	26926.38
718.902	26673.06
719.246	26734.75
719.589	26721.87
719.932	26625.6
720.275	26617.46
720.617	26680.51
720.96	26649.55
721.303	26534.08
721.646	26425.15
721.989	26273.74
722.331	26495.21
722.674	26319.39
723.016	26218.6
723.359	26243.24
723.701	26179.51
724.044	26084.37
724.386	25964.15
724.729	26113.07
725.071	25997.82
725.413	26019.29
725.755	25932.96
726.097	25848.67
726.439	25731.39
726.782	25824.04
727.124	25936.13
727.465	25603.25
727.807	25704.72
728.149	25516.25
728.491	25600.99
728.833	25669.01
729.175	25558.51
729.516	25473.77
729.858	25477.61
730.199	25433.31
730.541	25433.77
730.882	25335.01
731.224	25451.62
731.565	25258.86
731.906	25267.67
732.248	25360.1
732.589	25094.11
732.93	25051.86
733.271	25118.52
733.612	25091.18
733.953	25149.03
734.294	24995.36
734.635	24949.49
734.976	25058.41
735.317	24777.96
735.658	24870.62
735.999	24810.05
736.339	24859.77
736.68	24935.93
737.021	24777.74
737.361	24637.18
737.702	24776.16
738.042	24702.71
738.383	24629.49
738.723	24576.16
739.063	24519.44
739.404	24661.36
739.744	24556.28
740.084	24401.7
740.424	24508.82
740.764	24407.13
741.104	24360.12
741.444	24332.78
741.784	24274.25
742.124	24202.84
742.464	24215.49
742.804	24176.85
743.143	24099.34
743.483	24030.64
743.823	23941.83
744.162	23955.61
744.502	24018.89
744.841	23870.64
745.181	23963.3
745.52	23814.37
745.86	23816.63
746.199	23877.87
746.538	23768.95
746.877	23822.28
747.216	23761.95
747.556	23628.39
747.895	23699.35
748.234	23591.1
748.573	23558.11
748.911	23520.37
749.25	23520.6
749.589	23425.23
749.928	23424.55
750.267	23588.17
750.605	23315.86
750.944	23248.06
751.283	23275.18
751.621	23355.63
751.96	23250.32
752.298	23282.18
752.636	23112.02
752.975	23038.12
753.313	22981.63
753.651	23055.07
753.989	22964.45
754.327	22921.52
754.666	22712.71
755.004	22877
755.342	22966.94
755.679	22836.32
756.017	22725.81
756.355	22858.92
756.693	22640.17
757.031	22687.62
757.368	22442.66
757.706	22408.54
758.044	22350.01
758.381	22439.27
758.719	22287.86
759.056	22427.29
759.394	22237.47
759.731	22154.53
760.068	22028.21
760.405	21963.8
760.743	21893.97
761.08	21822.56
761.417	21885.39
761.754	21761.09
762.091	21724.26
762.428	21605.39
762.765	21513.64
763.102	21530.37
763.438	21372.63
763.775	21350.26
764.112	21330.82
764.449	21348.22
764.785	21288.34
765.122	21191.84
765.458	21074.56
765.795	21105.52
766.131	20989.59
766.467	20930.38
766.804	20832.98
767.14	20802.02
767.476	20693.1
767.812	20696.04
768.148	20689.71
768.485	20535.82
768.821	20422.15
769.157	20348.7
769.492	20383.73
769.828	20402.71
770.164	20094.92
770.5	20132.21
770.836	20166.56
771.171	19990.07
771.507	20029.39
771.842	19869.62
772.178	19849.28
772.513	19737.87
772.849	19717.98
773.184	19634.82
773.519	19628.5
773.855	19472.34
774.19	19447.48
774.525	19433.02
774.86	19281.16
775.195	19302.4
775.53	19186.92
775.865	19091.33
776.2	18961.17
776.535	18913.49
776.87	18878.68
777.205	18736.99
777.539	18604.79
777.874	18745.81
778.209	18596.21
778.543	18553.95
778.878	18410
779.212	18491.12
779.547	18355.31
779.881	18351.47
780.215	18184.47
780.55	18207.06
780.884	18191.02
781.218	18081.42
781.552	18045.71
781.886	18019.05
782.22	17866.96
782.554	17777.47
782.888	17650.24
783.222	17562.33
783.556	17521.21
783.889	17593.07
784.223	17338.84
784.557	17427.65
784.89	17382
785.224	17207.09
785.557	17145.4
785.891	17097.94
786.224	17071.95
786.558	17072.63
786.891	16952.41
787.224	16758.06
787.557	16829.92
787.891	16836.93
788.224	16684.62
788.557	16798.06
788.89	16639.42
789.223	16596.26
789.556	16458.41
789.888	16480.1
790.221	16384.51
790.554	16185.65
790.887	16197.85
791.219	16193.56
791.552	16199.88
791.884	16097.51
792.217	16024.75
792.549	16027.23
792.882	15835.15
793.214	15826.56
793.546	15765.32
793.879	15766.22
794.211	15626.11
794.543	15676.51
794.875	15556.51
795.207	15685.55
795.539	15523.74
795.871	15510.19
796.203	15438.55
796.535	15309.96
796.867	15263.41
797.198	15177.99
797.53	15167.6
797.862	15190.19
798.193	15094.83
798.525	15061.38
798.856	15011.67
799.188	14880.82
799.519	14882.86
799.85	14838.79
800.182	14882.86
800.513	14856.64
800.844	14680.83
801.175	14767.15
801.506	14727.38
801.837	14653.71
802.168	14629.08
802.499	14567.84
802.83	14486.71
803.161	14441.74
803.491	14369.42
803.822	14389.54
804.153	14310.44
804.483	14228.86
804.814	14169.88
805.145	14128.3
805.475	14125.14
805.805	14096.66
806.136	13990
806.466	14049.43
806.796	14082.65
807.126	13866.84
807.457	13793.62
807.787	13892.83
808.117	13798.14
808.447	13777.12
808.777	13800.63
809.107	13828.2
809.436	13642.66
809.766	13670.01
810.096	13664.36
810.426	13608.31
810.755	13498.71
811.085	13577.35
811.414	13462.78
811.744	13428.66
812.073	13400.18
812.403	13311.15
812.732	13261.66
813.061	13288.1
813.39	13214.88
813.719	13164.03
814.049	13265.95
814.378	13128.78
814.707	13072.96
815.036	13117.71
815.365	12994.32
815.693	12863.48
816.022	12951.38
816.351	12882.91
816.68	12773.08
817.008	12841.1
817.337	12698.51
817.665	12655.35
817.994	12714.1
818.322	12662.35
818.651	12606.53
818.979	12648.57
819.307	12676.14
819.636	12622.58
819.964	12459.87
820.292	12559.53
820.62	12550.49
820.948	12540.55
821.276	12582.58
821.604	12589.58
821.932	12556.59
822.259	12463.71
822.587	12419.65
822.915	12488.34
823.243	12490.83
823.57	12471.62
823.898	12471.4
824.225	12363.83
824.553	12390.49
824.88	12391.17
825.207	12452.41
825.535	12376.93
825.862	12530.6
826.189	12337.61
826.516	12440.44
826.843	12586.87
827.17	12493.32
827.497	12525.63
827.824	12518.63
828.151	12436.37
828.478	12426.2
828.805	12479.3
829.131	12375.8
829.458	12444.73
829.785	12419.87
830.111	12363.38
830.438	12474.11
830.764	12410.38
831.09	12383.49
831.417	12267.56
831.743	12393.88
832.069	12352.75
832.395	12394.56
832.722	12331.29
833.048	12295.81
833.374	12258.97
833.7	12303.04
834.026	12294.9
834.351	12328.8
834.677	12237.5
835.003	12239.54
835.329	12266.2
835.654	12214.23
835.98	12239.08
836.306	12119.77
836.631	12155.47
836.956	12162.02
837.282	12170.61
837.607	12141.46
837.932	12079.54
838.258	12082.93
838.583	12056.04
838.908	11968.58
839.233	11944.4
839.558	11999.54
839.883	11943.73
840.208	11951.18
840.533	11888.36
840.858	11882.26
841.182	11935.36
841.507	11864.18
841.832	11798.42
842.156	11787.35
842.481	11765.65
842.805	11785.54
843.13	11677.29
843.454	11709.38
843.778	11648.82
844.103	11705.54
844.427	11558.2
844.751	11670.96
845.075	11552.78
845.399	11514.13
845.723	11432.33
846.047	11578.99
846.371	11361.59
846.695	11391.2
847.019	11350.97
847.343	11254.25
847.666	11173.8
847.99	11214.03
848.313	11234.82
848.637	11126.57
848.96	11066.91
849.284	11080.47
849.607	10969.51
849.931	10948.95
850.254	10846.81
850.577	10859.91
850.9	10781.72
851.223	10707.15
851.546	10642.52
851.869	10673.02
852.192	10723.19
852.515	10473.03
852.838	10534.72
853.161	10532.46
853.483	10461.28
853.806	10427.16
854.129	10348.74
854.451	10359.13
854.774	10291.11
855.096	10220.16
855.419	10204.79
855.741	10244.79
856.063	10182.42
856.385	10159.82
856.708	10139.03
857.03	10133.38
857.352	10071.01
857.674	9983.1
857.996	10019.03
858.318	9964.34
858.64	9920.95
858.961	9970.44
859.283	9871.01
859.605	9889.77
859.926	9891.12
860.248	9891.58
860.57	9703.56
860.891	9783.56
861.212	9755.31
861.534	9690.45
861.855	9669.66
862.176	9743.56
862.498	9690.23
862.819	9756.66
863.14	9652.26
863.461	9578.14
863.782	9609.1
864.103	9610.23
864.424	9489.55
864.745	9608.65
865.065	9477.58
865.386	9454.98
865.707	9488.65
866.027	9520.29
866.348	9479.61
866.668	9473.51
866.989	9337.69
867.309	9334.98
867.63	9427.86
867.95	9340.18
868.27	9315.09
868.59	9363.68
868.91	9283.23
869.23	9246.62
869.55	9287.07
869.87	9286.17
870.19	9283.23
870.51	9262.44
870.83	9199.39
871.15	9158.49
871.469	9145.83
871.789	9158.94
872.109	9141.54
872.428	9079.62
872.748	9160.52
873.067	9126.17
873.386	9085.95
873.706	9116.68
874.025	9062.22
874.344	9053.63
874.663	9058.15
874.982	9018.15
875.301	9036.91
875.62	8982.22
875.939	8980.41
876.258	8961.66
876.577	8881.66
876.896	8929.57
877.214	8858.38
877.533	8934.09
877.852	8838.04
878.17	8833.98
878.489	8885.5
878.807	8881.66
879.125	8788.55
879.444	8789.01
879.762	8784.94
880.08	8813.64
880.398	8766.63
880.716	8814.99
881.034	8741.55
881.352	8767.31
881.67	8672.85
881.988	8699.07
882.306	8644.6
882.624	8679.4
882.941	8619.97
883.259	8582.46
883.577	8617.71
883.894	8549.01
884.212	8489.81
884.529	8500.43
884.846	8520.09
885.164	8529.8
885.481	8485.29
885.798	8497.94
886.115	8453.65
886.432	8386.76
886.75	8496.36
887.067	8411.61
887.383	8379.07
887.7	8345.63
888.017	8331.17
888.334	8362.8
888.651	8256.14
888.967	8283.93
889.284	8231.28
889.6	8165.29
889.917	8149.25
890.233	8143.6
890.55	8174.79
890.866	8160.55
891.182	8110.38
891.498	8125.07
891.815	8089.14
892.131	8059.53
892.447	7967.33
892.763	7975.24
893.079	7917.16
893.395	7908.8
893.71	7914.9
894.026	7876.26
894.342	7862.7
894.657	7814.12
894.973	7808.02
895.289	7850.05
895.604	7769.15
895.92	7649.15
896.235	7624.07
896.55	7687.79
896.865	7704.97
897.181	7534.58
897.496	7610.96
897.811	7594.69
898.126	7510.85
898.441	7519.21
898.756	7467.69
899.071	7442.6
899.386	7458.65
899.7	7434.69
900.015	7364.18
900.33	7319.21
900.644	7358.54
900.959	7334.58
901.273	7339.78
901.588	7199.67
901.902	7194.25
902.216	7210.97
902.531	7203.06
902.845	7161.03
903.159	7097.07
903.473	7175.72
903.787	7092.33
904.101	7024.76
904.415	6998.09
904.729	7049.62
905.042	7001.93
905.356	6964.2
905.67	6965.55
905.984	6843.07
906.297	6857.98
906.611	6844.42
906.924	6800.81
907.237	6813.46
907.551	6765.1
907.864	6711.32
908.177	6747.93
908.491	6706.8
908.804	6699.57
909.117	6616.63
909.43	6578.44
909.743	6598.33
910.056	6533.92
910.368	6560.36
910.681	6538.9
910.994	6481.95
911.307	6456.64
911.619	6454.6
911.932	6438.79
912.244	6351.78
912.557	6378
912.869	6361.95
913.181	6249.19
913.494	6315.62
913.806	6264.33
914.118	6240.37
914.43	6161.73
914.742	6186.81
915.054	6109.08
915.366	6178.68
915.678	6086.93
915.99	6118.79
916.302	6004.22
916.613	5988.85
916.925	5985.69
917.236	5949.53
917.548	6000.38
917.859	5940.95
918.171	5943.43
918.482	5901.85
918.794	5833.6
919.105	5857.78
919.416	5831.8
919.727	5762.87
920.038	5813.94
920.349	5738.92
920.66	5685.13
920.971	5692.14
921.282	5688.52
921.593	5641.52
921.903	5659.6
922.214	5607.17
922.525	5600.16
922.835	5528.07
923.146	5541.41
923.456	5505.7
923.767	5532.59
924.077	5468.64
924.387	5487.4
924.697	5391.81
925.008	5423.22
925.318	5366.05
925.628	5380.73
925.938	5365.82
926.248	5311.36
926.558	5271.81
926.867	5291.92
927.177	5266.39
927.487	5220.96
927.796	5209.44
928.106	5224.81
928.416	5151.14
928.725	5125.15
929.034	5112.04
929.344	5161.08
929.653	5093.06
929.962	5018.26
930.271	5024.81
930.581	5001.76
930.89	4977.36
931.199	4967.64
931.508	4960.86
931.817	4926.06
932.125	4934.19
932.434	4905.27
932.743	4809.22
933.051	4879.28
933.36	4827.75
933.669	4812.16
933.977	4766.06
934.286	4746.17
934.594	4742.11
934.902	4696.68
935.21	4663.01
935.519	4687.42
935.827	4675.67
936.135	4634.77
936.443	4583.69
936.751	4563.58
937.059	4620.53
937.367	4569.23
937.674	4536.01
937.982	4541.89
938.29	4474.09
938.597	4535.11
938.905	4444.49
939.213	4443.13
939.52	4411.27
939.827	4450.59
940.135	4362
940.442	4347.09
940.749	4333.98
941.056	4316.36
941.363	4332.85
941.67	4296.02
941.977	4241.56
942.284	4255.57
942.591	4238.17
942.898	4194.32
943.205	4215.12
943.511	4196.36
943.818	4178.96
944.125	4118.17
944.431	4121.33
944.738	4080.2
945.044	4079.07
945.35	4072.07
945.657	4077.27
945.963	4053.76
946.269	4032.3
946.575	4034.78
946.881	3996.82
947.187	3968.12
947.493	3993.43
947.799	3941.45
948.105	3919.53
948.41	3897.61
948.716	3894.67
949.022	3888.57
949.327	3911.62
949.633	3817.84
949.938	3833.66
950.244	3851.28
950.549	3803.6
950.854	3775.8
951.16	3782.36
951.465	3726.99
951.77	3755.01
952.075	3723.6
952.38	3693.09
952.685	3674.79
952.99	3647.22
953.294	3688.35
953.599	3644.96
953.904	3629.14
954.209	3562.48
954.513	3594.11
954.818	3590.95
955.122	3561.35
955.426	3570.16
955.731	3531.29
956.035	3510.73
956.339	3521.57
956.643	3482.93
956.948	3462.14
957.252	3472.99
957.556	3463.27
957.86	3440.45
958.163	3389.83
958.467	3457.39
958.771	3361.13
959.075	3382.82
959.378	3378.98
959.682	3353.44
959.985	3310.73
960.289	3300.11
960.592	3269.38
960.896	3293.56
961.199	3242.49
961.502	3242.94
961.805	3241.58
962.108	3222.37
962.411	3221.02
962.714	3187.57
963.017	3188.25
963.32	3165.88
963.623	3169.27
963.926	3197.74
964.228	3117.74
964.531	3126.1
964.833	3092.21
965.136	3074.13
965.438	3088.37
965.741	3056.73
966.043	3039.55
966.345	3047.01
966.648	3016.5
966.95	3039.1
967.252	2978.31
967.554	3023.96
967.856	2992.55
968.158	2996.62
968.46	2969.72
968.761	2931.53
969.063	2921.59
969.365	2977.63
969.666	2858.31
969.968	2888.37
970.269	2913.91
970.571	2879.33
970.872	2864.19
971.174	2812.21
971.475	2835.72
971.776	2818.54
972.077	2795.49
972.378	2776.51
972.679	2787.36
972.98	2770.63
973.281	2755.94
973.582	2736.96
973.883	2722.05
974.183	2714.14
974.484	2740.13
974.785	2642.28
975.085	2686.79
975.386	2687.25
975.686	2666
975.986	2656.29
976.287	2644.31
976.587	2640.02
976.887	2629.39
977.187	2614.71
977.487	2571.77
977.787	2615.84
978.087	2604.76
978.387	2600.47
978.687	2548.04
978.987	2567.02
979.286	2526.8
979.586	2520.92
979.885	2513.01
980.185	2484.99
980.484	2474.14
980.784	2439.79
981.083	2462.62
981.382	2423.52
981.682	2466.91
981.981	2441.83
982.28	2423.52
982.579	2453.81
982.878	2383.07
983.177	2393.24
983.475	2399.57
983.774	2392.34
984.073	2377.2
984.372	2364.99
984.67	2333.36
984.969	2309.18
985.267	2308.5
985.566	2319.12
985.864	2277.76
986.162	2303.53
986.461	2268.5
986.759	2282.96
987.057	2274.38
987.355	2244.32
987.653	2248.16
987.951	2227.6
988.249	2224.43
988.547	2215.85
988.844	2230.31
989.142	2209.07
989.44	2177.43
989.737	2133.14
990.035	2148.5
990.332	2155.51
990.63	2152.34
990.927	2126.58
991.224	2107.6
991.521	2119.8
991.819	2099.24
992.116	2070.09
992.413	2084.55
992.71	2088.39
993.006	2061.73
993.303	2077.32
993.6	2035.29
993.897	2023.08
994.193	2025.12
994.49	1993.25
994.787	1988.96
995.083	1994.61
995.379	1992.12
995.676	1956.87
995.972	2002.52
996.268	1965.46
996.565	1945.12
996.861	1952.12
997.157	1928.17
997.453	1925.91
997.749	1933.37
998.044	1897.66
998.34	1901.05
998.636	1872.35
998.932	1868.28
999.227	1847.04
999.523	1868.06
999.818	1849.3
1000.114	1853.6
1000.409	1840.49
1000.704	1835.97
1001	1815.4
1001.295	1789.42
1001.59	1823.77
1001.885	1766.82
1002.18	1793.71
1002.475	1735.63
1002.77	1762.07
1003.065	1777.44
1003.359	1732.02
1003.654	1734.28
1003.949	1722.07
1004.243	1727.04
1004.538	1735.63
1004.832	1709.19
1005.127	1706.03
1005.421	1691.11
1005.715	1658.35
1006.009	1645.24
1006.304	1646.82
1006.598	1659.7
1006.892	1631.91
1007.186	1609.53
1007.48	1600.95
1007.773	1566.37
1008.067	1607.05
1008.361	1593.26
1008.655	1592.81
1008.948	1567.73
1009.242	1556.65
1009.535	1571.79
1009.829	1536.09
1010.122	1532.25
1010.415	1511.91
1010.708	1513.94
1011.001	1515.75
1011.295	1507.84
1011.588	1520.04
1011.881	1508.29
1012.173	1485.24
1012.466	1511.01
1012.759	1447.05
1013.052	1453.38
1013.344	1426.04
1013.637	1482.08
1013.93	1443.89
1014.222	1443.44
1014.514	1421.06
1014.807	1390.56
1015.099	1445.02
1015.391	1396.88
1015.683	1399.14
1015.976	1378.13
1016.268	1401.4
1016.56	1368.86
1016.851	1348.75
1017.143	1333.61
1017.435	1341.52
1017.727	1310.56
1018.018	1353.27
1018.31	1306.72
1018.602	1279.83
1018.893	1275.76
1019.185	1293.61
1019.476	1313.95
1019.767	1311.46
1020.058	1271.92
1020.35	1250
1020.641	1238.92
1020.932	1260.84
1021.223	1254.06
1021.514	1263.78
1021.804	1218.58
1022.095	1215.65
1022.386	1211.58
1022.677	1193.05
1022.967	1174.07
1023.258	1190.34
1023.548	1174.52
1023.839	1162.54
1024.129	1169.77
1024.419	1151.24
1024.709	1145.14
1025	1132.03
1025.29	1149.89
1025.58	1096.78
1025.87	1108.76
1026.16	1110.79
1026.449	1108.53
1026.739	1100.62
1027.029	1087.51
1027.319	1074.86
1027.608	1070.11
1027.898	1075.99
1028.187	1087.06
1028.477	1056.55
1028.766	1065.37
1029.055	1059.49
1029.344	1056.55
1029.634	1042.09
1029.923	1035.76
1030.212	1022.43
1030.501	1016.1
1030.79	994.41
1031.078	1024.69
1031.367	993.96
1031.656	1022.2
1031.945	986.05
1032.233	996.67
1032.522	952.38
1032.81	977.46
1033.099	953.51
1033.387	944.69
1033.675	971.81
1033.963	957.8
1034.251	950.57
1034.54	925.94
1034.828	944.92
1035.116	929.78
1035.403	934.52
1035.691	915.09
1035.979	907.18
1036.267	881.87
1036.554	918.48
1036.842	898.14
1037.129	876.9
1037.417	889.78
1037.704	872.6
1037.992	894.07
1038.279	866.5
1038.566	850.01
1038.853	850.01
1039.14	850.01
