Data from hue_170_FLMS001491_00030.txt Node
Date: Tue Feb 07 16:48:29 GMT 2017
User: dcchb
Spectrometer: FLMS00149
Trigger mode: 0
Integration Time (sec): 2.000000E-2
Scans to average: 10
Electric dark correction enabled: true
Nonlinearity correction enabled: false
Boxcar width: 0
XAxis mode: Wavelengths
Number of Pixels in Spectrum: 2048
>>>>>Begin Spectral Data<<<<<
341.393	-14.27
341.776	-14.27
342.16	-14.27
342.543	-52.23
342.927	-77.99
343.31	-68.28
343.693	-59.01
344.077	-68.73
344.46	-54.26
344.843	-63.76
345.226	-45.9
345.61	-37.99
345.993	-20.14
346.376	-3.19
346.759	24.38
347.142	16.02
347.525	40.42
347.908	56.47
348.291	84.72
348.674	80.65
349.057	118.61
349.44	110.48
349.823	147.31
350.206	169.68
350.588	188.22
350.971	187.31
351.354	236.12
351.737	246.52
352.119	256.01
352.502	264.37
352.884	274.99
353.267	286.52
353.65	273.41
354.032	275.44
354.414	301.88
354.797	319.96
355.179	339.17
355.562	317.48
355.944	317.7
356.326	313.41
356.709	337.36
357.091	326.06
357.473	348.44
357.855	332.84
358.238	343.01
358.62	344.14
359.002	332.39
359.384	338.49
359.766	335.56
360.148	327.87
360.53	335.1
360.912	319.06
361.294	318.83
361.676	321.77
362.057	327.42
362.439	348.21
362.821	326.06
363.203	330.13
363.584	312.96
363.966	323.13
364.348	343.24
364.729	312.96
365.111	313.86
365.493	314.54
365.874	323.58
366.256	307.53
366.637	327.19
367.019	320.87
367.4	306.18
367.781	322.45
368.163	300.3
368.544	310.25
368.925	300.98
369.306	302.34
369.688	305.73
370.069	339.4
370.45	306.4
370.831	294.43
371.212	307.31
371.593	301.21
371.974	323.81
372.355	305.5
372.736	308.89
373.117	307.99
373.498	313.64
373.879	316.8
374.26	327.65
374.641	289.91
375.021	325.16
375.402	310.7
375.783	319.74
376.163	324.48
376.544	326.29
376.925	339.17
377.305	312.73
377.686	328.1
378.066	303.01
378.447	329.68
378.827	349.12
379.208	328.32
379.588	323.35
379.968	335.33
380.349	333.75
380.729	316.57
381.109	322.45
381.489	324.71
381.87	335.1
382.25	329
382.63	329.91
383.01	338.95
383.39	353.86
383.77	335.78
384.15	330.58
384.53	363.8
384.91	355.22
385.29	359.96
385.67	348.21
386.049	355.44
386.429	341.88
386.809	338.49
387.189	333.97
387.568	339.17
387.948	329.68
388.328	339.85
388.707	348.66
389.087	330.13
389.466	374.2
389.846	372.17
390.225	367.19
390.605	363.35
390.984	353.41
391.363	365.61
391.743	372.17
392.122	363.58
392.501	352.05
392.881	373.07
393.26	380.75
393.639	378.49
394.018	386.85
394.397	352.96
394.776	380.75
395.155	380.98
395.534	392.28
395.913	365.39
396.292	408.55
396.671	371.26
397.05	416.91
397.429	383.01
397.808	400.19
398.186	359.06
398.565	355.44
398.944	376.69
399.323	392.28
399.701	390.92
400.08	403.12
400.458	405.84
400.837	399.28
401.215	404.25
401.594	389.34
401.972	418.04
402.351	409.9
402.729	415.33
403.107	414.2
403.486	417.36
403.864	397.48
404.242	404.71
404.62	412.39
404.999	421.66
405.377	429.56
405.755	420.3
406.133	436.34
406.511	441.32
406.889	425.95
407.267	451.71
407.645	471.82
408.023	463.24
408.401	452.39
408.779	451.71
409.156	453.75
409.534	465.95
409.912	466.4
410.29	477.25
410.667	469.11
411.045	464.59
411.422	484.48
411.8	496.23
412.178	491.26
412.555	500.98
412.933	492.84
413.31	511.14
413.687	489.68
414.065	525.61
414.442	529.22
414.819	537.58
415.197	532.39
415.574	537.58
415.951	538.26
416.328	561.76
416.705	543.23
417.082	551.82
417.46	580.07
417.837	579.62
418.214	589.79
418.591	572.84
418.967	584.14
419.344	571.93
419.721	592.72
420.098	589.11
420.475	612.61
420.852	596.11
421.228	604.7
421.605	610.8
421.982	627.53
422.358	634.53
422.735	668.2
423.111	624.81
423.488	647.41
423.864	661.2
424.241	648.09
424.617	675.43
424.994	706.85
425.37	701.65
425.746	673.85
426.123	694.64
426.499	689.9
426.875	710.24
427.251	712.04
427.627	722.21
428.003	736.9
428.379	741.87
428.756	740.52
429.132	743
429.507	772.83
429.883	759.5
430.259	783.68
430.635	778.48
431.011	789.78
431.387	805.6
431.763	833.85
432.138	804.47
432.514	812.61
432.89	839.5
433.265	844.92
433.641	864.13
434.016	897.12
434.392	872.04
434.767	881.08
435.143	923.34
435.518	914.75
435.894	935.54
436.269	910.91
436.644	954.75
437.02	938.7
437.395	948.65
437.77	980.28
438.145	992.26
438.52	998.14
438.895	995.65
439.271	1037.46
439.646	1044.01
440.021	1038.14
440.395	1073.39
440.77	1042.2
441.145	1039.49
441.52	1064.8
441.895	1079.04
442.27	1081.98
442.645	1099.83
443.019	1105.03
443.394	1113.84
443.769	1135.76
444.143	1159.26
444.518	1146.61
444.892	1147.06
445.267	1161.75
445.641	1185.48
446.016	1178.25
446.39	1195.42
446.764	1184.12
447.139	1200.17
447.513	1187.06
447.887	1216.21
448.262	1235.42
448.636	1226.15
449.01	1262.54
449.384	1235.42
449.758	1248.98
450.132	1292.59
450.506	1323.55
450.88	1284.01
451.254	1312.93
451.628	1312.93
452.002	1341.86
452.376	1340.28
452.75	1348.18
453.123	1383.66
453.497	1412.82
453.871	1427.05
454.244	1415.75
454.618	1439.03
454.992	1444.23
455.365	1471.12
455.739	1473.38
456.112	1502.53
456.486	1526.49
456.859	1537.56
457.232	1582.75
457.606	1573.49
457.979	1588.18
458.352	1630.66
458.725	1632.7
459.099	1649.19
459.472	1684.67
459.845	1691.68
460.218	1712.7
460.591	1731
460.964	1723.09
461.337	1797.89
461.71	1792.47
462.083	1845.8
462.456	1834.27
462.829	1826.59
463.201	1841.96
463.574	1893.26
463.947	1955.4
464.32	1988.39
464.692	2029.3
465.065	2041.27
465.438	2046.47
465.81	2086.47
466.183	2089.18
466.555	2175.96
466.928	2203.53
467.3	2207.15
467.672	2234.94
468.045	2298.67
468.417	2329.4
468.789	2311.78
469.161	2369.17
469.534	2381.83
469.906	2443.98
470.278	2472.22
470.65	2548.15
471.022	2592.45
471.394	2653.46
471.766	2679.22
472.138	2730.52
472.51	2794.25
472.882	2784.76
473.253	2868.82
473.625	2936.84
473.997	3019.1
474.369	3033.34
474.74	3095.03
475.112	3170.74
475.484	3239.89
475.855	3331.86
476.227	3325.99
476.598	3470.16
476.97	3517.39
477.341	3562.59
477.713	3658.86
478.084	3697.95
478.455	3831.06
478.827	3904.73
479.198	4023.82
479.569	4112.63
479.94	4179.07
480.311	4258.39
480.682	4346.52
481.053	4519.17
481.424	4590.36
481.795	4696.35
482.166	4755.55
482.537	4882.33
482.908	4973.17
483.279	5081.87
483.65	5228.53
484.021	5316.67
484.391	5421.75
484.762	5550.11
485.133	5617.45
485.503	5734.51
485.874	5852.93
486.244	5974.5
486.615	6146.48
486.985	6198
487.356	6397.77
487.726	6454.27
488.097	6559.57
488.467	6678.44
488.837	6844.99
489.207	6981.48
489.578	7127.47
489.948	7202.72
490.318	7358.65
490.688	7411.98
491.058	7539.66
491.428	7718.86
491.798	7860.78
492.168	8067.78
492.538	8039.31
492.908	8182.36
493.278	8356.36
493.648	8412.63
494.017	8520.65
494.387	8656.24
494.757	8716.13
495.126	8912.73
495.496	8946.18
495.866	9034.54
496.235	9114.08
496.605	9242.44
496.974	9267.52
497.344	9404.47
497.713	9480.85
498.082	9539.61
498.452	9689.21
498.821	9728.98
499.19	9810.79
499.559	9924
499.928	9906.83
500.298	10086.03
500.667	10188.4
501.036	10180.5
501.405	10299.36
501.774	10343.43
502.143	10517.66
502.512	10452.58
502.88	10594.5
503.249	10587.26
503.618	10675.4
503.987	10689.41
504.356	10785.22
504.724	10854.83
505.093	10947.48
505.462	10949.29
505.83	10959.23
506.199	11126.68
506.567	11284.87
506.936	11217.53
507.304	11275.83
507.672	11323.97
508.041	11414.36
508.409	11440.35
508.777	11568.26
509.145	11559.89
509.514	11564.64
509.882	11622.04
510.25	11598.08
510.618	11745.88
510.986	11721.25
511.354	11860.68
511.722	11967.34
512.09	11919.88
512.458	12015.25
512.826	12030.16
513.193	12091.63
513.561	12072.65
513.929	12228.12
514.297	12252.3
514.664	12292.53
515.032	12343.6
515.4	12378.63
515.767	12348.57
516.135	12514.9
516.502	12280.1
516.869	12516.7
517.237	12476.25
517.604	12472.19
517.972	12500.21
518.339	12558.29
518.706	12511.06
519.073	12612.07
519.44	12619.53
519.808	12676.02
520.175	12690.71
520.542	12772.74
520.909	12746.08
521.276	12737.04
521.643	12809.35
522.009	12841.89
522.376	12846.64
522.743	12943.81
523.11	13007.54
523.477	13016.13
523.843	12998.73
524.21	13139.29
524.577	13217.93
524.943	13186.74
525.31	13168.89
525.676	13254.99
526.043	13238.49
526.409	13313.07
526.776	13366.17
527.142	13390.81
527.508	13271.94
527.874	13447.08
528.241	13388.77
528.607	13376.57
528.973	13458.83
529.339	13411.14
529.705	13414.99
530.071	13474.19
530.437	13485.27
530.803	13454.08
531.169	13433.74
531.535	13414.53
531.901	13334.76
532.267	13401.65
532.632	13475.78
532.998	13360.75
533.364	13385.83
533.73	13383.35
534.095	13434.19
534.461	13352.62
534.826	13376.57
535.192	13360.75
535.557	13344.48
535.923	13271.26
536.288	13360.52
536.653	13275.55
537.019	13236.01
537.384	13223.58
537.749	13200.3
538.114	13205.27
538.479	13138.84
538.845	13164.82
539.21	13115.11
539.575	13052.74
539.94	13106.29
540.305	13051.61
540.67	12999.4
541.034	13004.38
541.399	12973.87
541.764	12920.31
542.129	12844.38
542.494	12841.67
542.858	12749.24
543.223	12757.6
543.587	12806.19
543.952	12679.64
544.316	12712.86
544.681	12649.13
545.045	12619.53
545.41	12676.47
545.774	12649.13
546.138	12570.71
546.503	12444.39
546.867	12476.93
547.231	12558.29
547.595	12450.27
547.959	12370.27
548.324	12341.34
548.688	12267.45
549.052	12305.18
549.416	12294.11
549.779	12270.16
550.143	12160.33
550.507	12238.29
550.871	12178.63
551.235	12098.86
551.599	12160.1
551.962	12117.85
552.326	12062.25
552.689	12082.37
553.053	12046.89
553.417	11966.66
553.78	12072.2
554.143	11906.78
554.507	11951.75
554.87	11949.71
555.234	11995.59
555.597	11866.1
555.96	11841.69
556.323	11877.4
556.686	11817.97
557.05	11816.84
557.413	11859.55
557.776	11762.6
558.139	11745.65
558.502	11776.39
558.865	11769.15
559.228	11835.37
559.59	11691.19
559.953	11699.1
560.316	11870.17
560.679	11725.09
561.041	11779.78
561.404	11790.4
561.767	11849.6
562.129	11807.8
562.492	11810.51
562.854	11782.94
563.217	11832.88
563.579	11828.81
563.941	11777.06
564.304	11752.43
564.666	11858.19
565.028	11824.07
565.39	11820.68
565.753	11744.3
566.115	11827.91
566.477	11852.54
566.839	11851.86
567.201	11901.58
567.563	11749.27
567.925	11955.14
568.287	11868.81
568.648	11885.53
569.01	11942.71
569.372	11942.26
569.734	11920.11
570.095	11936.16
570.457	11947.23
570.819	12025.87
571.18	11996.94
571.542	12001.92
571.903	11976.83
572.265	11969.6
572.626	12158.52
572.987	12075.81
573.349	12073.1
573.71	12105.19
574.071	12122.14
574.432	12063.84
574.794	12142.7
575.155	12088.47
575.516	12090.5
575.877	12151.97
576.238	12053.89
576.599	12100.44
576.96	12052.08
577.32	12141.57
577.681	12137.51
578.042	12212.53
578.403	12151.74
578.763	12106.55
579.124	12123.49
579.485	12093.89
579.845	12179.54
580.206	12154.68
580.566	12083.27
580.927	12177.05
581.287	12151.29
581.648	12097.05
582.008	12212.98
582.368	12181.8
582.728	12169.37
583.089	12170.95
583.449	12069.03
583.809	12126.21
584.169	12065.19
584.529	12096.15
584.889	12136.83
585.249	11983.61
585.609	12003.05
585.969	12037.85
586.329	12029.49
586.688	12060.22
587.048	11997.62
587.408	11965.53
587.768	11959.43
588.127	11948.36
588.487	11931.86
588.846	11956.72
589.206	11895.25
589.565	11912.88
589.925	11918.3
590.284	11878.08
590.643	11961.92
591.003	11974.57
591.362	11932.31
591.721	11920.11
592.08	11822.26
592.44	11923.5
592.799	11921.92
593.158	11902.03
593.517	11833.56
593.876	11917.62
594.235	11855.93
594.593	11841.47
594.952	11854.35
595.311	11803.96
595.67	11824.97
596.029	11844.86
596.387	11872.2
596.746	11910.85
597.104	11833.78
597.463	11828.14
597.822	11812.32
598.18	11811.86
598.538	11797.63
598.897	11886.66
599.255	11654.58
599.613	11936.83
599.972	11841.24
600.33	11812.99
600.688	11781.13
601.046	11778.19
601.404	11782.49
601.762	11837.85
602.12	11850.28
602.478	11851.41
602.836	11799.66
603.194	11774.35
603.552	11764.18
603.91	11726.44
604.268	11799.66
604.625	11713.34
604.983	11744.75
605.341	11710.4
605.698	11818.64
606.056	11806.67
606.413	11716.73
606.771	11758.76
607.128	11791.98
607.485	11809.15
607.843	11782.71
608.2	11866.33
608.557	11897.51
608.914	11792.2
609.272	11856.38
609.629	11858.19
609.986	11837.85
610.343	11888.47
610.7	11891.18
611.057	11904.52
611.414	11900
611.771	11960.11
612.127	11964.63
612.484	11986.1
612.841	11975.7
613.198	11974.8
613.554	11998.98
613.911	11977.74
614.267	12045.53
614.624	11993.33
614.98	12021.35
615.337	12050.28
615.693	12050.05
616.05	11989.71
616.406	12114
616.762	12043.72
617.118	12037.4
617.475	12026.1
617.831	12056.83
618.187	12080.78
618.543	12074
618.899	12210.27
619.255	12127.11
619.611	12137.51
619.967	12143.61
620.323	12151.06
620.678	12124.85
621.034	12081.91
621.39	12080.56
621.746	12118.52
622.101	12204.85
622.457	12103.61
622.812	12092.31
623.168	12186.32
623.523	12136.15
623.879	12172.53
624.234	12106.09
624.589	12088.47
624.945	12071.07
625.3	12123.49
625.655	12146.32
626.01	12111.97
626.365	12142.7
626.72	12090.05
627.075	12114
627.43	12074.68
627.785	12067.9
628.14	12109.71
628.495	12087.56
628.85	12113.1
629.205	12077.62
629.559	12123.27
629.914	12037.85
630.269	12050.5
630.623	12002.59
630.978	12015.7
631.332	12055.02
631.687	12017.28
632.041	12002.37
632.396	11947.23
632.75	11951.3
633.104	11960.34
633.459	11890.51
633.813	11859.09
634.167	11890.28
634.521	11869.04
634.875	11920.56
635.229	11911.97
635.583	11811.41
635.937	11768.7
636.291	11752.43
636.645	11835.82
636.999	11830.4
637.352	11754.92
637.706	11802.15
638.06	11737.74
638.413	11745.43
638.767	11690.74
639.121	11740.45
639.474	11630.85
639.828	11704.52
640.181	11656.61
640.534	11669.5
640.888	11641.47
641.241	11582.94
641.594	11598.54
641.947	11602.6
642.301	11545.88
642.654	11655.03
643.007	11584.07
643.36	11577.07
643.713	11518.09
644.066	11599.44
644.419	11437.19
644.771	11434.25
645.124	11396.28
645.477	11395.38
645.83	11290.3
646.182	11242.39
646.535	11165.78
646.888	11227.02
647.24	11182.05
647.593	11229.96
647.945	11180.69
648.298	11179.79
648.65	11149.51
649.002	11132.11
649.355	11202.16
649.707	11156.51
650.059	11228.38
650.411	11264.53
650.763	11363.97
651.115	11456.62
651.467	11326
651.819	11425.89
652.171	11419.33
652.523	11373.23
652.875	11322.61
653.227	11347.92
653.578	11407.13
653.93	11377.3
654.282	11349.05
654.633	11351.76
654.985	11353.35
655.337	11392.89
655.688	11427.02
656.039	11501.36
656.391	11391.99
656.742	11442.83
657.094	11398.09
657.445	11370.07
657.796	11428.6
658.147	11363.97
658.498	11372.55
658.849	11404.64
659.2	11438.54
659.551	11380.24
659.902	11463.63
660.253	11398.09
660.604	11428.82
660.955	11450.74
661.306	11472.44
661.656	11395.6
662.007	11383.18
662.358	11461.82
662.708	11395.15
663.059	11498.65
663.409	11345.21
663.76	11456.39
664.11	11495.49
664.461	11483.29
664.811	11500.69
665.161	11502.04
665.511	11443.29
665.862	11413.91
666.212	11459.56
666.562	11523.06
666.912	11447.13
667.262	11400.12
667.612	11514.7
667.962	11458.65
668.312	11483.06
668.662	11527.35
669.011	11475.83
669.361	11474.47
669.711	11423.4
670.06	11475.83
670.41	11375.27
670.76	11418.88
671.109	11470.18
671.459	11408.49
671.808	11415.94
672.157	11448.71
672.507	11429.95
672.856	11417.98
673.205	11364.64
673.554	11323.74
673.904	11377.07
674.253	11378.66
674.602	11386.79
674.951	11235.83
675.3	11124.2
675.649	11381.82
675.998	11366
676.346	11327.81
676.695	11364.87
677.044	11199.9
677.393	11284.87
677.741	11289.39
678.09	11303.18
678.438	11217.08
678.787	11253.01
679.135	11206.91
679.484	11095.73
679.832	11132.79
680.181	11083.97
680.529	11074.48
680.877	11113.58
681.225	11102.73
681.573	11159.45
681.922	11014.6
682.27	11009.4
682.618	11056.4
682.966	10995.61
683.314	11040.81
683.661	10968.04
684.009	10882.85
684.357	10970.98
684.705	10861.16
685.053	10883.08
685.4	10907.93
685.748	10902.28
686.095	10876.75
686.443	10817.31
686.79	10756.07
687.138	10711.1
687.485	10786.81
687.832	10634.04
688.18	10733.93
688.527	10668.62
688.874	10552.46
689.221	10565.34
689.568	10537.32
689.915	10528.51
690.262	10491.22
690.609	10535.97
690.956	10431.34
691.303	10400.15
691.65	10366.25
691.997	10352.24
692.344	10221.62
692.69	10316.08
693.037	10303.43
693.383	10127.39
693.73	10254.84
694.077	10110.44
694.423	10156.09
694.769	10129.42
695.116	9963.1
695.462	10025.24
695.808	9984.34
696.155	10027.73
696.501	9859.6
696.847	9932.14
697.193	9782.31
697.539	9761.3
697.885	9731.02
698.231	9744.12
698.577	9700.28
698.923	9686.04
699.269	9700.96
699.614	9588.19
699.96	9561.53
700.306	9577.35
700.651	9511.81
700.997	9432.49
701.342	9496.67
701.688	9398.37
702.033	9399.5
702.379	9429.78
702.724	9335.55
703.069	9323.57
703.415	9292.16
703.76	9215.77
704.105	9244.93
704.45	9157.7
704.795	9064.82
705.14	9105.72
705.485	9021.43
705.83	9036.57
706.175	9053.97
706.52	8952.96
706.865	8971.49
707.209	8953.63
707.554	8918.61
707.899	8916.35
708.243	8897.14
708.588	8849.91
708.932	8804.71
709.277	8791.38
709.621	8717.26
709.966	8679.74
710.31	8712.74
710.654	8657.15
710.998	8721.1
711.342	8646.3
711.687	8618.73
712.031	8625.73
712.375	8581.22
712.719	8518.84
713.063	8513.19
713.407	8496.02
713.75	8566.07
714.094	8542.57
714.438	8448.34
714.782	8426.19
715.125	8381.45
715.469	8426.19
715.812	8400.43
716.156	8397.72
716.499	8346.64
716.843	8369.24
717.186	8310.26
717.53	8405.63
717.873	8350.26
718.216	8313.2
718.559	8306.19
718.902	8179.42
719.246	8273.88
719.589	8208.8
719.932	8219.19
720.275	8188.46
720.617	8268
720.96	8204.05
721.303	8199.53
721.646	8192.98
721.989	8081.12
722.331	8182.36
722.674	8139.42
723.016	8135.58
723.359	8127.44
723.701	8120.66
724.044	8076.37
724.386	8054.22
724.729	8120.44
725.071	8164.28
725.413	8078.18
725.755	8084.28
726.097	8073.21
726.439	8036.14
726.782	8013.55
727.124	8038.18
727.465	7989.59
727.807	7998.18
728.149	8018.52
728.491	8031.4
728.833	8020.55
729.175	7999.99
729.516	7929.48
729.858	7951.18
730.199	7997.5
730.541	8025.52
730.882	8012.42
731.224	7968.12
731.565	7959.31
731.906	8000.44
732.248	8002.47
732.589	7926.09
732.93	7978.29
733.271	7920.89
733.612	8022.36
733.953	7997.73
734.294	7879.99
734.635	7940.1
734.976	7966.09
735.317	7976.03
735.658	7949.14
735.999	7947.79
736.339	7932.42
736.68	7969.25
737.021	7967.67
737.361	7912.53
737.702	8010.16
738.042	8043.15
738.383	8019.65
738.723	8074.11
739.063	7939.65
739.404	8017.84
739.744	8086.31
740.084	8012.42
740.424	8079.53
740.764	8049.48
741.104	8067.33
741.444	7961.57
741.784	8057.16
742.124	8122.47
742.464	8062.81
742.804	8128.12
743.143	8152.75
743.483	8182.36
743.823	8109.14
744.162	8179.19
744.502	8195.24
744.841	8280.66
745.181	8354.55
745.52	8295.57
745.86	8337.15
746.199	8370.37
746.538	8370.15
746.877	8485.85
747.216	8550.48
747.556	8550.03
747.895	8665.96
748.234	8633.87
748.573	8731.04
748.911	8761.55
749.25	8836.58
749.589	8832.51
749.928	8895.78
750.267	9046.74
750.605	9045.84
750.944	9057.36
751.283	9210.35
751.621	9290.12
751.96	9318.6
752.298	9430.68
752.636	9540.74
752.975	9579.61
753.313	9622.09
753.651	9818.7
753.989	9875.19
754.327	10056.88
754.666	10064.34
755.004	10194.73
755.342	10341.39
755.679	10516.31
756.017	10526.25
756.355	10734.6
756.693	10761.72
757.031	10985.9
757.368	11040.81
757.706	11192.22
758.044	11325.55
758.381	11440.57
758.719	11603.06
759.056	11864.97
759.394	11940.67
759.731	11920.11
760.068	12210.72
760.405	12308.8
760.743	12457.95
761.08	12670.6
761.417	12836.47
761.754	13004.15
762.091	13109.68
762.428	13212.51
762.765	13385.38
763.102	13611.59
763.438	13699.95
763.775	13870.57
764.112	14121.41
764.449	14206.38
764.785	14404.56
765.122	14445.69
765.458	14525.24
765.795	14711.9
766.131	14988.28
766.467	15000.71
766.804	15223.07
767.14	15273.69
767.476	15386.91
767.812	15543.07
768.148	15720.01
768.485	15766.79
768.821	15763.17
769.157	15888.82
769.492	16070.51
769.828	16167.46
770.164	16235.48
770.5	16399.09
770.836	16510.72
771.171	16550.05
771.507	16749.14
771.842	16723.6
772.178	16864.61
772.513	16964.95
772.849	16959.98
773.184	17040.65
773.519	17165.62
773.855	17197.03
774.19	17225.96
774.525	17323.36
774.86	17425.95
775.195	17469.12
775.53	17517.7
775.865	17527.65
776.2	17480.42
776.535	17497.82
776.87	17608.77
777.205	17570.13
777.539	17605.61
777.874	17782.33
778.209	17653.29
778.543	17839.73
778.878	17706.17
779.212	17767.87
779.547	17698.26
779.881	17842.67
780.215	17783.23
780.55	17843.57
780.884	17816.68
781.218	17852.16
781.552	17950.01
781.886	17925.6
782.22	17875.21
782.554	17845.6
782.888	17866.85
783.222	17732.61
783.556	17753.86
783.889	17795.89
784.223	17693.52
784.557	17772.61
784.89	17835.89
785.224	17688.32
785.557	17597.93
785.891	17609.68
786.224	17638.83
786.558	17711.6
786.891	17570.36
787.224	17561.32
787.557	17606.97
787.891	17493.3
788.224	17526.74
788.557	17538.04
788.89	17555.67
789.223	17640.41
789.556	17461.89
789.888	17481.32
790.221	17412.62
790.554	17394.32
790.887	17390.93
791.219	17269.35
791.552	17234.77
791.884	17218.95
792.217	17221.67
792.549	17209.01
792.882	17082.46
793.214	16981.67
793.546	17100.54
793.879	16997.04
794.211	16941.67
794.543	17095.57
794.875	16962.24
795.207	16982.58
795.539	16811.73
795.871	16893.54
796.203	16744.16
796.535	16725.86
796.867	16713.66
797.198	16711.4
797.53	16605.41
797.862	16597.95
798.193	16630.72
798.525	16504.17
798.856	16509.14
799.188	16315.47
799.519	16415.36
799.85	16312.09
800.182	16354.57
800.513	16340.56
800.844	16115.48
801.175	16217.17
801.506	16258.08
801.837	16151.64
802.168	16115.48
802.499	16047.01
802.83	16009.27
803.161	16018.31
803.491	16009.49
803.822	16016.5
804.153	15922.94
804.483	15775.83
804.814	15755.94
805.145	15769.27
805.475	15761.37
805.805	15677.53
806.136	15760.01
806.466	15747.81
806.796	15611.76
807.126	15544.65
807.457	15436.4
807.787	15492.45
808.117	15454.71
808.447	15346.69
808.777	15462.16
809.107	15301.49
809.436	15251.77
809.766	15321.83
810.096	15253.13
810.426	15338.55
810.755	15202.51
811.085	15218.33
811.414	15229.63
811.744	15098.56
812.073	15107.37
812.403	14993.7
812.732	14932.23
813.061	15015.17
813.39	14884.55
813.719	14874.83
814.049	14899.92
814.378	14814.5
814.707	14858.56
815.036	14830.09
815.365	14778.11
815.693	14708.74
816.022	14729.75
816.351	14676.42
816.68	14622.64
817.008	14607.95
817.337	14476.65
817.665	14461.29
817.994	14544.45
818.322	14477.11
818.651	14426.03
818.979	14356.43
819.307	14438.01
819.636	14414.28
819.964	14397.11
820.292	14409.31
820.62	14340.84
820.948	14372.7
821.276	14405.24
821.604	14344.68
821.932	14342.87
822.259	14288.86
822.587	14306.94
822.915	14223.33
823.243	14282.76
823.57	14261.52
823.898	14268.98
824.225	14207.06
824.553	14314.4
824.88	14330.67
825.207	14300.16
825.535	14345.58
825.862	14318.92
826.189	14261.52
826.516	14306.94
826.843	14380.38
827.17	14432.36
827.497	14342.19
827.824	14391.01
828.151	14387.16
828.478	14368.63
828.805	14407.28
829.131	14421.51
829.458	14364.34
829.785	14245.47
830.111	14278.47
830.438	14422.64
830.764	14344.45
831.09	14346.94
831.417	14256.77
831.743	14303.55
832.069	14321.4
832.395	14206.83
832.722	14277.79
833.048	14224
833.374	14217.9
833.7	14107.62
834.026	14168.41
834.351	14201.41
834.677	14283.66
835.003	14242.76
835.329	14098.36
835.654	14200.28
835.98	14126.38
836.306	14158.47
836.631	14149.66
836.956	14088.87
837.282	14096.78
837.607	14071.69
837.932	14050.45
838.258	14032.6
838.583	14058.59
838.908	13926.84
839.233	14011.81
839.558	13942.2
839.883	13840.29
840.208	13838.25
840.533	13889.32
840.858	13863.11
841.182	13834.86
841.507	13778.59
841.832	13747.86
842.156	13678.26
842.481	13767.07
842.805	13607.75
843.13	13585.6
843.454	13713.28
843.778	13504.02
844.103	13480.52
844.427	13503.35
844.751	13417.47
845.075	13451.6
845.399	13425.83
845.723	13283.01
846.047	13399.39
846.371	13273.97
846.695	13277.36
847.019	13119.17
847.343	13162.34
847.666	13006.41
847.99	12909.46
848.313	13004.38
848.637	12889.35
848.96	12828.79
849.284	12839.41
849.607	12732.29
849.931	12689.13
850.254	12702.24
850.577	12536.37
850.9	12508.12
851.223	12478.29
851.546	12373.43
851.869	12411.85
852.192	12407.1
852.515	12304.28
852.838	12232.87
853.161	12232.42
853.483	12147.22
853.806	12185.87
854.129	12093.44
854.451	12055.93
854.774	11992.42
855.096	11969.6
855.419	11888.02
855.741	11902.71
856.063	11814.35
856.385	11867.91
856.708	11768.7
857.03	11704.75
857.352	11693.22
857.674	11658.87
857.996	11621.36
858.318	11531.87
858.64	11548.14
858.961	11655.48
859.283	11546.79
859.605	11459.33
859.926	11499.1
860.248	11473.57
860.57	11381.37
860.891	11378.88
861.212	11329.84
861.534	11226.12
861.855	11278.55
862.176	11243.74
862.498	11281.48
862.819	11304.99
863.14	11173.46
863.461	11111.09
863.782	11217.3
864.103	11132.33
864.424	11134.14
864.745	11082.39
865.065	11007.14
865.386	11030.42
865.707	11020.92
866.027	11027.03
866.348	11013.69
866.668	11001.26
866.989	11012.34
867.309	10895.73
867.63	10927.14
867.95	10904.32
868.27	10814.83
868.59	11003.07
868.91	10794.04
869.23	10837.65
869.55	10736.86
869.87	10820.48
870.19	10851.66
870.51	10852.79
870.83	10772.34
871.15	10689.63
871.469	10743.87
871.789	10757.65
872.109	10725.34
872.428	10618.45
872.748	10676.53
873.067	10655.74
873.386	10672.91
873.706	10569.19
874.025	10541.16
874.344	10547.27
874.663	10584.78
874.982	10520.15
875.301	10525.12
875.62	10445.12
875.939	10469.98
876.258	10515.85
876.577	10411.68
876.896	10401.96
877.214	10423.43
877.533	10418.23
877.852	10353.15
878.17	10304.79
878.489	10337.55
878.807	10370.32
879.125	10284.67
879.444	10272.24
879.762	10286.25
880.08	10208.29
880.398	10212.58
880.716	10260.04
881.034	10190.89
881.352	10189.31
881.67	10147.5
881.988	10171.46
882.306	10091.68
882.624	10066.37
882.941	10069.54
883.259	10026.83
883.577	10056.43
883.894	9959.03
884.212	9991.12
884.529	9987.51
884.846	9939.37
885.164	9969.88
885.481	9892.14
885.798	9882.88
886.115	9716.78
886.432	9795.87
886.75	9771.69
887.067	9822.31
887.383	9756.78
887.7	9718.36
888.017	9728.08
888.334	9703.67
888.651	9655.54
888.967	9631.58
889.284	9580.96
889.6	9620.51
889.917	9570.79
890.233	9543.22
890.55	9479.27
890.866	9514.3
891.182	9413.74
891.498	9421.64
891.815	9366.05
892.131	9306.62
892.447	9293.51
892.763	9350.46
893.079	9297.13
893.395	9262.33
893.71	9183.69
894.026	9173.97
894.342	9157.7
894.657	9099.17
894.973	9126.96
895.289	9016.68
895.604	9057.59
895.92	8969.68
896.235	8916.8
896.55	8917.7
896.865	8905.95
897.181	8933.07
897.496	8911.38
897.811	8813.07
898.126	8806.97
898.441	8747.31
898.756	8723.58
899.071	8644.49
899.386	8674.55
899.7	8600.88
900.015	8611.5
900.33	8506.64
900.644	8512.06
900.959	8548.45
901.273	8490.6
901.588	8454.66
901.902	8422.12
902.216	8305.97
902.531	8360.66
902.845	8290.6
903.159	8234.56
903.473	8251.51
903.787	8177.16
904.101	8177.16
904.415	8156.82
904.729	8114.11
905.042	8069.59
905.356	8019.42
905.67	7997.28
905.984	8019.2
906.297	8056.48
906.611	7943.27
906.924	7941.68
907.237	7912.98
907.551	7867.34
907.864	7815.81
908.177	7837.96
908.491	7732.42
908.804	7765.64
909.117	7675.25
909.43	7691.75
909.743	7602.71
910.056	7557.06
910.368	7619.21
910.681	7546.67
910.994	7501.02
911.307	7439.78
911.619	7430.74
911.932	7430.51
912.244	7351.42
912.557	7334.47
912.869	7362.49
913.181	7230.29
913.494	7249.95
913.806	7201.14
914.118	7233.23
914.43	7128.6
914.742	7155.94
915.054	7076.17
915.366	7097.19
915.678	7068.49
915.99	6990.75
916.302	6937.87
916.613	6920.92
916.925	6900.58
917.236	6908.26
917.548	6819.45
917.859	6855.61
918.171	6815.84
918.482	6802.05
918.794	6776.52
919.105	6808.38
919.416	6692.45
919.727	6656.52
920.038	6657.2
920.349	6632.34
920.66	6622.85
920.971	6565.67
921.282	6575.17
921.593	6545.11
921.903	6486.13
922.214	6459.46
922.525	6494.72
922.835	6440.71
923.146	6389.41
923.456	6421.05
923.767	6320.26
924.077	6334.72
924.387	6260.6
924.697	6250.2
925.008	6186.93
925.318	6224.89
925.628	6190.32
925.938	6209.98
926.248	6136.31
926.558	6057.21
926.867	6065.8
927.177	6076.42
927.487	5998.46
927.796	5963.2
928.106	5989.87
928.416	5932.7
928.725	5936.76
929.034	5943.54
929.344	5922.08
929.653	5870.1
929.962	5812.47
930.271	5842.3
930.581	5738.13
930.89	5795.75
931.199	5731.12
931.508	5733.38
931.817	5715.75
932.125	5696.77
932.434	5697
932.743	5625.81
933.051	5574.29
933.36	5612.93
933.669	5564.8
933.977	5551.01
934.286	5528.64
934.594	5471.24
934.902	5493.61
935.21	5472.37
935.519	5435.76
935.827	5398.7
936.135	5395.08
936.443	5337.23
936.751	5304.47
937.059	5312.37
937.367	5275.99
937.674	5255.65
937.982	5257.01
938.29	5287.97
938.597	5280.51
938.905	5181.08
939.213	5104.47
939.52	5130.46
939.827	5138.14
940.135	5092.49
940.442	5051.82
940.749	5105.37
941.056	5043.91
941.363	4976.79
941.67	5012.95
941.977	4988.77
942.284	4883.91
942.591	4959.16
942.898	4876.45
943.205	4951.03
943.511	4835.55
943.818	4861.54
944.125	4836.45
944.431	4810.92
944.738	4810.69
945.044	4712.62
945.35	4669.45
945.657	4644.6
945.963	4693.41
946.269	4664.48
946.575	4692.96
946.881	4649.79
947.187	4642.79
947.493	4585.16
947.799	4587.87
948.105	4537.03
948.41	4520.08
948.716	4501.77
949.022	4549.46
949.327	4529.8
949.633	4443.24
949.938	4427.88
950.244	4426.52
950.549	4445.28
950.854	4384.94
951.16	4348.33
951.465	4354.21
951.77	4314.66
952.075	4364.83
952.38	4292.74
952.685	4284.15
952.99	4236.92
953.294	4264.49
953.599	4203.7
953.904	4168.22
954.209	4155.34
954.513	4127.09
954.818	4134.78
955.122	4116.25
955.426	4094.33
955.731	4102.01
956.035	4120.09
956.339	4123.25
956.643	4058.85
956.948	3989.92
957.252	3992.64
957.556	4011.39
957.86	3939.98
958.163	3961
958.467	3931.17
958.771	3929.36
959.075	3916.48
959.378	3876.93
959.682	3854.56
959.985	3877.38
960.289	3842.36
960.592	3818.85
960.896	3759.42
961.199	3780.66
961.502	3788.12
961.805	3759.87
962.108	3724.17
962.411	3754.45
962.714	3680.78
963.017	3678.29
963.32	3714.22
963.623	3677.84
963.926	3665.19
964.228	3629.93
964.531	3598.97
964.833	3626.32
965.136	3574.57
965.438	3574.12
965.741	3518.07
966.043	3542.7
966.345	3522.14
966.648	3520.33
966.95	3508.13
967.252	3470.84
967.554	3404.85
967.856	3447.56
968.158	3430.62
968.46	3399.88
968.761	3389.94
969.063	3403.27
969.365	3364.18
969.666	3361.24
969.968	3343.84
970.269	3345.87
970.571	3303.16
970.872	3282.15
971.174	3291.18
971.475	3239.43
971.776	3217.97
972.077	3272.43
972.378	3216.61
972.679	3198.08
972.98	3268.81
973.281	3169.38
973.582	3170.51
973.883	3169.15
974.183	3177.74
974.484	3153.11
974.785	3125.09
975.085	3093
975.386	3145.65
975.686	3123.05
975.986	3066.33
976.287	3075.6
976.587	3022.72
976.887	3018.65
977.187	3048.48
977.487	3028.14
977.787	3000.34
978.087	2954.7
978.387	2948.37
978.687	2987.01
978.987	2941.82
979.286	2883.29
979.586	2893.68
979.885	2911.99
980.185	2883.74
980.484	2850.97
980.784	2864.98
981.083	2860.91
981.382	2849.16
981.682	2812.1
981.981	2841.48
982.28	2824.76
982.579	2781.59
982.878	2757.19
983.177	2768.49
983.475	2766.9
983.774	2729.62
984.073	2723.74
984.372	2708.15
984.67	2704.53
984.969	2707.25
985.267	2683.29
985.566	2675.61
985.864	2637.87
986.162	2630.86
986.461	2615.27
986.759	2617.98
987.057	2549.51
987.355	2546.57
987.653	2564.42
987.951	2542.05
988.249	2553.8
988.547	2552.45
988.844	2524.88
989.142	2552.67
989.44	2507.93
989.737	2494.82
990.035	2491.66
990.332	2471.55
990.63	2434.03
990.927	2450.75
991.224	2414.82
991.521	2438.33
991.819	2439.91
992.116	2404.65
992.413	2380.02
992.71	2394.26
993.006	2378.21
993.303	2356.75
993.6	2340.93
993.897	2339.57
994.193	2312.23
994.49	2266.58
994.787	2311.1
995.083	2310.42
995.379	2272.23
995.676	2244.43
995.972	2285.56
996.268	2278.33
996.565	2219.35
996.861	2223.64
997.157	2243.98
997.453	2219.12
997.749	2186.58
998.044	2184.77
998.34	2152.91
998.636	2156.3
998.932	2168.73
999.227	2164.66
999.523	2125.11
999.818	2128.28
1000.114	2095.51
1000.409	2102.52
1000.704	2065
1001	2056.87
1001.295	2079.24
1001.59	2058.45
1001.885	2028.39
1002.18	2027.04
1002.475	2036.75
1002.77	2006.25
1003.065	2012.57
1003.359	1975.74
1003.654	1995.17
1003.949	1978.22
1004.243	1926.02
1004.538	1928.28
1004.832	1941.16
1005.127	1916.08
1005.421	1913.59
1005.715	1907.04
1006.009	1897.1
1006.304	1811.9
1006.598	1866.36
1006.892	1856.87
1007.186	1851.45
1007.48	1827.72
1007.773	1816.42
1008.067	1795.63
1008.361	1792.24
1008.655	1799.7
1008.948	1787.72
1009.242	1783.65
1009.535	1761.96
1009.829	1758.8
1010.122	1713.82
1010.415	1753.37
1010.708	1727.61
1011.001	1713.15
1011.295	1693.26
1011.588	1682.41
1011.881	1658.23
1012.173	1661.85
1012.466	1671.11
1012.759	1681.06
1013.052	1625.01
1013.344	1617.33
1013.637	1628.4
1013.93	1625.24
1014.222	1590.44
1014.514	1603.09
1014.807	1597.67
1015.099	1564.9
1015.391	1567.84
1015.683	1564.45
1015.976	1567.84
1016.268	1562.19
1016.56	1531.23
1016.851	1529.65
1017.143	1501.63
1017.435	1503.66
1017.727	1478.12
1018.018	1476.77
1018.31	1484.68
1018.602	1442.19
1018.893	1466.37
1019.185	1444
1019.476	1454.4
1019.767	1451.91
1020.058	1432.7
1020.35	1415.08
1020.641	1400.61
1020.932	1414.85
1021.223	1370.11
1021.514	1389.77
1021.804	1357.45
1022.095	1351.35
1022.386	1329.2
1022.677	1351.8
1022.967	1296.66
1023.258	1313.38
1023.548	1318.58
1023.839	1300.95
1024.129	1313.61
1024.419	1281.52
1024.709	1258.92
1025	1259.15
1025.29	1267.06
1025.58	1274.29
1025.87	1263.44
1026.16	1249.88
1026.449	1221.41
1026.739	1230.9
1027.029	1232.93
1027.319	1199.04
1027.608	1169.21
1027.898	1178.92
1028.187	1192.48
1028.477	1190.45
1028.766	1181.18
1029.055	1168.3
1029.344	1164.01
1029.634	1124.69
1029.923	1144.35
1030.212	1126.27
1030.501	1090.11
1030.79	1108.42
1031.078	1118.36
1031.367	1100.96
1031.656	1077.68
1031.945	1100.28
1032.233	1073.39
1032.522	1072.26
1032.81	1077.23
1033.099	1036.1
1033.387	1053.05
1033.675	1071.13
1033.963	1045.82
1034.251	1069.32
1034.54	1047.63
1034.828	1031.58
1035.116	985.93
1035.403	1025.48
1035.691	1011.02
1035.979	983.67
1036.267	991.36
1036.554	978.48
1036.842	984.8
1037.129	994.3
1037.417	950.91
1037.704	956.1
1037.992	937.57
1038.279	938.93
1038.566	947.52
1038.853	947.52
1039.14	947.52
