Data from hue_10_FLMS001491_8.txt Node
Date: Mon Feb 06 15:31:19 GMT 2017
User: dcchb
Spectrometer: FLMS00149
Trigger mode: 0
Integration Time (sec): 2.000000E-2
Scans to average: 10
Electric dark correction enabled: true
Nonlinearity correction enabled: false
Boxcar width: 0
XAxis mode: Wavelengths
Number of Pixels in Spectrum: 2048
>>>>>Begin Spectral Data<<<<<
341.393	-3.39
341.776	-3.39
342.16	-3.39
342.543	-61.92
342.927	-64.63
343.31	-54.24
343.693	-78.19
344.077	-65.54
344.46	-52.43
344.843	-47.23
345.226	-49.49
345.61	-40.9
345.993	-22.6
346.376	-11.98
346.759	5.88
347.142	28.93
347.525	28.02
347.908	73.67
348.291	92.43
348.674	83.61
349.057	110.05
349.44	117.51
349.823	126.32
350.206	167.45
350.588	175.14
350.971	209.71
351.354	216.04
351.737	249.71
352.119	253.33
352.502	264.63
352.884	285.42
353.267	255.36
353.65	304.17
354.032	296.49
354.414	301.46
354.797	307.11
355.179	323.16
355.562	331.52
355.944	322.7
356.326	349.14
356.709	328.58
357.091	359.99
357.473	327.68
357.855	349.82
358.238	324.96
358.62	331.52
359.002	352.99
359.384	334.91
359.766	341.23
360.148	353.66
360.53	337.17
360.912	334.45
361.294	337.84
361.676	316.38
362.057	350.27
362.439	316.83
362.821	319.31
363.203	319.54
363.584	327
363.966	336.26
364.348	324.06
364.729	315.92
365.111	313.66
365.493	311.86
365.874	310.5
366.256	301.24
366.637	308.24
367.019	310.05
367.4	316.6
367.781	311.63
368.163	312.76
368.544	315.47
368.925	301.69
369.306	313.89
369.688	314.79
370.069	321.12
370.45	316.6
370.831	318.18
371.212	315.92
371.593	289.94
371.974	298.75
372.355	297.39
372.736	293.55
373.117	322.25
373.498	308.92
373.879	309.82
374.26	308.01
374.641	303.27
375.021	311.18
375.402	312.99
375.783	313.44
376.163	332.65
376.544	313.44
376.925	333.55
377.305	335.13
377.686	330.39
378.066	308.69
378.447	300.78
378.827	329.26
379.208	314.12
379.588	333.1
379.968	328.8
380.349	319.77
380.729	318.41
381.109	340.56
381.489	339.2
381.87	314.12
382.25	352.31
382.63	327.67
383.01	346.21
383.39	340.56
383.77	336.49
384.15	340.33
384.53	343.95
384.91	351.4
385.29	326.32
385.67	336.71
386.049	367
386.429	327.45
386.809	337.39
387.189	338.97
387.568	344.17
387.948	331.29
388.328	348.69
388.707	353.44
389.087	356.6
389.466	363.61
389.846	355.02
390.225	344.85
390.605	339.2
390.984	358.86
391.363	373.55
391.743	343.72
392.122	353.89
392.501	362.25
392.881	358.41
393.26	361.8
393.639	382.14
394.018	367.22
394.397	359.76
394.776	377.39
395.155	366.09
395.534	355.02
395.913	376.26
396.292	383.72
396.671	386.43
397.05	372.87
397.429	385.75
397.808	365.87
398.186	387.33
398.565	369.03
398.944	380.78
399.323	383.72
399.701	379.2
400.08	378.97
400.458	370.39
400.837	369.48
401.215	386.88
401.594	383.27
401.972	410.61
402.351	398.63
402.729	386.88
403.107	398.18
403.486	391.85
403.864	394.11
404.242	395.47
404.62	400.22
404.999	387.33
405.377	404.96
405.755	399.99
406.133	406.32
406.511	411.97
406.889	397.5
407.267	422.81
407.645	435.92
408.023	420.78
408.401	421.46
408.779	395.92
409.156	424.85
409.534	443.38
409.912	426.66
410.29	432.76
410.667	420.1
411.045	439.54
411.422	423.94
411.8	440.44
412.178	442.25
412.555	439.99
412.933	436.6
413.31	440.89
413.687	434.11
414.065	455.58
414.442	457.16
414.819	466.43
415.197	481.34
415.574	462.81
415.951	472.53
416.328	463.26
416.705	463.94
417.082	444.73
417.46	470.27
417.837	470.95
418.214	477.05
418.591	489.93
418.967	497.16
419.344	470.04
419.721	500.78
420.098	474.34
420.475	482.47
420.852	479.08
421.228	497.16
421.605	496.94
421.982	509.59
422.358	504.62
422.735	488.35
423.111	516.6
423.488	500.1
423.864	502.59
424.241	510.27
424.617	502.81
424.994	528.35
425.37	537.84
425.746	508.46
426.123	551.4
426.499	547.78
426.875	534.68
427.251	529.48
427.627	538.29
428.003	536.26
428.379	529.25
428.756	574
429.132	571.51
429.507	556.37
429.883	572.87
430.259	574.45
430.635	579.42
431.011	562.02
431.387	590.72
431.763	585.07
432.138	603.37
432.514	598.18
432.89	621.68
433.265	612.64
433.641	632.07
434.016	610.61
434.392	638.85
434.767	624.39
435.143	646.99
435.518	624.62
435.894	618.97
436.269	627.78
436.644	625.07
437.02	648.8
437.395	664.16
437.77	635.24
438.145	685.63
438.52	678.4
438.895	658.74
439.271	669.13
439.646	678.17
440.021	677.04
440.395	722.24
440.77	691.06
441.145	684.5
441.52	678.4
441.895	666.88
442.27	702.81
442.645	713.88
443.019	734.22
443.394	709.13
443.769	721.79
444.143	702.58
444.518	725.86
444.892	700.32
445.267	730.15
445.641	724.5
446.016	728.12
446.39	710.49
446.764	765.63
447.139	752.3
447.513	762.47
447.887	750.26
448.262	771.51
448.636	754.33
449.01	765.18
449.384	762.92
449.758	791.17
450.132	771.51
450.506	813.09
450.88	781.9
451.254	811.96
451.628	794.78
452.002	803.14
452.376	799.3
452.75	808.79
453.123	809.02
453.497	857.6
453.871	853.08
454.244	820.32
454.618	847.44
454.992	838.62
455.365	851.95
455.739	885.63
456.112	859.86
456.486	882.24
456.859	883.37
457.232	905.06
457.606	903.71
457.979	902.12
458.352	925.85
458.725	925.85
459.099	926.53
459.472	940.54
459.845	944.16
460.218	974.66
460.591	970.6
460.964	989.13
461.337	949.81
461.71	976.92
462.083	1010.82
462.456	1008.11
462.829	1030.03
463.201	1024.83
463.574	1023.02
463.947	1036.36
464.32	1077.26
464.692	1072.29
465.065	1092.17
465.438	1110.71
465.81	1100.54
466.183	1125.85
466.555	1148.22
466.928	1125.62
467.3	1142.79
467.672	1188.67
468.045	1190.48
468.417	1172.85
468.789	1184.6
469.161	1210.36
469.534	1248.1
469.906	1257.59
470.278	1271.15
470.65	1270.7
471.022	1287.2
471.394	1290.59
471.766	1325.84
472.138	1356.57
472.51	1370.13
472.882	1426.18
473.253	1393.86
473.625	1440.64
473.997	1446.29
474.369	1476.12
474.74	1467.76
475.112	1491.03
475.484	1516.8
475.855	1577.81
476.227	1586.4
476.598	1607.64
476.97	1632.27
477.341	1638.6
477.713	1693.06
478.084	1694.87
478.455	1714.76
478.827	1750.24
479.198	1776.68
479.569	1850.57
479.94	1847.86
480.311	1858.48
480.682	1915.2
481.053	1949.1
481.424	1978.71
481.795	2019.61
482.166	2052.38
482.537	2073.84
482.908	2153.84
483.279	2137.12
483.65	2200.39
484.021	2237.68
484.391	2245.14
484.762	2279.49
485.133	2315.87
485.503	2354.29
485.874	2379.37
486.244	2416.66
486.615	2473.61
486.985	2493.49
487.356	2559.71
487.726	2586.15
488.097	2664.56
488.467	2672.25
488.837	2716.99
489.207	2747.27
489.578	2793.82
489.948	2811.9
490.318	2843.77
490.688	2895.74
491.058	2931.22
491.428	2937.32
491.798	2969.64
492.168	3050.77
492.538	3095.74
492.908	3133.7
493.278	3180.26
493.648	3182.74
494.017	3276.07
494.387	3266.13
494.757	3260.71
495.126	3284.89
495.496	3342.74
495.866	3402.62
496.235	3470.19
496.605	3413.47
496.974	3471.55
497.344	3524.65
497.713	3568.04
498.082	3559.45
498.452	3613.92
498.821	3650.53
499.19	3621.37
499.559	3654.82
499.928	3674.03
500.298	3704.31
500.667	3748.15
501.036	3766
501.405	3798.77
501.774	3778.88
502.143	3850.97
502.512	3831.99
502.88	3878.32
503.249	3899.11
503.618	3906.79
503.987	3949.05
504.356	3987.92
504.724	3996.73
505.093	3999.89
505.462	4045.09
505.83	4020.46
506.199	4099.78
506.567	4095.26
506.936	4129.61
507.304	4163.28
507.672	4196.05
508.041	4181.81
508.409	4221.81
508.777	4191.98
509.145	4269.27
509.514	4285.76
509.882	4323.28
510.25	4272.2
510.618	4356.95
510.986	4328.7
511.354	4406.21
511.722	4419.77
512.09	4475.81
512.458	4411.64
512.826	4434.01
513.193	4476.27
513.561	4527.79
513.929	4514.68
514.297	4521.69
514.664	4593.1
515.032	4616.38
515.4	4585.64
515.767	4606.21
516.135	4648.47
516.502	4641.69
516.869	4701.57
517.237	4693.66
517.604	4725.75
517.972	4782.25
518.339	4717.16
518.706	4800.78
519.073	4795.13
519.44	4802.13
519.808	4830.83
520.175	4808.91
520.542	4844.39
520.909	4885.3
521.276	4838.97
521.643	4921.23
522.009	4963.03
522.376	4947.21
522.743	5045.29
523.11	4998.06
523.477	5037.61
523.843	5122.8
524.21	5132.29
524.577	5142.24
524.943	5185.17
525.31	5158.96
525.676	5284.15
526.043	5277.15
526.409	5313.98
526.776	5321.22
527.142	5365.28
527.508	5344.72
527.874	5402.34
528.241	5429.91
528.607	5438.95
528.973	5473.3
529.339	5454.77
529.705	5492.96
530.071	5535.9
530.437	5570.02
530.803	5633.75
531.169	5657.7
531.535	5615.45
531.901	5679.85
532.267	5628.55
532.632	5713.3
532.998	5677.82
533.364	5768.21
533.73	5791.71
534.095	5842.11
534.461	5885.72
534.826	5869.45
535.192	5930.92
535.557	5939.5
535.923	5994.42
536.288	5989.22
536.653	6016.11
537.019	5994.19
537.384	6036.23
537.749	6106.96
538.114	6073.06
538.479	6126.17
538.845	6094.76
539.21	6132.72
539.575	6150.35
539.94	6212.04
540.305	6200.06
540.67	6226.73
541.034	6255.65
541.399	6265.82
541.764	6330.68
542.129	6335.2
542.494	6287.52
542.858	6391.02
543.223	6386.27
543.587	6407.74
543.952	6419.72
544.316	6456.1
544.681	6462.2
545.045	6543.56
545.41	6568.19
545.774	6592.14
546.138	6587.4
546.503	6640.5
546.867	6643.22
547.231	6671.24
547.595	6673.27
547.959	6723.89
548.324	6727.28
548.688	6762.99
549.052	6844.11
549.416	6842.31
549.779	6822.19
550.143	6917.56
550.507	6871.01
550.871	6904.68
551.235	6900.84
551.599	6979.93
551.962	6947.61
552.326	7014.96
552.689	7111.68
553.053	7106.48
553.417	7089.76
553.78	7139.25
554.143	7079.81
554.507	7186.93
554.87	7118.68
555.234	7262.63
555.597	7183.99
555.96	7210.66
556.323	7352.8
556.686	7309.64
557.05	7335.63
557.413	7376.08
557.776	7319.81
558.139	7382.86
558.502	7337.66
558.865	7461.95
559.228	7433.7
559.59	7492.91
559.953	7471.22
560.316	7547.37
560.679	7537.88
561.041	7568.61
561.404	7616.07
561.767	7659.69
562.129	7605.9
562.492	7693.58
562.854	7684.77
563.217	7728.61
563.579	7758.44
563.941	7817.2
564.304	7823.98
564.666	7808.38
565.028	7944.2
565.39	7865.56
565.753	7891.32
566.115	7969.06
566.477	7965.67
566.839	7985.33
567.201	8042.27
567.563	8068.49
567.925	8129.96
568.287	8135.83
568.648	8217.64
569.01	8233
569.372	8245.88
569.734	8221.25
570.095	8283.62
570.457	8389.38
570.819	8392.1
571.18	8388.93
571.542	8508.7
571.903	8526.56
572.265	8566.78
572.626	8583.28
572.987	8640
573.349	8619.21
573.71	8697.17
574.071	8714.12
574.432	8790.73
574.794	8856.49
575.155	8872.31
575.516	8938.52
575.877	9022.81
576.238	9025.07
576.599	9091.06
576.96	9163.37
577.32	9199.31
577.681	9342.35
578.042	9366.31
578.403	9405.85
578.763	9566.08
579.124	9635.23
579.485	9686.75
579.845	9825.28
580.206	9850.59
580.566	9976.46
580.927	10070.47
581.287	10156.8
581.648	10294.19
582.008	10401.76
582.368	10505.49
582.728	10632.94
583.089	10777.34
583.449	10926.04
583.809	11076.54
584.169	11246.48
584.529	11313.15
584.889	11516.31
585.249	11672.91
585.609	11815.06
585.969	12024.77
586.329	12217.31
586.688	12441.48
587.048	12588.82
587.408	12789.27
587.768	12970.96
588.127	13233.1
588.487	13447.1
588.846	13713.54
589.206	13814.78
589.565	14036.92
589.925	14368.21
590.284	14501.31
590.643	14838.93
591.003	15160.96
591.362	15390.33
591.721	15596.88
592.08	15844.33
592.44	16131.1
592.799	16387.14
593.158	16680.69
593.517	16911.65
593.876	17233.67
594.235	17397.96
594.593	17705.52
594.952	18096.93
595.311	18260.31
595.67	18615.1
596.029	19027.3
596.387	19237.46
596.746	19522.42
597.104	19730.33
597.463	19996.08
597.822	20401.27
598.18	20542.96
598.538	20903.41
598.897	21213.68
599.255	21407.12
599.613	21941.34
599.972	22063.37
600.33	22462.91
600.688	22561.67
601.046	22897.03
601.404	23252.04
601.762	23572.04
602.12	23855.42
602.478	24110.1
602.836	24419.47
603.194	24546.02
603.552	24846.8
603.91	25080.92
604.268	25335.15
604.625	25716.84
604.983	25991.63
605.341	26086.09
605.698	26458.51
606.056	26682.91
606.413	27028.44
606.771	27399.05
607.128	27581.87
607.485	27560.41
607.843	27856.22
608.2	28263.44
608.557	28571.9
608.914	28772.58
609.272	28981.61
609.629	29256.18
609.986	29542.73
610.343	29572.1
610.7	30153.11
611.057	30258.41
611.414	30436.49
611.771	30578.18
612.127	30957.6
612.484	31050.26
612.841	31252.74
613.198	31293.19
613.554	31492.73
613.911	31855.89
614.267	32008.42
614.624	32032.38
614.98	32344.23
615.337	32634.85
615.693	32623.32
616.05	32885.69
616.406	33270.31
616.762	33082.07
617.118	33375.62
617.475	33389.18
617.831	33701.03
618.187	33937.64
618.543	33953.01
618.899	34223.28
619.255	34409.04
619.611	34530.17
619.967	34556.15
620.323	34792.98
620.678	34720.89
621.034	34928.35
621.39	35009.93
621.746	34978.52
622.101	35534.88
622.457	35408.11
622.812	35592.74
623.168	35687.42
623.523	35666.86
623.879	35933.74
624.234	35750.25
624.589	35990.24
624.945	36142.55
625.3	36241.53
625.655	36253.51
626.01	36399.49
626.365	36540.51
626.72	36446.05
627.075	36515.42
627.43	36577.8
627.785	36477.23
628.14	36741.18
628.495	36801.97
628.85	36720.84
629.205	36624.8
629.559	37030.21
629.914	36936.66
630.269	37019.82
630.623	36928.52
630.978	36908.86
631.332	37161.06
631.687	37258.68
632.041	37093.04
632.396	37216.2
632.75	37099.82
633.104	37249.87
633.459	37197.67
633.813	37260.49
634.167	37222.98
634.521	37176.65
634.875	37290.77
635.229	37270.88
635.583	37144.56
635.937	37383.88
636.291	37224.56
636.645	37257.55
636.999	37224.78
637.352	37390.43
637.706	37262.3
638.06	37421.16
638.413	37425.23
638.767	37337.78
639.121	37326.02
639.474	37055.75
639.828	37158.35
640.181	37291.9
640.534	37231.11
640.888	37264.78
641.241	37051
641.594	37113.15
641.947	37260.94
642.301	37194.5
642.654	37172.13
643.007	37209.19
643.36	37167.61
643.713	37136.42
644.066	37262.75
644.419	37054.62
644.771	36804.23
645.124	36514.52
645.477	36516.1
645.83	36282.89
646.182	36145.72
646.535	36063.46
646.888	36326.28
647.24	36088.99
647.593	36136.68
647.945	36187.98
648.298	35850.13
648.65	35863.01
649.002	35854.65
649.355	36106.85
649.707	36082.67
650.059	36181.2
650.411	36632.26
650.763	36551.81
651.115	36966.71
651.467	36767.17
651.819	36850.56
652.171	36782.08
652.523	36662.76
652.875	36822.53
653.227	36500.74
653.578	36869.99
653.93	36743.21
654.282	36600.17
654.633	36498.7
654.985	36620.51
655.337	36624.8
655.688	36594.97
656.039	36652.6
656.391	36415.77
656.742	36460.06
657.094	36630.68
657.445	36629.32
657.796	36518.36
658.147	36543.22
658.498	36589.55
658.849	36629.32
659.2	36504.35
659.551	36453.5
659.902	36602.43
660.253	36458.02
660.604	36491.02
660.955	36297.35
661.306	36571.69
661.656	36359.72
662.007	36350.91
662.358	36302.77
662.708	36442.43
663.059	36281.53
663.409	36261.87
663.76	36320.17
664.11	36307.29
664.461	36348.87
664.811	36326.28
665.161	36379.16
665.511	36338.25
665.862	36247.63
666.212	36448.08
666.562	36481.75
666.912	36539.83
667.262	36266.84
667.612	36305.03
667.962	36385.94
668.312	36190.91
668.662	36585.48
669.011	36226.39
669.361	36321.76
669.711	36277.01
670.06	36148.43
670.41	36178.71
670.76	36048.77
671.109	36263
671.459	36192.49
671.808	36134.87
672.157	36303.23
672.507	36042.44
672.856	36031.37
673.205	36031.59
673.554	36289.89
673.904	36131.03
674.253	36194.75
674.602	36107.98
674.951	35641.77
675.3	35331.73
675.649	35952.05
675.998	35979.84
676.346	35988.66
676.695	36011.93
677.044	35827.31
677.393	35937.59
677.741	35993.18
678.09	35810.58
678.438	35747.08
678.787	35972.84
679.135	35563.81
679.484	35619.85
679.832	35724.94
680.181	35672.96
680.529	35630.02
680.877	35563.13
681.225	35447.2
681.573	35732.39
681.922	35477.71
682.27	35275
682.618	35401.1
682.966	35303.48
683.314	35280.2
683.661	35328.56
684.009	35109.59
684.357	35211.28
684.705	34868.69
685.053	34981.45
685.4	35000.21
685.748	34764.96
686.095	34705.08
686.443	34575.14
686.79	34589.15
687.138	34752.08
687.485	34627.34
687.832	34682.93
688.18	34545.08
688.527	34441.81
688.874	34373.79
689.221	34357.06
689.568	34233.9
689.915	34204.52
690.262	34159.78
690.609	34042.04
690.956	33951.65
691.303	33854.03
691.65	33632.79
691.997	33748.27
692.344	33419.23
692.69	33547.14
693.037	33668.49
693.383	33085.68
693.73	33427.37
694.077	33202.29
694.423	33134.27
694.769	33066.48
695.116	33002.97
695.462	32907.61
695.808	32831
696.155	32826.26
696.501	32493.38
696.847	32741.51
697.193	32407.06
697.539	32608.41
697.885	32402.76
698.231	32204.8
698.577	32170.45
698.923	32282.54
699.269	32083.22
699.614	31878.71
699.96	31882.33
700.306	31869.9
700.651	31699.96
700.997	31706.96
701.342	31619.28
701.688	31600.98
702.033	31473.97
702.379	31591.49
702.724	31398.27
703.069	31426.07
703.415	31080.54
703.76	31084.15
704.105	31091.61
704.45	31088.67
704.795	30805.52
705.14	30761.68
705.485	30675.8
705.83	30519.88
706.175	30688.68
706.52	30527.78
706.865	30361.91
707.209	30422.7
707.554	30237.4
707.899	30319.43
708.243	30283.05
708.588	30188.81
708.932	29926.9
709.277	29974.58
709.621	29997.4
709.966	29727.13
710.31	29983.39
710.654	29647.36
710.998	29545.44
711.342	29685.32
711.687	29503.63
712.031	29329.62
712.375	29357.87
712.719	29363.07
713.063	29212.34
713.407	29316.97
713.75	29225.45
714.094	29219.12
714.438	28979.13
714.782	29085.79
715.125	28927.6
715.469	29016.86
715.812	28836.08
716.156	28691.67
716.499	28598.12
716.843	28684.9
717.186	28435.86
717.53	28704.1
717.873	28680.83
718.216	28545.24
718.559	28365.58
718.902	28183.67
719.246	28404
719.589	28193.16
719.932	28140.28
720.275	28131.46
720.617	28045.82
720.96	28050.79
721.303	28033.16
721.646	27997.68
721.989	27823
722.331	27846.73
722.674	27847.18
723.016	27931.92
723.359	27870.91
723.701	27668.65
724.044	27555.43
724.386	27475.89
724.729	27550.69
725.071	27547.75
725.413	27521.31
725.755	27519.05
726.097	27463.46
726.439	27276.34
726.782	27278.83
727.124	27322.67
727.465	27178.27
727.807	27209
728.149	27103.69
728.491	27088.78
728.833	27033.87
729.175	26979.63
729.516	26873.64
729.858	26880.65
730.199	27025.96
730.541	26955.9
730.882	26826.87
731.224	26923.81
731.565	26697.83
731.906	26647.21
732.248	26780.99
732.589	26575.35
732.93	26525.4
733.271	26583.48
733.612	26462.13
733.953	26571.73
734.294	26275.92
734.635	26359.08
734.976	26413.09
735.317	26300.33
735.658	26260.1
735.999	26217.84
736.339	26218.97
736.68	26205.41
737.021	26150.95
737.361	26051.97
737.702	26174.23
738.042	26016.27
738.383	26041.58
738.723	26047.45
739.063	25898.3
739.404	25893.56
739.744	25880.68
740.084	25849.94
740.424	25826.67
740.764	25748.25
741.104	25825.76
741.444	25767.01
741.784	25626.44
742.124	25677.29
742.464	25588.25
742.804	25615.82
743.143	25519.55
743.483	25574.69
743.823	25372.67
744.162	25411.99
744.502	25435.49
744.841	25353.46
745.181	25388.48
745.52	25197.76
745.86	25160.24
746.199	25200.24
746.538	25252.44
746.877	25250.86
747.216	25051.32
747.556	25033.69
747.895	25102.84
748.234	25023.3
748.573	24930.87
748.911	24883.19
749.25	24902.4
749.589	24773.13
749.928	24819.23
750.267	24821.95
750.605	24674.83
750.944	24621.05
751.283	24556.42
751.621	24653.14
751.96	24497.66
752.298	24503.76
752.636	24523.42
752.975	24423.54
753.313	24306.71
753.651	24375.86
753.989	24354.84
754.327	24403.43
754.666	24096.99
755.004	24276.2
755.342	24214.96
755.679	24185.8
756.017	23946.94
756.355	24106.26
756.693	23985.36
757.031	23947.17
757.368	23806.83
757.706	23828.75
758.044	23743.56
758.381	23656.78
758.719	23677.57
759.056	23677.8
759.394	23572.94
759.731	23425.37
760.068	23449.1
760.405	23301.76
760.743	23275.55
761.08	23353.51
761.417	23080.3
761.754	23167.98
762.091	23096.57
762.428	22987.64
762.765	22866.07
763.102	22920.98
763.438	22809.34
763.775	22667.43
764.112	22671.95
764.449	22695.9
764.785	22567.99
765.122	22421.56
765.458	22353.76
765.795	22364.38
766.131	22241.68
766.467	22158.51
766.804	22183.82
767.14	21947.67
767.476	22058.86
767.812	21867.22
768.148	21870.61
768.485	21851.63
768.821	21664.74
769.157	21624.52
769.492	21573.67
769.828	21564.4
770.164	21435.59
770.5	21327.8
770.836	21399.21
771.171	21164.19
771.507	21161.7
771.842	20883.29
772.178	20978.66
772.513	20963.74
772.849	20882.39
773.184	20802.62
773.519	20777.98
773.855	20616.63
774.19	20570.76
774.525	20540.93
774.86	20515.62
775.195	20441.04
775.53	20402.63
775.865	20191.11
776.2	20057.55
776.535	19907.73
776.87	19995.63
777.205	19884.45
777.539	19863.66
777.874	19879.48
778.209	19611.24
778.543	19693.04
778.878	19613.5
779.212	19456.66
779.547	19436.78
779.881	19530.56
780.215	19262.54
780.55	19354.97
780.884	19215.99
781.218	19067.75
781.552	19232.26
781.886	19025.49
782.22	18970.35
782.554	18859.84
782.888	18762.67
783.222	18639.28
783.556	18545.95
783.889	18500.98
784.223	18503.92
784.557	18422.34
784.89	18374.21
785.224	18230.26
785.557	18095.34
785.891	18163.59
786.224	18113.87
786.558	18006.53
786.891	18017.83
787.224	17929.02
787.557	17788.01
787.891	17804.5
788.224	17779.65
788.557	17783.26
788.89	17705.75
789.223	17622.14
789.556	17508.24
789.888	17488.13
790.221	17418.3
790.554	17265.53
790.887	17301.24
791.219	17224.18
791.552	17153
791.884	17061.25
792.217	16973.56
792.549	17026.44
792.882	16878.2
793.214	16763.18
793.546	16774.7
793.879	16753.01
794.211	16551.43
794.543	16651.54
794.875	16525.22
795.207	16564.31
795.539	16443.86
795.871	16471.88
796.203	16314.15
796.535	16245.9
796.867	16212
797.198	16051.1
797.53	16139.91
797.862	16068.96
798.193	16104.89
798.525	16028.51
798.856	16049.07
799.188	15793.71
799.519	15762.3
799.85	15624.67
800.182	15728.63
800.513	15716.65
800.844	15525.24
801.175	15654.5
801.506	15597.78
801.837	15558.91
802.168	15427.62
802.499	15489.76
802.83	15370.44
803.161	15234.18
803.491	15211.8
803.822	15247.73
804.153	15125.25
804.483	15003.22
804.814	15007.97
805.145	14960.06
805.475	15021.3
805.805	14904.01
806.136	14868.99
806.466	14824.92
806.796	14819.72
807.126	14739.27
807.457	14655.66
807.787	14699.95
808.117	14590.58
808.447	14560.75
808.777	14615.43
809.107	14468.77
809.436	14485.72
809.766	14537.7
810.096	14380.86
810.426	14389.9
810.755	14376.35
811.085	14304.26
811.414	14185.62
811.744	14131.15
812.073	14118.95
812.403	14123.92
812.732	14040.08
813.061	14037.37
813.39	14003.25
813.719	13930.93
814.049	14034.89
814.378	13921.22
814.707	13952.63
815.036	13854.32
815.365	13836.25
815.693	13702.46
816.022	13725.06
816.351	13626.76
816.68	13545.18
817.008	13618.4
817.337	13415.69
817.665	13484.62
817.994	13513.99
818.322	13466.76
818.651	13456.6
818.979	13381.8
819.307	13405.07
819.636	13473.09
819.964	13283.72
820.292	13323.94
820.62	13333.21
820.948	13243.95
821.276	13261.57
821.604	13231.29
821.932	13258.63
822.259	13274.68
822.587	13282.59
822.915	13187
823.243	13236.49
823.57	13222.25
823.898	13245.98
824.225	13203.49
824.553	13209.37
824.88	13205.75
825.207	13264.51
825.535	13175.02
825.862	13198.07
826.189	13173.44
826.516	13154.91
826.843	13267
827.17	13205.3
827.497	13213.21
827.824	13186.09
828.151	13271.74
828.478	13187.22
828.805	13243.95
829.131	13002.6
829.458	13072.88
829.785	12995.36
830.111	13115.14
830.438	13105.64
830.764	13084.4
831.09	13193.78
831.417	13079.66
831.743	13125.53
832.069	13028.13
832.395	13081.92
832.722	13041.69
833.048	12982.94
833.374	13044.18
833.7	12961.92
834.026	13061.8
834.351	12977.74
834.677	12934.58
835.003	13012.31
835.329	13044.4
835.654	12929.38
835.98	12799.44
836.306	12872.88
836.631	12882.15
836.956	12904.29
837.282	12898.42
837.607	12861.13
837.932	12753.34
838.258	12846.89
838.583	12784.3
838.908	12723.06
839.233	12767.12
839.558	12739.78
839.883	12667.24
840.208	12652.1
840.533	12585.88
840.858	12731.87
841.182	12623.4
841.507	12591.53
841.832	12504.98
842.156	12514.47
842.481	12499.11
842.805	12406
843.13	12406.68
843.454	12422.27
843.778	12390.18
844.103	12347.47
844.427	12227.48
844.751	12204.42
845.075	12262.95
845.399	12177.08
845.723	12157.19
846.047	12142.28
846.371	12060.25
846.695	12068.84
847.019	12009.18
847.343	11923.75
847.666	11830.65
847.99	11863.42
848.313	11828.39
848.637	11696.42
848.96	11746.81
849.284	11693.03
849.607	11575.29
849.931	11641.5
850.254	11473.6
850.577	11423.65
850.9	11333.71
851.223	11382.07
851.546	11279.03
851.869	11146.15
852.192	11270.44
852.515	11183.89
852.838	11114.74
853.161	11183.66
853.483	11077.22
853.806	11018.47
854.129	10992.71
854.451	10956.32
854.774	10941.41
855.096	10871.58
855.419	10894.85
855.741	10852.82
856.063	10729.44
856.385	10705.26
856.708	10688.76
857.03	10689.21
857.352	10714.75
857.674	10685.82
857.996	10592.94
858.318	10627.07
858.64	10491.25
858.961	10526.5
859.283	10471.36
859.605	10430.91
859.926	10397.01
860.248	10393.17
860.57	10320.41
860.891	10340.29
861.212	10315.66
861.534	10334.19
861.855	10308.43
862.176	10236.34
862.498	10254.42
862.819	10276.11
863.14	10146.63
863.461	10073.41
863.782	10096.23
864.103	10159.05
864.424	10133.74
864.745	10093.29
865.065	10088.55
865.386	10012.17
865.707	9944.6
866.027	10036.57
866.348	9992.96
866.668	10006.52
866.989	9983.47
867.309	9842.23
867.63	9874.54
867.95	10032.73
868.27	9786.41
868.59	9862.79
868.91	9907.99
869.23	9812.62
869.55	9707.77
869.87	9826.63
870.19	9802.68
870.51	9775.56
870.83	9745.51
871.15	9672.51
871.469	9746.64
871.789	9691.5
872.109	9769.46
872.428	9647.88
872.748	9672.74
873.067	9659.18
873.386	9590.26
873.706	9683.59
874.025	9593.87
874.344	9527.89
874.663	9527.66
874.982	9546.64
875.301	9538.28
875.62	9525.85
875.939	9426.42
876.258	9431.84
876.577	9415.12
876.896	9468.45
877.214	9367.21
877.533	9379.41
877.852	9359.75
878.17	9385.74
878.489	9341.9
878.807	9345.74
879.125	9379.64
879.444	9297.83
879.762	9253.09
880.08	9334.67
880.398	9331.28
880.716	9279.08
881.034	9265.75
881.352	9203.6
881.67	9249.25
881.988	9243.15
882.306	9134.9
882.624	9122.25
882.941	9090.16
883.259	8990.95
883.577	9013.32
883.894	9039.54
884.212	9018.29
884.529	8998.41
884.846	8999.09
885.164	8959.09
885.481	8954.57
885.798	8915.25
886.115	8861.69
886.432	8928.58
886.75	8829.37
887.067	8887
887.383	8868.24
887.7	8778.53
888.017	8805.64
888.334	8844.97
888.651	8736.72
888.967	8738.98
889.284	8660.34
889.6	8676.61
889.917	8649.72
890.233	8604.52
890.55	8594.35
890.866	8587.12
891.182	8499.66
891.498	8489.95
891.815	8478.42
892.131	8456.5
892.447	8455.14
892.763	8496.5
893.079	8425.54
893.395	8301.25
893.71	8349.38
894.026	8351.19
894.342	8329.72
894.657	8282.72
894.973	8254.92
895.289	8261.48
895.604	8194.59
895.92	8199.56
896.235	8153.91
896.55	8109.39
896.865	8037.3
897.181	8072.56
897.496	8001.37
897.811	8080.69
898.126	7978.32
898.441	7902.84
898.756	7969.51
899.071	7881.83
899.386	7856.74
899.7	7832.79
900.015	7826.23
900.33	7767.48
900.644	7703.3
900.959	7719.57
901.273	7704.43
901.588	7621.49
901.902	7680.93
902.216	7604.09
902.531	7609.97
902.845	7554.15
903.159	7506.92
903.473	7500.82
903.787	7445.91
904.101	7430.09
904.415	7385.34
904.729	7367.26
905.042	7291.11
905.356	7323.88
905.67	7255.63
905.984	7288.85
906.297	7261.05
906.611	7247.27
906.924	7200.04
907.237	7135.63
907.551	7144.67
907.864	7143.54
908.177	7088.18
908.491	7118.23
908.804	7076.42
909.117	7015.18
909.43	6990.1
909.743	6901.97
910.056	6921.17
910.368	6893.38
910.681	6880.27
910.994	6887.73
911.307	6854.51
911.619	6758.01
911.932	6745.59
912.244	6714.17
912.557	6692.93
912.869	6696.1
913.181	6634.18
913.494	6631.69
913.806	6602.31
914.118	6539.94
914.43	6530.22
914.742	6524.8
915.054	6521.18
915.366	6492.94
915.678	6400.74
915.99	6461.75
916.302	6420.62
916.613	6308.76
916.925	6314.64
917.236	6306.95
917.548	6240.97
917.859	6287.52
918.171	6232.83
918.482	6203.23
918.794	6194.19
919.105	6142.21
919.416	6150.12
919.727	6079.39
920.038	6088.65
920.349	6039.16
920.66	6029.22
920.971	6019.28
921.282	6010.69
921.593	6013.85
921.903	5954.19
922.214	5902.22
922.525	5906.74
922.835	5841.2
923.146	5849.56
923.456	5817.25
923.767	5798.72
924.077	5774.31
924.387	5754.2
924.697	5654.31
925.008	5695.9
925.318	5664.94
925.628	5715.1
925.938	5704.26
926.248	5546.97
926.558	5582.9
926.867	5526.63
927.177	5525.73
927.487	5535.45
927.796	5450.7
928.106	5450.93
928.416	5424.26
928.725	5435.11
929.034	5425.62
929.344	5416.13
929.653	5342.46
929.962	5278.51
930.271	5264.27
930.581	5285.96
930.89	5219.3
931.199	5216.59
931.508	5224.72
931.817	5214.78
932.125	5166.87
932.434	5150.15
932.743	5146.08
933.051	5116.48
933.36	5073.76
933.669	5033.31
933.977	4998.51
934.286	5015.24
934.594	5022.01
934.902	4921.9
935.21	4970.04
935.519	4921.45
935.827	4908.57
936.135	4912.64
936.443	4887.78
936.751	4850.95
937.059	4825.41
937.367	4824.05
937.674	4834.45
937.982	4796.71
938.29	4744.73
938.597	4735.02
938.905	4694.34
939.213	4664.06
939.52	4681.23
939.827	4639.88
940.135	4586.77
940.442	4576.6
940.749	4551.97
941.056	4605.98
941.363	4527.11
941.67	4555.81
941.977	4494.12
942.284	4439.21
942.591	4496.6
942.898	4443.5
943.205	4411.18
943.511	4401.24
943.818	4395.14
944.125	4337.74
944.431	4356.5
944.738	4336.16
945.044	4328.47
945.35	4298.42
945.657	4272.88
945.963	4276.5
946.269	4226.1
946.575	4229.04
946.881	4195.82
947.187	4204.18
947.493	4165.77
947.799	4155.37
948.105	4138.65
948.41	4121.47
948.716	4111.08
949.022	4083.96
949.327	4063.85
949.633	4034.47
949.938	4053.45
950.244	4051.64
950.549	3968.48
950.854	3976.39
951.16	3984.3
951.465	3962.83
951.77	3916.28
952.075	3912.21
952.38	3949.05
952.685	3885.77
952.99	3869.95
953.294	3852.78
953.599	3820.46
953.904	3789.28
954.209	3789.96
954.513	3800.58
954.818	3742.95
955.122	3741.6
955.426	3732.56
955.731	3705.44
956.035	3706.57
956.339	3744.99
956.643	3649.17
956.948	3638.55
957.252	3689.17
957.556	3631.09
957.86	3558.1
958.163	3635.16
958.467	3574.82
958.771	3572.79
959.075	3594.03
959.378	3515.84
959.682	3529.4
959.985	3488.95
960.289	3472
960.592	3442.62
960.896	3471.77
961.199	3502.51
961.502	3459.8
961.805	3400.36
962.108	3376.18
962.411	3387.71
962.714	3387.93
963.017	3350.87
963.32	3333.25
963.623	3342.74
963.926	3309.74
964.228	3305
964.531	3286.47
964.833	3310.65
965.136	3235.62
965.438	3243.3
965.741	3209.63
966.043	3198.11
966.345	3219.12
966.648	3202.18
966.95	3126.92
967.252	3156.3
967.554	3140.48
967.856	3106.36
968.158	3102.07
968.46	3112.46
968.761	3106.81
969.063	3058
969.365	3038.56
969.666	2995.4
969.968	3020.49
970.269	3033.37
970.571	2966.93
970.872	3008.73
971.174	2955.85
971.475	2977.32
971.776	2943.65
972.077	2931.9
972.378	2934.16
972.679	2898.23
972.98	2940.94
973.281	2909.75
973.582	2937.32
973.883	2857.55
974.183	2842.86
974.484	2843.77
974.785	2832.24
975.085	2862.52
975.386	2843.54
975.686	2799.02
975.986	2784.11
976.287	2756.99
976.587	2754.96
976.887	2753.37
977.187	2726.93
977.487	2742.3
977.787	2698.69
978.087	2707.5
978.387	2691.23
978.687	2654.17
978.987	2635.41
979.286	2675.18
979.586	2638.8
979.885	2636.99
980.185	2609.2
980.484	2588.41
980.784	2604.9
981.083	2608.97
981.382	2544.79
981.682	2604.68
981.981	2573.04
982.28	2534.17
982.579	2491.23
982.878	2493.95
983.177	2536.88
983.475	2492.36
983.774	2492.59
984.073	2486.04
984.372	2458.47
984.67	2463.89
984.969	2440.39
985.267	2471.8
985.566	2412.59
985.864	2411.69
986.162	2417.79
986.461	2382.76
986.759	2379.82
987.057	2350.67
987.355	2354.97
987.653	2392.71
987.951	2339.37
988.249	2348.41
988.547	2313.16
988.844	2324.46
989.142	2287.17
989.44	2301.63
989.737	2277.68
990.035	2312.26
990.332	2264.12
990.63	2257.57
990.927	2259.6
991.224	2210.56
991.521	2176.89
991.819	2214.63
992.116	2186.61
992.413	2211.92
992.71	2146.38
993.006	2160.62
993.303	2159.94
993.6	2168.98
993.897	2149.55
994.193	2135.99
994.49	2120.4
994.787	2084.92
995.083	2083.79
995.379	2063.45
995.676	2103
995.972	2077.69
996.268	2065.93
996.565	2028.42
996.861	2040.4
997.157	2011.7
997.453	2023.9
997.749	1986.84
998.044	2019.83
998.34	1991.36
998.636	1968.08
998.932	1963.79
999.227	1928.76
999.523	1951.59
999.818	1926.95
1000.114	1913.4
1000.409	1913.17
1000.704	1906.62
1001	1902.32
1001.295	1904.36
1001.59	1860.29
1001.885	1887.63
1002.18	1884.02
1002.475	1869.78
1002.77	1832.27
1003.065	1806.73
1003.359	1812.38
1003.654	1832.04
1003.949	1803.12
1004.243	1845.38
1004.538	1796.79
1004.832	1766.96
1005.127	1764.47
1005.421	1760.18
1005.715	1763.57
1006.009	1774.87
1006.304	1736
1006.598	1718.6
1006.892	1691.93
1007.186	1711.82
1007.48	1692.16
1007.773	1671.37
1008.067	1706.62
1008.361	1667.3
1008.655	1656.23
1008.948	1613.29
1009.242	1658.71
1009.535	1635.44
1009.829	1645.38
1010.122	1591.82
1010.415	1637.25
1010.708	1616.91
1011.001	1582.56
1011.295	1554.08
1011.588	1546.4
1011.881	1552.73
1012.173	1543.46
1012.466	1533.29
1012.759	1500.53
1013.052	1533.07
1013.344	1506.4
1013.637	1519.96
1013.93	1494.65
1014.222	1463.01
1014.514	1481.54
1014.807	1487.19
1015.099	1466.63
1015.391	1442.22
1015.683	1440.19
1015.976	1436.12
1016.268	1425.27
1016.56	1418.95
1016.851	1405.39
1017.143	1398.16
1017.435	1417.82
1017.727	1346.18
1018.018	1403.13
1018.31	1357.48
1018.602	1332.85
1018.893	1376.01
1019.185	1348.67
1019.476	1332.17
1019.767	1332.85
1020.058	1331.72
1020.35	1292.4
1020.641	1301.43
1020.932	1320.42
1021.223	1288.1
1021.514	1287.42
1021.804	1267.09
1022.095	1260.76
1022.386	1264.15
1022.677	1270.93
1022.967	1247.2
1023.258	1243.58
1023.548	1214.21
1023.839	1218.05
1024.129	1221.44
1024.419	1209.69
1024.709	1196.35
1025	1195.45
1025.29	1188.44
1025.58	1199.52
1025.87	1185.05
1026.16	1147.54
1026.449	1166.07
1026.739	1154.09
1027.029	1142.12
1027.319	1123.36
1027.608	1134.43
1027.898	1134.21
1028.187	1108.9
1028.477	1095.56
1028.766	1096.02
1029.055	1077.94
1029.344	1072.74
1029.634	1058.96
1029.923	1067.54
1030.212	1067.99
1030.501	1068.67
1030.79	1051.95
1031.078	1033.42
1031.367	1022.35
1031.656	1000.43
1031.945	1026.64
1032.233	1016.7
1032.522	1030.48
1032.81	999.97
1033.099	993.42
1033.387	1017.15
1033.675	999.75
1033.963	974.89
1034.251	995.23
1034.54	973.31
1034.828	961.1
1035.116	941.9
1035.403	936.47
1035.691	950.03
1035.979	958.39
1036.267	926.76
1036.554	910.26
1036.842	926.98
1037.129	922.46
1037.417	900.32
1037.704	890.82
1037.992	921.78
1038.279	904.61
1038.566	860.99
1038.853	860.99
1039.14	860.99
