Data from hue_270_FLMS001491_00007.txt Node
Date: Tue Feb 07 15:56:42 GMT 2017
User: dcchb
Spectrometer: FLMS00149
Trigger mode: 0
Integration Time (sec): 2.000000E-2
Scans to average: 10
Electric dark correction enabled: true
Nonlinearity correction enabled: false
Boxcar width: 0
XAxis mode: Wavelengths
Number of Pixels in Spectrum: 2048
>>>>>Begin Spectral Data<<<<<
341.393	-4.45
341.776	-4.45
342.16	-4.45
342.543	-74.96
342.927	-31.57
343.31	-53.04
343.693	-53.49
344.077	-44.45
344.46	-60.49
344.843	-72.7
345.226	-38.12
345.61	-27.95
345.993	-5.13
346.376	-17.78
346.759	13.18
347.142	35.55
347.525	22.89
347.908	45.72
348.291	60.86
348.674	83.91
349.057	111.03
349.44	114.19
349.823	133.63
350.206	153.06
350.588	199.39
350.971	177.24
351.354	205.49
351.737	218.6
352.119	241.65
352.502	238.03
352.884	259.72
353.267	260.18
353.65	268.54
354.032	291.59
354.414	312.6
354.797	298.82
355.179	317.8
355.562	297.92
355.944	315.09
356.326	322.32
356.709	338.59
357.091	315.09
357.473	327.07
357.855	361.19
358.238	322.77
358.62	310.12
359.002	337.91
359.384	310.34
359.766	312.38
360.148	322.55
360.53	328.88
360.912	327.29
361.294	322.32
361.676	330.91
362.057	325.26
362.439	307.63
362.821	311.02
363.203	322.32
363.584	305.15
363.966	339.27
364.348	298.82
364.729	312.83
365.111	316.45
365.493	304.7
365.874	299.95
366.256	291.59
366.637	306.96
367.019	308.54
367.4	300.4
367.781	297.24
368.163	310.12
368.544	313.73
368.925	290.68
369.306	285.71
369.688	307.18
370.069	298.14
370.45	282.78
370.831	297.69
371.212	311.02
371.593	294.53
371.974	284.13
372.355	305.83
372.736	315.99
373.117	300.63
373.498	317.58
373.879	319.16
374.26	305.83
374.641	291.14
375.021	308.76
375.402	309.67
375.783	306.28
376.163	308.99
376.544	305.83
376.925	310.8
377.305	297.69
377.686	309.67
378.066	310.34
378.447	321.19
378.827	313.96
379.208	335.88
379.588	327.52
379.968	337.69
380.349	325.03
380.729	334.3
381.109	321.64
381.489	320.29
381.87	342.66
382.25	337.69
382.63	331.14
383.01	309.89
383.39	337.24
383.77	332.04
384.15	351.47
384.53	331.59
384.91	345.15
385.29	331.36
385.67	331.36
386.049	323.9
386.429	329.55
386.809	361.64
387.189	357.35
387.568	359.61
387.948	355.32
388.328	345.6
388.707	351.7
389.087	372.04
389.466	384.92
389.846	357.35
390.225	353.73
390.605	343.34
390.984	370.23
391.363	346.95
391.743	372.94
392.122	362.55
392.501	361.19
392.881	358.25
393.26	376.11
393.639	370.91
394.018	409.33
394.397	372.49
394.776	390.57
395.155	358.93
395.534	378.37
395.913	390.79
396.292	395.09
396.671	391.47
397.05	392.6
397.429	383.34
397.808	410.46
398.186	405.26
398.565	406.16
398.944	407.29
399.323	414.3
399.701	404.13
400.08	398.03
400.458	426.27
400.837	427.4
401.215	421.53
401.594	444.8
401.972	421.98
402.351	438.03
402.729	421.3
403.107	447.74
403.486	450.45
403.864	435.31
404.242	448.65
404.62	436.22
404.999	445.26
405.377	487.29
405.755	443.9
406.133	461.08
406.511	450.23
406.889	469.89
407.267	460.62
407.645	470.11
408.023	473.96
408.401	469.44
408.779	478.48
409.156	488.42
409.534	508.98
409.912	491.81
410.29	507.63
410.667	510.57
411.045	519.38
411.422	537.91
411.8	529.55
412.178	549.21
412.555	544.24
412.933	547.63
413.31	537.46
413.687	553.05
414.065	571.81
414.442	580.85
414.819	574.07
415.197	596.89
415.574	598.92
415.951	603.9
416.328	601.18
416.705	627.62
417.082	599.6
417.46	626.49
417.837	628.53
418.214	637.12
418.591	633.05
418.967	664.69
419.344	662.2
419.721	653.61
420.098	661.3
420.475	664.46
420.852	696.1
421.228	673.05
421.605	703.33
421.982	702.65
422.358	720.28
422.735	736.32
423.111	718.02
423.488	735.64
423.864	731.8
424.241	758.92
424.617	789.88
424.994	755.53
425.37	795.3
425.746	814.51
426.123	852.93
426.499	834.85
426.875	821.07
427.251	855.64
427.627	841.86
428.003	872.14
428.379	892.02
428.756	895.87
429.132	893.61
429.507	895.87
429.883	932.02
430.259	929.09
430.635	941.29
431.011	937
431.387	965.92
431.763	995.3
432.138	994.85
432.514	1022.64
432.89	1022.87
433.265	1055.64
433.641	1043.88
434.016	1081.4
434.392	1070.55
434.767	1101.74
435.143	1120.72
435.518	1167.05
435.894	1148.29
436.269	1172.02
436.644	1150.55
437.02	1191.23
437.395	1186.71
437.77	1199.81
438.145	1250.66
438.52	1244.56
438.895	1270.77
439.271	1290.43
439.646	1310.09
440.021	1334.95
440.395	1325.23
440.77	1292.01
441.145	1346.48
441.52	1400.03
441.895	1383.09
442.27	1414.5
442.645	1410.2
443.019	1440.03
443.394	1435.97
443.769	1439.81
444.143	1430.54
444.518	1446.59
444.892	1433.48
445.267	1474.38
445.641	1475.06
446.016	1487.49
446.39	1502.63
446.764	1534.95
447.139	1497.88
447.513	1525
447.887	1521.84
448.262	1527.71
448.636	1540.37
449.01	1543.98
449.384	1577.66
449.758	1584.44
450.132	1590.31
450.506	1630.08
450.88	1631.44
451.254	1614.49
451.628	1638.67
452.002	1649.52
452.376	1667.82
452.75	1660.82
453.123	1681.38
453.497	1741.04
453.871	1722.06
454.244	1743.08
454.618	1798.67
454.992	1785.11
455.365	1789.85
455.739	1815.84
456.112	1811.1
456.486	1828.27
456.859	1841.83
457.232	1874.37
457.606	1902.62
457.979	1887.7
458.352	1966.35
458.725	1938.55
459.099	1979.68
459.472	1977.65
459.845	2012.67
460.218	2037.98
460.591	2046.57
460.964	2023.07
461.337	2083.86
461.71	2117.08
462.083	2143.97
462.456	2160.24
462.829	2163.4
463.201	2176.96
463.574	2203.63
463.947	2204.76
464.32	2259.67
464.692	2270.29
465.065	2322.04
465.438	2273.46
465.81	2378.54
466.183	2367.69
466.555	2418.76
466.928	2417.86
467.3	2405.66
467.672	2415.37
468.045	2491.3
468.417	2516.61
468.789	2505.09
469.161	2577.63
469.534	2575.6
469.906	2635.03
470.278	2629.38
470.65	2689.72
471.022	2716.16
471.394	2745.76
471.766	2739.43
472.138	2754.12
472.51	2848.36
472.882	2822.37
473.253	2911.41
473.625	2919.54
473.997	2990.95
474.369	3010.61
474.74	2991.4
475.112	3022.36
475.484	3120.44
475.855	3147.78
476.227	3165.41
476.598	3205.18
476.97	3293.32
477.341	3308.01
477.713	3388.23
478.084	3366.08
478.455	3478.62
478.827	3478.62
479.198	3583.48
479.569	3547.32
479.94	3641.56
480.311	3621.67
480.682	3765.4
481.053	3791.84
481.424	3858.05
481.795	3846.98
482.166	3879.29
482.537	3915.22
482.908	4027.54
483.279	4053.52
483.65	4087.65
484.021	4160.87
484.391	4193.18
484.762	4191.82
485.133	4236.8
485.503	4272.73
485.874	4385.94
486.244	4388.66
486.615	4416.9
486.985	4494.87
487.356	4591.59
487.726	4568.09
488.097	4679.95
488.467	4711.59
488.837	4805.59
489.207	4787.97
489.578	4852.37
489.948	4906.38
490.318	4961.97
490.688	4942.09
491.058	4985.48
491.428	5099.82
491.798	5117
492.168	5213.04
492.538	5206.26
492.908	5247.16
493.278	5352.7
493.648	5285.81
494.017	5325.81
494.387	5427.27
494.757	5477.89
495.126	5466.59
495.496	5494.62
495.866	5515.18
496.235	5548.63
496.605	5607.83
496.974	5623.65
497.344	5686.7
497.713	5720.82
498.082	5726.02
498.452	5755.85
498.821	5760.15
499.19	5798.34
499.559	5838.11
499.928	5862.06
500.298	5842.4
500.667	5936.86
501.036	5937.99
501.405	5966.92
501.774	5910.88
502.143	5997.2
502.512	6010.76
502.88	6097.54
503.249	6081.94
503.618	6114.26
503.987	6112.23
504.356	6128.05
504.724	6086.46
505.093	6148.61
505.462	6150.64
505.83	6176.18
506.199	6315.16
506.567	6310.87
506.936	6231.32
507.304	6342.5
507.672	6368.72
508.041	6378.89
508.409	6363.52
508.777	6448.94
509.145	6472.22
509.514	6479.22
509.882	6514.02
510.25	6459.56
510.618	6518.32
510.986	6518.77
511.354	6583.17
511.722	6580.69
512.09	6624.3
512.458	6607.81
512.826	6660.91
513.193	6697.97
513.561	6687.8
513.929	6717.86
514.297	6716.05
514.664	6750.4
515.032	6744.75
515.4	6742.72
515.767	6751.98
516.135	6799.67
516.502	6756.73
516.869	6876.05
517.237	6880.57
517.604	6849.61
517.972	6869.49
518.339	6903.39
518.706	6903.62
519.073	6919.89
519.44	6950.62
519.808	6977.51
520.175	6931.64
520.542	7021.13
520.909	7046.89
521.276	7024.97
521.643	7117.62
522.009	7086.89
522.376	7104.97
522.743	7189.71
523.11	7173.89
523.477	7259.54
523.843	7217.73
524.21	7294.57
524.577	7244.63
524.943	7314
525.31	7349.03
525.676	7416.15
526.043	7412.08
526.409	7400.78
526.776	7463.6
527.142	7526.43
527.508	7507.44
527.874	7593.32
528.241	7554.22
528.607	7626.54
528.973	7643.03
529.339	7614.56
529.705	7703.14
530.071	7695.01
530.437	7650.49
530.803	7769.58
531.169	7737.04
531.535	7733.65
531.901	7738.17
532.267	7793.76
532.632	7848
532.998	7795.12
533.364	7820.2
533.73	7855.01
534.095	7898.17
534.461	7864.5
534.826	7864.72
535.192	7962.35
535.557	7956.02
535.923	7907.21
536.288	7951.73
536.653	7963.93
537.019	7959.18
537.384	7979.75
537.749	8020.88
538.114	8001.67
538.479	7980.65
538.845	8016.13
539.21	7981.33
539.575	8020.65
539.94	8031.72
540.305	8008.22
540.67	8022.01
541.034	7999.41
541.399	8099.97
541.764	8066.53
542.129	8122.79
542.494	8105.62
542.858	8147.88
543.223	8147.2
543.587	8152.4
543.952	8193.3
544.316	8180.87
544.681	8175.9
545.045	8252.51
545.41	8223.13
545.774	8208.67
546.138	8187.88
546.503	8233.98
546.867	8189.91
547.231	8284.6
547.595	8320.08
547.959	8302.9
548.324	8311.04
548.688	8275.56
549.052	8325.5
549.416	8285.95
549.779	8327.76
550.143	8324.37
550.507	8349
550.871	8367.76
551.235	8314.88
551.599	8333.18
551.962	8367.08
552.326	8388.32
552.689	8468.55
553.053	8412.5
553.417	8445.27
553.78	8438.49
554.143	8436.46
554.507	8432.39
554.87	8482.33
555.234	8495.21
555.597	8470.58
555.96	8492.5
556.323	8546.51
556.686	8551.94
557.05	8578.38
557.413	8588.55
557.776	8661.76
558.139	8684.81
558.502	8668.09
558.865	8700.18
559.228	8698.15
559.59	8779.95
559.953	8767.07
560.316	8835.32
560.679	8757.58
561.041	8914.86
561.404	8886.62
561.767	8935.65
562.129	8910.57
562.492	8982.66
562.854	8951.25
563.217	8981.98
563.579	9002.09
563.941	9069.44
564.304	9084.35
564.666	9108.98
565.028	9105.37
565.39	9155.99
565.753	9192.6
566.115	9244.35
566.477	9210.68
566.839	9241.41
567.201	9377.23
567.563	9247.96
567.925	9331.8
568.287	9386.26
568.648	9411.12
569.01	9468.75
569.372	9525.02
569.734	9471.01
570.095	9557.56
570.457	9557.11
570.819	9575.64
571.18	9574.96
571.542	9713.71
571.903	9663.77
572.265	9724.33
572.626	9714.84
572.987	9665.13
573.349	9791.23
573.71	9866.93
574.071	9870.32
574.432	9920.71
574.794	10015.17
575.155	9926.14
575.516	9938.57
575.877	9974.95
576.238	10021.05
576.599	10104.21
576.96	10078.9
577.32	10055.4
577.681	10164.55
578.042	10219.69
578.403	10214.49
578.763	10218.33
579.124	10226.92
579.485	10241.84
579.845	10308.5
580.206	10394.6
580.566	10280.25
580.927	10407.48
581.287	10421.04
581.648	10373.81
582.008	10526.35
582.368	10479.12
582.728	10539.91
583.089	10508.95
583.449	10571.77
583.809	10594.14
584.169	10600.02
584.529	10574.48
584.889	10783.52
585.249	10696.29
585.609	10703.74
585.969	10784.65
586.329	10724.76
586.688	10816.06
587.048	10879.33
587.408	10789.17
587.768	10803.18
588.127	10835.49
588.487	10801.59
588.846	10973.34
589.206	10889.05
589.565	10967.92
589.925	11039.33
590.284	10988.03
590.643	10994.36
591.003	11077.07
591.362	11114.81
591.721	11145.99
592.08	11127.69
592.44	11194.35
592.799	11174.01
593.158	11176.73
593.517	11249.94
593.876	11298.98
594.235	11245.88
594.593	11257.4
594.952	11263.73
595.311	11233
595.67	11251.07
596.029	11352.09
596.387	11350.96
596.746	11341.92
597.104	11378.53
597.463	11383.27
597.822	11443.39
598.18	11396.38
598.538	11379.43
598.897	11491.52
599.255	11405.65
599.613	11622.14
599.972	11528.36
600.33	11484.97
600.688	11459.66
601.046	11557.05
601.404	11622.36
601.762	11569.26
602.12	11674.79
602.478	11663.27
602.836	11633.21
603.194	11605.42
603.552	11564.96
603.91	11638.41
604.268	11699.65
604.625	11649.48
604.983	11655.58
605.341	11684.96
605.698	11649.71
606.056	11746.88
606.413	11689.03
606.771	11711.63
607.128	11812.42
607.485	11807.67
607.843	11708.92
608.2	11797.95
608.557	11701.23
608.914	11738.75
609.272	11828.46
609.629	11839.53
609.986	11890.61
610.343	11783.49
610.7	11910.04
611.057	11903.71
611.414	11931.28
611.771	11933.09
612.127	11963.82
612.484	11999.76
612.841	11945.97
613.198	12018.96
613.554	11928.12
613.911	12003.82
614.267	12054.89
614.624	12013.31
614.98	12085.18
615.337	12098.96
615.693	12069.81
616.05	12074.33
616.406	12018.51
616.762	12121.33
617.118	12051.05
617.475	12080.2
617.831	12093.76
618.187	12148.23
618.543	12096.02
618.899	12222.12
619.255	12276.81
619.611	12103.26
619.967	12195.91
620.323	12135.57
620.678	12172.63
621.034	12145.29
621.39	12203.82
621.746	12093.76
622.101	12328.56
622.457	12183.93
622.812	12230.71
623.168	12216.92
623.523	12216.7
623.879	12242.46
624.234	12202.69
624.589	12181.45
624.945	12218.73
625.3	12220.99
625.655	12185.96
626.01	12218.96
626.365	12275.91
626.72	12275.45
627.075	12170.37
627.43	12166.08
627.785	12183.25
628.14	12157.27
628.495	12173.08
628.85	12100.54
629.205	12091.96
629.559	12203.82
629.914	12145.51
630.269	12156.14
630.623	12139.41
630.978	12036.36
631.332	12114.78
631.687	12188.22
632.041	12041.11
632.396	12060.32
632.75	12053.76
633.104	12195.68
633.459	12040.43
633.813	11973.32
634.167	12001.34
634.521	11984.84
634.875	11984.16
635.229	11963.6
635.583	11893.54
635.937	11888.12
636.291	11822.36
636.645	11955.46
636.999	11907.78
637.352	11896.71
637.706	11844.96
638.06	11827.1
638.413	11864.84
638.767	11830.95
639.121	11832.3
639.474	11744.85
639.828	11743.26
640.181	11742.36
640.534	11820.55
640.888	11698.75
641.241	11710.05
641.594	11710.95
641.947	11752.08
642.301	11691.51
642.654	11727.22
643.007	11732.87
643.36	11651.74
643.713	11589.6
644.066	11726.54
644.419	11551.86
644.771	11574.23
645.124	11494.23
645.477	11398.41
645.83	11383.05
646.182	11336.5
646.535	11296.5
646.888	11315.71
647.24	11277.74
647.593	11296.95
647.945	11238.19
648.298	11188.25
648.65	11159.33
649.002	11148.48
649.355	11263.73
649.707	11196.61
650.059	11261.24
650.411	11424.85
650.763	11491.52
651.115	11542.82
651.467	11526.32
651.819	11540.56
652.171	11514.34
652.523	11479.54
652.875	11470.96
653.227	11403.84
653.578	11530.16
653.93	11437.96
654.282	11439.54
654.633	11389.6
654.985	11385.99
655.337	11421.69
655.688	11439.54
656.039	11481.35
656.391	11348.25
656.742	11399.77
657.094	11392.77
657.445	11399.77
657.796	11375.82
658.147	11395.25
658.498	11387.57
658.849	11367
659.2	11449.04
659.551	11376.72
659.902	11404.97
660.253	11435.93
660.604	11388.25
660.955	11409.26
661.306	11451.97
661.656	11373.78
662.007	11425.31
662.358	11431.18
662.708	11441.58
663.059	11499.66
663.409	11398.41
663.76	11461.46
664.11	11460.33
664.461	11446.1
664.811	11498.98
665.161	11430.28
665.511	11466.44
665.862	11448.58
666.212	11459.66
666.562	11439.54
666.912	11394.12
667.262	11424.85
667.612	11376.95
667.962	11456.04
668.312	11419.21
668.662	11408.81
669.011	11416.95
669.361	11389.15
669.711	11442.26
670.06	11420.34
670.41	11396.83
670.76	11398.41
671.109	11384.4
671.459	11332.2
671.808	11307.34
672.157	11412.88
672.507	11309.15
672.856	11332.43
673.205	11304.63
673.554	11307.57
673.904	11213.34
674.253	11329.26
674.602	11260.57
674.951	11097.63
675.3	11104.64
675.649	11261.24
675.998	11227.12
676.346	11262.83
676.695	11324.74
677.044	11206.78
677.393	11182.6
677.741	11171.53
678.09	11183.51
678.438	11069.61
678.787	11160.23
679.135	11088.14
679.484	11123.17
679.832	11146.44
680.181	11033.45
680.529	11082.04
680.877	10964.98
681.225	11006.56
681.573	11036.84
681.922	10957.75
682.27	10944.42
682.618	10966.56
682.966	10891.54
683.314	10951.87
683.661	10890.41
684.009	10868.94
684.357	10909.84
684.705	10821.03
685.053	10797.3
685.4	10867.13
685.748	10751.2
686.095	10746.45
686.443	10684.99
686.79	10720.69
687.138	10732.67
687.485	10661.26
687.832	10633.92
688.18	10615.84
688.527	10557.31
688.874	10568.15
689.221	10474.82
689.568	10539.91
689.915	10548.27
690.262	10465.11
690.609	10409.97
690.956	10401.38
691.303	10292.91
691.65	10269.18
691.997	10359.12
692.344	10165
692.69	10197.99
693.037	10209.29
693.383	10112.12
693.73	10131.56
694.077	10063.08
694.423	10080.03
694.769	10037.55
695.116	9943.09
695.462	9987.6
695.808	9932.69
696.155	9976.31
696.501	9904.22
696.847	9784.22
697.193	9772.24
697.539	9776.99
697.885	9720.27
698.231	9730.66
698.577	9740.83
698.923	9704.67
699.269	9655.64
699.614	9614.51
699.96	9581.29
700.306	9545.81
700.651	9454.06
700.997	9489.99
701.342	9406.83
701.688	9457.22
702.033	9329.09
702.379	9453.38
702.724	9345.14
703.069	9323.89
703.415	9198.47
703.76	9248.87
704.105	9248.42
704.45	9253.39
704.795	9123.22
705.14	9098.36
705.485	9087.97
705.83	9109.44
706.175	9088.19
706.52	9006.16
706.865	8992.83
707.209	8949.21
707.554	8940.4
707.899	9018.59
708.243	8903.34
708.588	8867.18
708.932	8839.39
709.277	8844.13
709.621	8826.96
709.966	8776.79
710.31	8752.38
710.654	8653.63
710.998	8711.71
711.342	8740.63
711.687	8700.41
712.031	8671.71
712.375	8698.15
712.719	8597.36
713.063	8539.06
713.407	8670.8
713.75	8596.68
714.094	8551.71
714.438	8503.8
714.782	8517.59
715.125	8499.96
715.469	8497.02
715.812	8486.4
716.156	8437.36
716.499	8425.84
716.843	8456.35
717.186	8384.03
717.53	8446.18
717.873	8439.17
718.216	8416.35
718.559	8281.89
718.902	8361.88
719.246	8349.91
719.589	8297.93
719.932	8301.77
720.275	8229.91
720.617	8232.4
720.96	8275.79
721.303	8261.32
721.646	8331.15
721.989	8307.42
722.331	8261.1
722.674	8229.23
723.016	8254.32
723.359	8164.38
723.701	8291.15
724.044	8203.92
724.386	8125.28
724.729	8179.74
725.071	8131.38
725.413	8092.06
725.755	8151.95
726.097	8123.92
726.439	8061.33
726.782	8103.36
727.124	8170.48
727.465	8141.78
727.807	8057.03
728.149	8036.47
728.491	8041.22
728.833	8017.71
729.175	8011.84
729.516	8008
729.858	8051.61
730.199	8043.47
730.541	8007.77
730.882	8010.26
731.224	8048.22
731.565	7930.48
731.906	8045.73
732.248	8018.62
732.589	8003.7
732.93	8050.71
733.271	8015.45
733.612	8041.67
733.953	7984.49
734.294	7912.86
734.635	8004.38
734.976	7989.47
735.317	7883.48
735.658	7970.26
735.999	7940.43
736.339	7936.59
736.68	7956.25
737.021	7990.14
737.361	7968.67
737.702	7970.48
738.042	7920.09
738.383	7928.22
738.723	7948.11
739.063	7953.31
739.404	7922.35
739.744	7978.39
740.084	7965.96
740.424	7997.6
740.764	7969.13
741.104	8079.41
741.444	7985.62
741.784	7986.3
742.124	8016.81
742.464	8012.52
742.804	8025.17
743.143	8040.76
743.483	8012.29
743.823	8048.9
744.162	8037.37
744.502	8115.11
744.841	8099.29
745.181	8065.62
745.52	8189.23
745.86	8191.27
746.199	8251.83
746.538	8286.63
746.877	8305.39
747.216	8351.49
747.556	8339.29
747.895	8401.43
748.234	8346.29
748.573	8471.26
748.911	8522.56
749.25	8536.8
749.589	8613.4
749.928	8612.95
750.267	8679.16
750.605	8731.59
750.944	8745.38
751.283	8857.46
751.621	8910.8
751.96	8928.42
752.298	9045.03
752.636	9141.3
752.975	9199.38
753.313	9264.23
753.651	9367.51
753.989	9417.9
754.327	9485.7
754.666	9650.21
755.004	9708.52
755.342	9833.26
755.679	9998.23
756.017	10012.91
756.355	10231.21
756.693	10230.54
757.031	10427.14
757.368	10445.45
757.706	10675.04
758.044	10698.32
758.381	10831.88
758.719	10978.99
759.056	11128.14
759.394	11259.44
759.731	11357.96
760.068	11503.5
760.405	11569.26
760.743	11781.91
761.08	11942.13
761.417	11963.37
761.754	12201.33
762.091	12359.29
762.428	12489.69
762.765	12627.08
763.102	12764.48
763.438	12894.42
763.775	13082.44
764.112	13157.24
764.449	13401.53
764.785	13432.49
765.122	13572.37
765.458	13731.23
765.795	13860.95
766.131	14114.28
766.467	14182.3
766.804	14315.63
767.14	14328.96
767.476	14604.66
767.812	14664.32
768.148	14827.25
768.485	14916.06
768.821	15072.22
769.157	15190.18
769.492	15308.14
769.828	15385.2
770.164	15529.61
770.5	15558.31
770.836	15672.65
771.171	15685.31
771.507	15779.54
771.842	15905.19
772.178	16097.95
772.513	16111.51
772.849	16276.03
773.184	16217.95
773.519	16296.59
773.855	16376.14
774.19	16512.63
774.525	16546.98
774.86	16584.72
775.195	16709.91
775.53	16741.1
775.865	16754.88
776.2	16699.97
776.535	16836.24
776.87	16836.46
777.205	16969.79
777.539	16963.24
777.874	17029
778.209	17004.82
778.543	17049.34
778.878	17068.77
779.212	17135.21
779.547	17205.49
779.881	17262.22
780.215	17257.7
780.55	17316
780.884	17291.14
781.218	17303.34
781.552	17288.2
781.886	17301.31
782.22	17212.05
782.554	17230.13
782.888	17188.09
783.222	17226.96
783.556	17214.53
783.889	17212.05
784.223	17128.89
784.557	17230.35
784.89	17264.25
785.224	17167.08
785.557	17214.31
785.891	17073.75
786.224	17204.59
786.558	17171.37
786.891	16998.27
787.224	17094.76
787.557	17040.98
787.891	17055.22
788.224	16998.04
788.557	17105.16
788.89	17038.49
789.223	17173.63
789.556	17014.76
789.888	16926.41
790.221	16943.58
790.554	16769.35
790.887	16906.52
791.219	16853.86
791.552	16871.94
791.884	16795.56
792.217	16770.93
792.549	16722.12
792.882	16696.81
793.214	16572.52
793.546	16659.97
793.879	16559.18
794.211	16480.54
794.543	16636.92
794.875	16531.84
795.207	16571.84
795.539	16483.25
795.871	16564.15
796.203	16419.07
796.535	16290.49
796.867	16328.68
797.198	16283.94
797.53	16341.79
797.862	16227.89
798.193	16292.52
798.525	16179.76
798.856	16221.56
799.188	16008.46
799.519	16039.2
799.85	15916.26
800.182	15937.96
800.513	15967.11
800.844	15810.05
801.175	15984.96
801.506	15867.9
801.837	15916.94
802.168	15845.76
802.499	15806.21
802.83	15654.8
803.161	15663.61
803.491	15657.96
803.822	15594.01
804.153	15524.63
804.483	15478.99
804.814	15496.39
805.145	15426.56
805.475	15512.88
805.805	15361.7
806.136	15450.96
806.466	15340.91
806.796	15277.86
807.126	15266.79
807.457	15155.38
807.787	15226.11
808.117	15185.66
808.447	15107.02
808.777	15161.93
809.107	15067.47
809.436	15020.24
809.766	15038.55
810.096	15012.11
810.426	14871.09
810.755	14970.07
811.085	14917.42
811.414	14882.62
811.744	14732.34
812.073	14845.33
812.403	14761.26
812.732	14688.95
813.061	14785.22
813.39	14607.14
813.719	14650.31
814.049	14689.18
814.378	14620.48
814.707	14538.22
815.036	14433.36
815.365	14471.78
815.693	14396.08
816.022	14303.88
816.351	14357.43
816.68	14236.53
817.008	14317.89
817.337	14246.25
817.665	14197.66
817.994	14276.08
818.322	14225.01
818.651	14115.18
818.979	14114.95
819.307	14209.64
819.636	14052.81
819.964	14039.02
820.292	14088.29
820.62	14111.79
820.948	14026.14
821.276	14168.96
821.604	14141.39
821.932	14065.24
822.259	14105.91
822.587	14043.09
822.915	14054.16
823.243	14073.6
823.57	14045.8
823.898	14101.85
824.225	14090.55
824.553	14026.82
824.88	14061.62
825.207	14068.63
825.535	14031.34
825.862	14071.79
826.189	14015.3
826.516	14156.53
826.843	14153.37
827.17	14103.2
827.497	14108.85
827.824	14176.2
828.151	14144.11
828.478	14138.68
828.805	14213.26
829.131	14129.19
829.458	14075.86
829.785	14043.77
830.111	13968.74
830.438	14138.68
830.764	14086.03
831.09	14076.76
831.417	14071.34
831.743	14122.64
832.069	14077.44
832.395	14071.34
832.722	14034.05
833.048	14024.79
833.374	14015.97
833.7	13875.41
834.026	14064.11
834.351	14012.13
834.677	14032.47
835.003	13974.62
835.329	13912.7
835.654	13938.24
835.98	13911.57
836.306	13855.07
836.631	13777.79
836.956	13947.73
837.282	13926.94
837.607	13861.85
837.932	13799.26
838.258	13785.92
838.583	13848.29
838.908	13691.46
839.233	13665.93
839.558	13700.5
839.883	13707.28
840.208	13562.43
840.533	13600.39
840.858	13623.22
841.182	13564.01
841.507	13580.05
841.832	13521.3
842.156	13458.7
842.481	13549.54
842.805	13438.14
843.13	13429.55
843.454	13453.95
843.778	13320.4
844.103	13408.08
844.427	13272.94
844.751	13257.12
845.075	13185.03
845.399	13152.72
845.723	13194.75
846.047	13140.29
846.371	12936.45
846.695	13005.38
847.019	12989.56
847.343	12850.35
847.666	12819.85
847.99	12755.89
848.313	12733.07
848.637	12764.93
848.96	12607.42
849.284	12626.63
849.607	12554.99
849.931	12417.82
850.254	12425.28
850.577	12304.61
850.9	12292.85
851.223	12250.82
851.546	12140.09
851.869	12112.75
852.192	12248.56
852.515	12049.92
852.838	12036.82
853.161	12077.49
853.483	12001.79
853.806	11953.2
854.129	11938.51
854.451	11927.67
854.774	11722.47
855.096	11785.07
855.419	11728.35
855.741	11726.99
856.063	11733.77
856.385	11678.63
856.708	11554.34
857.03	11510.05
857.352	11579.2
857.674	11438.87
857.996	11421.01
858.318	11420.79
858.64	11381.01
858.961	11371.3
859.283	11327.68
859.605	11315.25
859.926	11328.13
860.248	11301.24
860.57	11169.27
860.891	11167.23
861.212	11214.01
861.534	11145.09
861.855	11106.45
862.176	11126.78
862.498	11106.67
862.819	11072.77
863.14	11070.74
863.461	11032.55
863.782	10976.51
864.103	10964.3
864.424	10913.68
864.745	10997.52
865.065	10893.34
865.386	10894.02
865.707	10887.47
866.027	10887.47
866.348	10832.33
866.668	10781.48
866.989	10798.2
867.309	10777.87
867.63	10787.13
867.95	10751.43
868.27	10687.25
868.59	10734.48
868.91	10618.77
869.23	10664.65
869.55	10599.11
869.87	10599.34
870.19	10618.1
870.51	10582.39
870.83	10541.26
871.15	10539.68
871.469	10570.64
871.789	10517.08
872.109	10494.26
872.428	10450.19
872.748	10540.13
873.067	10480.25
873.386	10511.66
873.706	10503.07
874.025	10408.16
874.344	10430.76
874.663	10400.02
874.982	10329.97
875.301	10450.19
875.62	10311.44
875.939	10293.36
876.258	10328.84
876.577	10297.43
876.896	10307.14
877.214	10233.93
877.533	10282.29
877.852	10243.64
878.17	10256.3
878.489	10247.48
878.807	10168.62
879.125	10152.35
879.444	10098.11
879.762	10056.76
880.08	10080.71
880.398	10075.74
880.716	10059.92
881.034	10061.5
881.352	9995.29
881.67	10006.59
881.988	9976.76
882.306	9855.63
882.624	9874.61
882.941	9914.84
883.259	9815.63
883.577	9817.21
883.894	9836.42
884.212	9771.57
884.529	9823.32
884.846	9755.07
885.164	9668.29
885.481	9658.12
885.798	9725.46
886.115	9694.73
886.432	9595.52
886.75	9554.85
887.067	9563.43
887.383	9553.04
887.7	9569.99
888.017	9507.84
888.334	9574.51
888.651	9532.02
888.967	9422.42
889.284	9452.48
889.6	9359.82
889.917	9315.98
890.233	9364.57
890.55	9353.95
890.866	9259.71
891.182	9247.51
891.498	9289.54
891.815	9242.77
892.131	9156.21
892.447	9178.36
892.763	9173.39
893.079	9104.24
893.395	9075.31
893.71	9059.04
894.026	9032.38
894.342	8967.97
894.657	8954.64
894.973	8905.6
895.289	8950.57
895.604	8847.75
895.92	8883.9
896.235	8823.79
896.55	8784.02
896.865	8766.62
897.181	8712.84
897.496	8704.47
897.811	8715.1
898.126	8629.45
898.441	8619.28
898.756	8548.77
899.071	8577.47
899.386	8484.82
899.7	8465.61
900.015	8470.81
900.33	8366.4
900.644	8375.44
900.959	8329.34
901.273	8308.33
901.588	8276.92
901.902	8278.5
902.216	8249.12
902.531	8224.71
902.845	8199.18
903.159	8176.8
903.473	8040.09
903.787	7992.4
904.101	8046.64
904.415	7961.44
904.729	7972.29
905.042	7878.06
905.356	7924.16
905.67	7869.24
905.984	7877.83
906.297	7846.42
906.611	7809.58
906.924	7762.58
907.237	7771.62
907.551	7717.16
907.864	7656.82
908.177	7641.68
908.491	7589.93
908.804	7632.19
909.117	7538.86
909.43	7508.8
909.743	7522.36
910.056	7436.26
910.368	7447.78
910.681	7363.27
910.994	7339.54
911.307	7288.47
911.619	7317.62
911.932	7246.89
912.244	7216.38
912.557	7167.34
912.869	7140.45
913.181	7108.13
913.494	7091.86
913.806	7057.06
914.118	7108.81
914.43	7020.23
914.742	7032.2
915.054	6982.71
915.366	6937.97
915.678	6912.66
915.99	6871.08
916.302	6850.74
916.613	6813.9
916.925	6843.73
917.236	6779.1
917.548	6741.14
917.859	6702.27
918.171	6648.71
918.482	6634.47
918.794	6623.63
919.105	6596.73
919.416	6608.03
919.727	6566.9
920.038	6522.16
920.349	6558.54
920.66	6433.12
920.971	6477.41
921.282	6438.09
921.593	6399.9
921.903	6342.5
922.214	6320.36
922.525	6365.33
922.835	6304.54
923.146	6306.8
923.456	6232.9
923.767	6184.99
924.077	6217.99
924.387	6194.26
924.697	6083.98
925.008	6149.29
925.318	6060.93
925.628	6024.77
925.938	6022.06
926.248	5975.28
926.558	6002.4
926.867	5985
927.177	5914.27
927.487	5901.38
927.796	5936.64
928.106	5916.53
928.416	5841.5
928.725	5855.06
929.034	5822.97
929.344	5819.35
929.653	5740.94
929.962	5740.48
930.271	5772.12
930.581	5672.92
930.89	5677.89
931.199	5642.18
931.508	5609.19
931.817	5594.5
932.125	5491
932.434	5536.2
932.743	5526.48
933.051	5491.23
933.36	5467.72
933.669	5465.24
933.977	5416.43
934.286	5421.62
934.594	5460.27
934.902	5360.83
935.21	5365.13
935.519	5299.59
935.827	5322.42
936.135	5321.51
936.443	5246.71
936.751	5199.71
937.059	5245.81
937.367	5223.66
937.674	5180.27
937.982	5164.91
938.29	5094.63
938.597	5108.41
938.905	5093.5
939.213	5020.28
939.52	5075.42
939.827	5079.03
940.135	5024.8
940.442	5001.75
940.749	4986.83
941.056	5004.23
941.363	4923.78
941.67	4934.18
941.977	4892.6
942.284	4835.42
942.591	4790
942.898	4895.99
943.205	4799.94
943.511	4730.57
943.818	4783.45
944.125	4749.32
944.431	4695.99
944.738	4706.84
945.044	4674.07
945.35	4689.21
945.657	4639.5
945.963	4581.87
946.269	4605.6
946.575	4564.92
946.881	4559.5
947.187	4527.86
947.493	4494.87
947.799	4524.92
948.105	4498.71
948.41	4472.95
948.716	4456.45
949.022	4423.23
949.327	4422.55
949.633	4347.75
949.938	4357.7
950.244	4346.85
950.549	4341.2
950.854	4321.31
951.16	4314.31
951.465	4267.76
951.77	4285.38
952.075	4231.82
952.38	4207.87
952.685	4195.67
952.99	4160.87
953.294	4169.45
953.599	4122.22
953.904	4097.59
954.209	4095.33
954.513	4093.3
954.818	4029.12
955.122	4087.87
955.426	4061.66
955.731	4003.58
956.035	3997.03
956.339	3988.44
956.643	3985.5
956.948	3895.79
957.252	3955.9
957.556	3870.03
957.86	3885.62
958.163	3885.84
958.467	3848.78
958.771	3866.86
959.075	3835.22
959.378	3779.63
959.682	3820.99
959.985	3777.6
960.289	3760.2
960.592	3725.62
960.896	3730.59
961.199	3691.72
961.502	3683.82
961.805	3705.51
962.108	3656.92
962.411	3666.19
962.714	3641.56
963.017	3609.47
963.32	3644.27
963.623	3573.76
963.926	3623.48
964.228	3550.94
964.531	3560.43
964.833	3523.59
965.136	3506.87
965.438	3526.08
965.741	3510.94
966.043	3446.31
966.345	3435.69
966.648	3432.52
966.95	3459.41
967.252	3412.41
967.554	3395.69
967.856	3384.16
968.158	3369.25
968.46	3337.61
968.761	3364.05
969.063	3322.02
969.365	3302.81
969.666	3319.31
969.968	3246.31
970.269	3276.82
970.571	3243.83
970.872	3263.49
971.174	3244.96
971.475	3220.32
971.776	3174.9
972.077	3162.47
972.378	3160.21
972.679	3146.65
972.98	3161.12
973.281	3137.39
973.582	3137.16
973.883	3130.16
974.183	3098.52
974.484	3067.79
974.785	3065.07
975.085	3082.7
975.386	3037.05
975.686	2996.83
975.986	3036.83
976.287	3015.13
976.587	2983.72
976.887	2962.03
977.187	2944.63
977.487	2958.18
977.787	2921.35
978.087	2895.36
978.387	2903.5
978.687	2912.31
978.987	2913.44
979.286	2819.66
979.586	2816.27
979.885	2831.41
980.185	2830.28
980.484	2807
980.784	2805.87
981.083	2783.5
981.382	2785.99
981.682	2743.5
981.981	2729.94
982.28	2707.8
982.579	2704.86
982.878	2708.02
983.177	2733.56
983.475	2692.66
983.774	2667.57
984.073	2640.68
984.372	2647.23
984.67	2667.12
984.969	2638.19
985.267	2578.53
985.566	2582.6
985.864	2594.13
986.162	2557.07
986.461	2595.48
986.759	2537.63
987.057	2536.28
987.355	2516.84
987.653	2514.58
987.951	2483.85
988.249	2467.35
988.547	2494.24
988.844	2483.62
989.142	2496.95
989.44	2446.33
989.737	2429.84
990.035	2423.51
990.332	2423.28
990.63	2409.72
990.927	2401.14
991.224	2382.83
991.521	2397.52
991.819	2348.94
992.116	2355.26
992.413	2346.9
992.71	2294.47
993.006	2335.15
993.303	2315.94
993.6	2260.35
993.897	2291.54
994.193	2261.71
994.49	2300.12
994.787	2265.55
995.083	2226.9
995.379	2236.62
995.676	2231.2
995.972	2216.51
996.268	2188.49
996.565	2162.95
996.861	2171.31
997.157	2187.81
997.453	2159.79
997.749	2152.1
998.044	2134.25
998.34	2117.76
998.636	2103.97
998.932	2076.4
999.227	2097.87
999.523	2113.24
999.818	2050.41
1000.114	2076.63
1000.409	2055.38
1000.704	2056.97
1001	2045.67
1001.295	1987.14
1001.59	1984.65
1001.885	1964.54
1002.18	2009.96
1002.475	1956.63
1002.77	1982.17
1003.065	1930.87
1003.359	1906.01
1003.654	1949.62
1003.949	1914.14
1004.243	1913.01
1004.538	1883.18
1004.832	1897.42
1005.127	1899.46
1005.421	1864.43
1005.715	1874.82
1006.009	1850.19
1006.304	1817.65
1006.598	1812.45
1006.892	1821.04
1007.186	1813.13
1007.48	1809.51
1007.773	1789.85
1008.067	1793.47
1008.361	1780.59
1008.655	1756.63
1008.948	1738.78
1009.242	1767.26
1009.535	1684.09
1009.829	1733.81
1010.122	1669.18
1010.415	1691.33
1010.708	1680.7
1011.001	1685.45
1011.295	1653.81
1011.588	1652.46
1011.881	1648.61
1012.173	1627.15
1012.466	1643.87
1012.759	1622.85
1013.052	1606.81
1013.344	1608.39
1013.637	1601.84
1013.93	1573.59
1014.222	1575.17
1014.514	1551.44
1014.807	1520.48
1015.099	1540.14
1015.391	1534.49
1015.683	1521.61
1015.976	1540.6
1016.268	1506.47
1016.56	1463.53
1016.851	1475.74
1017.143	1502.63
1017.435	1482.07
1017.727	1485.68
1018.018	1427.15
1018.31	1443.42
1018.602	1444.55
1018.893	1423.76
1019.185	1451.33
1019.476	1410.2
1019.767	1426.7
1020.058	1389.19
1020.35	1365.23
1020.641	1385.57
1020.932	1372.46
1021.223	1358.9
1021.514	1324.1
1021.804	1326.82
1022.095	1320.04
1022.386	1330.21
1022.677	1318
1022.967	1311.9
1023.258	1291.56
1023.548	1268.06
1023.839	1263.31
1024.129	1252.47
1024.419	1275.52
1024.709	1254.5
1025	1239.81
1025.29	1231.9
1025.58	1235.52
1025.87	1239.81
1026.16	1236.87
1026.449	1194.84
1026.739	1193.03
1027.029	1180.6
1027.319	1169.76
1027.608	1200.94
1027.898	1169.31
1028.187	1144.9
1028.477	1152.58
1028.766	1142.41
1029.055	1134.73
1029.344	1150.32
1029.634	1134.28
1029.923	1131.11
1030.212	1136.54
1030.501	1096.76
1030.79	1098.57
1031.078	1101.74
1031.367	1074.84
1031.656	1052.02
1031.945	1070.78
1032.233	1104.22
1032.522	1068.97
1032.81	1036.43
1033.099	1023.55
1033.387	1022.19
1033.675	1024.45
1033.963	1007.28
1034.251	1012.47
1034.54	1009.76
1034.828	996.2
1035.116	995.52
1035.403	986.94
1035.691	987.16
1035.979	992.59
1036.267	979.03
1036.554	939.93
1036.842	941.97
1037.129	959.59
1037.417	954.17
1037.704	964.34
1037.992	915.75
1038.279	962.08
1038.566	967.28
1038.853	967.28
1039.14	967.28
