Data from hue_34_FLMS001491_00059.txt Node
Date: Tue Feb 07 17:25:50 GMT 2017
User: dcchb
Spectrometer: FLMS00149
Trigger mode: 0
Integration Time (sec): 2.000000E-2
Scans to average: 10
Electric dark correction enabled: true
Nonlinearity correction enabled: false
Boxcar width: 0
XAxis mode: Wavelengths
Number of Pixels in Spectrum: 2048
>>>>>Begin Spectral Data<<<<<
341.393	-35.58
341.776	-35.58
342.16	-35.58
342.543	-55.69
342.927	-65.41
343.31	-66.54
343.693	-50.49
344.077	-49.82
344.46	-88.46
344.843	-70.15
345.226	-40.78
345.61	-36.71
345.993	-15.92
346.376	-6.2
346.759	1.26
347.142	22.73
347.525	56.85
347.908	53.46
348.291	79
348.674	111.31
349.057	100.46
349.44	137.07
349.823	146.34
350.206	167.13
350.588	200.12
350.971	225.43
351.354	229.05
351.737	234.47
352.119	262.49
352.502	261.59
352.884	284.19
353.267	280.12
353.65	289.39
354.032	286.9
354.414	343.62
354.797	303.17
355.179	306.56
355.562	352.89
355.944	311.76
356.326	342.94
356.709	333.45
357.091	343.85
357.473	346.78
357.855	354.24
358.238	365.54
358.62	341.14
359.002	330.29
359.384	365.77
359.766	345.88
360.148	339.55
360.53	352.66
360.912	334.13
361.294	341.81
361.676	335.03
362.057	346.56
362.439	342.72
362.821	354.69
363.203	331.19
363.584	339.78
363.966	326.22
364.348	329.16
364.729	315.83
365.111	328.71
365.493	325.54
365.874	308.59
366.256	322.38
366.637	332.77
367.019	322.15
367.4	317.41
367.781	309.5
368.163	302.72
368.544	318.99
368.925	306.56
369.306	314.7
369.688	296.16
370.069	305.66
370.45	307.69
370.831	314.24
371.212	312.21
371.593	305.2
371.974	318.99
372.355	309.27
372.736	316.28
373.117	317.41
373.498	318.99
373.879	328.71
374.26	348.14
374.641	307.46
375.021	340.01
375.402	313.79
375.783	313.79
376.163	313.11
376.544	314.7
376.925	311.76
377.305	327.12
377.686	331.64
378.066	325.32
378.447	324.19
378.827	336.62
379.208	339.55
379.588	342.04
379.968	337.52
380.349	329.38
380.729	332.55
381.109	335.26
381.489	344.3
381.87	347.46
382.25	342.94
382.63	343.62
383.01	356.95
383.39	319.21
383.77	337.75
384.15	370.74
384.53	328.03
384.91	368.03
385.29	361.93
385.67	348.59
386.049	335.26
386.429	347.24
386.809	352.89
387.189	362.15
387.568	362.38
387.948	361.02
388.328	342.72
388.707	369.16
389.087	353.56
389.466	354.92
389.846	361.25
390.225	372.09
390.605	376.61
390.984	360.12
391.363	358.54
391.743	353.79
392.122	361.7
392.501	344.3
392.881	356.95
393.26	372.09
393.639	375.03
394.018	380
394.397	365.99
394.776	366.45
395.155	391.76
395.534	375.48
395.913	396.73
396.292	372.55
396.671	396.95
397.05	383.39
397.429	387.24
397.808	396.5
398.186	380.46
398.565	387.01
398.944	379.78
399.323	385.88
399.701	400.57
400.08	394.47
400.458	393.11
400.837	387.69
401.215	412.77
401.594	390.63
401.972	404.64
402.351	414.58
402.729	414.35
403.107	417.74
403.486	405.99
403.864	419.55
404.242	413.68
404.62	423.39
404.999	431.53
405.377	435.14
405.755	429.27
406.133	402.83
406.511	398.53
406.889	417.52
407.267	433.56
407.645	421.81
408.023	432.21
408.401	440.57
408.779	441.7
409.156	444.64
409.534	424.75
409.912	435.14
410.29	459.55
410.667	453
411.045	467.23
411.422	443.51
411.8	463.84
412.178	439.66
412.555	453.45
412.933	476.27
413.31	459.55
413.687	480.79
414.065	483.28
414.442	477.18
414.819	485.99
415.197	495.03
415.574	489.61
415.951	483.05
416.328	478.08
416.705	508.81
417.082	509.94
417.46	502.49
417.837	512.2
418.214	498.87
418.591	520.34
418.967	508.36
419.344	516.72
419.721	534.12
420.098	519.44
420.475	520.79
420.852	527.12
421.228	520.11
421.605	532.54
421.982	529.6
422.358	520.57
422.735	542.03
423.111	541.81
423.488	536.16
423.864	520.11
424.241	572.54
424.617	570.28
424.994	540.45
425.37	572.54
425.746	553.78
426.123	552.2
426.499	555.37
426.875	594.69
427.251	566.21
427.627	579.77
428.003	587.46
428.379	593.33
428.756	601.24
429.132	599.66
429.507	609.15
429.883	611.18
430.259	613.22
430.635	601.24
431.011	619.77
431.387	638.75
431.763	640.79
432.138	664.29
432.514	654.12
432.89	639.88
433.265	650.05
433.641	682.6
434.016	659.77
434.392	682.14
434.767	685.76
435.143	669.71
435.518	688.02
435.894	689.83
436.269	704.74
436.644	702.93
437.02	712.2
437.395	711.52
437.77	726.44
438.145	715.14
438.52	720.56
438.895	751.97
439.271	733.22
439.646	740.67
440.021	743.84
440.395	737.06
440.77	736.83
441.145	775.7
441.52	759.66
441.895	769.82
442.27	754.91
442.645	748.13
443.019	781.58
443.394	784.29
443.769	785.19
444.143	777.06
444.518	791.29
444.892	793.78
445.267	813.89
445.641	791.07
446.016	820.9
446.39	819.77
446.764	796.94
447.139	818.86
447.513	816.83
447.887	823.38
448.262	864.74
448.636	859.54
449.01	844.62
449.384	826.09
449.758	826.77
450.132	874.68
450.506	864.29
450.88	850.95
451.254	876.04
451.628	890.95
452.002	882.36
452.376	883.72
452.75	892.53
453.123	895.47
453.497	901.57
453.871	933.66
454.244	972.76
454.618	941.57
454.992	952.87
455.365	968.01
455.739	964.85
456.112	960.78
456.486	991.97
456.859	1005.98
457.232	1005.3
457.606	1017.73
457.979	1016.82
458.352	1060.66
458.725	1038.97
459.099	1065.18
459.472	1074.9
459.845	1053.66
460.218	1095.01
460.591	1099.31
460.964	1109.93
461.337	1122.36
461.71	1146.99
462.083	1144.05
462.456	1148.12
462.829	1173.66
463.201	1179.08
463.574	1162.81
463.947	1219.3
464.32	1237.83
464.692	1233.09
465.065	1235.8
465.438	1263.6
465.81	1262.92
466.183	1298.17
466.555	1290.71
466.928	1320.77
467.3	1323.93
467.672	1344.05
468.045	1401.9
468.417	1397.15
468.789	1398.96
469.161	1443.93
469.534	1439.86
469.906	1483.7
470.278	1517.6
470.65	1518.73
471.022	1557.6
471.394	1574.55
471.766	1557.37
472.138	1612.29
472.51	1658.39
472.882	1703.36
473.253	1732.28
473.625	1736.58
473.997	1787.65
474.369	1796.24
474.74	1837.82
475.112	1838.72
475.484	1881.21
475.855	1933.18
476.227	1989.91
476.598	1999.17
476.97	2070.36
477.341	2098.15
477.713	2163.46
478.084	2183.35
478.455	2249.11
478.827	2288.65
479.198	2345.6
479.569	2382.44
479.94	2483
480.311	2488.65
480.682	2574.75
481.053	2624.24
481.424	2695.88
481.795	2758.02
482.166	2779.94
482.537	2906.49
482.908	2955.08
483.279	3026.94
483.65	3067.62
484.021	3165.69
484.391	3256.31
484.762	3323.88
485.133	3378.34
485.503	3434.84
485.874	3517.55
486.244	3618.11
486.615	3674.61
486.985	3788.95
487.356	3846.35
487.726	3938.1
488.097	4103.07
488.467	4065.33
488.837	4240.69
489.207	4309.84
489.578	4346.91
489.948	4450.41
490.318	4534.02
490.688	4596.16
491.058	4689.27
491.428	4835.48
491.798	4926.33
492.168	5030.5
492.538	5046.1
492.908	5175.13
493.278	5307.33
493.648	5297.16
494.017	5407.22
494.387	5487.67
494.757	5569.92
495.126	5686.98
495.496	5703.03
495.866	5828.22
496.235	5934.89
496.605	5962.23
496.974	6015.11
497.344	6128.55
497.713	6270.24
498.082	6309.11
498.452	6383.69
498.821	6424.59
499.19	6438.15
499.559	6525.61
499.928	6646.51
500.298	6697.35
500.667	6797.24
501.036	6778.93
501.405	6903.22
501.774	6997.68
502.143	7037.46
502.512	7083.33
502.88	7111.58
503.249	7199.94
503.618	7288.75
503.987	7328.07
504.356	7414.4
504.724	7452.81
505.093	7483.09
505.462	7585.69
505.83	7612.81
506.199	7708.17
506.567	7807.61
506.936	7857.77
507.304	7903.87
507.672	7956.98
508.041	7984.1
508.409	8097.77
508.777	8170.31
509.145	8255.28
509.514	8229.74
509.882	8281.27
510.25	8367.82
510.618	8385.22
510.986	8472.67
511.354	8560.58
511.722	8562.39
512.09	8664.76
512.458	8685.32
512.826	8774.13
513.193	8793.12
513.561	8861.82
513.929	8883.96
514.297	9041.25
514.664	9083.28
515.032	9019.1
515.4	9121.7
515.767	9112.43
516.135	9208.7
516.502	9183.61
516.869	9331.86
517.237	9359.88
517.604	9334.57
517.972	9449.14
518.339	9518.97
518.706	9538.86
519.073	9590.61
519.44	9642.59
519.808	9661.79
520.175	9699.31
520.542	9859.3
520.909	9803.94
521.276	9922.58
521.643	9954.44
522.009	10004.38
522.376	10089.35
522.743	10111.05
523.11	10255.22
523.477	10263.81
523.843	10329.57
524.21	10368.44
524.577	10514.2
524.943	10617.48
525.31	10599.85
525.676	10694.99
526.043	10704.25
526.409	10739.28
526.776	10915.09
527.142	10929.56
527.508	10979.5
527.874	11128.42
528.241	11140.85
528.607	11106.5
528.973	11238.02
529.339	11240.06
529.705	11389.43
530.071	11394.4
530.437	11498.58
530.803	11536.77
531.169	11569.99
531.535	11603.44
531.901	11650.22
532.267	11749.65
532.632	11825.8
532.998	11855.63
533.364	11948.74
533.73	11902.64
534.095	12075.74
534.461	12137.44
534.826	12195.51
535.192	12245.91
535.557	12214.27
535.923	12283.65
536.288	12377.88
536.653	12454.94
537.019	12396.41
537.384	12534.71
537.749	12506.46
538.114	12516.86
538.479	12597.31
538.845	12745.55
539.21	12668.95
539.575	12790.75
539.94	12766.35
540.305	12840.24
540.67	12901.48
541.034	12958.66
541.399	12969.05
541.764	13085.43
542.129	13170.85
542.494	13164.75
542.858	13205.66
543.223	13144.87
543.587	13321.36
543.952	13318.65
544.316	13406.33
544.681	13393
545.045	13461.24
545.41	13500.79
545.774	13574.01
546.138	13587.34
546.503	13667.34
546.867	13666.66
547.231	13858.52
547.595	13895.35
547.959	13945.07
548.324	13940.1
548.688	13982.13
549.052	13957.5
549.416	14068.46
549.779	14110.94
550.143	14133.77
550.507	14258.28
550.871	14261.45
551.235	14295.12
551.599	14469.13
551.962	14431.84
552.326	14493.08
552.689	14443.36
553.053	14498.5
553.417	14559.29
553.78	14749.8
554.143	14623.92
554.507	14666.18
554.87	14756.35
555.234	14889.23
555.597	14793.64
555.96	14952.05
556.323	15005.16
556.686	14980.98
557.05	15025.95
557.413	15098.94
557.776	15141.88
558.139	15282.89
558.502	15343
558.865	15299.61
559.228	15466.84
559.59	15477.46
559.953	15389.1
560.316	15647.17
560.679	15642.65
561.041	15808.75
561.404	15785.25
561.767	15804.46
562.129	15772.14
562.492	15979.59
562.854	15898.69
563.217	15903.44
563.579	16018.69
563.941	16118.57
564.304	16145.92
564.666	16239.93
565.028	16259.81
565.39	16280.15
565.753	16409.19
566.115	16464.1
566.477	16552.91
566.839	16588.62
567.201	16728.27
567.563	16695.06
567.925	16802.85
568.287	16902.73
568.648	16990.19
569.01	16955.84
569.372	17100.47
569.734	17058.66
570.095	17262.95
570.457	17258.43
570.819	17212.56
571.18	17276.73
571.542	17451.19
571.903	17457.97
572.265	17537.07
572.626	17690.28
572.987	17687.12
573.349	17872.65
573.71	17875.59
574.071	17967.56
574.432	18064.51
574.794	18261.34
575.155	18262.47
575.516	18361.9
575.877	18357.61
576.238	18547.89
576.599	18598.96
576.96	18741.1
577.32	18841.44
577.681	18971.61
578.042	19081.89
578.403	19116.23
578.763	19346.74
579.124	19380.18
579.485	19615.66
579.845	19836.89
580.206	19888.42
580.566	20045.25
580.927	20103.55
581.287	20314.4
581.648	20408.63
582.008	20730.66
582.368	20766.36
582.728	20933.59
583.089	21070.99
583.449	21327.02
583.809	21571.54
584.169	21806.33
584.529	21727.24
584.889	22209.03
585.249	22236.6
585.609	22435.92
585.969	22829.81
586.329	22825.29
586.688	23163.36
587.048	23289.01
587.408	23499.17
587.768	23665.27
588.127	23927.41
588.487	24082.88
588.846	24639.48
589.206	24591.8
589.565	24752.02
589.925	25272.46
590.284	25319.24
590.643	25577.08
591.003	25981.82
591.362	26211.19
591.721	26380.22
592.08	26606.43
592.44	26997.16
592.799	27185.63
593.158	27291.61
593.517	27729.12
593.876	27901.99
594.235	28174.08
594.593	28361.64
594.952	28535.42
595.311	28671.01
595.67	29249.75
596.029	29410.65
596.387	29612.68
596.746	29943.97
597.104	29992.11
597.463	30281.59
597.822	30594.8
598.18	30834.8
598.538	30941.46
598.897	31210.38
599.255	31360.88
599.613	31948.67
599.972	31765.17
600.33	32255.1
600.688	32368.99
601.046	32717.46
601.404	32873.16
601.762	33056.43
602.12	33413.26
602.478	33553.37
602.836	33598.57
603.194	33590.43
603.552	33940.48
603.91	34107.93
604.268	34337.53
604.625	34571.42
604.983	34789.49
605.341	34867.91
605.698	35223.16
606.056	35364.85
606.413	35456.37
606.771	35736.14
607.128	35874.89
607.485	35950.14
607.843	36122.79
608.2	36517.81
608.557	36582.22
608.914	36572.72
609.272	37076.89
609.629	37168.87
609.986	37262.65
610.343	37142.2
610.7	37623.32
611.057	37621.74
611.414	37793.71
611.771	38021.27
612.127	38250.42
612.484	38338.55
612.841	38607.02
613.198	38514.14
613.554	38703.74
613.911	38922.04
614.267	38979.44
614.624	39060.79
614.98	39246.78
615.337	39561.8
615.693	39526.09
616.05	39559.09
616.406	39980.77
616.762	39912.07
617.118	40004.95
617.475	39868.91
617.831	40179.64
618.187	40281.78
618.543	40345.05
618.899	40576.01
619.255	40490.14
619.611	40628.44
619.967	40818.04
620.323	41120.18
620.678	40834.31
621.034	40951.14
621.39	41030.46
621.746	41095.54
622.101	41541.86
622.457	41219.38
622.812	41540.05
623.168	41541.41
623.523	41551.35
623.879	41777.11
624.234	41453.95
624.589	41596.32
624.945	41785.92
625.3	41831.12
625.655	41894.17
626.01	41920.15
626.365	41994.28
626.72	41953.83
627.075	41964.67
627.43	41994.05
627.785	42033.15
628.14	42157.66
628.495	42239.69
628.85	42121.73
629.205	42028.17
629.559	42311.33
629.914	42230.88
630.269	42277.43
630.623	42161.5
630.978	42178.45
631.332	42288.51
631.687	42413.7
632.041	42283.08
632.396	42428.62
632.75	42122.64
633.104	42423.19
633.459	42163.09
633.813	42267.49
634.167	42293.25
634.521	42325.34
634.875	42314.72
635.229	42234.27
635.583	42168.74
635.937	42129.64
636.291	42138.45
636.645	42134.16
636.999	42113.6
637.352	42208.96
637.706	41909.76
638.06	42217.55
638.413	42205.8
638.767	42101.62
639.121	42089.19
639.474	41927.61
639.828	42070.21
640.181	42079.92
640.534	42060.04
640.888	41729.2
641.241	41610.56
641.594	41954.05
641.947	42146.14
642.301	41842.64
642.654	41879.03
643.007	42054.39
643.36	41954.96
643.713	41731.69
644.066	42045.58
644.419	41793.6
644.771	41313.17
645.124	41136.67
645.477	41147.29
645.83	40715.44
646.182	40799.96
646.535	40576.91
646.888	40871.37
647.24	40460.31
647.593	40655.1
647.945	40551.6
648.298	40528.33
648.65	40264.61
649.002	40316.58
649.355	40451.72
649.707	40487.88
650.059	40748.21
650.411	41164.69
650.763	41167.86
651.115	41456.44
651.467	41396.1
651.819	41400.39
652.171	41382.54
652.523	41309.32
652.875	41219.83
653.227	41036.79
653.578	41340.74
653.93	41310.68
654.282	41097.35
654.633	41028.2
654.985	41075.43
655.337	41240.17
655.688	41074.98
656.039	41338.48
656.391	40917.02
656.742	41018.26
657.094	41059.16
657.445	41069.33
657.796	41017.35
658.147	41000.4
658.498	40890.13
658.849	41096
659.2	41050.35
659.551	40834.53
659.902	41032.04
660.253	41082.89
660.604	40999.5
660.955	40805.38
661.306	40852.16
661.656	40865.49
662.007	40826.17
662.358	40801.99
662.708	40790.69
663.059	40757.47
663.409	40614.88
663.76	40893.97
664.11	40832.05
664.461	40895.55
664.811	40829.79
665.161	40784.14
665.511	40763.35
665.862	40843.35
666.212	40914.53
666.562	40732.16
666.912	40857.58
667.262	40729
667.612	40698.04
667.962	40714.99
668.312	40804.03
668.662	40866.62
669.011	40702.11
669.361	40707.53
669.711	40744.37
670.06	40590.25
670.41	40631.6
670.76	40556.35
671.109	40685.16
671.459	40729.23
671.808	40437.93
672.157	40738.49
672.507	40434.32
672.856	40491.72
673.205	40543.92
673.554	40595.67
673.904	40474.77
674.253	40697.36
674.602	40490.59
674.951	39984.84
675.3	39698.74
675.649	40282.23
675.998	40358.84
676.346	40404.49
676.695	40445.39
677.044	40119.52
677.393	40223.93
677.741	40406.07
678.09	40214.66
678.438	40196.58
678.787	40265.74
679.135	40206.53
679.484	39912.75
679.832	40165.4
680.181	39865.97
680.529	39997.72
680.877	39741.68
681.225	39768.12
681.573	40096.47
681.922	39801.34
682.27	39697.39
682.618	39640.21
682.966	39677.5
683.314	39698.97
683.661	39523.38
684.009	39436.15
684.357	39180.57
684.705	39378.3
685.053	39374.23
685.4	39346.89
685.748	39086.33
686.095	39128.36
686.443	38936.28
686.79	38949.61
687.138	39051.3
687.485	39166.55
687.832	38789.84
688.18	38814.47
688.527	38718.88
688.874	38722.5
689.221	38577.87
689.568	38554.14
689.915	38364.99
690.262	38444.99
690.609	38258.1
690.956	38100.59
691.303	38135.4
691.65	37810.21
691.997	37886.14
692.344	37762.75
692.69	37659.7
693.037	37629.87
693.383	37376.32
693.73	37523.66
694.077	37250.9
694.423	37299.71
694.769	37211.13
695.116	37200.73
695.462	37036.22
695.808	36990.79
696.155	37053.39
696.501	36778.37
696.847	36701.31
697.193	36492.95
697.539	36685.72
697.885	36452.95
698.231	36377.93
698.577	36407.76
698.923	36294.31
699.269	36140.65
699.614	35978.62
699.96	35904.49
700.306	35874.89
700.651	35876.7
700.997	35651.17
701.342	35555.8
701.688	35544.73
702.033	35392.42
702.379	35459.31
702.724	35393.09
703.069	35330.72
703.415	34849.61
703.76	34992.65
704.105	34866.33
704.45	34867.23
704.795	34740.46
705.14	34523.97
705.485	34550.41
705.83	34327.13
706.175	34563.74
706.52	34469.73
706.865	34438.09
707.209	34222.73
707.554	34117.87
707.899	34202.62
708.243	34038.33
708.588	34055.95
708.932	33812.57
709.277	33775.28
709.621	33665.46
709.966	33646.47
710.31	33638.34
710.654	33301.62
710.998	33413.94
711.342	33510.66
711.687	33208.07
712.031	33136.43
712.375	32938.02
712.719	33102.31
713.063	32982.31
713.407	33003.33
713.75	32866.61
714.094	32827.06
714.438	32796.78
714.782	32801.75
715.125	32554.07
715.469	32634.3
715.812	32523.11
716.156	32293.06
716.499	32297.13
716.843	32365.38
717.186	32149.34
717.53	32412.16
717.873	32305.27
718.216	32169.22
718.559	32160.86
718.902	31832.28
719.246	31939.63
719.589	31802.23
719.932	31758.39
720.275	31610.14
720.617	31722.68
720.96	31654.21
721.303	31520.88
721.646	31629.8
721.989	31364.73
722.331	31382.58
722.674	31387.32
723.016	31420.09
723.359	31397.95
723.701	31276.37
724.044	31045.64
724.386	31093.09
724.729	31174.9
725.071	31043.6
725.413	31112.53
725.755	30934.91
726.097	30828.7
726.439	30768.36
726.782	30723.84
727.124	30795.02
727.465	30697.85
727.807	30821.46
728.149	30638.87
728.491	30542.37
728.833	30570.4
729.175	30535.6
729.516	30524.75
729.858	30376.28
730.199	30504.86
730.541	30396.39
730.882	30229.39
731.224	30376.5
731.565	30174.02
731.906	30124.76
732.248	30218.32
732.589	30023.07
732.93	29906.69
733.271	29888.15
733.612	29871.66
733.953	30001.37
734.294	29845.22
734.635	29785.78
734.976	29806.35
735.317	29569.07
735.658	29540.82
735.999	29648.61
736.339	29506.02
736.68	29568.84
737.021	29336.76
737.361	29380.82
737.702	29512.57
738.042	29374.72
738.383	29331.79
738.723	29574.94
739.063	29293.37
739.404	29347.38
739.744	29203.43
740.084	29125.24
740.424	29182.41
740.764	29045.92
741.104	29144.22
741.444	28965.92
741.784	28965.24
742.124	28969.76
742.464	28908.52
742.804	28888.86
743.143	28815.19
743.483	28727.51
743.823	28672.59
744.162	28675.53
744.502	28720.28
744.841	28640.28
745.181	28624.69
745.52	28532.71
745.86	28465.14
746.199	28487.51
746.538	28536.78
746.877	28433.5
747.216	28407.97
747.556	28308.99
747.895	28310.8
748.234	28236.9
748.573	28156.22
748.911	28096.56
749.25	28152.38
749.589	27941.54
749.928	28061.31
750.267	28048.66
750.605	27929.34
750.944	27827.42
751.283	27637.59
751.621	27873.74
751.96	27681.21
752.298	27688.66
752.636	27701.77
752.975	27384.72
753.313	27329.35
753.651	27481.21
753.989	27373.87
754.327	27372.97
754.666	27071.05
755.004	27255
755.342	27265.62
755.679	27064.05
756.017	26949.93
756.355	27206.19
756.693	26995.58
757.031	26980.66
757.368	26742.47
757.706	26860.21
758.044	26660.67
758.381	26751.74
758.719	26595.81
759.056	26693.21
759.394	26533.44
759.731	26383.16
760.068	26330.06
760.405	26358.3
760.743	26203.28
761.08	26024.3
761.417	26049.16
761.754	25948.6
762.091	25929.61
762.428	25882.84
762.765	25799
763.102	25698.21
763.438	25604.88
763.775	25663.41
764.112	25573.47
764.449	25600.81
764.785	25453.47
765.122	25347.94
765.458	25143.42
765.795	25073.59
766.131	25185.91
766.467	24917.44
766.804	24925.12
767.14	24740.49
767.476	24852.58
767.812	24698.01
768.148	24700.49
768.485	24550.22
768.821	24433.83
769.157	24399.71
769.492	24322.43
769.828	24295.08
770.164	24071.36
770.5	24069.55
770.836	24164.01
771.171	23863
771.507	23807.86
771.842	23624.36
772.178	23576.68
772.513	23484.71
772.849	23473.86
773.184	23364.71
773.519	23343.47
773.855	23351.38
774.19	23095.34
774.525	23021.22
774.86	23065.06
775.195	22951.16
775.53	22895.12
775.865	22728.12
776.2	22652.86
776.535	22418.29
776.87	22473.21
777.205	22363.83
777.539	22357.28
777.874	22327.9
778.209	22146.44
778.543	22211.52
778.878	21937.18
779.212	21955.71
779.547	21794.58
779.881	21822.38
780.215	21716.17
780.55	21715.71
780.884	21594.81
781.218	21491.99
781.552	21494.7
781.886	21345.1
782.22	21268.49
782.554	21193.24
782.888	21013.81
783.222	20950.31
783.556	20817.21
783.889	20781.05
784.223	20627.38
784.557	20754.16
784.89	20633.71
785.224	20537.67
785.557	20464.67
785.891	20378.12
786.224	20287.28
786.558	20374.28
786.891	20104.23
787.224	20117.56
787.557	19988.3
787.891	19918.93
788.224	19934.29
788.557	19931.81
788.89	19812.04
789.223	19793.28
789.556	19617.46
789.888	19581.08
790.221	19596.9
790.554	19295.89
790.887	19476.68
791.219	19349.67
791.552	19312.39
791.884	19141.54
792.217	19093.86
792.549	19089.57
792.882	18925.05
793.214	18833.76
793.546	18801.89
793.879	18711.05
794.211	18662.24
794.543	18622.69
794.875	18631.05
795.207	18667.66
795.539	18519.19
795.871	18513.54
796.203	18255.69
796.535	18189.93
796.867	18112.87
797.198	18231.96
797.53	18155.81
797.862	18031.07
798.193	18057.05
798.525	17948.58
798.856	17864.29
799.188	17704.75
799.519	17747.01
799.85	17591.08
800.182	17624.97
800.513	17572.77
800.844	17451.19
801.175	17541.13
801.506	17536.62
801.837	17380.24
802.168	17349.28
802.499	17361.48
802.83	17193.8
803.161	17192.44
803.491	17155.16
803.822	17153.8
804.153	17063.86
804.483	16833.81
804.814	16757.43
805.145	16821.38
805.475	16851.21
805.805	16754.26
806.136	16712
806.466	16576.19
806.796	16597.2
807.126	16459.58
807.457	16441.05
807.787	16465.46
808.117	16480.82
808.447	16380.49
808.777	16417.77
809.107	16281.73
809.436	16260.26
809.766	16234.95
810.096	16177.55
810.426	16112.25
810.755	16227.72
811.085	16038.8
811.414	16065.92
811.744	16001.51
812.073	15947.28
812.403	15956.09
812.732	15816.43
813.061	15832.03
813.39	15680.62
813.719	15717.45
814.049	15690.79
814.378	15696.21
814.707	15586.16
815.036	15630.68
815.365	15479.49
815.693	15343
816.022	15328.31
816.351	15312.94
816.68	15198.82
817.008	15297.13
817.337	15153.85
817.665	15142.55
817.994	15140.07
818.322	15117.02
818.651	15004.25
818.979	15066.17
819.307	15035.44
819.636	15005.38
819.964	14890.81
820.292	14879.74
820.62	14936.91
820.948	14810.13
821.276	14861.43
821.604	14861.43
821.932	14889.45
822.259	14867.98
822.587	14843.35
822.915	14777.59
823.243	14836.35
823.57	14799.51
823.898	14896.91
824.225	14793.41
824.553	14791.6
824.88	14807.65
825.207	14842.45
825.535	14764.71
825.862	14790.25
826.189	14743.92
826.516	14791.83
826.843	14844.26
827.17	14716.12
827.497	14825.73
827.824	14718.16
828.151	14766.97
828.478	14686.97
828.805	14850.36
829.131	14722.23
829.458	14723.13
829.785	14637.48
830.111	14729.46
830.438	14800.64
830.764	14662.34
831.09	14830.47
831.417	14660.53
831.743	14749.8
832.069	14760.19
832.395	14678.84
832.722	14712.28
833.048	14597.48
833.374	14755.45
833.7	14580.99
834.026	14614.21
834.351	14688.33
834.677	14666.86
835.003	14603.13
835.329	14585.28
835.654	14612.62
835.98	14432.97
836.306	14479.75
836.631	14525.39
836.956	14543.02
837.282	14415.12
837.607	14447.43
837.932	14430.03
838.258	14428.9
838.583	14402.01
838.908	14314.55
839.233	14281.11
839.558	14237.27
839.883	14227.55
840.208	14217.15
840.533	14131.51
840.858	14214.22
841.182	14188.23
841.507	14113.88
841.832	13982.58
842.156	13974.22
842.481	14035.01
842.805	14000.66
843.13	13941.23
843.454	13951.17
843.778	13854.68
844.103	13798.41
844.427	13807.67
844.751	13858.52
845.075	13785.08
845.399	13759.99
845.723	13652.88
846.047	13580.56
846.371	13508.02
846.695	13468.02
847.019	13419.21
847.343	13432.32
847.666	13301.02
847.99	13284.07
848.313	13208.82
848.637	13146.9
848.96	13178.76
849.284	13115.49
849.607	13029.62
849.931	13013.57
850.254	12948.94
850.577	12795.04
850.9	12710.75
851.223	12741.04
851.546	12635.5
851.869	12538.78
852.192	12623.3
852.515	12543.3
852.838	12518.22
853.161	12494.04
853.483	12405.9
853.806	12350.99
854.129	12275.06
854.451	12360.25
854.774	12293.36
855.096	12178.79
855.419	12221.05
855.741	12071.67
856.063	12077.1
856.385	12087.27
856.708	12070.54
857.03	11931.34
857.352	11934.95
857.674	11937.44
857.996	11877.33
858.318	11746.71
858.64	11831.23
858.961	11800.27
859.283	11744.23
859.605	11643.66
859.926	11764.11
860.248	11649.54
860.57	11664.91
860.891	11652.25
861.212	11569.77
861.534	11563.21
861.855	11445.93
862.176	11519.37
862.498	11555.98
862.819	11495.19
863.14	11439.83
863.461	11409.54
863.782	11345.59
864.103	11420.17
864.424	11335.87
864.745	11389.43
865.065	11218.59
865.386	11281.41
865.707	11217.01
866.027	11280.96
866.348	11174.3
866.668	11174.52
866.989	11181.75
867.309	11159.38
867.63	11151.92
867.95	11059.95
868.27	11036.45
868.59	11047.07
868.91	10997.58
869.23	11015.2
869.55	10953.51
869.87	11028.09
870.19	10954.87
870.51	10911.48
870.83	10975.66
871.15	10951.48
871.469	10920.97
871.789	10808.88
872.109	10839.62
872.428	10805.49
872.748	10821.31
873.067	10764.59
873.386	10815.66
873.706	10804.36
874.025	10743.57
874.344	10726.17
874.663	10730.69
874.982	10730.92
875.301	10729.34
875.62	10643.46
875.939	10624.48
876.258	10614.09
876.577	10610.92
876.896	10649.11
877.214	10529.79
877.533	10578.83
877.852	10491.6
878.17	10544.71
878.489	10570.7
878.807	10505.61
879.125	10367.09
879.444	10467.42
879.762	10433.98
880.08	10379.06
880.398	10352.62
880.716	10461.55
881.034	10393.75
881.352	10359.63
881.67	10285.51
881.988	10263.36
882.306	10268.78
882.624	10245.28
882.941	10235.11
883.259	10160.76
883.577	10167.54
883.894	10114.44
884.212	10104.49
884.529	10119.18
884.846	10097.71
885.164	10009.81
885.481	10006.19
885.798	10037.38
886.115	9845.29
886.432	9959.87
886.75	9925.97
887.067	9910.15
887.383	9854.33
887.7	9830.83
888.017	9829.25
888.334	9818.4
888.651	9784.05
888.967	9825.18
889.284	9659.53
889.6	9726.43
889.917	9675.13
890.233	9659.99
890.55	9578.18
890.866	9646.88
891.182	9564.85
891.498	9519.42
891.815	9483.27
892.131	9476.26
892.447	9487.34
892.763	9456.83
893.079	9350.39
893.395	9353.78
893.71	9352.42
894.026	9371.86
894.342	9295.02
894.657	9205.53
894.973	9170.51
895.289	9169.38
895.604	9206.44
895.92	9172.77
896.235	9163.05
896.55	9091.64
896.865	9057.97
897.181	9021.81
897.496	9025.88
897.811	8964.64
898.126	8948.37
898.441	8879.89
898.756	8876.73
899.071	8799.9
899.386	8831.53
899.7	8757.64
900.015	8740.01
900.33	8716.96
900.644	8668.37
900.959	8673.57
901.273	8643.06
901.588	8602.39
901.902	8584.53
902.216	8578.43
902.531	8488.04
902.845	8411.21
903.159	8400.36
903.473	8366.01
903.787	8351.09
904.101	8306.12
904.415	8364.43
904.729	8300.7
905.042	8221.61
905.356	8289.63
905.67	8208.05
905.984	8153.36
906.297	8118.78
906.611	8092.8
906.924	8104.09
907.237	8090.99
907.551	8050.76
907.864	7962.4
908.177	7994.72
908.491	7980.93
908.804	7948.84
909.117	7858.45
909.43	7791.11
909.743	7794.05
910.056	7765.8
910.368	7802.41
910.681	7682.19
910.994	7642.64
911.307	7611.45
911.619	7507.05
911.932	7589.53
912.244	7491.68
912.557	7500.49
912.869	7429.08
913.181	7439.48
913.494	7449.87
913.806	7382.53
914.118	7385.92
914.43	7311.12
914.742	7341.63
915.054	7232.03
915.366	7220.95
915.678	7203.55
915.99	7167.62
916.302	7079.26
916.613	7069.55
916.925	7083.33
917.236	7072.94
917.548	7015.31
917.859	7025.71
918.171	6971.02
918.482	6904.13
918.794	6876.1
919.105	6903.45
919.416	6837.69
919.727	6783.23
920.038	6790.23
920.349	6779.16
920.66	6733.96
920.971	6674.08
921.282	6745.26
921.593	6641.08
921.903	6590.91
922.214	6619.84
922.525	6504.14
922.835	6549.33
923.146	6528.54
923.456	6438.15
923.767	6415.55
924.077	6465.95
924.387	6393.18
924.697	6425.95
925.008	6300.75
925.318	6335.33
925.628	6270.7
925.938	6312.5
926.248	6278.83
926.558	6216.69
926.867	6207.65
927.177	6186.41
927.487	6081.78
927.796	6081.32
928.106	6028.44
928.416	6030.03
928.725	6013.08
929.034	6000.65
929.344	6009.46
929.653	5980.99
929.962	5962
930.271	5867.54
930.581	5899.18
930.89	5804.49
931.199	5807.66
931.508	5820.09
931.817	5783.7
932.125	5798.39
932.434	5781.44
932.743	5753.2
933.051	5680.43
933.36	5680.2
933.669	5627.1
933.977	5574.9
934.286	5609.7
934.594	5605.63
934.902	5503.49
935.21	5514.78
935.519	5468.91
935.827	5497.16
936.135	5470.49
936.443	5415.58
936.751	5367.9
937.059	5374.45
937.367	5367.22
937.674	5352.08
937.982	5290.16
938.29	5306.2
938.597	5300.33
938.905	5228.69
939.213	5143.72
939.52	5183.49
939.827	5184.62
940.135	5172.42
940.442	5091.07
940.749	5112.54
941.056	5113.21
941.363	5036.15
941.67	5047.23
941.977	5006.1
942.284	4946.66
942.591	4970.39
942.898	4909.38
943.205	4938.75
943.511	4948.25
943.818	4875.25
944.125	4862.82
944.431	4870.51
944.738	4834.58
945.044	4759.78
945.35	4756.39
945.657	4719.55
945.963	4771.3
946.269	4710.74
946.575	4721.58
946.881	4606.33
947.187	4705.31
947.493	4652.43
947.799	4652.21
948.105	4593.68
948.41	4623.96
948.716	4577.63
949.022	4544.19
949.327	4536.96
949.633	4484.08
949.938	4496.05
950.244	4455.6
950.549	4407.92
950.854	4419.45
951.16	4456.51
951.465	4398.2
951.77	4365.66
952.075	4301.26
952.38	4305.78
952.685	4333.8
952.99	4279.79
953.294	4298.09
953.599	4244.54
953.904	4239.56
954.209	4198.89
954.513	4193.69
954.818	4202.5
955.122	4174.93
955.426	4118.44
955.731	4147.59
956.035	4102.84
956.339	4100.81
956.643	4095.16
956.948	4068.72
957.252	4071.66
957.556	4009.29
957.86	4014.03
958.163	4012.9
958.467	3973.36
958.771	3941.04
959.075	3946.46
959.378	3917.99
959.682	3921.15
959.985	3909.63
960.289	3851.1
960.592	3863.98
960.896	3874.6
961.199	3815.85
961.502	3819.24
961.805	3834.6
962.108	3758.9
962.411	3770.2
962.714	3705.11
963.017	3721.61
963.32	3739.24
963.623	3663.08
963.926	3703.76
964.228	3652.46
964.531	3669.18
964.833	3664.66
965.136	3576.76
965.438	3551.9
965.741	3585.57
966.043	3562.75
966.345	3565.23
966.648	3560.03
966.95	3524.55
967.252	3492.24
967.554	3488.62
967.856	3467.15
968.158	3445.46
968.46	3460.6
968.761	3415.18
969.063	3435.74
969.365	3340.83
969.666	3379.7
969.968	3339.93
970.269	3321.62
970.571	3361.17
970.872	3332.47
971.174	3321.4
971.475	3279.36
971.776	3276.65
972.077	3264
972.378	3253.37
972.679	3258.35
972.98	3254.05
973.281	3187.61
973.582	3212.47
973.883	3154.62
974.183	3170.21
974.484	3135.86
974.785	3109.42
975.085	3138.12
975.386	3144
975.686	3121.17
975.986	3088.41
976.287	3071.01
976.587	3035.53
976.887	3014.06
977.187	3017.45
977.487	3014.51
977.787	3032.14
978.087	3010.22
978.387	2990.1
978.687	2988.07
978.987	2949.43
979.286	2919.15
979.586	2945.59
979.885	2879.83
980.185	2864.91
980.484	2910.33
980.784	2873.05
981.083	2876.21
981.382	2822.2
981.682	2848.87
981.981	2820.39
982.28	2773.84
982.579	2764.8
982.878	2797.57
983.177	2784.46
983.475	2773.16
983.774	2763.22
984.073	2723.9
984.372	2702.88
984.67	2735.87
984.969	2712.82
985.267	2710.79
985.566	2690
985.864	2628.31
986.162	2653.16
986.461	2643.22
986.759	2623.33
987.057	2611.13
987.355	2623.33
987.653	2619.27
987.951	2593.96
988.249	2556.22
988.547	2572.04
988.844	2565.03
989.142	2528.42
989.44	2504.69
989.737	2515.54
990.035	2524.13
990.332	2485.49
990.63	2453.85
990.927	2443.68
991.224	2435.54
991.521	2447.75
991.819	2450.46
992.116	2428.76
992.413	2400.97
992.71	2384.02
993.006	2399.39
993.303	2399.61
993.6	2393.74
993.897	2375.21
994.193	2357.58
994.49	2343.12
994.787	2323.46
995.083	2302.67
995.379	2290.24
995.676	2300.86
995.972	2278.03
996.268	2263.34
996.565	2258.82
996.861	2257.92
997.157	2266.06
997.453	2212.95
997.749	2219.96
998.044	2169.79
998.34	2201.65
998.636	2187.64
998.932	2165.27
999.227	2179.05
999.523	2164.14
999.818	2140.64
1000.114	2154.42
1000.409	2128.66
1000.704	2079.17
1001	2058.83
1001.295	2075.78
1001.59	2069.45
1001.885	2076.91
1002.18	2052.95
1002.475	2039.62
1002.77	2013.41
1003.065	2000.07
1003.359	1993.97
1003.654	2007.31
1003.949	1977.25
1004.243	1987.42
1004.538	1959.4
1004.832	1969.34
1005.127	1942.9
1005.421	1925.5
1005.715	1920.53
1006.009	1931.38
1006.304	1905.84
1006.598	1877.37
1006.892	1858.38
1007.186	1891.6
1007.48	1855.22
1007.773	1873.98
1008.067	1843.92
1008.361	1818.38
1008.655	1824.03
1008.948	1816.12
1009.242	1809.12
1009.535	1753.3
1009.829	1738.84
1010.122	1760.76
1010.415	1761.21
1010.708	1718.73
1011.001	1706.75
1011.295	1722.79
1011.588	1707.43
1011.881	1713.53
1012.173	1686.41
1012.466	1680.31
1012.759	1683.92
1013.052	1666.75
1013.344	1666.3
1013.637	1642.8
1013.93	1638.5
1014.222	1628.78
1014.514	1599.86
1014.807	1633.3
1015.099	1595.34
1015.391	1598.5
1015.683	1588.11
1015.976	1554.66
1016.268	1555.34
1016.56	1543.59
1016.851	1570.48
1017.143	1537.94
1017.435	1549.69
1017.727	1553.53
1018.018	1498.84
1018.31	1503.82
1018.602	1507.21
1018.893	1473.99
1019.185	1469.69
1019.476	1443.93
1019.767	1441.9
1020.058	1445.96
1020.35	1430.37
1020.641	1420.2
1020.932	1424.27
1021.223	1420.43
1021.514	1379.07
1021.804	1391.73
1022.095	1377.72
1022.386	1378.17
1022.677	1352.63
1022.967	1342.24
1023.258	1345.18
1023.548	1339.07
1023.839	1317.83
1024.129	1305.63
1024.419	1336.36
1024.709	1292.52
1025	1283.94
1025.29	1270.6
1025.58	1272.18
1025.87	1256.59
1026.16	1255.69
1026.449	1264.05
1026.739	1264.27
1027.029	1219.98
1027.319	1230.38
1027.608	1196.48
1027.898	1214.56
1028.187	1201
1028.477	1193.54
1028.766	1203.26
1029.055	1201.68
1029.344	1177.27
1029.634	1168.01
1029.923	1158.51
1030.212	1140.89
1030.501	1136.14
1030.79	1139.53
1031.078	1153.09
1031.367	1123.26
1031.656	1114.45
1031.945	1106.99
1032.233	1112.19
1032.522	1103.83
1032.81	1087.56
1033.099	1074
1033.387	1045.52
1033.675	1053.88
1033.963	1044.17
1034.251	1063.6
1034.54	1046.43
1034.828	1032.19
1035.116	1003.04
1035.403	1007.33
1035.691	1006.2
1035.979	998.52
1036.267	966.66
1036.554	997.39
1036.842	984.28
1037.129	990.84
1037.417	998.07
1037.704	967.11
1037.992	958.97
1038.279	939.76
1038.566	973.89
1038.853	973.89
1039.14	973.89
