Data from hue_60_FLMS001491_7.txt Node
Date: Mon Feb 06 15:11:51 GMT 2017
User: dcchb
Spectrometer: FLMS00149
Trigger mode: 0
Integration Time (sec): 2.000000E-2
Scans to average: 10
Electric dark correction enabled: true
Nonlinearity correction enabled: false
Boxcar width: 0
XAxis mode: Wavelengths
Number of Pixels in Spectrum: 2048
>>>>>Begin Spectral Data<<<<<
341.393	-26.81
341.776	-26.81
342.16	-26.81
342.543	-59.35
342.927	-83.53
343.31	-75.85
343.693	-63.87
344.077	-62.51
344.46	-54.6
344.843	-61.16
345.226	-48.95
345.61	-17.54
345.993	-15.28
346.376	-0.37
346.759	-2.4
347.142	23.59
347.525	35.79
347.908	57.03
348.291	74.43
348.674	98.61
349.057	113.08
349.44	149.91
349.823	127.54
350.206	159.63
350.588	206.41
350.971	219.97
351.354	231.04
351.737	233.3
352.119	242.11
352.502	266.74
352.884	268.33
353.267	274.65
353.65	304.94
354.032	314.88
354.414	311.94
354.797	320.53
355.179	323.24
355.562	324.37
355.944	325.27
356.326	332.73
356.709	367.08
357.091	339.74
357.473	342.45
357.855	342
358.238	343.35
358.62	355.1
359.002	346.06
359.384	335.9
359.766	357.82
360.148	341.32
360.53	348.32
360.912	339.74
361.294	329.12
361.676	343.35
362.057	329.12
362.439	337.48
362.821	338.61
363.203	326.4
363.584	326.86
363.966	311.49
364.348	332.73
364.729	338.83
365.111	333.64
365.493	332.96
365.874	321.43
366.256	326.4
366.637	310.36
367.019	324.82
367.4	337.93
367.781	331.83
368.163	323.01
368.544	328.21
368.925	318.27
369.306	318.95
369.688	326.63
370.069	333.86
370.45	326.4
370.831	304.26
371.212	315.1
371.593	319.4
371.974	314.2
372.355	322.11
372.736	322.11
373.117	303.81
373.498	333.41
373.879	342.22
374.26	333.64
374.641	337.48
375.021	322.56
375.402	323.69
375.783	320.08
376.163	342.22
376.544	316.23
376.925	329.57
377.305	320.75
377.686	326.63
378.066	334.99
378.447	348.1
378.827	326.86
379.208	334.54
379.588	329.12
379.968	348.55
380.349	344.71
380.729	327.76
381.109	335.67
381.489	360.53
381.87	355.1
382.25	339.96
382.63	356.46
383.01	337.93
383.39	356.69
383.77	346.52
384.15	319.17
384.53	358.49
384.91	340.87
385.29	374.54
385.67	348.55
386.049	357.36
386.429	363.69
386.809	358.95
387.189	342.67
387.568	359.62
387.948	366.4
388.328	373.63
388.707	371.15
389.087	371.37
389.466	356.69
389.846	364.59
390.225	361.66
390.605	360.75
390.984	366.85
391.363	364.14
391.743	354.65
392.122	370.92
392.501	353.52
392.881	384.03
393.26	368.44
393.639	360.75
394.018	365.05
394.397	368.89
394.776	373.18
395.155	379.51
395.534	385.61
395.913	378.15
396.292	390.13
396.671	394.65
397.05	376.57
397.429	393.52
397.808	382.9
398.186	395.55
398.565	368.89
398.944	404.82
399.323	374.99
399.701	381.54
400.08	396.01
400.458	376.8
400.837	399.17
401.215	404.37
401.594	422.22
401.972	421.54
402.351	411.15
402.729	413.41
403.107	420.41
403.486	435.55
403.864	407.08
404.242	405.72
404.62	424.48
404.999	403.92
405.377	403.24
405.755	427.19
406.133	436.46
406.511	432.39
406.889	414.54
407.267	442.11
407.645	413.63
408.023	433.29
408.401	423.58
408.779	429.23
409.156	445.95
409.534	453.86
409.912	444.82
410.29	446.17
410.667	461.77
411.045	455.67
411.422	423.12
411.8	457.25
412.178	452.73
412.555	466.97
412.933	480.98
413.31	461.77
413.687	438.04
414.065	467.19
414.442	467.64
414.819	485.95
415.197	458.6
415.574	494.08
415.951	507.19
416.328	512.61
416.705	524.59
417.082	482.78
417.46	494.76
417.837	489.34
418.214	525.27
418.591	489.56
418.967	504.48
419.344	514.65
419.721	528.66
420.098	511.03
420.475	503.57
420.852	506.06
421.228	521.65
421.605	545.38
421.982	522.33
422.358	535.66
422.735	548.09
423.111	522.33
423.488	543.12
423.864	539.73
424.241	563.01
424.617	563.69
424.994	564.59
425.37	562.56
425.746	551.48
426.123	573.4
426.499	563.01
426.875	554.65
427.251	588.54
427.627	593.06
428.003	575.89
428.379	596.68
428.756	604.81
429.132	620.86
429.507	588.09
429.883	617.02
430.259	608.66
430.635	631.25
431.011	642.1
431.387	620.41
431.763	643.23
432.138	626.51
432.514	644.36
432.89	632.84
433.265	639.39
433.641	665.15
434.016	647.98
434.392	672.16
434.767	687.75
435.143	672.38
435.518	681.2
435.894	670.35
436.269	685.49
436.644	696.34
437.02	683.23
437.395	704.7
437.77	706.28
438.145	731.14
438.52	716.68
438.895	710.57
439.271	715.55
439.646	738.37
440.021	758.48
440.395	752.61
440.77	736.56
441.145	740.18
441.52	734.98
441.895	768.65
442.27	778.37
442.645	761.19
443.019	779.05
443.394	757.8
443.769	776.34
444.143	758.93
444.518	778.6
444.892	772.04
445.267	812.72
445.641	784.7
446.016	784.47
446.39	789.89
446.764	813.62
447.139	776.11
447.513	819.05
447.887	822.44
448.262	818.82
448.636	822.89
449.01	840.06
449.384	847.52
449.758	825.15
450.132	848.2
450.506	850.23
450.88	870.8
451.254	863.11
451.628	865.15
452.002	873.28
452.376	892.72
452.75	899.27
453.123	896.33
453.497	927.29
453.871	921.19
454.244	923
454.618	941.08
454.992	943.56
455.365	926.16
455.739	950.12
456.112	967.74
456.486	988.99
456.859	996.67
457.232	1001.41
457.606	998.02
457.979	1019.49
458.352	1043.9
458.725	1049.32
459.099	1057.91
459.472	1063.79
459.845	1085.93
460.218	1086.61
460.591	1076.67
460.964	1119.15
461.337	1150.56
461.71	1141.75
462.083	1158.47
462.456	1146.95
462.829	1159.38
463.201	1191.01
463.574	1197.57
463.947	1185.36
464.32	1243.44
464.692	1251.35
465.065	1278.92
465.438	1266.49
465.81	1275.76
466.183	1344.68
466.555	1340.39
466.928	1331.58
467.3	1362.53
467.672	1385.13
468.045	1431.23
468.417	1415.64
468.789	1447.28
469.161	1450.89
469.534	1500.61
469.906	1542.42
470.278	1570.89
470.65	1554.17
471.022	1615.64
471.394	1666.71
471.766	1704.22
472.138	1708.06
472.51	1743.99
472.882	1805.46
473.253	1809.53
473.625	1838.45
473.997	1908.51
474.369	1943.08
474.74	2000.48
475.112	2047.04
475.484	2054.27
475.855	2135.85
476.227	2136.98
476.598	2264.43
476.97	2258.56
477.341	2342.62
477.713	2429.17
478.084	2458.78
478.455	2534.71
478.827	2567.7
479.198	2697.19
479.569	2743.29
479.94	2836.39
480.311	2911.65
480.682	2987.35
481.053	3119.32
481.424	3187.8
481.795	3301.47
482.166	3332.65
482.537	3470.28
482.908	3557.96
483.279	3667.78
483.65	3776.03
484.021	3933.09
484.391	4030.94
484.762	4109.13
485.133	4213.76
485.503	4318.84
485.874	4446.97
486.244	4564.71
486.615	4714.76
486.985	4909.79
487.356	4973.97
487.726	5124.92
488.097	5346.84
488.467	5401.98
488.837	5566.27
489.207	5760.16
489.578	5864.11
489.948	6027.72
490.318	6186.81
490.688	6316.08
491.058	6512.46
491.428	6681.04
491.798	6855.95
492.168	7118.77
492.538	7198.09
492.908	7301.81
493.278	7590.17
493.648	7632.65
494.017	7871.52
494.387	8100.21
494.757	8217.95
495.126	8408.23
495.496	8517.37
495.866	8649.8
496.235	8783.36
496.605	9094.31
496.974	9154.19
497.344	9398.71
497.713	9574.52
498.082	9690
498.452	9924.12
498.821	10045.7
499.19	10189.65
499.559	10349.19
499.928	10481.62
500.298	10694.49
500.667	10907.14
501.036	10982.39
501.405	11138.55
501.774	11291.54
502.143	11459.22
502.512	11627.35
502.88	11797.51
503.249	11919.32
503.618	12099.43
503.987	12228.92
504.356	12362.92
504.724	12657.83
505.093	12764.27
505.462	12775.79
505.83	13038.39
506.199	13176.24
506.567	13382.33
506.936	13444.7
507.304	13780.51
507.672	13827.97
508.041	13982.09
508.409	14168.07
508.777	14274.51
509.145	14453.72
509.514	14647.84
509.882	14748.62
510.25	14822.97
510.618	15041.95
510.986	15159.01
511.354	15429.96
511.722	15552.22
512.09	15774.13
512.458	15817.07
512.826	16017.74
513.193	16121.24
513.561	16186.78
513.929	16382.25
514.297	16682.58
514.664	16715.8
515.032	16917.83
515.4	17142.46
515.767	17188.56
516.135	17306.52
516.502	17245.73
516.869	17730.92
517.237	17713.97
517.604	17811.14
517.972	18039.61
518.339	18136.78
518.706	18330.22
519.073	18382.65
519.44	18628.97
519.808	18797.1
520.175	18906.03
520.542	19112.8
520.909	19274.83
521.276	19255.85
521.643	19584.88
522.009	19731.09
522.376	19908.49
522.743	19977.41
523.11	20284.07
523.477	20514.35
523.843	20637.96
524.21	20772.65
524.577	20954.11
524.943	21095.35
525.31	21117.72
525.676	21445.62
526.043	21588.9
526.409	21702.11
526.776	21873.41
527.142	21995.66
527.508	22121.31
527.874	22373.06
528.241	22444.01
528.607	22526.95
528.973	22820.95
529.339	22867.96
529.705	23126.71
530.071	23263.65
530.437	23357.89
530.803	23528.96
531.169	23681.72
531.535	23723.3
531.901	23714.26
532.267	23966.69
532.632	24102.28
532.998	24149.28
533.364	24393.12
533.73	24504.75
534.095	24656.39
534.461	24685.31
534.826	24925.98
535.192	24906.32
535.557	25208.91
535.923	25199.87
536.288	25186.54
536.653	25415.46
537.019	25319.42
537.384	25529.13
537.749	25528.68
538.114	25746.3
538.479	25686.42
538.845	25874.43
539.21	25835.56
539.575	26120.98
539.94	26072.39
540.305	26222.67
540.67	26244.82
541.034	26497.92
541.399	26500.63
541.764	26515.09
542.129	26795.54
542.494	26747.4
542.858	26832.15
543.223	26886.38
543.587	27065.59
543.952	27110.11
544.316	27213.15
544.681	27183.78
545.045	27338.57
545.41	27463.09
545.774	27545.58
546.138	27608.85
546.503	27774.5
546.867	27762.29
547.231	27979.01
547.595	28007.94
547.959	28105.79
548.324	28143.07
548.688	28193.02
549.052	28281.83
549.416	28402.28
549.779	28498.54
550.143	28501.03
550.507	28715.49
550.871	28785.32
551.235	28800.46
551.599	29140.34
551.962	29172.43
552.326	29254.68
552.689	29387.33
553.053	29363.38
553.417	29501.46
553.78	29725.86
554.143	29570.15
554.507	29828.68
554.87	29982.57
555.234	30160.87
555.597	29975.34
555.96	30212.85
556.323	30445.16
556.686	30357.25
557.05	30539.85
557.413	30693.06
557.776	30783.68
558.139	30947.29
558.502	31086.95
558.865	31106.61
559.228	31420.28
559.59	31345.02
559.953	31648.07
560.316	31861.62
560.679	31863.2
561.041	32014.16
561.404	32116.08
561.767	32417.09
562.129	32326.92
562.492	32549.51
562.854	32629.96
563.217	32693.69
563.579	32782.5
563.941	33145.43
564.304	33255.03
564.666	33426.32
565.028	33496.61
565.39	33671.97
565.753	33797.16
566.115	33860.44
566.477	34029.02
566.839	34062.92
567.201	34280.77
567.563	34282.8
567.925	34672.39
568.287	34480.08
568.648	34593.07
569.01	34859.51
569.372	35095.89
569.734	34990.35
570.095	35263.56
570.457	35443.45
570.819	35379.27
571.18	35513.28
571.542	35616.78
571.903	35774.51
572.265	35872.81
572.626	35923.21
572.987	35947.84
573.349	36035.3
573.71	36376.98
574.071	36407.49
574.432	36390.77
574.794	36774.49
575.155	36743.3
575.516	36595.28
575.877	36883.63
576.238	36902.39
576.599	37039.11
576.96	36962.05
577.32	37137.64
577.681	37196.62
578.042	37323.62
578.403	37409.5
578.763	37394.36
579.124	37431.42
579.485	37629.83
579.845	37783.5
580.206	37686.33
580.566	37657.17
580.927	37731.07
581.287	38015.36
581.648	37776.04
582.008	38022.81
582.368	37857.17
582.728	38012.64
583.089	37919.31
583.449	37977.84
583.809	38006.32
584.169	38187.33
584.529	38054.45
584.889	38333.09
585.249	38141
585.609	38056.49
585.969	38328.79
586.329	38256.25
586.688	38174.45
587.048	38313.2
587.408	38152.75
587.768	38243.82
588.127	38358.62
588.487	38253.09
588.846	38326.53
589.206	38247.89
589.565	38211.74
589.925	38311.85
590.284	38252.41
590.643	38428.45
591.003	38443.14
591.362	38526.76
591.721	38495.57
592.08	38543.93
592.44	38649.01
592.799	38556.59
593.158	38688.33
593.517	38583.48
593.876	38789.12
594.235	38679.07
594.593	38695.34
594.952	38683.36
595.311	38670.93
595.67	38816.24
596.029	39001.55
596.387	39047.42
596.746	38965.61
597.104	38933.98
597.463	38950.47
597.822	39146.63
598.18	38921.32
598.538	38950.92
598.897	39227.53
599.255	38971.49
599.613	39500.97
599.972	39188.88
600.33	39330.58
600.688	39161.31
601.046	39277.24
601.404	39524.24
601.762	39553.4
602.12	39632.49
602.478	39557.91
602.836	39507.52
603.194	39409.9
603.552	39735.54
603.91	39439.27
604.268	39628.65
604.625	39565.15
604.983	39818.25
605.341	39763.11
605.698	39801.52
606.056	40051.24
606.413	39906.61
606.771	40183.21
607.128	40121.29
607.485	39870.45
607.843	40013.5
608.2	40313.6
608.557	40402.64
608.914	40319.02
609.272	40525.57
609.629	40551.79
609.986	40675.85
610.343	40649.41
610.7	40885.79
611.057	40751.1
611.414	40772.12
611.771	40857.99
612.127	40951.1
612.484	41090.3
612.841	41202.62
613.198	40907.03
613.554	41094.82
613.911	41284.87
614.267	41297.98
614.624	41253.24
614.98	41399.45
615.337	41571.2
615.693	41561.93
616.05	41493.23
616.406	41648.26
616.762	41582.49
617.118	41634.47
617.475	41649.84
617.831	41782.04
618.187	41921.02
618.543	41927.8
618.899	42098.41
619.255	41947.91
619.611	42107
619.967	42280.55
620.323	42421.34
620.678	42125.08
621.034	42094.35
621.39	42046.21
621.746	42170.5
622.101	42525.75
622.457	42258.41
622.812	42455.01
623.168	42411.17
623.523	42492.3
623.879	42687.32
624.234	42401.68
624.589	42547.21
624.945	42732.97
625.3	42386.77
625.655	42667.89
626.01	42620.21
626.365	42695.23
626.72	42560.1
627.075	42519.64
627.43	42739.75
627.785	42620.66
628.14	42606.87
628.495	42737.72
628.85	42759.86
629.205	42608.46
629.559	42765.97
629.914	42596.03
630.269	42705.4
630.623	42509.7
630.978	42461.79
631.332	42704.95
631.687	42710.15
632.041	42395.13
632.396	42636.25
632.75	42462.02
633.104	42506.76
633.459	42398.74
633.813	42343.38
634.167	42475.35
634.521	42391.29
634.875	42503.37
635.229	42430.16
635.583	42185.87
635.937	42073.33
636.291	42301.8
636.645	42285.75
636.999	42202.36
637.352	42319.88
637.706	41988.13
638.06	42281.91
638.413	42102.25
638.767	42136.15
639.121	42088.7
639.474	41861.58
639.828	41947
640.181	41979.77
640.534	42128.92
640.888	41786.33
641.241	41829.49
641.594	41776.61
641.947	41951.98
642.301	41814.58
642.654	41743.85
643.007	41767.8
643.36	41707.46
643.713	41672.66
644.066	41750.17
644.419	41476.28
644.771	41353.57
645.124	40992.23
645.477	40981.15
645.83	40559.24
646.182	40577.55
646.535	40432.02
646.888	40437.44
647.24	40305.47
647.593	40535.52
647.945	40522.18
648.298	40186.15
648.65	40196.54
649.002	40117
649.355	40129.65
649.707	40213.72
650.059	40274.51
650.411	40798.11
650.763	40723.08
651.115	41220.47
651.467	41130.75
651.819	40946.58
652.171	40946.35
652.523	40933.47
652.875	40872
653.227	40747.04
653.578	41052.56
653.93	40925.11
654.282	40758.56
654.633	40598.34
654.985	40703.42
655.337	40788.84
655.688	40735.74
656.039	40784.32
656.391	40429.98
656.742	40678.34
657.094	40477.89
657.445	40799.69
657.796	40620.94
658.147	40550.2
658.498	40469.76
658.849	40622.97
659.2	40475.18
659.551	40317.67
659.902	40598.79
660.253	40467.27
660.604	40542.97
660.955	40345.01
661.306	40392.69
661.656	40494.39
662.007	40470.43
662.358	40469.76
662.708	40384.11
663.059	40394.28
663.409	40062.99
663.76	40437.67
664.11	40310.21
664.461	40429.08
664.811	40416.88
665.161	40242.87
665.511	40214.39
665.862	40219.82
666.212	40308.4
666.562	40459.59
666.912	40269.08
667.262	40295.07
667.612	40192.47
667.962	40174.4
668.312	40126.49
668.662	40438.8
669.011	40313.38
669.361	40246.26
669.711	40079.93
670.06	40083.55
670.41	39983.89
670.76	40047.85
671.109	40090.1
671.459	40025.7
671.808	40048.98
672.157	40126.26
672.507	39812.15
672.856	39782.32
673.205	39975.76
673.554	39983.89
673.904	39833.84
674.253	40037.9
674.602	39965.81
674.951	39404.7
675.3	39156.8
675.649	39858.92
675.998	39765.14
676.346	39811.24
676.695	39868.87
677.044	39530.12
677.393	39792.71
677.741	39764.46
678.09	39689.89
678.438	39621.87
678.787	39629.33
679.135	39651.47
679.484	39284.48
679.832	39553.17
680.181	39188.21
680.529	39452.83
680.877	39297.36
681.225	39196.12
681.573	39311.82
681.922	39234.31
682.27	39055.56
682.618	39120.41
682.966	39029.12
683.314	39060.3
683.661	38819.4
684.009	38754.55
684.357	38734.21
684.705	38589.13
685.053	38645.62
685.4	38675.45
685.748	38443.37
686.095	38475.23
686.443	38332.86
686.79	38360.43
687.138	38358.85
687.485	38280.66
687.832	38069.37
688.18	38261.23
688.527	37855.59
688.874	37937.17
689.221	37788.7
689.568	37766.78
689.915	37748.92
690.262	37603.16
690.609	37624.18
690.956	37571.98
691.303	37442.49
691.65	37297.64
691.997	37232.55
692.344	37082.95
692.69	37083.63
693.037	37038.88
693.383	36762.06
693.73	36919.57
694.077	36585.56
694.423	36609.74
694.769	36577.65
695.116	36577.65
695.462	36363.65
695.808	36313.93
696.155	36339.92
696.501	36062.87
696.847	36094.05
697.193	35819.71
697.539	35979.7
697.885	35715.76
698.231	35723.89
698.577	35590.11
698.923	35612.71
699.269	35453.16
699.614	35251.36
699.96	35139.95
700.306	35195.54
700.651	35147.18
700.997	34966.62
701.342	34888.43
701.688	34758.72
702.033	34855.89
702.379	34690.7
702.724	34597.59
703.069	34828.1
703.415	34306.98
703.76	34307.66
704.105	34433.98
704.45	34150.15
704.795	34078.96
705.14	34014.33
705.485	33924.39
705.83	33862.47
706.175	33976.82
706.52	33830.83
706.865	33736.37
707.209	33664.74
707.554	33548.81
707.899	33534.34
708.243	33393.11
708.588	33285.54
708.932	33161.7
709.277	33064.98
709.621	33030.4
709.966	32924.42
710.31	32989.5
710.654	32528.95
710.998	32847.81
711.342	32653.69
711.687	32616.4
712.031	32442.4
712.375	32282.4
712.719	32392
713.063	32289.86
713.407	32336.64
713.75	32146.36
714.094	32053.25
714.438	32111.56
714.782	32101.84
715.125	31938
715.469	31878.79
715.812	31792.92
716.156	31641.29
716.499	31742.98
716.843	31627.5
717.186	31529.65
717.53	31496.88
717.873	31637.44
718.216	31397.68
718.559	31403.55
718.902	31089.21
719.246	31188.42
719.589	31043.56
719.932	31143.22
720.275	30972.83
720.617	30991.36
720.96	30861.87
721.303	30981.87
721.646	30807.86
721.989	30672.05
722.331	30751.82
722.674	30605.61
723.016	30553.18
723.359	30644.25
723.701	30670.01
724.044	30465.72
724.386	30323.13
724.729	30476.8
725.071	30292.17
725.413	30470.02
725.755	30332.62
726.097	30223.92
726.439	30095.79
726.782	30087.66
727.124	30142.12
727.465	30100.08
727.807	29999.52
728.149	29948.22
728.491	29867.77
728.833	29883.82
729.175	29775.35
729.516	29689.02
729.858	29613.09
730.199	29745.74
730.541	29554.79
730.882	29555.69
731.224	29587.56
731.565	29393.21
731.906	29327.22
732.248	29404.96
732.589	29270.05
732.93	29169.26
733.271	29096.95
733.612	29148.47
733.953	29139.43
734.294	28991.64
734.635	29042.26
734.976	29068.25
735.317	28794.13
735.658	28876.39
735.999	28881.36
736.339	28779.22
736.68	28880.23
737.021	28749.61
737.361	28652.21
737.702	28705.32
738.042	28692.44
738.383	28678.43
738.723	28632.78
739.063	28570.63
739.404	28543.52
739.744	28407.7
740.084	28307.14
740.424	28404.31
740.764	28271.43
741.104	28282.5
741.444	28188.5
741.784	28070.08
742.124	28133.36
742.464	28280.47
742.804	28063.3
743.143	27994.15
743.483	28035.05
743.823	27832.35
744.162	27873.25
744.502	27900.82
744.841	27696.31
745.181	27877.54
745.52	27665.35
745.86	27772.24
746.199	27635.52
746.538	27582.64
746.877	27662.18
747.216	27541.28
747.556	27524.56
747.895	27495.63
748.234	27372.92
748.573	27282.98
748.911	27262.19
749.25	27221.06
749.589	26949.21
749.928	27068.3
750.267	27199.6
750.605	26925.25
750.944	26894.97
751.283	27023.33
751.621	27098.58
751.96	26730.91
752.298	26726.84
752.636	26823.33
752.975	26773.39
753.313	26514.87
753.651	26724.35
753.989	26572.27
754.327	26534.98
754.666	26451.37
755.004	26405.27
755.342	26370.01
755.679	26203.24
756.017	26253.86
756.355	26249.79
756.693	26138.38
757.031	26127.76
757.368	26003.69
757.706	25894.55
758.044	25755.57
758.381	25853.87
758.719	25765.96
759.056	25825.85
759.394	25756.47
759.731	25550.83
760.068	25556.7
760.405	25410.72
760.743	25392.64
761.08	25206.88
761.417	25185.19
761.754	25112.64
762.091	25023.38
762.428	24995.59
762.765	24788.36
763.102	24974.57
763.438	24814.12
763.775	24622.49
764.112	24596.95
764.449	24618.87
764.785	24605.54
765.122	24341.14
765.458	24339.78
765.795	24140.47
766.131	24221.37
766.467	24104.76
766.804	23918.1
767.14	23865.9
767.476	23887.37
767.812	23771.89
768.148	23750.65
768.485	23694.6
768.821	23534.61
769.157	23578.67
769.492	23399.02
769.828	23306.59
770.164	23188.63
770.5	23149.98
770.836	23147.05
771.171	23011.23
771.507	22901.18
771.842	22837.68
772.178	22855.98
772.513	22761.29
772.849	22682.88
773.184	22560.17
773.519	22542.09
773.855	22481.08
774.19	22205.38
774.525	22211.03
774.86	22220.74
775.195	22127.86
775.53	22007.87
775.865	22014.87
776.2	21850.13
776.535	21690.36
776.87	21649.91
777.205	21676.35
777.539	21415.79
777.874	21478.16
778.209	21343.03
778.543	21246.08
778.878	21142.58
779.212	21116.82
779.547	21075.69
779.881	21127.66
780.215	20891.74
780.55	20935.13
780.884	20689.94
781.218	20745.3
781.552	20692.65
781.886	20531.52
782.22	20545.76
782.554	20487.68
782.888	20360.23
783.222	20133.79
783.556	20105.32
783.889	20130.18
784.223	19990.52
784.557	19830.52
784.89	19970.63
785.224	19724.99
785.557	19617.65
785.891	19660.58
786.224	19693.13
786.558	19531.77
786.891	19412.23
787.224	19435.28
787.557	19280.71
787.891	19271.22
788.224	19124.1
788.557	19163.65
788.89	19044.56
789.223	19103.76
789.556	18818.57
789.888	18752.13
790.221	18802.08
790.554	18553.72
790.887	18652.93
791.219	18516.43
791.552	18491.12
791.884	18389.43
792.217	18429.2
792.549	18280.73
792.882	18167.06
793.214	18161.64
793.546	18060.63
793.879	17959.61
794.211	17875.32
794.543	17965.26
794.875	17849.11
795.207	17913.96
795.539	17813.4
795.871	17739.51
796.203	17647.08
796.535	17514.88
796.867	17537.7
797.198	17374.77
797.53	17440.98
797.862	17269.91
798.193	17350.59
798.525	17212.06
798.856	17313.08
799.188	17117.6
799.519	17066.08
799.85	16954.67
800.182	16880.77
800.513	16947.66
800.844	16762.36
801.175	16856.82
801.506	16783.82
801.837	16682.81
802.168	16681.68
802.499	16638.74
802.83	16514.23
803.161	16535.24
803.491	16449.37
803.822	16462.02
804.153	16355.81
804.483	16258.19
804.814	16252.31
805.145	16195.82
805.475	16195.82
805.805	16104.52
806.136	16114.01
806.466	16116.72
806.796	15951.53
807.126	15957.86
807.457	15872.89
807.787	15879.22
808.117	15756.51
808.447	15766.22
808.777	15714.47
809.107	15689.39
809.436	15688.26
809.766	15598.54
810.096	15610.3
810.426	15510.86
810.755	15519.45
811.085	15451.43
811.414	15401.49
811.744	15329.17
812.073	15298.89
812.403	15336.86
812.732	15100.48
813.061	15153.36
813.39	15043.53
813.719	15028.16
814.049	15099.35
814.378	15010.31
814.707	14959.24
815.036	14877.66
815.365	14911.33
815.693	14652.58
816.022	14716.53
816.351	14748.17
816.68	14628.4
817.008	14646.93
817.337	14523.77
817.665	14474.28
817.994	14534.62
818.322	14617.55
818.651	14447.39
818.979	14381.4
819.307	14457.11
819.636	14461.4
819.964	14337.11
820.292	14327.62
820.62	14338.01
820.948	14350.67
821.276	14294.4
821.604	14246.94
821.932	14259.6
822.259	14389.76
822.587	14304.57
822.915	14182.31
823.243	14237.9
823.57	14202.88
823.898	14237
824.225	14173.05
824.553	14213.95
824.88	14198.81
825.207	14241.07
825.535	14163.78
825.862	14276.77
826.189	14153.16
826.516	14251.24
826.843	14192.48
827.17	14150.45
827.497	14227.96
827.824	14255.3
828.151	14250.33
828.478	14208.07
828.805	14250.56
829.131	14194.97
829.458	14150
829.785	14022.77
830.111	14150.45
830.438	14159.49
830.764	14252.59
831.09	14135.98
831.417	14102.31
831.743	14164.68
832.069	14169.66
832.395	14141.63
832.722	14103.89
833.048	14125.36
833.374	14126.72
833.7	14048.08
834.026	13958.14
834.351	14026.16
834.677	14052.6
835.003	14018.93
835.329	13951.58
835.654	13982.32
835.98	13833.85
836.306	13964.01
836.631	13850.12
836.956	13932.6
837.282	13901.19
837.607	13842.21
837.932	13812.6
838.258	13814.64
838.583	13844.69
838.908	13629.1
839.233	13737.12
839.558	13708.88
839.883	13648.54
840.208	13620.29
840.533	13653.29
840.858	13587.07
841.182	13602.66
841.507	13534.19
841.832	13563.8
842.156	13475.89
842.481	13497.36
842.805	13483.57
843.13	13422.56
843.454	13441.54
843.778	13391.82
844.103	13268.89
844.427	13245.61
844.751	13253.97
845.075	13258.04
845.399	13142.34
845.723	13103.47
846.047	13138.04
846.371	12967.43
846.695	13051.49
847.019	12898.5
847.343	12815.57
847.666	12735.8
847.99	12668.9
848.313	12614.22
848.637	12681.79
848.96	12622.13
849.284	12521.34
849.607	12563.37
849.931	12494.67
850.254	12371.51
850.577	12260.1
850.9	12297.84
851.223	12195.7
851.546	12184.62
851.869	12084.96
852.192	12099.88
852.515	12011.52
852.838	11938.08
853.161	11963.61
853.483	11952.09
853.806	11812.88
854.129	11869.38
854.451	11741.92
854.774	11848.36
855.096	11724.3
855.419	11729.95
855.741	11655.82
856.063	11588.48
856.385	11550.52
856.708	11517.75
857.03	11485.21
857.352	11455.6
857.674	11410.18
857.996	11380.58
858.318	11318.43
858.64	11372.22
858.961	11334.7
859.283	11163.41
859.605	11138.55
859.926	11342.39
860.248	11163.18
860.57	11148.27
860.891	11072.11
861.212	11111.66
861.534	11019.23
861.855	11000.02
862.176	10986.69
862.498	11020.36
862.819	10948.27
863.14	10953.92
863.461	10855.17
863.782	10793.47
864.103	10861.72
864.424	10874.15
864.745	10917.99
865.065	10745.56
865.386	10768.62
865.707	10744.44
866.027	10797.09
866.348	10786.02
866.668	10760.25
866.989	10644.55
867.309	10634.38
867.63	10588.28
867.95	10647.26
868.27	10564.55
868.59	10667.83
868.91	10578.79
869.23	10553.03
869.55	10547.15
869.87	10543.99
870.19	10466.25
870.51	10469.41
870.83	10521.39
871.15	10422.18
871.469	10426.7
871.789	10449.53
872.109	10446.59
872.428	10340.6
872.748	10433.48
873.067	10412.24
873.386	10396.2
873.706	10358.46
874.025	10328.4
874.344	10243.88
874.663	10369.98
874.982	10263.09
875.301	10271.45
875.62	10216.54
875.939	10203.66
876.258	10190.1
876.577	10184.9
876.896	10154.17
877.214	10085.47
877.533	10118.01
877.852	10099.03
878.17	10061.74
878.489	10097.45
878.807	10054.74
879.125	10063.77
879.444	10024.68
879.762	10005.7
880.08	9944
880.398	9944
880.716	9948.52
881.034	9922.99
881.352	9872.14
881.67	9794.63
881.988	9939.26
882.306	9867.17
882.624	9890.9
882.941	9766.61
883.259	9712.15
883.577	9672.37
883.894	9688.42
884.212	9723.22
884.529	9666.95
884.846	9652.03
885.164	9607.97
885.481	9664.01
885.798	9627.63
886.115	9516.22
886.432	9550.79
886.75	9552.38
887.067	9569.32
887.383	9475.99
887.7	9500.4
888.017	9459.72
888.334	9423.79
888.651	9372.04
888.967	9357.35
889.284	9332.95
889.6	9292.27
889.917	9181.54
890.233	9235.77
890.55	9236.45
890.866	9224.93
891.182	9175.89
891.498	9157.13
891.815	9083.24
892.131	9144.48
892.447	9055.67
892.763	8971.37
893.079	8997.59
893.395	8990.13
893.71	8947.65
894.026	8849.57
894.342	8862.22
894.657	8863.81
894.973	8834.2
895.289	8854.99
895.604	8796.92
895.92	8720.31
896.235	8661.78
896.55	8726.18
896.865	8654.09
897.181	8633.76
897.496	8653.87
897.811	8573.64
898.126	8591.05
898.441	8512.86
898.756	8488
899.071	8407.1
899.386	8439.18
899.7	8431.05
900.015	8412.74
900.33	8326.87
900.644	8347.44
900.959	8315.8
901.273	8330.94
901.588	8210.04
901.902	8179.08
902.216	8192.19
902.531	8156.03
902.845	8139.76
903.159	8056.37
903.473	8102.47
903.787	8048.23
904.101	8001
904.415	7997.84
904.729	7954.9
905.042	7917.62
905.356	7886.66
905.67	7811.4
905.984	7859.54
906.297	7856.38
906.611	7748.36
906.924	7742.25
907.237	7697.06
907.551	7691.86
907.864	7627.91
908.177	7631.75
908.491	7587
908.804	7584.07
909.117	7533.22
909.43	7475.59
909.743	7435.14
910.056	7416.84
910.368	7402.83
910.681	7363.05
910.994	7358.99
911.307	7303.4
911.619	7244.19
911.932	7331.87
912.244	7234.47
912.557	7204.87
912.869	7185.88
913.181	7128.26
913.494	7129.39
913.806	7061.59
914.118	7028.15
914.43	7036.51
914.742	7017.53
915.054	6947.25
915.366	6931.65
915.678	6883.29
915.99	6904.08
916.302	6767.82
916.613	6815.27
916.925	6755.16
917.236	6793.8
917.548	6667.93
917.859	6753.58
918.171	6663.64
918.482	6641.04
918.794	6585.9
919.105	6631.32
919.416	6533.02
919.727	6566.92
920.038	6505.9
920.349	6503.64
920.66	6514.04
920.971	6435.62
921.282	6403.08
921.593	6355.62
921.903	6363.08
922.214	6294.38
922.525	6317.88
922.835	6272.46
923.146	6210.99
923.456	6225.91
923.767	6202.41
924.077	6130.55
924.387	6144.33
924.697	6096.65
925.008	6145.69
925.318	6073.6
925.628	6066.59
925.938	6061.85
926.248	5989.76
926.558	5904.34
926.867	5958.35
927.177	5903.88
927.487	5874.51
927.796	5834.96
928.106	5828.63
928.416	5788.41
928.725	5788.86
929.034	5759.03
929.344	5748.18
929.653	5717
929.962	5649.2
930.271	5640.61
930.581	5635.87
930.89	5576.66
931.199	5582.76
931.508	5546.83
931.817	5541.18
932.125	5530.33
932.434	5505.02
932.743	5451.69
933.051	5446.72
933.36	5427.06
933.669	5366.05
933.977	5396.78
934.286	5339.83
934.594	5326.27
934.902	5285.37
935.21	5264.13
935.519	5277.91
935.827	5248.53
936.135	5262.55
936.443	5194.75
936.751	5173.06
937.059	5172.15
937.367	5132.61
937.674	5102.78
937.982	5053.29
938.29	5088.54
938.597	5067.52
938.905	4985.49
939.213	4997.92
939.52	4991.82
939.827	4997.69
940.135	4958.15
940.442	4898.49
940.749	4935.55
941.056	4900.07
941.363	4813.74
941.67	4835.21
941.977	4809.9
942.284	4819.62
942.591	4712.73
942.898	4780.07
943.205	4752.28
943.511	4694.42
943.818	4714.76
944.125	4626.4
944.431	4671.6
944.738	4625.73
945.044	4624.6
945.35	4592.73
945.657	4552.96
945.963	4580.3
946.269	4514.32
946.575	4513.19
946.881	4508.67
947.187	4437.03
947.493	4482.68
947.799	4418.05
948.105	4417.14
948.41	4398.39
948.716	4409.01
949.022	4361.78
949.327	4364.49
949.633	4308.45
949.938	4296.24
950.244	4304.15
950.549	4299.63
950.854	4261.67
951.16	4244.49
951.465	4198.62
951.77	4183.25
952.075	4161.78
952.38	4129.92
952.685	4135.8
952.99	4147.77
953.294	4136.7
953.599	4098.96
953.904	4076.14
954.209	3981.9
954.513	4014.89
954.818	4010.6
955.122	4028
955.426	3977.16
955.731	3968.34
956.035	3935.57
956.339	3959.75
956.643	3923.37
956.948	3892.86
957.252	3888.34
957.556	3854.45
957.86	3801.79
958.163	3816.93
958.467	3839.53
958.771	3821.68
959.075	3775.58
959.378	3774.67
959.682	3737.16
959.985	3728.12
960.289	3714.79
960.592	3698.97
960.896	3689.93
961.199	3672.53
961.502	3672.53
961.805	3645.86
962.108	3636.6
962.411	3596.37
962.714	3550.27
963.017	3576.04
963.32	3566.54
963.623	3544.4
963.926	3526.55
964.228	3505.08
964.531	3458.98
964.833	3495.81
965.136	3455.59
965.438	3417.62
965.741	3434.57
966.043	3434.57
966.345	3392.31
966.648	3378.3
966.95	3371.3
967.252	3345.08
967.554	3353.22
967.856	3331.52
968.158	3296.27
968.46	3272.32
968.761	3298.08
969.063	3270.51
969.365	3281.81
969.666	3246.33
969.968	3245.42
970.269	3193.9
970.571	3210.4
970.872	3201.13
971.174	3132.43
971.475	3166.33
971.776	3158.42
972.077	3133.56
972.378	3141.25
972.679	3106.9
972.98	3094.92
973.281	3060.8
973.582	3099.44
973.883	3047.24
974.183	3030.06
974.484	3047.01
974.785	3028.93
975.085	2999.1
975.386	3031.64
975.686	2990.97
975.986	2927.24
976.287	2939.67
976.587	2930.18
976.887	2925.21
977.187	2869.61
977.487	2885.66
977.787	2906
978.087	2871.42
978.387	2859.22
978.687	2828.48
978.987	2832.1
979.286	2837.75
979.586	2797.75
979.885	2801.59
980.185	2770.63
980.484	2776.96
980.784	2722.5
981.083	2747.36
981.382	2736.74
981.682	2718.66
981.981	2728.37
982.28	2692.67
982.579	2655.61
982.878	2705.1
983.177	2661.71
983.475	2648.6
983.774	2628.94
984.073	2624.65
984.372	2601.15
984.67	2585.1
984.969	2591.66
985.267	2611.99
985.566	2574.25
985.864	2579.45
986.162	2553.01
986.461	2565.44
986.759	2527.48
987.057	2496.52
987.355	2483.86
987.653	2504.43
987.951	2514.14
988.249	2487.7
988.547	2451.32
988.844	2431.66
989.142	2478.66
989.44	2400.93
989.737	2410.42
990.035	2404.54
990.332	2363.86
990.63	2376.29
990.927	2390.3
991.224	2369.51
991.521	2354.15
991.819	2327.48
992.116	2355.96
992.413	2296.75
992.71	2304.2
993.006	2301.95
993.303	2294.04
993.6	2265.56
993.897	2264.43
994.193	2268.27
994.49	2232.12
994.787	2230.99
995.083	2237.31
995.379	2220.14
995.676	2216.3
995.972	2190.76
996.268	2177.43
996.565	2163.42
996.861	2162.51
997.157	2167.26
997.453	2113.48
997.749	2143.76
998.044	2112.8
998.34	2111.44
998.636	2117.32
998.932	2089.3
999.227	2092.69
999.523	2080.93
999.818	2049.97
1000.114	2050.2
1000.409	2038.22
1000.704	2056.3
1001	2008.39
1001.295	2021.95
1001.59	2016.3
1001.885	1997.32
1002.18	1977.43
1002.475	1941.95
1002.77	1957.1
1003.065	1936.98
1003.359	1905.12
1003.654	1918.68
1003.949	1904.22
1004.243	1901.05
1004.538	1893.37
1004.832	1887.49
1005.127	1873.48
1005.421	1851.11
1005.715	1860.37
1006.009	1859.47
1006.304	1838.91
1006.598	1810.43
1006.892	1810.21
1007.186	1799.59
1007.48	1781.28
1007.773	1776.08
1008.067	1756.42
1008.361	1744.22
1008.655	1742.41
1008.948	1727.95
1009.242	1730.89
1009.535	1737.89
1009.829	1727.95
1010.122	1674.39
1010.415	1700.83
1010.708	1700.61
1011.001	1673.04
1011.295	1687.05
1011.588	1646.82
1011.881	1641.17
1012.173	1633.71
1012.466	1624.22
1012.759	1579.93
1013.052	1626.71
1013.344	1609.76
1013.637	1576.77
1013.93	1553.49
1014.222	1543.55
1014.514	1563.43
1014.807	1565.02
1015.099	1546.26
1015.391	1524.79
1015.683	1515.07
1015.976	1505.81
1016.268	1513.49
1016.56	1482.76
1016.851	1520.72
1017.143	1493.83
1017.435	1467.39
1017.727	1478.01
1018.018	1448.41
1018.31	1434.62
1018.602	1449.76
1018.893	1432.59
1019.185	1417.45
1019.476	1401.18
1019.767	1400.5
1020.058	1383.33
1020.35	1411.35
1020.641	1359.15
1020.932	1351.46
1021.223	1346.49
1021.514	1343.55
1021.804	1320.73
1022.095	1342.87
1022.386	1315.3
1022.677	1305.14
1022.967	1283.67
1023.258	1278.92
1023.548	1293.61
1023.839	1255.42
1024.129	1293.16
1024.419	1279.15
1024.709	1234.85
1025	1237.57
1025.29	1256.32
1025.58	1212.03
1025.87	1195.53
1026.16	1219.26
1026.449	1202.76
1026.739	1219.94
1027.029	1175.65
1027.319	1191.47
1027.608	1194.18
1027.898	1196.44
1028.187	1150.56
1028.477	1153.73
1028.766	1163.44
1029.055	1148.98
1029.344	1150.11
1029.634	1127.29
1029.923	1133.16
1030.212	1125.03
1030.501	1115.54
1030.79	1105.82
1031.078	1094.29
1031.367	1073.73
1031.656	1072.15
1031.945	1073.95
1032.233	1077.8
1032.522	1074.63
1032.81	1026.95
1033.099	1038.48
1033.387	1051.36
1033.675	1029.44
1033.963	1028.08
1034.251	1023.56
1034.54	1022.43
1034.828	1004.8
1035.116	986.95
1035.403	1034.63
1035.691	1017.23
1035.979	992.83
1036.267	990.12
1036.554	974.52
1036.842	967.97
1037.129	954.18
1037.417	972.94
1037.704	955.09
1037.992	937.01
1038.279	942.21
1038.566	936.78
1038.853	936.78
1039.14	936.78
