Data from hue_170_FLMS001491_00053.txt Node
Date: Tue Feb 07 16:48:52 GMT 2017
User: dcchb
Spectrometer: FLMS00149
Trigger mode: 0
Integration Time (sec): 2.000000E-2
Scans to average: 10
Electric dark correction enabled: true
Nonlinearity correction enabled: false
Boxcar width: 0
XAxis mode: Wavelengths
Number of Pixels in Spectrum: 2048
>>>>>Begin Spectral Data<<<<<
341.393	-10.27
341.776	-10.27
342.16	-10.27
342.543	-66.99
342.927	-58.85
343.31	-59.76
343.693	-57.95
344.077	-75.35
344.46	-81.45
344.843	-31.06
345.226	-59.98
345.61	-29.7
345.993	-19.08
346.376	-11.17
346.759	-14.79
347.142	38.54
347.525	41.03
347.908	47.13
348.291	92.33
348.674	100.69
349.057	120.58
349.44	122.16
349.823	120.8
350.206	177.3
350.588	184.76
350.971	205.55
351.354	231.31
351.737	235.6
352.119	249.16
352.502	260.69
352.884	269.5
353.267	283.28
353.65	304.3
354.032	296.39
354.414	320.34
354.797	317.86
355.179	323.73
355.562	318.08
355.944	342.04
356.326	336.84
356.709	335.03
357.091	322.83
357.473	329.38
357.855	332.32
358.238	347.01
358.62	338.42
359.002	335.71
359.384	339.33
359.766	336.62
360.148	336.16
360.53	341.14
360.912	320.57
361.294	337.75
361.676	319.44
362.057	324.86
362.439	370.06
362.821	329.61
363.203	338.2
363.584	328.03
363.966	344.98
364.348	345.2
364.729	301.14
365.111	333.45
365.493	323.96
365.874	314.02
366.256	324.19
366.637	310.85
367.019	329.61
367.4	309.5
367.781	302.04
368.163	312.89
368.544	321.93
368.925	312.89
369.306	322.15
369.688	306.33
370.069	322.83
370.45	311.31
370.831	316.73
371.212	309.5
371.593	314.02
371.974	325.99
372.355	314.7
372.736	338.42
373.117	314.02
373.498	320.34
373.879	307.01
374.26	315.37
374.641	309.5
375.021	329.16
375.402	317.63
375.783	316.73
376.163	327.58
376.544	311.08
376.925	302.72
377.305	325.54
377.686	343.39
378.066	330.74
378.447	345.43
378.827	342.72
379.208	337.75
379.588	322.6
379.968	322.38
380.349	307.24
380.729	338.88
381.109	330.51
381.489	330.74
381.87	328.03
382.25	347.46
382.63	344.98
383.01	356.73
383.39	356.28
383.77	349.04
384.15	344.98
384.53	356.5
384.91	348.82
385.29	352.66
385.67	354.24
386.049	348.37
386.429	349.5
386.809	344.52
387.189	359.67
387.568	379.55
387.948	354.24
388.328	383.85
388.707	349.27
389.087	360.34
389.466	358.08
389.846	368.03
390.225	361.25
390.605	351.53
390.984	375.03
391.363	365.99
391.743	382.72
392.122	383.85
392.501	385.2
392.881	386.78
393.26	382.26
393.639	387.46
394.018	404.18
394.397	391.08
394.776	390.63
395.155	379.55
395.534	377.52
395.913	397.63
396.292	388.14
396.671	406.67
397.05	392.43
397.429	387.24
397.808	400.12
398.186	385.43
398.565	379.33
398.944	413
399.323	403.51
399.701	404.86
400.08	417.29
400.458	410.29
400.837	401.7
401.215	410.96
401.594	394.47
401.972	412.77
402.351	427.01
402.729	419.78
403.107	447.57
403.486	425.65
403.864	439.44
404.242	422.04
404.62	420.46
404.999	450.06
405.377	438.76
405.755	448.02
406.133	445.99
406.511	450.51
406.889	465.43
407.267	447.8
407.645	465.2
408.023	452.77
408.401	449.15
408.779	467.01
409.156	481.02
409.534	470.62
409.912	476.95
410.29	506.55
410.667	497.52
411.045	499.1
411.422	498.19
411.8	513.56
412.178	514.69
412.555	520.57
412.933	514.69
413.31	536.84
413.687	535.71
414.065	519.44
414.442	538.42
414.819	560.11
415.197	538.64
415.574	566.44
415.951	583.39
416.328	571.86
416.705	580
417.082	563.73
417.46	577.97
417.837	560.79
418.214	589.49
418.591	586.1
418.967	620.9
419.344	603.95
419.721	613.67
420.098	609.15
420.475	631.75
420.852	624.52
421.228	623.61
421.605	646.44
421.982	660.22
422.358	658.41
422.735	652.54
423.111	667.68
423.488	665.65
423.864	669.94
424.241	711.75
424.617	700.9
424.994	680.79
425.37	695.93
425.746	719.88
426.123	720.33
426.499	725.08
426.875	716.04
427.251	731.41
427.627	761.24
428.003	768.47
428.379	763.5
428.756	758.75
429.132	792.42
429.507	789.26
429.883	798.98
430.259	787
430.635	805.53
431.011	800.33
431.387	814.34
431.763	839.88
432.138	828.35
432.514	838.3
432.89	854.79
433.265	887.34
433.641	887.34
434.016	881.46
434.392	889.37
434.767	901.12
435.143	922.81
435.518	945.41
435.894	951.06
436.269	977.28
436.644	966.88
437.02	1011.4
437.395	971.4
437.77	997.62
438.145	1028.8
438.52	1060.89
438.895	1050.04
439.271	1059.53
439.646	1082.36
440.021	1086.2
440.395	1084.39
440.77	1060.89
441.145	1099.31
441.52	1081.45
441.895	1122.58
442.27	1107.89
442.645	1128.01
443.019	1155.12
443.394	1158.29
443.769	1189.25
444.143	1146.54
444.518	1219.3
444.892	1181.34
445.267	1230.15
445.641	1218.63
446.016	1207.33
446.39	1245.52
446.764	1248
447.139	1236.7
447.513	1262.01
447.887	1257.27
448.262	1262.47
448.636	1260.66
449.01	1302.47
449.384	1315.8
449.758	1305.18
450.132	1332.75
450.506	1346.98
450.88	1355.57
451.254	1336.14
451.628	1396.93
452.002	1399.64
452.376	1371.39
452.75	1418.85
453.123	1452.07
453.497	1456.36
453.871	1434.44
454.244	1495.46
454.618	1516.47
454.992	1524.15
455.365	1529.13
455.739	1552.4
456.112	1579.52
456.486	1600.99
456.859	1596.47
457.232	1637.6
457.606	1638.95
457.979	1643.25
458.352	1703.13
458.725	1705.39
459.099	1718.27
459.472	1767.09
459.845	1765.73
460.218	1781.1
460.591	1831.04
460.964	1795.56
461.337	1902.45
461.71	1891.15
462.083	1940.64
462.456	1953.52
462.829	1955.33
463.201	2007.08
463.574	2009.34
463.947	2012.05
464.32	2080.3
464.692	2082.33
465.065	2116.91
465.438	2147.64
465.81	2219.28
466.183	2237.13
466.555	2234.19
466.928	2283
467.3	2301.08
467.672	2312.16
468.045	2393.06
468.417	2428.09
468.789	2436
469.161	2466.5
469.534	2548.08
469.906	2553.28
470.278	2629.21
470.65	2645.03
471.022	2705.14
471.394	2740.39
471.766	2817.91
472.138	2831.92
472.51	2922.99
472.882	2958.92
473.253	3033.72
473.625	3072.14
473.997	3139.48
474.369	3191.46
474.74	3218.8
475.112	3330.66
475.484	3397.78
475.855	3512.13
476.227	3509.87
476.598	3613.59
476.97	3700.82
477.341	3786.92
477.713	3877.31
478.084	3894.49
478.455	4049.29
478.827	4129.51
479.198	4219.68
479.569	4287.02
479.94	4500.57
480.311	4520.01
480.682	4644.07
481.053	4785.99
481.424	4861.24
481.795	4957.28
482.166	5054.68
482.537	5150.27
482.908	5273.43
483.279	5379.42
483.65	5499.87
484.021	5647.89
484.391	5770.14
484.762	5865.96
485.133	5931.04
485.503	6105.28
485.874	6226.63
486.244	6359.96
486.615	6466.17
486.985	6647.18
487.356	6761.76
487.726	6865.94
488.097	7034.07
488.467	7067.29
488.837	7312.93
489.207	7452.81
489.578	7596.76
489.948	7715.18
490.318	7908.39
490.688	7960.37
491.058	8062.97
491.428	8283.98
491.798	8382.51
492.168	8547.47
492.538	8627.92
492.908	8758.77
493.278	8928.48
493.648	8965.99
494.017	9124.86
494.387	9241.01
494.757	9399.88
495.126	9493.89
495.496	9602.59
495.866	9577.05
496.235	9817.72
496.605	9920.77
496.974	9989.92
497.344	10076.02
497.713	10260.42
498.082	10245.28
498.452	10395.79
498.821	10494.99
499.19	10566.85
499.559	10581.54
499.928	10744.25
500.298	10775.89
500.667	10916.45
501.036	10946.05
501.405	11129.78
501.774	11074.19
502.143	11250.45
502.512	11275.08
502.88	11377.46
503.249	11370
503.618	11505.81
503.987	11465.14
504.356	11511.01
504.724	11673.04
505.093	11687.73
505.462	11734.73
505.83	11846.37
506.199	11912.13
506.567	12043.88
506.936	12068.96
507.304	12210.2
507.672	12181.5
508.041	12249.97
508.409	12341.27
508.777	12441.38
509.145	12494.49
509.514	12452.23
509.882	12521.83
510.25	12555.5
510.618	12636.86
510.986	12569.74
511.354	12746.23
511.722	12820.35
512.09	12963.4
512.458	12813.35
512.826	12922.73
513.193	13065.32
513.561	13026.23
513.929	13085.66
514.297	13103.74
514.664	13215.6
515.032	13209.95
515.4	13263.73
515.767	13304.86
516.135	13364.97
516.502	13210.63
516.869	13476.38
517.237	13442.03
517.604	13397.06
517.972	13549.6
518.339	13521.13
518.706	13545.76
519.073	13582.14
519.44	13592.99
519.808	13674.8
520.175	13604.74
520.542	13679.99
520.909	13830.05
521.276	13710.28
521.643	13849.25
522.009	13835.92
522.376	13908.91
522.743	13924.73
523.11	13953.66
523.477	14094.22
523.843	14110.72
524.21	14198.17
524.577	14179.87
524.943	14161.34
525.31	14205.18
525.676	14327.66
526.043	14273.2
526.409	14356.36
526.776	14378.96
527.142	14344.61
527.508	14450.37
527.874	14378.28
528.241	14405.17
528.607	14376.02
528.973	14477.71
529.339	14475.9
529.705	14517.49
530.071	14512.74
530.437	14509.35
530.803	14492.4
531.169	14551.38
531.535	14518.62
531.901	14471.84
532.267	14458.5
532.632	14451.5
532.998	14494.66
533.364	14552.74
533.73	14476.58
534.095	14491.27
534.461	14488.11
534.826	14495.34
535.192	14482.91
535.557	14467.54
535.923	14431.16
536.288	14369.92
536.653	14379.64
537.019	14249.24
537.384	14293.31
537.749	14326.08
538.114	14305.97
538.479	14209.02
538.845	14239.98
539.21	14155.46
539.575	14160.43
539.94	14052.86
540.305	14172.64
540.67	13990.04
541.034	14025.3
541.399	14075.01
541.764	13978.74
542.129	13960.66
542.494	13922.02
542.858	13877.5
543.223	13883.83
543.587	13867.56
543.952	13809.93
544.316	13745.75
544.681	13603.16
545.045	13728.81
545.41	13726.09
545.774	13724.74
546.138	13666.89
546.503	13587.34
546.867	13437.74
547.231	13531.07
547.595	13466.67
547.959	13469.15
548.324	13351.64
548.688	13301.92
549.052	13353.45
549.416	13295.6
549.779	13307.8
550.143	13250.4
550.507	13284.52
550.871	13238.65
551.235	13133.79
551.599	13190.97
551.962	13124.53
552.326	13124.98
552.689	13106.68
553.053	13005.21
553.417	12936.96
553.78	13094.92
554.143	12981.03
554.507	13010.86
554.87	12943.97
555.234	12935.61
555.597	12864.87
555.96	12841.15
556.323	12807.02
556.686	12870.52
557.05	12839.11
557.413	12820.58
557.776	12819.68
558.139	12811.54
558.502	12763.41
558.865	12744.65
559.228	12812.9
559.59	12802.05
559.953	12748.04
560.316	12853.8
560.679	12832.56
561.041	12833.24
561.404	12841.82
561.767	12829.62
562.129	12771.54
562.492	12853.35
562.854	12821.48
563.217	12786.01
563.579	12860.81
563.941	12823.07
564.304	12836.17
564.666	12817.19
565.028	12815.38
565.39	12771.32
565.753	12850.64
566.115	12896.96
566.477	12963.18
566.839	12910.52
567.201	13045.21
567.563	12879.11
567.925	12991.65
568.287	12928.83
568.648	12924.31
569.01	13019.22
569.372	13022.38
569.734	12939.22
570.095	12941.03
570.457	13033.68
570.819	13020.8
571.18	13022.16
571.542	13035.49
571.903	13042.72
572.265	13087.24
572.626	13070.74
572.987	13109.84
573.349	13111.87
573.71	13178.54
574.071	13125.88
574.432	13171.98
574.794	13185.09
575.155	13177.63
575.516	13126.11
575.877	13177.86
576.238	13170.18
576.599	13168.59
576.96	13213.79
577.32	13150.97
577.681	13181.7
578.042	13189.84
578.403	13240
578.763	13245.65
579.124	13320.68
579.485	13288.37
579.845	13236.16
580.206	13191.19
580.566	13151.42
580.927	13179.67
581.287	13251.53
581.648	13221.25
582.008	13213.56
582.368	13197.07
582.728	13268.7
583.089	13142.61
583.449	13176.05
583.809	13188.93
584.169	13176.05
584.529	13127.47
584.889	13289.95
585.249	13139.89
585.609	13094.92
585.969	13100.35
586.329	13074.59
586.688	13117.75
587.048	13091.08
587.408	13043.85
587.768	13017.19
588.127	12973.12
588.487	13041.59
588.846	13127.01
589.206	13029.62
589.565	12984.42
589.925	13023.97
590.284	13005.21
590.643	12994.59
591.003	12979.67
591.362	13005.21
591.721	13041.37
592.08	12956.62
592.44	13030.97
592.799	13010.18
593.158	12858.09
593.517	12957.53
593.876	12960.92
594.235	12980.35
594.593	12936.51
594.952	13018.32
595.311	12904.65
595.67	12954.14
596.029	12994.14
596.387	12953.91
596.746	12976.96
597.104	12905.1
597.463	12881.37
597.822	12929.5
598.18	12806.12
598.538	12804.99
598.897	12961.14
599.255	12811.99
599.613	12908.94
599.972	12923.63
600.33	12837.76
600.688	12904.65
601.046	12912.78
601.404	12924.76
601.762	12915.49
602.12	12887.7
602.478	12934.7
602.836	12896.06
603.194	12842.95
603.552	12867.13
603.91	12810.86
604.268	12898.77
604.625	12810.41
604.983	12969.73
605.341	12772.45
605.698	12828.72
606.056	12927.7
606.413	12869.39
606.771	12900.13
607.128	12887.47
607.485	12829.62
607.843	12862.61
608.2	12881.6
608.557	12967.24
608.914	12903.74
609.272	12988.49
609.629	12950.75
609.986	13065.32
610.343	12981.48
610.7	13077.75
611.057	13038.88
611.414	12997.98
611.771	13009.73
612.127	12989.39
612.484	13081.59
612.841	13150.74
613.198	13042.72
613.554	13097.41
613.911	13108.48
614.267	13014.25
614.624	13101.25
614.98	13077.75
615.337	13151.42
615.693	13131.08
616.05	13059.22
616.406	13214.02
616.762	13096.73
617.118	13184.19
617.475	13082.95
617.831	13155.26
618.187	13110.52
618.543	13174.92
618.899	13313.9
619.255	13153.45
619.611	13204.53
619.967	13251.08
620.323	13301.92
620.678	13259.89
621.034	13213.79
621.39	13249.5
621.746	13220.34
622.101	13365.2
622.457	13214.47
622.812	13277.52
623.168	13176.96
623.523	13250.85
623.879	13314.13
624.234	13218.08
624.589	13261.7
624.945	13262.83
625.3	13269.83
625.655	13223.96
626.01	13207.46
626.365	13284.52
626.72	13246.33
627.075	13217.86
627.43	13225.77
627.785	13175.83
628.14	13221.7
628.495	13218.99
628.85	13152.55
629.205	13079.56
629.559	13280.46
629.914	13149.61
630.269	13199.55
630.623	13179.22
630.978	13133.12
631.332	13162.04
631.687	13098.09
632.041	13110.74
632.396	13204.3
632.75	13016.06
633.104	12961.37
633.459	13022.38
633.813	13017.41
634.167	13010.18
634.521	12975.38
634.875	13023.51
635.229	12962.5
635.583	12866.68
635.937	12932.89
636.291	12926.79
636.645	12921.6
636.999	12790.53
637.352	12868.49
637.706	12764.31
638.06	12879.11
638.413	12857.64
638.767	12819.9
639.121	12797.08
639.474	12693.35
639.828	12658.55
640.181	12713.24
640.534	12786.46
640.888	12698.32
641.241	12701.94
641.594	12719.79
641.947	12758.21
642.301	12632.11
642.654	12727.25
643.007	12729.51
643.36	12762.96
643.713	12570.42
644.066	12678.66
644.419	12646.35
644.771	12534.49
645.124	12426.02
645.477	12433.7
645.83	12346.47
646.182	12279.58
646.535	12210.43
646.888	12238.68
647.24	12147.83
647.593	12243.87
647.945	12198.9
648.298	12102.86
648.65	12153.48
649.002	12095.63
649.355	12217.88
649.707	12187.6
650.059	12288.84
650.411	12485
650.763	12439.35
651.115	12543.75
651.467	12554.37
651.819	12511.21
652.171	12412.91
652.523	12452.46
652.875	12498.78
653.227	12378.78
653.578	12440.03
653.93	12414.26
654.282	12515.05
654.633	12433.47
654.985	12455.17
655.337	12477.99
655.688	12462.62
656.039	12509.4
656.391	12401.16
656.742	12519.8
657.094	12466.47
657.445	12532
657.796	12512.11
658.147	12451.33
658.498	12470.31
658.849	12483.41
659.2	12526.13
659.551	12496.52
659.902	12443.87
660.253	12454.26
660.604	12499.46
660.955	12570.42
661.306	12481.38
661.656	12434.6
662.007	12471.89
662.358	12508.95
662.708	12498.56
663.059	12497.43
663.409	12476.86
663.76	12583.3
664.11	12558.44
664.461	12471.89
664.811	12545.79
665.161	12473.7
665.511	12400.71
665.862	12479.12
666.212	12537.88
666.562	12556.86
666.912	12471.44
667.262	12524.54
667.612	12497.2
667.962	12574.71
668.312	12495.84
668.662	12499.23
669.011	12518.22
669.361	12467.37
669.711	12486.58
670.06	12521.83
670.41	12455.17
670.76	12489.52
671.109	12534.03
671.459	12415.39
671.808	12458.56
672.157	12505.56
672.507	12381.27
672.856	12366.58
673.205	12424.89
673.554	12421.72
673.904	12414.72
674.253	12454.26
674.602	12458.56
674.951	12264.89
675.3	12158.9
675.649	12417.2
675.998	12365.68
676.346	12317.77
676.695	12326.13
677.044	12292.69
677.393	12250.2
677.741	12263.76
678.09	12244.78
678.438	12281.16
678.787	12267.38
679.135	12250.65
679.484	12197.09
679.832	12186.47
680.181	12121.62
680.529	12118.45
680.877	12098.57
681.225	12143.76
681.573	12212.91
681.922	12058.12
682.27	11963.43
682.618	12056.53
682.966	11997.78
683.314	12136.08
683.661	11988.96
684.009	11987.83
684.357	11894.28
684.705	11965.69
685.053	11877.55
685.4	11747.61
685.748	11748.97
686.095	11817.44
686.443	11833.94
686.79	11726.37
687.138	11778.8
687.485	11823.09
687.832	11702.64
688.18	11668.52
688.527	11568.41
688.874	11678.46
689.221	11528.41
689.568	11461.75
689.915	11426.72
690.262	11415.42
690.609	11426.95
690.956	11350.34
691.303	11382.65
691.65	11302.88
691.997	11311.92
692.344	11181.08
692.69	11218.36
693.037	11154.86
693.383	11083.45
693.73	11131.59
694.077	11000.06
694.423	11051.59
694.769	10971.82
695.116	10986.5
695.462	10914.42
695.808	10871.25
696.155	10954.19
696.501	10824.02
696.847	10796.68
697.193	10700.41
697.539	10760.52
697.885	10615.44
698.231	10569.79
698.577	10623.58
698.923	10573.18
699.269	10518.95
699.614	10479.85
699.96	10463.58
700.306	10438.27
700.651	10392.4
700.997	10339.29
701.342	10299.97
701.688	10254.55
702.033	10293.42
702.379	10211.16
702.724	10176.13
703.069	10193.98
703.415	10078.28
703.76	10088.68
704.105	10017.49
704.45	10019.75
704.795	9906.53
705.14	9946.31
705.485	9879.64
705.83	9871.96
706.175	9927.55
706.52	9861.34
706.865	9839.19
707.209	9789.25
707.554	9722.58
707.899	9797.16
708.243	9659.76
708.588	9630.61
708.932	9575.47
709.277	9598.07
709.621	9511.52
709.966	9500.67
710.31	9479.88
710.654	9485.98
710.998	9449.82
711.342	9480.33
711.687	9417.05
712.031	9380.9
712.375	9337.28
712.719	9328.92
713.063	9314.68
713.407	9394.91
713.75	9265.19
714.094	9284.18
714.438	9260.67
714.782	9248.25
715.125	9152.88
715.469	9212.54
715.812	9211.86
716.156	9071.75
716.499	9109.72
716.843	9149.94
717.186	9121.47
717.53	9112.88
717.873	9121.47
718.216	9100.68
718.559	9088.02
718.902	9031.75
719.246	9004.41
719.589	8922.15
719.932	8951.53
720.275	8996.5
720.617	8957.41
720.96	8892.32
721.303	8915.6
721.646	9013
721.989	8916.95
722.331	8941.13
722.674	8879.22
723.016	8885.54
723.359	8931.19
723.701	8867.46
724.044	8876.05
724.386	8832.44
724.729	8815.71
725.071	8841.48
725.413	8807.58
725.755	8806.22
726.097	8745.66
726.439	8779.33
726.782	8793.57
727.124	8829.27
727.465	8792.89
727.807	8812.78
728.149	8758.31
728.491	8748.82
728.833	8775.94
729.175	8726.23
729.516	8735.04
729.858	8690.29
730.199	8771.42
730.541	8689.84
730.882	8736.62
731.224	8718.54
731.565	8730.75
731.906	8719.67
732.248	8792.44
732.589	8653.68
732.93	8636.74
733.271	8616.85
733.612	8780.46
733.953	8715.6
734.294	8690.07
734.635	8673.8
734.976	8667.92
735.317	8643.74
735.658	8677.87
735.999	8650.52
736.339	8654.59
736.68	8699.56
737.021	8687.58
737.361	8728.71
737.702	8741.59
738.042	8717.64
738.383	8753.12
738.723	8762.38
739.063	8701.59
739.404	8758.54
739.744	8774.36
740.084	8740.91
740.424	8791.08
740.764	8829.05
741.104	8796.51
741.444	8767.13
741.784	8853.23
742.124	8806.22
742.464	8874.7
742.804	8864.3
743.143	8814.81
743.483	8890.51
743.823	8855.94
744.162	8939.55
744.502	8935.94
744.841	8966.22
745.181	9016.39
745.52	9031.53
745.86	9113.11
746.199	9138.87
746.538	9089.83
746.877	9229.26
747.216	9185.65
747.556	9347.23
747.895	9404.17
748.234	9355.36
748.573	9434.91
748.911	9444.85
749.25	9513.78
749.589	9598.74
749.928	9713.77
750.267	9759.64
750.605	9818.17
750.944	9916.7
751.283	9959.87
751.621	10151.27
751.96	10139.75
752.298	10147.2
752.636	10288.67
752.975	10385.62
753.313	10454.09
753.651	10619.51
753.989	10666.51
754.327	10747.42
754.666	10864.7
755.004	11111.02
755.342	11099.95
755.679	11210.45
756.017	11370.68
756.355	11502.65
756.693	11639.82
757.031	11765.47
757.368	11922.07
757.706	12025.12
758.044	12188.06
758.381	12309.86
758.719	12593.24
759.056	12703.52
759.394	12869.17
759.731	13030.52
760.068	13152.32
760.405	13270.29
760.743	13478.19
761.08	13657.17
761.417	13821.46
761.754	13953.21
762.091	14090.38
762.428	14221.9
762.765	14363.14
763.102	14627.99
763.438	14785.95
763.775	14882.45
764.112	15029.79
764.449	15288.09
764.785	15480.85
765.122	15510
765.458	15660.73
765.795	15771.92
766.131	15987.5
766.467	16106.14
766.804	16279.7
767.14	16336.19
767.476	16603.08
767.812	16605.57
768.148	16795.84
768.485	16843.98
768.821	17025.89
769.157	17075.38
769.492	17252.78
769.828	17458.65
770.164	17419.33
770.5	17518.08
770.836	17730.28
771.171	17767.8
771.507	17811.18
771.842	17752.43
772.178	17968.02
772.513	18060.44
772.849	18139.54
773.184	18274
773.519	18360.1
773.855	18381.34
774.19	18412.07
774.525	18542.69
774.86	18506.08
775.195	18675.79
775.53	18706.53
775.865	18697.49
776.2	18770.71
776.535	18615.46
776.87	18736.13
777.205	18783.59
777.539	18852.06
777.874	18810.48
778.209	18777.49
778.543	18890.93
778.878	18837.82
779.212	18979.52
779.547	18908.56
779.881	18966.18
780.215	18939.06
780.55	18977.26
780.884	18951.49
781.218	19061.32
781.552	19049.8
781.886	19024.26
782.22	19041.89
782.554	18883.02
782.888	18855.9
783.222	18869.01
783.556	18853.87
783.889	18939.97
784.223	18877.6
784.557	18831.5
784.89	18979.74
785.224	18854.09
785.557	18781.78
785.891	18780.65
786.224	18742.01
786.558	18829.91
786.891	18800.08
787.224	18657.26
787.557	18704.95
787.891	18640.99
788.224	18646.64
788.557	18713.99
788.89	18653.42
789.223	18703.82
789.556	18579.98
789.888	18572.29
790.221	18432.86
790.554	18337.95
790.887	18415.69
791.219	18329.14
791.552	18318.74
791.884	18248.91
792.217	18296.14
792.549	18184.06
792.882	18162.36
793.214	18105.64
793.546	18166.88
793.879	17974.12
794.211	17997.39
794.543	18113.32
794.875	17985.87
795.207	18015.02
795.539	17912.65
795.871	17988.81
796.203	17796.04
796.535	17594.01
796.867	17749.94
797.198	17718.31
797.53	17685.76
797.862	17657.74
798.193	17602.6
798.525	17528.03
798.856	17501.36
799.188	17349.73
799.519	17348.82
799.85	17272.89
800.182	17299.33
800.513	17369.39
800.844	17050.98
801.175	17297.98
801.506	17318.77
801.837	17062.05
802.168	17161.71
802.499	17040.58
802.83	17046.01
803.161	16959
803.491	16922.85
803.822	16976.4
804.153	16914.26
804.483	16804.21
804.814	16741.38
805.145	16712.46
805.475	16755.84
805.805	16652.34
806.136	16641.5
806.466	16626.36
806.796	16634.04
807.126	16513.37
807.457	16464.55
807.787	16458.68
808.117	16395.63
808.447	16317.89
808.777	16429.07
809.107	16290.09
809.436	16313.14
809.766	16210.55
810.096	16246.71
810.426	16106.14
810.755	16114.73
811.085	16135.75
811.414	16185.46
811.744	15931.69
812.073	15987.05
812.403	16027.95
812.732	15855.08
813.061	15963.55
813.39	15794.97
813.719	15775.76
814.049	15951.12
814.378	15758.13
814.707	15754.74
815.036	15700.05
815.365	15660.05
815.693	15451.7
816.022	15548.87
816.351	15519.95
816.68	15393.85
817.008	15550.23
817.337	15289.67
817.665	15411.25
817.994	15346.62
818.322	15370.8
818.651	15313.4
818.979	15263.91
819.307	15327.63
819.636	15242.44
819.964	15171.93
820.292	15217.35
820.62	15197.24
820.948	15112.72
821.276	15241.08
821.604	15173.74
821.932	15220.74
822.259	15218.03
822.587	15158.6
822.915	15107.3
823.243	15126.74
823.57	15117.47
823.898	15191.14
824.225	15093.06
824.553	15023.23
824.88	15187.75
825.207	15143.01
825.535	15108.2
825.862	15283.12
826.189	15084.93
826.516	15170.58
826.843	15156.34
827.17	15236.56
827.497	15234.98
827.824	15155.43
828.151	15210.57
828.478	15192.27
828.805	15201.99
829.131	15083.57
829.458	15178.03
829.785	15069.34
830.111	15110.69
830.438	15219.61
830.764	15125.61
831.09	15255.09
831.417	15116.79
831.743	15186.39
832.069	15217.13
832.395	15049
832.722	15069.11
833.048	15140.07
833.374	15122.67
833.7	15008.09
834.026	15052.16
834.351	15013.74
834.677	15067.98
835.003	14977.36
835.329	15107.3
835.654	15012.84
835.98	14929.45
836.306	14985.95
836.631	14910.24
836.956	14960.41
837.282	14958.83
837.607	14912.28
837.932	14820.3
838.258	14863.24
838.583	14879.96
838.908	14730.36
839.233	14801.09
839.558	14713.86
839.883	14711.38
840.208	14677.93
840.533	14673.19
840.858	14585.05
841.182	14643.58
841.507	14615.34
841.832	14493.08
842.156	14518.39
842.481	14468.9
842.805	14583.7
843.13	14411.5
843.454	14408.56
843.778	14363.14
844.103	14286.53
844.427	14306.64
844.751	14224.16
845.075	14219.41
845.399	14150.94
845.723	14088.57
846.047	14092.41
846.371	14043.83
846.695	13980.55
847.019	13958.63
847.343	13931.29
847.666	13750.73
847.99	13749.6
848.313	13694.68
848.637	13629.6
848.96	13564.29
849.284	13588.02
849.607	13480.9
849.931	13444.52
850.254	13402.94
850.577	13431.41
850.9	13268.48
851.223	13292.66
851.546	13237.97
851.869	13101.93
852.192	13159.33
852.515	13007.02
852.838	12924.53
853.161	13017.64
853.483	12861.71
853.806	12850.86
854.129	12820.13
854.451	12793.92
854.774	12717.31
855.096	12635.5
855.419	12656.29
855.741	12623.07
856.063	12538.55
856.385	12507.82
856.708	12492
857.03	12397.54
857.352	12455.62
857.674	12407.26
857.996	12421.27
858.318	12209.98
858.64	12317.54
858.961	12175.85
859.283	12171.11
859.605	12066.25
859.926	12159.13
860.248	12060.15
860.57	12030.77
860.891	12098.34
861.212	11991.22
861.534	11962.75
861.855	11908.74
862.176	11861.28
862.498	11947.61
862.819	11975.63
863.14	11896.09
863.461	11822.42
863.782	11744.9
864.103	11817.67
864.424	11829.65
864.745	11770.44
865.065	11733.38
865.386	11646.6
865.707	11614.96
866.027	11601.18
866.348	11574.06
866.668	11691.57
866.989	11544.23
867.309	11544
867.63	11589.65
867.95	11547.62
868.27	11421.07
868.59	11522.76
868.91	11440.05
869.23	11460.84
869.55	11349.21
869.87	11447.96
870.19	11404.12
870.51	11410
870.83	11337.91
871.15	11297.23
871.469	11363.9
871.789	11407.96
872.109	11332.48
872.428	11323.22
872.748	11306.04
873.067	11249.32
873.386	11198.25
873.706	11206.84
874.025	11162.32
874.344	11098.82
874.663	11115.54
874.982	11114.64
875.301	11113.96
875.62	11085.03
875.939	11106.73
876.258	11078.25
876.577	11044.36
876.896	11068.54
877.214	10997.58
877.533	11006.17
877.852	10890.46
878.17	10945.6
878.489	10937.69
878.807	10870.8
879.125	10827.87
879.444	10910.57
879.762	10865.6
880.08	10933.17
880.398	10843.01
880.716	10808.66
881.034	10765.27
881.352	10784.48
881.67	10756
881.988	10759.39
882.306	10678.94
882.624	10665.38
882.941	10677.59
883.259	10648.43
883.577	10549
883.894	10650.02
884.212	10610.24
884.529	10532.96
884.846	10551.26
885.164	10538.16
885.481	10496.35
885.798	10441.21
886.115	10402.79
886.432	10394.88
886.75	10336.8
887.067	10389.01
887.383	10329.12
887.7	10316.24
888.017	10259.97
888.334	10202.12
888.651	10198.05
888.967	10182.46
889.284	10125.74
889.6	10163.25
889.917	10053.65
890.233	10037.6
890.55	9957.15
890.866	9996.7
891.182	10017.26
891.498	9927.32
891.815	9994.67
892.131	9879.87
892.447	9860.21
892.763	9823.82
893.079	9764.16
893.395	9805.74
893.71	9659.53
894.026	9679.65
894.342	9699.08
894.657	9672.87
894.973	9653.43
895.289	9598.07
895.604	9689.14
895.92	9490.73
896.235	9463.83
896.55	9501.8
896.865	9472.42
897.181	9384.74
897.496	9364.85
897.811	9284.4
898.126	9282.59
898.441	9250.51
898.756	9229.94
899.071	9177.74
899.386	9172.99
899.7	9087.8
900.015	9054.35
900.33	9027.91
900.644	8958.31
900.959	8969.83
901.273	8918.76
901.588	8850.29
901.902	8861.36
902.216	8822.72
902.531	8859.1
902.845	8799.44
903.159	8766
903.473	8654.14
903.787	8702.05
904.101	8684.64
904.415	8641.71
904.729	8584.76
905.042	8549.96
905.356	8557.64
905.67	8471.09
905.984	8521.94
906.297	8428.61
906.611	8368.04
906.924	8414.37
907.237	8328.95
907.551	8303.86
907.864	8209.63
908.177	8272.23
908.491	8230.87
908.804	8161.72
909.117	8111.78
909.43	8067.49
909.743	8006.24
910.056	8062.97
910.368	8022.29
910.681	7979.35
910.994	7996.75
911.307	7983.87
911.619	7838.79
911.932	7872.01
912.244	7838.57
912.557	7797.21
912.869	7803.31
913.181	7707.72
913.494	7713.82
913.806	7633.82
914.118	7644.9
914.43	7557.44
914.742	7593.6
915.054	7456.43
915.366	7476.31
915.678	7439.93
915.99	7460.27
916.302	7378.69
916.613	7346.37
916.925	7305.25
917.236	7371.23
917.548	7286.49
917.859	7286.94
918.171	7183.67
918.482	7156.55
918.794	7086.49
919.105	7144.57
919.416	7077
919.727	7045.82
920.038	7085.82
920.349	7014.41
920.66	6950.45
920.971	6986.16
921.282	6961.3
921.593	6911.13
921.903	6870
922.214	6869.33
922.525	6820.74
922.835	6810.12
923.146	6718.59
923.456	6785.94
923.767	6715.43
924.077	6689.89
924.387	6648.31
924.697	6623.46
925.008	6618.26
925.318	6586.85
925.628	6561.54
925.938	6559.28
926.248	6498.49
926.558	6512.05
926.867	6428.88
927.177	6440.41
927.487	6397.7
927.796	6331.94
928.106	6287.19
928.416	6318.61
928.725	6284.71
929.034	6254.65
929.344	6215.1
929.653	6293.52
929.962	6182.34
930.271	6104.83
930.581	6133.53
930.89	6067.09
931.199	6054.43
931.508	6038.61
931.817	6004.26
932.125	5947.54
932.434	6010.82
932.743	5920.65
933.051	5924.27
933.36	5884.94
933.669	5853.31
933.977	5850.59
934.286	5820.09
934.594	5809.92
934.902	5744.16
935.21	5723.37
935.519	5753.87
935.827	5727.43
936.135	5677.72
936.443	5658.06
936.751	5679.98
937.059	5623.48
937.367	5614.44
937.674	5572.41
937.982	5585.29
938.29	5495.12
938.597	5528.57
938.905	5493.54
939.213	5509.81
939.52	5344.17
939.827	5392.75
940.135	5395.01
940.442	5370.83
940.749	5367.22
941.056	5303.26
941.363	5238.86
941.67	5268.46
941.977	5177.84
942.284	5268.69
942.591	5241.57
942.898	5189.14
943.205	5188.24
943.511	5148.01
943.818	5109.15
944.125	5115.25
944.431	5068.47
944.738	5085.42
945.044	5053.55
945.35	5010.62
945.657	4960
945.963	4987.34
946.269	4925.65
946.575	4912.99
946.881	4919.77
947.187	4861.02
947.493	4901.02
947.799	4861.47
948.105	4798.65
948.41	4780.79
948.716	4808.81
949.022	4663.51
949.327	4765.43
949.633	4709.16
949.938	4673.9
950.244	4631.87
950.549	4630.97
950.854	4619.44
951.16	4597.07
951.465	4590.06
951.77	4571.53
952.075	4578.99
952.38	4534.02
952.685	4517.3
952.99	4475.94
953.294	4451.99
953.599	4430.52
953.904	4400.01
954.209	4405.66
954.513	4400.92
954.818	4353.01
955.122	4386.9
955.426	4304.87
955.731	4317.3
956.035	4303.29
956.339	4289.05
956.643	4254.93
956.948	4246.57
957.252	4227.36
957.556	4215.84
957.86	4195.72
958.163	4163.86
958.467	4176.74
958.771	4123.86
959.075	4123.86
959.378	4100.36
959.682	4104.88
959.985	4100.58
960.289	4060.13
960.592	4064.65
960.896	3983.53
961.199	4012
961.502	3972
961.805	3950.08
962.108	3934.71
962.411	3942.62
962.714	3921.38
963.017	3884.77
963.32	3931.78
963.623	3874.15
963.926	3868.27
964.228	3854.26
964.531	3819.46
964.833	3807.26
965.136	3758.9
965.438	3759.58
965.741	3758.45
966.043	3704.44
966.345	3713.02
966.648	3709.63
966.95	3700.82
967.252	3682.29
967.554	3634.38
967.856	3620.14
968.158	3585.57
968.46	3600.48
968.761	3614.5
969.063	3578.79
969.365	3550.99
969.666	3542.86
969.968	3535.4
970.269	3547.83
970.571	3543.31
970.872	3467.38
971.174	3465.35
971.475	3480.71
971.776	3445.46
972.077	3419.02
972.378	3416.08
972.679	3409.53
972.98	3383.54
973.281	3384.9
973.582	3361.85
973.883	3346.03
974.183	3345.35
974.484	3261.28
974.785	3286.37
975.085	3308.06
975.386	3286.59
975.686	3267.39
975.986	3243.21
976.287	3239.59
976.587	3193.26
976.887	3179.7
977.187	3168.86
977.487	3157.78
977.787	3149.65
978.087	3118.92
978.387	3110.33
978.687	3118.01
978.987	3041.86
979.286	3049.31
979.586	3063.32
979.885	3083.44
980.185	3063.78
980.484	3052.25
980.784	3051.57
981.083	2976.09
981.382	2968.18
981.682	2953.5
981.981	2968.18
982.28	2962.31
982.579	2903.78
982.878	2913.5
983.177	2883.22
983.475	2926.83
983.774	2879.83
984.073	2876.21
984.372	2841.86
984.67	2849.54
984.969	2855.65
985.267	2841.18
985.566	2820.62
985.864	2767.06
986.162	2769.32
986.461	2750.79
986.759	2774.74
987.057	2746.5
987.355	2749.66
987.653	2696.55
987.951	2671.24
988.249	2675.31
988.547	2661.53
988.844	2674.41
989.142	2663.56
989.44	2639.15
989.737	2656.78
990.035	2655.42
990.332	2585.14
990.63	2593.28
990.927	2539.72
991.224	2569.55
991.521	2554.41
991.819	2580.62
992.116	2557.35
992.413	2516.67
992.71	2490.91
993.006	2505.15
993.303	2483.68
993.6	2477.58
993.897	2454.07
994.193	2456.56
994.49	2458.14
994.787	2417.46
995.083	2403.91
995.379	2395.09
995.676	2371.59
995.972	2397.58
996.268	2362.55
996.565	2344.02
996.861	2341.08
997.157	2364.13
997.453	2325.04
997.749	2322.1
998.044	2317.35
998.34	2289.56
998.636	2300.18
998.932	2264.7
999.227	2261.54
999.523	2255.21
999.818	2237.81
1000.114	2229
1000.409	2179.05
1000.704	2184.93
1001	2183.57
1001.295	2176.79
1001.59	2167.53
1001.885	2162.56
1002.18	2127.3
1002.475	2120.75
1002.77	2110.35
1003.065	2098.6
1003.359	2108.55
1003.654	2068.55
1003.949	2044.37
1004.243	2050.24
1004.538	2051.37
1004.832	2017.93
1005.127	2047.3
1005.421	2025.61
1005.715	2005.05
1006.009	1995.78
1006.304	1946.97
1006.598	1973.86
1006.892	1962.79
1007.186	1934.09
1007.48	1931.15
1007.773	1930.47
1008.067	1910.36
1008.361	1885.95
1008.655	1876.46
1008.948	1871.49
1009.242	1871.94
1009.535	1843.92
1009.829	1833.75
1010.122	1863.81
1010.415	1816.12
1010.708	1813.41
1011.001	1789.46
1011.295	1788.33
1011.588	1803.24
1011.881	1770.02
1012.173	1729.12
1012.466	1757.37
1012.759	1723.47
1013.052	1731.61
1013.344	1712.62
1013.637	1726.86
1013.93	1687.99
1014.222	1695.68
1014.514	1661.33
1014.807	1657.48
1015.099	1663.59
1015.391	1620.42
1015.683	1642.12
1015.976	1634.43
1016.268	1622.91
1016.56	1584.72
1016.851	1564.61
1017.143	1566.19
1017.435	1579.97
1017.727	1586.75
1018.018	1560.09
1018.31	1564.38
1018.602	1552.63
1018.893	1540.65
1019.185	1513.31
1019.476	1497.71
1019.767	1517.83
1020.058	1483.7
1020.35	1485.51
1020.641	1468.79
1020.932	1445.96
1021.223	1461.11
1021.514	1436.93
1021.804	1429.47
1022.095	1435.12
1022.386	1428.56
1022.677	1381.11
1022.967	1385.4
1023.258	1363.48
1023.548	1382.01
1023.839	1391.95
1024.129	1368.68
1024.419	1334.1
1024.709	1335.91
1025	1325.97
1025.29	1316.25
1025.58	1304.5
1025.87	1307.89
1026.16	1300.21
1026.449	1280.32
1026.739	1292.75
1027.029	1278.96
1027.319	1250.04
1027.608	1257.5
1027.898	1255.91
1028.187	1244.61
1028.477	1231.06
1028.766	1254.11
1029.055	1241.68
1029.344	1199.64
1029.634	1220.89
1029.923	1192.86
1030.212	1206.2
1030.501	1197.16
1030.79	1161.23
1031.078	1177.05
1031.367	1137.95
1031.656	1153.77
1031.945	1150.61
1032.233	1127.33
1032.522	1155.58
1032.81	1108.12
1033.099	1107.67
1033.387	1104.28
1033.675	1120.55
1033.963	1083.94
1034.251	1081.68
1034.54	1078.06
1034.828	1081.91
1035.116	1042.81
1035.403	1036.26
1035.691	1031.74
1035.979	1053.88
1036.267	1028.35
1036.554	1030.38
1036.842	1028.57
1037.129	1034.68
1037.417	1013.21
1037.704	998.97
1037.992	1010.5
1038.279	988.35
1038.566	975.69
1038.853	975.69
1039.14	975.69
