Data from hue_70_FLMS001491_7.txt Node
Date: Mon Feb 06 15:19:59 GMT 2017
User: dcchb
Spectrometer: FLMS00149
Trigger mode: 0
Integration Time (sec): 2.000000E-2
Scans to average: 10
Electric dark correction enabled: true
Nonlinearity correction enabled: false
Boxcar width: 0
XAxis mode: Wavelengths
Number of Pixels in Spectrum: 2048
>>>>>Begin Spectral Data<<<<<
341.393	-2.16
341.776	-2.16
342.16	-2.16
342.543	-64.76
342.927	-63.85
343.31	-65.66
343.693	-70.63
344.077	-56.4
344.46	-63.4
344.843	-64.08
345.226	-39
345.61	-23.18
345.993	-16.4
346.376	-10.07
346.759	-3.74
347.142	21.57
347.525	36.93
347.908	62.7
348.291	85.29
348.674	88.46
349.057	117.61
349.44	107.67
349.823	132.07
350.206	162.81
350.588	207.78
350.971	215.23
351.354	235.8
351.737	232.64
352.119	232.18
352.502	241
352.884	261.56
353.267	298.4
353.65	283.03
354.032	281.45
354.414	291.16
354.797	299.53
355.179	323.03
355.562	323.93
355.944	314.89
356.326	309.47
356.709	322.58
357.091	334.33
357.473	329.58
357.855	340.43
358.238	353.54
358.62	355.57
359.002	345.85
359.384	342.46
359.766	352.63
360.148	342.46
360.53	346.3
360.912	331.84
361.294	353.76
361.676	332.29
362.057	342.01
362.439	322.58
362.821	331.62
363.203	346.3
363.584	308.57
363.966	322.35
364.348	307.21
364.729	337.94
365.111	314.89
365.493	333.88
365.874	311.5
366.256	329.58
366.637	294.78
367.019	310.6
367.4	306.76
367.781	340.43
368.163	298.4
368.544	313.76
368.925	313.76
369.306	345.17
369.688	324.84
370.069	317.15
370.45	306.08
370.831	315.34
371.212	316.02
371.593	324.61
371.974	319.41
372.355	292.07
372.736	318.28
373.117	326.19
373.498	296.14
373.879	302.69
374.26	316.02
374.641	324.61
375.021	334.1
375.402	308.11
375.783	310.6
376.163	328.9
376.544	327.55
376.925	335.01
377.305	331.62
377.686	314.67
378.066	315.57
378.447	332.29
378.827	330.03
379.208	309.92
379.588	324.16
379.968	330.26
380.349	337.04
380.729	319.86
381.109	332.52
381.489	330.71
381.87	328
382.25	341.78
382.63	338.62
383.01	337.04
383.39	345.85
383.77	333.2
384.15	347.43
384.53	334.1
384.91	355.12
385.29	324.84
385.67	340.65
386.049	352.63
386.429	352.86
386.809	338.62
387.189	360.99
387.568	334.1
387.948	354.21
388.328	356.7
388.707	357.83
389.087	355.8
389.466	365.06
389.846	338.85
390.225	346.98
390.605	364.84
390.984	363.03
391.363	351.95
391.743	365.96
392.122	355.57
392.501	361.9
392.881	365.96
393.26	377.04
393.639	345.63
394.018	358.96
394.397	382.91
394.776	360.99
395.155	354.89
395.534	367.09
395.913	372.52
396.292	379.3
396.671	374.78
397.05	381.56
397.429	376.59
397.808	378.39
398.186	387.66
398.565	372.52
398.944	375.68
399.323	395.12
399.701	400.31
400.08	385.17
400.458	381.11
400.837	392.18
401.215	396.7
401.594	394.66
401.972	370.94
402.351	402.35
402.729	396.25
403.107	398.51
403.486	389.02
403.864	414.78
404.242	374.33
404.62	429.69
404.999	406.64
405.377	409.81
405.755	435.57
406.133	398.05
406.511	418.17
406.889	430.14
407.267	421.1
407.645	420.88
408.023	414.55
408.401	406.64
408.779	429.24
409.156	433.31
409.534	434.44
409.912	425.17
410.29	447.77
410.667	442.12
411.045	441.67
411.422	432.4
411.8	440.77
412.178	431.5
412.555	470.59
412.933	464.95
413.31	466.3
413.687	462.46
414.065	455.91
414.442	479.41
414.819	464.72
415.197	475.79
415.574	470.37
415.951	486.19
416.328	472.85
416.705	491.61
417.082	493.19
417.46	492.29
417.837	495.91
418.214	475.79
418.591	480.31
418.967	491.61
419.344	499.97
419.721	516.92
420.098	510.14
420.475	504.49
420.852	522.57
421.228	516.24
421.605	527.32
421.982	514.21
422.358	507.88
422.735	528.22
423.111	529.58
423.488	520.99
423.864	532.29
424.241	536.13
424.617	560.99
424.994	534.1
425.37	534.32
425.746	525.06
426.123	558.73
426.499	549.69
426.875	568.22
427.251	541.55
427.627	576.81
428.003	567.99
428.379	567.09
428.756	587.88
429.132	593.98
429.507	583.59
429.883	599.41
430.259	593.98
430.635	591.72
431.011	596.92
431.387	605.96
431.763	614.09
432.138	624.49
432.514	616.13
432.89	598.95
433.265	616.35
433.641	636.24
434.016	643.25
434.392	655.9
434.767	652.96
435.143	646.86
435.518	674.66
435.894	670.59
436.269	653.64
436.644	682.57
437.02	682.11
437.395	683.92
437.77	683.02
438.145	679.4
438.52	698.61
438.895	673.75
439.271	705.17
439.646	721.44
440.021	742.68
440.395	734.32
440.77	721.89
441.145	718.72
441.52	718.95
441.895	731.83
442.27	742.45
442.645	731.38
443.019	759.17
443.394	759.63
443.769	771.6
444.143	761.43
444.518	778.61
444.892	787.42
445.267	782.9
445.641	791.72
446.016	779.06
446.39	782.23
446.764	786.52
447.139	797.37
447.513	812.96
447.887	813.18
448.262	831.72
448.636	805.95
449.01	824.26
449.384	832.85
449.758	826.07
450.132	842.79
450.506	830.36
450.88	845.27
451.254	855.22
451.628	866.74
452.002	863.58
452.376	861.32
452.75	878.04
453.123	889.79
453.497	890.47
453.871	890.7
454.244	897.25
454.618	913.97
454.992	927.53
455.365	927.98
455.739	949.9
456.112	961.2
456.486	942.67
456.859	961.88
457.232	1006.17
457.606	989.45
457.979	993.07
458.352	1025.83
458.725	1027.87
459.099	1033.74
459.472	1041.43
459.845	1069.45
460.218	1064.93
460.591	1080.75
460.964	1083.69
461.337	1098.6
461.71	1142.67
462.083	1134.31
462.456	1150.35
462.829	1158.26
463.201	1155.77
463.574	1164.14
463.947	1209.56
464.32	1205.94
464.692	1182.89
465.065	1256.56
465.438	1237.13
465.81	1268.31
466.183	1278.94
466.555	1316.22
466.928	1333.17
467.3	1343.11
467.672	1356.9
468.045	1410.46
468.417	1422.66
468.789	1403.68
469.161	1437.35
469.534	1486.61
469.906	1505.82
470.278	1480.96
470.65	1522.77
471.022	1565.26
471.394	1615.42
471.766	1584.24
472.138	1677.79
472.51	1688.87
472.882	1759.15
473.253	1743.56
473.625	1806.38
473.997	1843.44
474.369	1854.51
474.74	1883.67
475.112	1971.57
475.484	1988.07
475.855	2018.8
476.227	2048.63
476.598	2158.46
476.97	2165.01
477.341	2230.55
477.713	2301.06
478.084	2323.43
478.455	2416.31
478.827	2447.27
479.198	2537.43
479.569	2565.91
479.94	2667.37
480.311	2763.19
480.682	2813.58
481.053	2873.02
481.424	2973.58
481.795	3040.24
482.166	3160.24
482.537	3214.93
482.908	3296.06
483.279	3388.48
483.65	3507.8
484.021	3612.43
484.391	3727.91
484.762	3799.1
485.133	3866.21
485.503	3941.24
485.874	4080.9
486.244	4193.43
486.615	4315.24
486.985	4431.62
487.356	4563.14
487.726	4675
488.097	4770.37
488.467	4907.99
488.837	5065.5
489.207	5154.99
489.578	5353.63
489.948	5407.87
490.318	5560.63
490.688	5677.92
491.058	5796.33
491.428	5923.78
491.798	6088.3
492.168	6232.48
492.538	6365.36
492.908	6473.15
493.278	6628.63
493.648	6712.92
494.017	6906.58
494.387	7030.65
494.757	7160.59
495.126	7358.78
495.496	7476.74
495.866	7613.68
496.235	7730.52
496.605	7887.58
496.974	8008.7
497.344	8144.74
497.713	8321.01
498.082	8458.63
498.452	8586.09
498.821	8685.52
499.19	8733.88
499.559	8921.45
499.928	9035.57
500.298	9160.76
500.667	9327.99
501.036	9464.26
501.405	9561.43
501.774	9614.99
502.143	9837.35
502.512	9909.44
502.88	10082.55
503.249	10163.9
503.618	10341.75
503.987	10355.08
504.356	10575.64
504.724	10654.51
505.093	10802.3
505.462	10915.07
505.83	10972.69
506.199	11129.75
506.567	11334.04
506.936	11433.92
507.304	11486.12
507.672	11665.1
508.041	11704.2
508.409	11806.34
508.777	12004.3
509.145	12128.59
509.514	12176.5
509.882	12305.54
510.25	12404.29
510.618	12544.18
510.986	12593.21
511.354	12767.67
511.722	12803.83
512.09	12989.36
512.458	12955.92
512.826	13079.75
513.193	13202.46
513.561	13400.2
513.929	13496.47
514.297	13507.99
514.664	13641.55
515.032	13694.2
515.4	13959.05
515.767	13950.92
516.135	14108.43
516.502	14017.36
516.869	14210.35
517.237	14326.73
517.604	14352.94
517.972	14493.28
518.339	14608.75
518.706	14576.44
519.073	14773.5
519.44	14828.41
519.808	15018.01
520.175	14966.03
520.542	15217.78
520.909	15293.71
521.276	15306.36
521.643	15427.26
522.009	15538
522.376	15650.53
522.743	15710.65
523.11	15817.08
523.477	15989.96
523.843	16071.99
524.21	16224.31
524.577	16385.43
524.943	16429.27
525.31	16507.91
525.676	16635.59
526.043	16688.7
526.409	16716.27
526.776	16870.62
527.142	16992.42
527.508	17018.63
527.874	17239.19
528.241	17225.18
528.607	17270.15
528.973	17438.96
529.339	17376.14
529.705	17476.7
530.071	17682.35
530.437	17642.12
530.803	17800.99
531.169	17853.64
531.535	17838.95
531.901	17905.62
532.267	17981.32
532.632	18072.62
532.998	18063.35
533.364	18219.28
533.73	18239.17
534.095	18241.65
534.461	18350.12
534.826	18349.67
535.192	18379.05
535.557	18411.59
535.923	18476
536.288	18548.09
536.653	18651.81
537.019	18516
537.384	18680.51
537.749	18786.72
538.114	18729.55
538.479	18802.32
538.845	18811.81
539.21	18762.32
539.575	18887.74
539.94	18828.53
540.305	18942.88
540.67	18880.73
541.034	18908.3
541.399	19040.05
541.764	19055.87
542.129	19181.06
542.494	19061.74
542.858	19146.26
543.223	19198.01
543.587	19249.08
543.952	19134.96
544.316	19203.44
544.681	19196.88
545.045	19254.28
545.41	19331.34
545.774	19398.46
546.138	19379.02
546.503	19302.19
546.867	19293.6
547.231	19486.14
547.595	19453.37
547.959	19521.62
548.324	19408.4
548.688	19365.47
549.052	19564.78
549.416	19577.66
549.779	19569.75
550.143	19557.1
550.507	19645.01
550.871	19628.28
551.235	19654.27
551.599	19776.3
551.962	19771.1
552.326	19701.05
552.689	19826.92
553.053	19779.69
553.417	19870.99
553.78	20024.21
554.143	19906.69
554.507	19948.05
554.87	20003.87
555.234	20180.13
555.597	19973.36
555.96	20024.43
556.323	20153.02
556.686	20111.21
557.05	20253.13
557.413	20195.73
557.776	20296.74
558.139	20355.04
558.502	20378.55
558.865	20317.76
559.228	20500.12
559.59	20542.84
559.953	20579.67
560.316	20748.48
560.679	20696.73
561.041	20687.69
561.404	20906.89
561.767	21017.85
562.129	20869.38
562.492	21063.05
562.854	21046.55
563.217	21078.19
563.579	21125.65
563.941	21232.08
564.304	21449.25
564.666	21442.92
565.028	21391.85
565.39	21368.12
565.753	21514.56
566.115	21634.33
566.477	21594.11
566.839	21695.8
567.201	21809.47
567.563	21845.85
567.925	21994.55
568.287	21951.61
568.648	21966.98
569.01	21999.29
569.372	22240.87
569.734	22110.7
570.095	22269.12
570.457	22267.54
570.819	22308.21
571.18	22296.69
571.542	22435.22
571.903	22479.96
572.265	22535.33
572.626	22512.73
572.987	22638.15
573.349	22642.22
573.71	22796.79
574.071	22714.08
574.432	22830.01
574.794	23020.28
575.155	22987.52
575.516	22879.27
575.877	22970.57
576.238	22989.78
576.599	23166.72
576.96	22999.72
577.32	23110.23
577.681	23163.56
578.042	23164.46
578.403	23185.7
578.763	23156.78
579.124	23262.99
579.485	23334.4
579.845	23370.11
580.206	23277.9
580.566	23283.1
580.927	23467.28
581.287	23487.39
581.648	23449.88
582.008	23506.6
582.368	23446.26
582.728	23402.87
583.089	23485.81
583.449	23437
583.809	23371.01
584.169	23415.3
584.529	23439.71
584.889	23612.13
585.249	23532.14
585.609	23305.93
585.969	23618.01
586.329	23473.15
586.688	23465.02
587.048	23450.56
587.408	23375.98
587.768	23383.21
588.127	23426.15
588.487	23421.86
588.846	23574.39
589.206	23355.87
589.565	23347.06
589.925	23518.35
590.284	23378.24
590.643	23404
591.003	23504.34
591.362	23526.26
591.721	23471.57
592.08	23582.08
592.44	23567.61
592.799	23544.34
593.158	23482.87
593.517	23527.39
593.876	23538.69
594.235	23500.05
594.593	23502.08
594.952	23581.85
595.311	23526.94
595.67	23618.23
596.029	23715.41
596.387	23659.59
596.746	23746.59
597.104	23657.33
597.463	23485.13
597.822	23648.97
598.18	23676.76
598.538	23565.81
598.897	23743.88
599.255	23541.17
599.613	23801.96
599.972	23668.4
600.33	23776.2
600.688	23681.06
601.046	23844.44
601.404	23842.41
601.762	23736.42
602.12	23903.43
602.478	23760.15
602.836	23886.02
603.194	23714.28
603.552	23743.88
603.91	23636.54
604.268	23835.86
604.625	23783.65
604.983	23797.89
605.341	23766.48
605.698	23921.05
606.056	23964.89
606.413	23916.76
606.771	24041.27
607.128	24025
607.485	23977.77
607.843	24047.15
608.2	24173.25
608.557	24127.83
608.914	24043.76
609.272	24242.63
609.629	24326.24
609.986	24384.99
610.343	24246.02
610.7	24495.95
611.057	24311.32
611.414	24331.44
611.771	24431.77
612.127	24519.91
612.484	24522.62
612.841	24552.9
613.198	24565.33
613.554	24618.43
613.911	24673.8
614.267	24624.54
614.624	24721.03
614.98	24693.91
615.337	24741.82
615.693	24753.12
616.05	24705.66
616.406	24828.15
616.762	24756.96
617.118	24832.89
617.475	24727.36
617.831	24890.07
618.187	24900.24
618.543	24911.99
618.899	25121.02
619.255	24999.89
619.611	24974.58
619.967	25195.82
620.323	25008.93
620.678	25112.43
621.034	24991.53
621.39	25066.33
621.746	25011.42
622.101	25288.7
622.457	25031.98
622.812	25195.82
623.168	25237.4
623.523	25189.72
623.879	25266.1
624.234	25186.1
624.589	25217.51
624.945	25273.11
625.3	25311.3
625.655	25343.61
626.01	25276.5
626.365	25335.03
626.72	25226.33
627.075	25292.54
627.43	25375.25
627.785	25160.57
628.14	25284.63
628.495	25289.15
628.85	25240.79
629.205	25166.67
629.559	25389.71
629.914	25283.95
630.269	25354.69
630.623	25261.13
630.978	25180
631.332	25300.9
631.687	25293.45
632.041	25279.43
632.396	25205.76
632.75	25137.52
633.104	25142.71
633.459	25101.13
633.813	25021.81
634.167	24956.28
634.521	25006.45
634.875	25082.38
635.229	24948.37
635.583	24931.42
635.937	25053.45
636.291	24994.24
636.645	24875.38
636.999	24845.77
637.352	24932.78
637.706	24823.4
638.06	24956.96
638.413	24781.82
638.767	24854.81
639.121	24866.11
639.474	24706.79
639.828	24671.31
640.181	24810.75
640.534	24828.6
640.888	24576.18
641.241	24599.23
641.594	24626.12
641.947	24687.36
642.301	24657.08
642.654	24572.79
643.007	24587.93
643.36	24582.28
643.713	24542.96
644.066	24669.28
644.419	24479.23
644.771	24381.83
645.124	24077.43
645.477	24021.39
645.83	23961.28
646.182	23893.03
646.535	23773.49
646.888	23895.29
647.24	23814.84
647.593	23848.29
647.945	23777.1
648.298	23723.32
648.65	23701.62
649.002	23613.72
649.355	23726.71
649.707	23647.61
650.059	23766.48
650.411	23976.64
650.763	24076.08
651.115	24290.53
651.467	24224.32
651.819	24288.05
652.171	24160.59
652.523	24159.92
652.875	24165.79
653.227	23989.75
653.578	24244.43
653.93	24159.24
654.282	24121.05
654.633	23969.41
654.985	24067.94
655.337	24165.34
655.688	24022.07
656.039	24093.02
656.391	23958.34
656.742	24079.92
657.094	24023.87
657.445	24211.89
657.796	24016.42
658.147	24003.31
658.498	24047.15
658.849	24151.33
659.2	23994.72
659.551	23950.43
659.902	24127.37
660.253	24028.85
660.604	24092.57
660.955	23987.49
661.306	24124.89
661.656	24058.68
662.007	24018
662.358	24190.65
662.708	24029.52
663.059	24029.07
663.409	23939.81
663.76	24125.57
664.11	24068.84
664.461	24085.12
664.811	24128.05
665.161	24094.61
665.511	23996.3
665.862	24003.99
666.212	24167.15
666.562	24112.91
666.912	24001.05
667.262	23966.25
667.612	24108.62
667.962	24043.76
668.312	24027.94
668.662	24129.63
669.011	24041.5
669.361	24054.83
669.711	23993.14
670.06	24011.22
670.41	23882.41
670.76	23996.3
671.109	23970.77
671.459	23952.92
671.808	23806.25
672.157	23960.15
672.507	23787.5
672.856	23830.21
673.205	23872.47
673.554	23904.1
673.904	23887.83
674.253	24018.22
674.602	23792.92
674.951	23544.79
675.3	23402.42
675.649	23723.32
675.998	23693.94
676.346	23692.13
676.695	23808.96
677.044	23670.44
677.393	23649.87
677.741	23778.23
678.09	23703.88
678.438	23535.98
678.787	23637.9
679.135	23508.86
679.484	23381.18
679.832	23580.04
680.181	23350.22
680.529	23566.26
680.877	23400.39
681.225	23384.12
681.573	23490.55
681.922	23307.06
682.27	23177.57
682.618	23277
682.966	23134.41
683.314	23262.99
683.661	23093.5
684.009	23051.47
684.357	22905.71
684.705	23059.61
685.053	23039.04
685.4	22900.97
685.748	22735.09
686.095	22749.56
686.443	22772.83
686.79	22745.26
687.138	22666.62
687.485	22840.85
687.832	22624.81
688.18	22635.89
688.527	22593.86
688.874	22479.73
689.221	22437.48
689.568	22384.14
689.915	22322.9
690.262	22324.94
690.609	22224.83
690.956	22172.4
691.303	22136.24
691.65	22095.79
691.997	22031.61
692.344	21903.03
692.69	21891.95
693.037	21912.74
693.383	21736.7
693.73	21722.92
694.077	21613.09
694.423	21644.73
694.769	21491.96
695.116	21497.39
695.462	21455.81
695.808	21294.68
696.155	21400.67
696.501	21206.09
696.847	21190.28
697.193	21109.37
697.539	21164.51
697.885	21020.79
698.231	20873.67
698.577	20801.59
698.923	20857.86
699.269	20642.72
699.614	20652.21
699.96	20612.66
700.306	20561.14
700.651	20487.92
700.997	20382.61
701.342	20354.14
701.688	20346.46
702.033	20302.39
702.379	20266.91
702.724	20161.6
703.069	20159.79
703.415	19957.54
703.76	19960.48
704.105	19896.07
704.45	19868.28
704.795	19805.68
705.14	19699.24
705.485	19678.9
705.83	19557.1
706.175	19630.09
706.52	19566.59
706.865	19468.74
707.209	19405.24
707.554	19272.81
707.899	19384.45
708.243	19174.74
708.588	19216.09
708.932	19048.86
709.277	19016.32
709.621	18964.57
709.966	18917.79
710.31	18883.9
710.654	18859.26
710.998	18881.86
711.342	18855.42
711.687	18771.58
712.031	18735.43
712.375	18665.82
712.719	18648.2
713.063	18565.71
713.407	18567.97
713.75	18592.83
714.094	18556.9
714.438	18463.34
714.782	18544.24
715.125	18408.88
715.469	18414.98
715.812	18313.52
716.156	18269
716.499	18129.79
716.843	18309.67
717.186	18208.43
717.53	18334.76
717.873	18229.45
718.216	18131.83
718.559	18121.66
718.902	18001.21
719.246	18066.74
719.589	17961.89
719.932	18005.95
720.275	17970.02
720.617	17970.25
720.96	17855.9
721.303	17795.34
721.646	17876.24
721.989	17715.34
722.331	17737.03
722.674	17764.15
723.016	17750.37
723.359	17730.25
723.701	17655.68
724.044	17602.12
724.386	17491.62
724.729	17683.93
725.071	17558.96
725.413	17633.99
725.755	17569.81
726.097	17428.79
726.439	17332.3
726.782	17463.37
727.124	17477.15
727.465	17337.95
727.807	17382.01
728.149	17354.22
728.491	17292.53
728.833	17444.61
729.175	17281.23
729.516	17250.49
729.858	17265.41
730.199	17315.58
730.541	17110.16
730.882	17284.84
731.224	17272.64
731.565	17184.51
731.906	17104.06
732.248	17219.53
732.589	17113.32
732.93	17041.23
733.271	17070.84
733.612	17000.1
733.953	17113.77
734.294	16942.93
734.635	17010.5
734.976	17112.87
735.317	16933.66
735.658	16988.35
735.999	17000.33
736.339	16986.32
736.68	17009.82
737.021	16979.31
737.361	16850.28
737.702	16985.64
738.042	16956.94
738.383	16957.62
738.723	16925.08
739.063	16838.98
739.404	16961.69
739.744	16884.63
740.084	16909.48
740.424	16861.8
740.764	16759.21
741.104	16970.95
741.444	16804.18
741.784	16785.87
742.124	16881.69
742.464	16894.8
742.804	16795.59
743.143	16762.37
743.483	16794.01
743.823	16896.38
744.162	16868.36
744.502	16881.46
744.841	16899.32
745.181	16937.05
745.52	16909.03
745.86	16890.95
746.199	16989.26
746.538	16938.64
746.877	17100.89
747.216	17063.15
747.556	17029.93
747.895	17083.72
748.234	17137.73
748.573	17046.66
748.911	17143.6
749.25	17177.73
749.589	17201.91
749.928	17253.88
750.267	17281
750.605	17355.8
750.944	17322.81
751.283	17341.34
751.621	17457.27
751.96	17374.11
752.298	17469.47
752.636	17516.25
752.975	17638.73
753.313	17613.2
753.651	17759.63
753.989	17743.81
754.327	17773.19
754.666	17862.23
755.004	17890.02
755.342	17963.24
755.679	18090.7
756.017	18035.1
756.355	18145.61
756.693	18145.16
757.031	18321.43
757.368	18256.12
757.706	18321.88
758.044	18339.96
758.381	18520.29
758.719	18540.18
759.056	18611.13
759.394	18607.97
759.731	18654.07
760.068	18585.82
760.405	18788.31
760.743	18746.95
761.08	18930.67
761.417	18932.03
761.754	18913.73
762.091	18991.92
762.428	19020.16
762.765	18992.59
763.102	19244.34
763.438	19192.14
763.775	19083.89
764.112	19219.93
764.449	19278.24
764.785	19325.69
765.122	19215.64
765.458	19288.41
765.795	19397.55
766.131	19451.56
766.467	19382.87
766.804	19303.32
767.14	19261.74
767.476	19360.27
767.812	19383.32
768.148	19378.57
768.485	19359.82
768.821	19421.74
769.157	19359.36
769.492	19327.95
769.828	19366.14
770.164	19274.62
770.5	19286.37
770.836	19423.77
771.171	19353.94
771.507	19263.55
771.842	19248.41
772.178	19330.89
772.513	19187.39
772.849	19228.97
773.184	19161.4
773.519	19206.6
773.855	19153.72
774.19	19040.95
774.525	19145.13
774.86	19120.73
775.195	19017.68
775.53	19013.38
775.865	18934.52
776.2	18892.94
776.535	18814.97
776.87	18894.97
777.205	18765.48
777.539	18748.08
777.874	18821.07
778.209	18626.5
778.543	18647.74
778.878	18554.19
779.212	18676.44
779.547	18426.06
779.881	18513.06
780.215	18351.03
780.55	18440.97
780.884	18336.34
781.218	18363.46
781.552	18229.22
781.886	18193.74
782.22	18117.36
782.554	18155.1
782.888	17922.79
783.222	17901.78
783.556	17839.86
783.889	17833.53
784.223	17665.62
784.557	17651.39
784.89	17688
785.224	17625.85
785.557	17547.66
785.891	17515.8
786.224	17480.32
786.558	17405.74
786.891	17277.84
787.224	17260.44
787.557	17227.44
787.891	17189.48
788.224	17181.79
788.557	17283.26
788.89	16984.96
789.223	17022.02
789.556	16912.65
789.888	16898.86
790.221	16801.01
790.554	16766.44
790.887	16796.04
791.219	16683.5
791.552	16704.74
791.884	16558.08
792.217	16481.7
792.549	16464.07
792.882	16353.12
793.214	16323.51
793.546	16355.15
793.879	16218.66
794.211	16184.08
794.543	16247.36
794.875	16071.54
795.207	16159.67
795.539	16079.9
795.871	16024.08
796.203	15960.36
796.535	15838.78
796.867	15900.92
797.198	15813.02
797.53	15828.16
797.862	15675.17
798.193	15675.17
798.525	15553.81
798.856	15615.06
799.188	15442.86
799.519	15405.34
799.85	15445.57
800.182	15381.39
800.513	15296.65
800.844	15218.91
801.175	15324.89
801.506	15241.73
801.837	15190.21
802.168	15086.71
802.499	15092.36
802.83	14955.64
803.161	14993.83
803.491	14968.52
803.822	14935.75
804.153	14860.73
804.483	14714.06
804.814	14779.82
805.145	14704.35
805.475	14733.95
805.805	14641.75
806.136	14607.4
806.466	14592.48
806.796	14624.8
807.126	14507.06
807.457	14446.05
807.787	14451.7
808.117	14385.71
808.447	14301.42
808.777	14379.83
809.107	14367.18
809.436	14233.62
809.766	14229.78
810.096	14116.56
810.426	14154.3
810.755	14122.44
811.085	14098.03
811.414	14049.9
811.744	13977.81
812.073	13881.54
812.403	13884.25
812.732	13869.79
813.061	13824.37
813.39	13858.72
813.719	13757.25
814.049	13833.41
814.378	13803.35
814.707	13712.05
815.036	13699.4
815.365	13644.94
815.693	13449.46
816.022	13509.57
816.351	13377.15
816.68	13300.31
817.008	13422.8
817.337	13272.07
817.665	13195.68
817.994	13268
818.322	13339.18
818.651	13182.35
818.979	13187.77
819.307	13211.28
819.636	13163.59
819.964	13058.96
820.292	13116.59
820.62	13075.46
820.948	13095.12
821.276	13129.47
821.604	13035.69
821.932	13072.07
822.259	13075.46
822.587	13032.52
822.915	12962.7
823.243	13083.82
823.57	13028
823.898	13109.58
824.225	13008.8
824.553	13033.88
824.88	12919.08
825.207	13057.38
825.535	12988.23
825.862	12981.9
826.189	12983.71
826.516	13049.02
826.843	13130.6
827.17	13104.61
827.497	13038.4
827.824	13037.27
828.151	13077.95
828.478	13020.32
828.805	13017.84
829.131	13049.02
829.458	12952.53
829.785	12889.03
830.111	12936.03
830.438	13049.25
830.764	12992.07
831.09	12981.68
831.417	12938.74
831.743	12944.62
832.069	12994.11
832.395	12966.09
832.722	12937.39
833.048	12809.48
833.374	12905.3
833.7	12879.76
834.026	12877.73
834.351	12919.99
834.677	12859.87
835.003	12883.38
835.329	12852.42
835.654	12788.24
835.98	12733.1
836.306	12805.86
836.631	12702.36
836.956	12841.57
837.282	12852.42
837.607	12694.68
837.932	12659.88
838.258	12683.38
838.583	12595.47
838.908	12577.62
839.233	12670.05
839.558	12567
839.883	12554.12
840.208	12496.04
840.533	12511.86
840.858	12478.87
841.182	12511.63
841.507	12459.43
841.832	12404.52
842.156	12499.66
842.481	12443.61
842.805	12286.33
843.13	12257.4
843.454	12332.2
843.778	12213.34
844.103	12277.52
844.427	12213.34
844.751	12165.88
845.075	12083.62
845.399	12061.48
845.723	12021.48
846.047	12082.27
846.371	11965.89
846.695	11964.76
847.019	11817.87
847.343	11762.28
847.666	11659.23
847.99	11679.79
848.313	11683.86
848.637	11633.01
848.96	11546.01
849.284	11465.56
849.607	11485.22
849.931	11422.62
850.254	11455.84
850.577	11330.87
850.9	11297.43
851.223	11198.45
851.546	11186.92
851.869	11063.99
852.192	11187.83
852.515	11061.28
852.838	10968.85
853.161	11083.42
853.483	10971.11
853.806	10959.81
854.129	10870.55
854.451	10863.99
854.774	10799.59
855.096	10793.94
855.419	10685.92
855.741	10702.87
856.063	10643.21
856.385	10633.72
856.708	10600.27
857.03	10558.24
857.352	10494.29
857.674	10557.56
857.996	10407.73
858.318	10420.16
858.64	10461.74
858.961	10410.67
859.283	10348.3
859.605	10281.18
859.926	10349.21
860.248	10328.19
860.57	10219.49
860.891	10169.1
861.212	10113.51
861.534	10228.3
861.855	10199.15
862.176	10149.89
862.498	10163.67
862.819	10276.66
863.14	10055.43
863.461	9974.53
863.782	10005.49
864.103	9995.09
864.424	9993.06
864.745	10004.81
865.065	10000.51
865.386	9908.76
865.707	9876.22
866.027	9940.18
866.348	9968.42
866.668	9812.27
866.989	9835.55
867.309	9779.28
867.63	9826.28
867.95	9786.06
868.27	9774.98
868.59	9773.4
868.91	9711.48
869.23	9766.62
869.55	9628.09
869.87	9735.89
870.19	9674.19
870.51	9723.23
870.83	9708.54
871.15	9557.36
871.469	9547.19
871.789	9713.74
872.109	9598.26
872.428	9605.27
872.748	9644.14
873.067	9547.87
873.386	9518.72
873.706	9551.49
874.025	9518.04
874.344	9477.36
874.663	9513.3
874.982	9466.06
875.301	9372.06
875.62	9406.18
875.939	9396.69
876.258	9410.02
876.577	9315.56
876.896	9351.04
877.214	9313.3
877.533	9341.32
877.852	9297.93
878.17	9302.91
878.489	9314.66
878.807	9319.18
879.125	9226.52
879.444	9257.71
879.762	9262.91
880.08	9264.49
880.398	9158.28
880.716	9167.99
881.034	9115.57
881.352	9138.84
881.67	9151.5
881.988	9106.53
882.306	9075.34
882.624	9081.22
882.941	8991.95
883.259	8973.65
883.577	9006.87
883.894	8926.64
884.212	8986.3
884.529	8903.14
884.846	8913.31
885.164	8900.88
885.481	8863.82
885.798	8895.46
886.115	8771.17
886.432	8835.35
886.75	8765.97
887.067	8765.29
887.383	8757.61
887.7	8710.15
888.017	8707.67
888.334	8708.8
888.651	8698.63
888.967	8650.04
889.284	8614.11
889.6	8592.87
889.917	8553.55
890.233	8532.08
890.55	8452.76
890.866	8550.83
891.182	8559.2
891.498	8425.64
891.815	8445.53
892.131	8397.39
892.447	8418.63
892.763	8316.26
893.079	8334.57
893.395	8355.81
893.71	8289.15
894.026	8236.04
894.342	8275.81
894.657	8191.07
894.973	8145.87
895.289	8176.83
895.604	8113.78
895.92	8082.6
896.235	8031.53
896.55	8071.53
896.865	8042.83
897.181	7990.85
897.496	8004.63
897.811	7968.48
898.126	7958.53
898.441	7872.66
898.756	7913.79
899.071	7808.48
899.386	7848.48
899.7	7717.18
900.015	7718.99
900.33	7648.94
900.644	7685.09
900.959	7695.94
901.273	7648.49
901.588	7612.78
901.902	7585.44
902.216	7475.38
902.531	7514.25
902.845	7471.31
903.159	7493.69
903.473	7459.34
903.787	7391.32
904.101	7396.74
904.415	7363.75
904.729	7307.03
905.042	7253.24
905.356	7247.14
905.67	7262.96
905.984	7198.33
906.297	7203.07
906.611	7125.56
906.924	7119.69
907.237	7116.3
907.551	7086.69
907.864	7036.07
908.177	7009.41
908.491	7050.53
908.804	6940.48
909.117	6942.97
909.43	6947.03
909.743	6896.19
910.056	6851.44
910.368	6811.67
910.681	6822.29
910.994	6807.15
911.307	6769.19
911.619	6688.28
911.932	6661.17
912.244	6680.38
912.557	6634.5
912.869	6594.73
913.181	6589.76
913.494	6586.37
913.806	6524.9
914.118	6490.1
914.43	6470.66
914.742	6476.09
915.054	6457.78
915.366	6383.89
915.678	6394.06
915.99	6368.97
916.302	6298.46
916.613	6316.09
916.925	6281.06
917.236	6225.92
917.548	6196.09
917.859	6207.62
918.171	6187.73
918.482	6054.18
918.794	6133.95
919.105	6074.97
919.416	6059.83
919.727	6062.99
920.038	6075.42
920.349	6025.7
920.66	5921.75
920.971	5908.64
921.282	5907.06
921.593	5876.78
921.903	5854.86
922.214	5851.02
922.525	5773.96
922.835	5798.36
923.146	5743.9
923.456	5759.95
923.767	5745.48
924.077	5749.1
924.387	5682.66
924.697	5650.12
925.008	5609.44
925.318	5601.08
925.628	5579.84
925.938	5549.33
926.248	5511.82
926.558	5511.14
926.867	5514.3
927.177	5480.63
927.487	5449.45
927.796	5398.15
928.106	5391.6
928.416	5398.38
928.725	5367.87
929.034	5283.8
929.344	5360.41
929.653	5289.68
929.962	5303.69
930.271	5247.19
930.581	5267.08
930.89	5233.41
931.199	5175.78
931.508	5170.36
931.817	5148.66
932.125	5114.99
932.434	5124.48
932.743	5108.89
933.051	5045.39
933.36	5029.8
933.669	4981.66
933.977	4967.88
934.286	5007.42
934.594	4956.13
934.902	4877.03
935.21	4860.76
935.519	4901.89
935.827	4899.41
936.135	4847.2
936.443	4847.2
936.751	4794.78
937.059	4830.71
937.367	4755
937.674	4742.57
937.982	4700.31
938.29	4702.12
938.597	4714.55
938.905	4717.71
939.213	4602.01
939.52	4592.75
939.827	4642.46
940.135	4552.3
940.442	4536.93
940.749	4555.91
941.056	4542.8
941.363	4495.8
941.67	4502.81
941.977	4447.44
942.284	4453.09
942.591	4439.76
942.898	4422.81
943.205	4434.56
943.511	4371.51
943.818	4409.93
944.125	4280.44
944.431	4311.85
944.738	4300.55
945.044	4303.94
945.35	4300.78
945.657	4226.43
945.963	4253.55
946.269	4186.2
946.575	4196.15
946.881	4178.75
947.187	4152.76
947.493	4140.1
947.799	4157.96
948.105	4144.4
948.41	4078.18
948.716	4115.92
949.022	4064.17
949.327	4076.83
949.633	4019.88
949.938	3986.66
950.244	4029.15
950.549	3936.72
950.854	3953.22
951.16	3924.29
951.465	3932.88
951.77	3908.47
952.075	3876.61
952.38	3880.9
952.685	3807.91
952.99	3845.42
953.294	3799.1
953.599	3802.03
953.904	3732.66
954.209	3755.71
954.513	3763.84
954.818	3743.73
955.122	3705.09
955.426	3712.32
955.731	3692.66
956.035	3675.71
956.339	3680.45
956.643	3663.73
956.948	3626.22
957.252	3623.28
957.556	3614.24
957.86	3574.47
958.163	3552.1
958.467	3542.38
958.771	3529.5
959.075	3503.06
959.378	3491.98
959.682	3531.53
959.985	3475.04
960.289	3494.47
960.592	3426.9
960.896	3427.58
961.199	3442.27
961.502	3378.09
961.805	3371.54
962.108	3363.85
962.411	3366.11
962.714	3309.62
963.017	3342.84
963.32	3313.23
963.623	3295.83
963.926	3284.53
964.228	3276.85
964.531	3261.48
964.833	3223.52
965.136	3239.56
965.438	3226.68
965.741	3187.36
966.043	3191.43
966.345	3214.93
966.648	3170.41
966.95	3154.82
967.252	3119.56
967.554	3130.19
967.856	3162.95
968.158	3068.27
968.46	3099.9
968.761	3036.86
969.063	3032.79
969.365	3016.29
969.666	3018.32
969.968	3028.49
970.269	2978.1
970.571	2998.66
970.872	2999.79
971.174	2962.51
971.475	2999.57
971.776	2944.65
972.077	2934.94
972.378	2936.29
972.679	2871.89
972.98	2908.27
973.281	2893.58
973.582	2877.54
973.883	2841.38
974.183	2845.9
974.484	2838.67
974.785	2791.44
975.085	2770.87
975.386	2800.25
975.686	2758.44
975.986	2753.25
976.287	2739.24
976.587	2711.44
976.887	2731.78
977.187	2725
977.487	2701.95
977.787	2705.11
978.087	2664.21
978.387	2670.99
978.687	2670.99
978.987	2631.67
979.286	2635.74
979.586	2621.72
979.885	2642.74
980.185	2593.48
980.484	2588.28
980.784	2562.29
981.083	2558.45
981.382	2548.28
981.682	2523.65
981.981	2530.43
982.28	2478
982.579	2486.59
982.878	2488.85
983.177	2506.93
983.475	2475.51
983.774	2467.83
984.073	2448.62
984.372	2435.52
984.67	2424.89
984.969	2425.8
985.267	2439.81
985.566	2403.88
985.864	2383.99
986.162	2386.25
986.461	2363.43
986.759	2384.22
987.057	2357.33
987.355	2341.51
987.653	2336.31
987.951	2333.6
988.249	2296.54
988.547	2265.58
988.844	2292.92
989.142	2257.89
989.44	2291.79
989.737	2261.51
990.035	2237.33
990.332	2238.23
990.63	2242.53
990.927	2198.46
991.224	2231.68
991.521	2168.18
991.819	2159.14
992.116	2166.82
992.413	2172.7
992.71	2185.35
993.006	2137.9
993.303	2145.58
993.6	2129.99
993.897	2112.59
994.193	2098.35
994.49	2113.49
994.787	2066.03
995.083	2044.79
995.379	2078.46
995.676	2055.64
995.972	2050.44
996.268	2057.9
996.565	2021.74
996.861	2063.32
997.157	2002.98
997.453	2005.7
997.749	2002.76
998.044	1962.08
998.34	1964.57
998.636	1951.23
998.932	1987.17
999.227	1932.03
999.523	1951.01
999.818	1960.5
1000.114	1904.68
1000.409	1898.13
1000.704	1876.66
1001	1875.76
1001.295	1872.82
1001.59	1863.55
1001.885	1870.78
1002.18	1838.47
1002.475	1821.97
1002.77	1849.09
1003.065	1808.64
1003.359	1800.28
1003.654	1813.84
1003.949	1776.32
1004.243	1756.21
1004.538	1774.06
1004.832	1745.36
1005.127	1758.47
1005.421	1726.16
1005.715	1736.32
1006.009	1717.12
1006.304	1722.31
1006.598	1694.97
1006.892	1677.57
1007.186	1687.29
1007.48	1697
1007.773	1676.66
1008.067	1661.75
1008.361	1670.34
1008.655	1606.16
1008.948	1630.11
1009.242	1635.54
1009.535	1605.25
1009.829	1595.76
1010.122	1595.76
1010.415	1604.58
1010.708	1571.58
1011.001	1566.39
1011.295	1569.32
1011.588	1583.56
1011.881	1541.98
1012.173	1527.97
1012.466	1537.23
1012.759	1527.74
1013.052	1502.88
1013.344	1488.87
1013.637	1521.87
1013.93	1478.93
1014.222	1482.32
1014.514	1435.99
1014.807	1455.65
1015.099	1463.79
1015.391	1457.01
1015.683	1417.24
1015.976	1422.21
1016.268	1429.44
1016.56	1392.83
1016.851	1428.31
1017.143	1416.56
1017.435	1359.39
1017.727	1386.96
1018.018	1375.88
1018.31	1393.73
1018.602	1314.41
1018.893	1347.41
1019.185	1341.08
1019.476	1326.17
1019.767	1303.79
1020.058	1313.28
1020.35	1272.61
1020.641	1285.04
1020.932	1287.97
1021.223	1278.26
1021.514	1256.79
1021.804	1260.18
1022.095	1240.07
1022.386	1234.64
1022.677	1230.57
1022.967	1224.7
1023.258	1202.33
1023.548	1208.65
1023.839	1213.4
1024.129	1221.31
1024.419	1189.9
1024.709	1202.55
1025	1201.42
1025.29	1167.3
1025.58	1149.45
1025.87	1164.14
1026.16	1151.26
1026.449	1125.94
1026.739	1136.34
1027.029	1108.77
1027.319	1127.07
1027.608	1117.36
1027.898	1105.61
1028.187	1078.94
1028.477	1071.71
1028.766	1087.3
1029.055	1075.78
1029.344	1065.61
1029.634	1079.39
1029.923	1059.05
1030.212	1053.4
1030.501	1060.18
1030.79	1040.98
1031.078	1035.33
1031.367	1017.25
1031.656	1027.19
1031.945	1022.44
1032.233	1002.56
1032.522	989.45
1032.81	1019.51
1033.099	1000.3
1033.387	982.9
1033.675	972.28
1033.963	973.86
1034.251	960.75
1034.54	984.03
1034.828	949.9
1035.116	956.46
1035.403	965.27
1035.691	936.12
1035.979	950.13
1036.267	938.15
1036.554	918.27
1036.842	925.72
1037.129	902.45
1037.417	916.01
1037.704	904.26
1037.992	880.08
1038.279	880.08
1038.566	896.35
1038.853	896.35
1039.14	896.35
