Data from hue_130_FLMS001491_00061.txt Node
Date: Tue Feb 07 16:57:55 GMT 2017
User: dcchb
Spectrometer: FLMS00149
Trigger mode: 0
Integration Time (sec): 2.000000E-2
Scans to average: 10
Electric dark correction enabled: true
Nonlinearity correction enabled: false
Boxcar width: 0
XAxis mode: Wavelengths
Number of Pixels in Spectrum: 2048
>>>>>Begin Spectral Data<<<<<
341.393	-5.04
341.776	-5.04
342.16	-5.04
342.543	-75.32
342.927	-56.79
343.31	-93.4
343.693	-70.13
344.077	-65.83
344.46	-63.12
344.843	-61.31
345.226	-40.97
345.61	-38.94
345.993	-15.44
346.376	-1.43
346.759	-1.2
347.142	41.74
347.525	38.57
347.908	69.53
348.291	89.19
348.674	106.14
349.057	106.59
349.44	132.36
349.823	128.51
350.206	149.76
350.588	187.95
350.971	221.62
351.354	222.3
351.737	254.84
352.119	239.25
352.502	258.45
352.884	279.24
353.267	280.37
353.65	268.4
354.032	309.75
354.414	300.26
354.797	293.48
355.179	320.15
355.562	315.63
355.944	316.53
356.326	329.19
356.709	326.7
357.091	334.61
357.473	358.79
357.855	336.87
358.238	369.41
358.62	332.8
359.002	337.1
359.384	347.94
359.766	321.5
360.148	322.18
360.53	363.31
360.912	342.52
361.294	328.51
361.676	342.07
362.057	310.43
362.439	346.36
362.821	333.03
363.203	324.67
363.584	319.47
363.966	341.62
364.348	342.97
364.729	319.92
365.111	347.72
365.493	312.69
365.874	315.18
366.256	325.57
366.637	336.19
367.019	307.49
367.4	313.37
367.781	310.2
368.163	297.77
368.544	296.42
368.925	320.37
369.306	309.75
369.688	326.7
370.069	314.5
370.45	316.31
370.831	297.1
371.212	322.18
371.593	335.06
371.974	334.16
372.355	327.6
372.736	316.98
373.117	330.77
373.498	304.33
373.879	320.82
374.26	315.18
374.641	309.07
375.021	326.25
375.402	330.32
375.783	325.34
376.163	313.37
376.544	321.05
376.925	325.12
377.305	323.31
377.686	332.8
378.066	340.71
378.447	335.74
378.827	322.41
379.208	337.32
379.588	346.59
379.968	326.47
380.349	335.74
380.729	332.58
381.109	338.9
381.489	337.32
381.87	344.1
382.25	330.99
382.63	334.61
383.01	351.33
383.39	353.82
383.77	349.98
384.15	355.63
384.53	348.62
384.91	351.78
385.29	345.46
385.67	366.93
386.049	377.77
386.429	357.21
386.809	344.1
387.189	357.89
387.568	352.24
387.948	364.21
388.328	389.52
388.707	354.04
389.087	355.17
389.466	372.57
389.846	377.09
390.225	365.34
390.605	364.44
390.984	333.93
391.363	385.91
391.743	381.16
392.122	384.55
392.501	365.8
392.881	400.14
393.26	374.16
393.639	374.38
394.018	368.51
394.397	374.38
394.776	374.16
395.155	387.49
395.534	389.52
395.913	387.26
396.292	387.04
396.671	389.98
397.05	403.53
397.429	407.6
397.808	409.64
398.186	408.51
398.565	404.21
398.944	385.91
399.323	408.73
399.701	429.97
400.08	400.82
400.458	410.31
400.837	420.03
401.215	429.3
401.594	416.64
401.972	418
402.351	445.57
402.729	401.05
403.107	422.74
403.486	427.49
403.864	432.69
404.242	432.01
404.62	427.49
404.999	436.98
405.377	420.71
405.755	421.39
406.133	430.88
406.511	452.35
406.889	429.97
407.267	447.6
407.645	440.37
408.023	460.03
408.401	461.39
408.779	459.35
409.156	456.87
409.534	463.19
409.912	478.11
410.29	480.14
410.667	474.95
411.045	476.53
411.422	474.27
411.8	480.82
412.178	503.42
412.555	505.9
412.933	492.57
413.31	509.52
413.687	505.23
414.065	507.71
414.442	499.58
414.819	506.13
415.197	500.26
415.574	520.59
415.951	528.96
416.328	526.24
416.705	546.13
417.082	530.99
417.46	526.47
417.837	527.83
418.214	543.42
418.591	535.28
418.967	564.43
419.344	560.59
419.721	566.24
420.098	554.49
420.475	569.63
420.852	550.42
421.228	535.96
421.605	556.52
421.982	571.89
422.358	591.78
422.735	564.89
423.111	583.42
423.488	599.01
423.864	609.4
424.241	626.58
424.617	598.56
424.994	629.29
425.37	611.21
425.746	612.12
426.123	625.68
426.499	617.54
426.875	630.2
427.251	635.84
427.627	641.72
428.003	647.37
428.379	667.03
428.756	651.21
429.132	651.66
429.507	657.99
429.883	688.72
430.259	676.75
430.635	668.16
431.011	689.4
431.387	702.51
431.763	699.57
432.138	691.66
432.514	715.16
432.89	719.46
433.265	712.23
433.641	733.02
434.016	736.63
434.392	758.78
434.767	737.09
435.143	775.95
435.518	763.53
435.894	782.96
436.269	793.13
436.644	786.8
437.02	792.68
437.395	796.97
437.77	800.36
438.145	808.04
438.52	810.98
438.895	816.86
439.271	815.95
439.646	836.07
440.021	847.14
440.395	834.26
440.77	841.94
441.145	850.08
441.52	860.25
441.895	850.75
442.27	878.1
442.645	855.95
443.019	883.52
443.394	876.29
443.769	900.92
444.143	892.34
444.518	912.45
444.892	912.22
445.267	906.8
445.641	937.53
446.016	928.72
446.39	916.52
446.764	943.63
447.139	937.98
447.513	941.15
447.887	950.19
448.262	954.03
448.636	974.59
449.01	988.38
449.384	994.03
449.758	974.59
450.132	985.89
450.506	1001.48
450.88	1014.82
451.254	1014.82
451.628	1020.02
452.002	1041.03
452.376	1038.77
452.75	1055.27
453.123	1032.67
453.497	1077.42
453.871	1089.84
454.244	1083.97
454.618	1107.02
454.992	1108.83
455.365	1131.43
455.739	1163.97
456.112	1157.19
456.486	1160.35
456.859	1165.55
457.232	1213.23
457.606	1193.8
457.979	1204.42
458.352	1225.89
458.725	1234.47
459.099	1253.68
459.472	1283.96
459.845	1273.12
460.218	1289.39
460.591	1306.11
460.964	1316.96
461.337	1344.3
461.71	1369.16
462.083	1381.36
462.456	1406.22
462.829	1381.81
463.201	1438.99
463.574	1424.98
463.947	1435.37
464.32	1494.13
464.692	1518.08
465.065	1534.58
465.438	1534.8
465.81	1577.74
466.183	1588.59
466.555	1602.6
466.928	1627.91
467.3	1642.37
467.672	1668.81
468.045	1708.13
468.417	1698.42
468.789	1735.48
469.161	1788.36
469.534	1789.94
469.906	1881.24
470.278	1868.13
470.65	1903.61
471.022	1932.53
471.394	1986.54
471.766	1982.02
472.138	2022.7
472.51	2090.27
472.882	2144.51
473.253	2163.71
473.625	2195.13
473.997	2266.08
474.369	2297.95
474.74	2351.96
475.112	2411.17
475.484	2464.95
475.855	2492.75
476.227	2528.9
476.598	2653.87
476.97	2715.11
477.341	2791.49
477.713	2824.94
478.084	2863.36
478.455	2953.3
478.827	3029.23
479.198	3145.38
479.569	3148.77
479.94	3302.22
480.311	3351.93
480.682	3449.56
481.053	3562.1
481.424	3694.3
481.795	3727.29
482.166	3827.63
482.537	3930.22
482.908	4058.58
483.279	4139.93
483.65	4260.83
484.021	4333.15
484.391	4496.76
484.762	4580.6
485.133	4649.3
485.503	4778.11
485.874	4952.34
486.244	5062.4
486.615	5191.66
486.985	5290.19
487.356	5484.98
487.726	5584.64
488.097	5764.75
488.467	5767.01
488.837	5995.48
489.207	6079.77
489.578	6278.41
489.948	6397.73
490.318	6579.87
490.688	6655.12
491.058	6794.78
491.428	6975.57
491.798	7134.88
492.168	7284.48
492.538	7432.73
492.908	7539.39
493.278	7739.61
493.648	7827.29
494.017	8034.75
494.387	8162.43
494.757	8260.96
495.126	8439.71
495.496	8492.81
495.866	8627.27
496.235	8847.61
496.605	8985.46
496.974	9045.57
497.344	9154.94
497.713	9296.18
498.082	9417.08
498.452	9594.48
498.821	9585.89
499.19	9820.46
499.559	9895.94
499.928	10017.52
500.298	10082.6
500.667	10220.45
501.036	10262.71
501.405	10404.63
501.774	10470.16
502.143	10570.05
502.512	10723.04
502.88	10781.79
503.249	10877.84
503.618	11001.22
503.987	11042.58
504.356	11123.48
504.724	11270.14
505.093	11280.31
505.462	11359.18
505.83	11457.48
506.199	11629
506.567	11754.42
506.936	11717.14
507.304	11848.88
507.672	11962.55
508.041	12020.4
508.409	12129.33
508.777	12168.2
509.145	12211.81
509.514	12273.28
509.882	12368.19
510.25	12426.27
510.618	12471.69
510.986	12480.28
511.354	12655.42
511.722	12733.38
512.09	12839.82
512.458	12789.88
512.826	12871
513.193	12905.8
513.561	12976.09
513.929	13060.15
514.297	13121.62
514.664	13235.06
515.032	13278
515.4	13348.96
515.767	13338.11
516.135	13398.45
516.502	13301.95
516.869	13512.79
517.237	13588.05
517.604	13453.81
517.972	13571.78
518.339	13603.87
518.706	13628.5
519.073	13682.28
519.44	13710.3
519.808	13888.83
520.175	13842.5
520.542	13992.56
520.909	13952.33
521.276	13909.17
521.643	14064.64
522.009	14138.99
522.376	14082.04
522.743	14199.33
523.11	14254.47
523.477	14300.12
523.843	14318.65
524.21	14460.34
524.577	14485.42
524.943	14426.44
525.31	14518.19
525.676	14566.33
526.043	14616.72
526.409	14637.74
526.776	14759.54
527.142	14659.2
527.508	14680
527.874	14740.78
528.241	14750.5
528.607	14749.15
528.973	14891.97
529.339	14758.19
529.705	14879.31
530.071	14858.75
530.437	14896.94
530.803	14917.5
531.169	14958.41
531.535	14947.11
531.901	14816.26
532.267	14905.98
532.632	14941.46
532.998	14938.97
533.364	14919.76
533.73	14899.42
534.095	14999.76
534.461	14989.14
534.826	14970.61
535.192	15011.51
535.557	14996.82
535.923	14845.87
536.288	14883.61
536.653	14907.56
537.019	14778.52
537.384	14813.55
537.749	14808.58
538.114	14820.1
538.479	14783.72
538.845	14721.58
539.21	14680
539.575	14658.98
539.94	14696.04
540.305	14620.56
540.67	14607.68
541.034	14594.57
541.399	14642.93
541.764	14614.69
542.129	14565.2
542.494	14485.2
542.858	14431.41
543.223	14498.53
543.587	14454.24
543.952	14397.74
544.316	14465.54
544.681	14327.46
545.045	14377.86
545.41	14354.81
545.774	14261.25
546.138	14244.53
546.503	14234.58
546.867	14181.03
547.231	14239.1
547.595	14138.31
547.959	14145.32
548.324	14118.2
548.688	14150.29
549.052	14040.92
549.416	14069.84
549.779	14016.51
550.143	13965.66
550.507	13995.04
550.871	13922.05
551.235	13908.04
551.599	13918.89
551.962	13917.98
552.326	13909.62
552.689	13926.57
553.053	13772.67
553.417	13749.62
553.78	14000.69
554.143	13840.47
554.507	13827.81
554.87	13800.02
555.234	13887.47
555.597	13723.86
555.96	13714.82
556.323	13690.19
556.686	13669.4
557.05	13720.25
557.413	13696.74
557.776	13699.46
558.139	13783.3
558.502	13695.16
558.865	13720.25
559.228	13680.25
559.59	13701.94
559.953	13685.45
560.316	13842.96
560.679	13729.74
561.041	13774.26
561.404	13820.58
561.767	13848.15
562.129	13689.96
562.492	13849.51
562.854	13819.23
563.217	13801.6
563.579	13886.12
563.941	13828.49
564.304	13801.83
564.666	13868.72
565.028	13905.55
565.39	13884.54
565.753	13978.09
566.115	13854.71
566.477	13983.52
566.839	13938.09
567.201	14095.38
567.563	14064.19
567.925	14077.75
568.287	14037.53
568.648	14058.09
569.01	14041.82
569.372	14090.63
569.734	14103.97
570.095	14178.31
570.457	14160.91
570.819	14274.36
571.18	14200.69
571.542	14247.69
571.903	14191.42
572.265	14290.4
572.626	14219.89
572.987	14284.53
573.349	14338.54
573.71	14337.18
574.071	14350.96
574.432	14310.97
574.794	14477.51
575.155	14366.33
575.516	14294.47
575.877	14385.54
576.238	14346.22
576.599	14483.39
576.96	14388.93
577.32	14406.56
577.681	14385.31
578.042	14484.52
578.403	14436.39
578.763	14422.6
579.124	14352.77
579.485	14467.8
579.845	14388.48
580.206	14503.73
580.566	14464.86
580.927	14463.73
581.287	14532.2
581.648	14458.08
582.008	14482.26
582.368	14376.05
582.728	14429.61
583.089	14497.18
583.449	14483.39
583.809	14465.31
584.169	14439.1
584.529	14390.06
584.889	14529.04
585.249	14435.48
585.609	14448.36
585.969	14496.95
586.329	14348.48
586.688	14376.27
587.048	14415.6
587.408	14375.82
587.768	14294.02
588.127	14304.19
588.487	14261.93
588.846	14368.59
589.206	14339.89
589.565	14262.61
589.925	14327.69
590.284	14214.92
590.643	14311.42
591.003	14410.85
591.362	14322.94
591.721	14300.57
592.08	14354.58
592.44	14299.89
592.799	14286.11
593.158	14272.55
593.517	14211.99
593.876	14306.9
594.235	14231.19
594.593	14272.32
594.952	14292.43
595.311	14170.18
595.67	14228.26
596.029	14319.33
596.387	14262.61
596.746	14231.87
597.104	14204.3
597.463	14223.51
597.822	14168.82
598.18	14223.96
598.538	14225.09
598.897	14246.79
599.255	14111.2
599.613	14262.15
599.972	14249.27
600.33	14130.18
600.688	14175.83
601.046	14196.84
601.404	14222.61
601.762	14275.26
602.12	14273.23
602.478	14268.71
602.836	14334.92
603.194	14188.48
603.552	14154.36
603.91	14087.92
604.268	14248.37
604.625	14158.65
604.983	14264.64
605.341	14183.74
605.698	14211.31
606.056	14295.37
606.413	14280.91
606.771	14320.68
607.128	14310.74
607.485	14306.9
607.843	14225.32
608.2	14311.87
608.557	14374.69
608.914	14279.33
609.272	14338.31
609.629	14398.19
609.986	14480.9
610.343	14362.94
610.7	14411.3
611.057	14342.83
611.414	14439.32
611.771	14350.06
612.127	14451.75
612.484	14443.17
612.841	14423.96
613.198	14440.68
613.554	14469.83
613.911	14606.1
614.267	14518.42
614.624	14526.1
614.98	14521.58
615.337	14597.29
615.693	14517.06
616.05	14467.57
616.406	14726.32
616.762	14615.36
617.118	14614.01
617.475	14529.26
617.831	14623.73
618.187	14662.82
618.543	14625.08
618.899	14618.98
619.255	14655.36
619.611	14654.23
619.967	14677.51
620.323	14689.03
620.678	14656.95
621.034	14586.89
621.39	14639.09
621.746	14607.91
622.101	14702.82
622.457	14707.57
622.812	14792.31
623.168	14750.5
623.523	14678.41
623.879	14786.66
624.234	14750.95
624.589	14705.31
624.945	14681.58
625.3	14687
625.655	14648.36
626.01	14692.42
626.365	14753.44
626.72	14664.18
627.075	14759.99
627.43	14690.84
627.785	14598.64
628.14	14581.92
628.495	14666.66
628.85	14598.19
629.205	14678.64
629.559	14593.67
629.914	14633.44
630.269	14593.67
630.623	14562.26
630.978	14515.48
631.332	14565.65
631.687	14549.83
632.041	14522.03
632.396	14531.3
632.75	14482.94
633.104	14484.29
633.459	14425.31
633.813	14400.45
634.167	14447.01
634.521	14404.07
634.875	14451.75
635.229	14391.19
635.583	14323.17
635.937	14318.2
636.291	14292.66
636.645	14348.93
636.999	14299.67
637.352	14393.45
637.706	14243.62
638.06	14386.44
638.413	14264.64
638.767	14267.58
639.121	14287.01
639.474	14242.04
639.828	14158.43
640.181	14178.54
640.534	14155.04
640.888	14096.06
641.241	14143.96
641.594	14071.65
641.947	14232.55
642.301	14094.47
642.654	14113.23
643.007	14138.09
643.36	14132.44
643.713	14005.66
644.066	14003.63
644.419	14038.88
644.771	13912.78
645.124	13784.88
645.477	13780.81
645.83	13689.96
646.182	13632.11
646.535	13575.17
646.888	13686.35
647.24	13573.81
647.593	13631.44
647.945	13628.05
648.298	13609.74
648.65	13548.05
649.002	13541.95
649.355	13586.69
649.707	13608.16
650.059	13658.1
650.411	13803.86
650.763	13820.58
651.115	13896.51
651.467	13816.97
651.819	13776.52
652.171	13840.47
652.523	13790.98
652.875	13851.77
653.227	13778.55
653.578	13886.57
653.93	13938.09
654.282	13727.48
654.633	13741.04
654.985	13807.02
655.337	13780.58
655.688	13835.95
656.039	13896.29
656.391	13781.04
656.742	13775.61
657.094	13828.27
657.445	13833.24
657.796	13862.16
658.147	13835.72
658.498	13796.18
658.849	13844.76
659.2	13873.46
659.551	13761.15
659.902	13906.91
660.253	13873.69
660.604	13892.67
660.955	13847.7
661.306	13894.03
661.656	13852.22
662.007	13847.25
662.358	13897.42
662.708	13786.69
663.059	13836.18
663.409	13846.34
663.76	13907.13
664.11	13910.07
664.461	13916.17
664.811	13832.56
665.161	13867.81
665.511	13875.95
665.862	13862.39
666.212	13874.82
666.562	13867.81
666.912	13850.64
667.262	13903.52
667.612	13908.49
667.962	13820.81
668.312	13864.88
668.662	13985.55
669.011	13868.49
669.361	13850.64
669.711	13850.41
670.06	13867.81
670.41	13903.29
670.76	13785.56
671.109	13856.29
671.459	13792.79
671.808	13881.37
672.157	13785.56
672.507	13782.62
672.856	13747.59
673.205	13825.55
673.554	13856.74
673.904	13742.62
674.253	13786.69
674.602	13692.22
674.951	13586.24
675.3	13511.44
675.649	13689.51
675.998	13703.3
676.346	13683.86
676.695	13765.67
677.044	13613.36
677.393	13667.37
677.741	13682.96
678.09	13598.44
678.438	13560.48
678.787	13680.25
679.135	13608.84
679.484	13523.64
679.832	13485.9
680.181	13489.52
680.529	13532.23
680.877	13323.19
681.225	13456.75
681.573	13408.39
681.922	13434.15
682.27	13346.47
682.618	13383.08
682.966	13325.23
683.314	13350.09
683.661	13306.7
684.009	13246.81
684.357	13221.05
684.705	13209.98
685.053	13199.81
685.4	13189.64
685.748	13044.11
686.095	13137.44
686.443	13035.52
686.79	13041.39
687.138	13081.85
687.485	13072.58
687.832	12964.11
688.18	12989.87
688.527	12902.19
688.874	12854.96
689.221	12814.51
689.568	12740.16
689.915	12790.55
690.262	12743.55
690.609	12688.41
690.956	12688.41
691.303	12665.81
691.65	12581.07
691.997	12587.4
692.344	12513.95
692.69	12475.08
693.037	12433.73
693.383	12426.27
693.73	12370.68
694.077	12337.68
694.423	12278.02
694.769	12167.29
695.116	12220.63
695.462	12168.65
695.808	12062.21
696.155	12177.69
696.501	11997.13
696.847	12029.9
697.193	11942.44
697.539	11999.84
697.885	11923.68
698.231	11829.45
698.577	11891.59
698.923	11769.11
699.269	11762.11
699.614	11629.68
699.96	11632.17
700.306	11660.41
700.651	11535.9
700.997	11502.9
701.342	11525.5
701.688	11498.61
702.033	11382.68
702.379	11431.95
702.724	11362.79
703.069	11381.78
703.415	11226.07
703.76	11270.14
704.105	11230.59
704.45	11191.27
704.795	11175
705.14	11111.5
705.485	11066.31
705.83	11023.37
706.175	11021.79
706.52	10974.1
706.865	10951.05
707.209	10886.65
707.554	10928
707.899	10916.25
708.243	10817.95
708.588	10804.17
708.932	10775.92
709.277	10675.58
709.621	10783.37
709.966	10598.97
710.31	10678.29
710.654	10568.24
710.998	10659.76
711.342	10668.58
711.687	10594.23
712.031	10450.28
712.375	10422.93
712.719	10448.69
713.063	10430.62
713.407	10433.78
713.75	10401.69
714.094	10390.62
714.438	10324.18
714.782	10401.46
715.125	10366.21
715.469	10346.78
715.812	10320.11
716.156	10220.23
716.499	10247.12
716.843	10288.47
717.186	10186.33
717.53	10221.36
717.873	10250.96
718.216	10160.11
718.559	10129.15
718.902	10103.84
719.246	10109.27
719.589	10085.31
719.932	10037.86
720.275	10018.65
720.617	10064.52
720.96	10063.39
721.303	10026.78
721.646	10028.37
721.989	9989.05
722.331	9975.03
722.674	9940.01
723.016	10029.04
723.359	9920.12
723.701	9939.56
724.044	9848.48
724.386	9808.94
724.729	9922.83
725.071	9848.26
725.413	9869.05
725.755	9913.79
726.097	9789.95
726.439	9785.66
726.782	9809.61
727.124	9821.59
727.465	9786.79
727.807	9764.42
728.149	9784.98
728.491	9736.4
728.833	9764.19
729.175	9790.41
729.516	9744.98
729.858	9783.85
730.199	9749.5
730.541	9748.15
730.882	9740.46
731.224	9749.28
731.565	9716.96
731.906	9684.19
732.248	9744.76
732.589	9697.08
732.93	9650.3
733.271	9672.44
733.612	9696.85
733.953	9740.01
734.294	9696.62
734.635	9685.55
734.976	9714.25
735.317	9656.17
735.658	9678.77
735.999	9720.58
736.339	9615.27
736.68	9677.42
737.021	9785.43
737.361	9681.71
737.702	9724.65
738.042	9707.7
738.383	9643.97
738.723	9782.05
739.063	9721.71
739.404	9740.46
739.744	9695.04
740.084	9723.52
740.424	9737.53
740.764	9733.91
741.104	9741.37
741.444	9777.53
741.784	9768.94
742.124	9803.51
742.464	9807.13
742.804	9737.75
743.143	9736.17
743.483	9871.31
743.823	9870.18
744.162	9885.77
744.502	9955.15
744.841	9911.08
745.181	9998.54
745.52	10021.36
745.86	10041.47
746.199	10095.48
746.538	10161.92
746.877	10147.69
747.216	10227.68
747.556	10269.49
747.895	10344.29
748.234	10333.22
748.573	10348.81
748.911	10445.98
749.25	10501.57
749.589	10474
749.928	10602.81
750.267	10731.85
750.605	10757.16
750.944	10805.52
751.283	10861.11
751.621	10946.08
751.96	11047.1
752.298	11151.05
752.636	11264.04
752.975	11272.18
753.313	11310.59
753.651	11469.23
753.989	11597.36
754.327	11706.74
754.666	11762.56
755.004	11933.17
755.342	12153.73
755.679	12166.16
756.017	12228.99
756.355	12461.52
756.693	12539.49
757.031	12700.16
757.368	12788.29
757.706	12953.49
758.044	13076.42
758.381	13245.91
758.719	13336.98
759.056	13560.7
759.394	13687.03
759.731	13767.48
760.068	13969.96
760.405	14123.85
760.743	14262.15
761.08	14510.28
761.417	14550.73
761.754	14786.66
762.091	14948.69
762.428	15017.39
762.765	15140.77
763.102	15363.14
763.438	15484.95
763.775	15611.27
764.112	15839.06
764.449	15973.52
764.785	16116.57
765.122	16243.12
765.458	16293.06
765.795	16453.96
766.131	16669.1
766.467	16767.17
766.804	16893.5
767.14	16950.22
767.476	17252.58
767.812	17312.24
768.148	17542.74
768.485	17546.81
768.821	17643.99
769.157	17809.86
769.492	17866.58
769.828	17957.65
770.164	18026.8
770.5	18124.2
770.836	18232.44
771.171	18318.09
771.507	18437.41
771.842	18558.54
772.178	18592.43
772.513	18652.55
772.849	18820.23
773.184	18812.77
773.519	18944.29
773.855	19013.67
774.19	19012.99
774.525	19018.64
774.86	19165.98
775.195	19231.29
775.53	19274.45
775.865	19260.89
776.2	19288.01
776.535	19210.72
776.87	19312.64
777.205	19209.82
777.539	19272.64
777.874	19440.32
778.209	19412.75
778.543	19471.28
778.878	19348.57
779.212	19442.36
779.547	19483.26
779.881	19643.25
780.215	19495.46
780.55	19567.1
780.884	19535.46
781.218	19583.14
781.552	19559.19
781.886	19529.13
782.22	19482.81
782.554	19490.04
782.888	19466.99
783.222	19385.63
783.556	19304.96
783.889	19393.77
784.223	19161.69
784.557	19266.77
784.89	19429.93
785.224	19266.99
785.557	19227.9
785.891	19230.38
786.224	19248.69
786.558	19233.1
786.891	19150.84
787.224	19117.62
787.557	19088.47
787.891	19103.83
788.224	19043.72
788.557	19188.13
788.89	18968.7
789.223	19096.83
789.556	18963.95
789.888	19009.15
790.221	18898.19
790.554	18835.59
790.887	18862.48
791.219	18761.02
791.552	18728.25
791.884	18725.09
792.217	18672.43
792.549	18627.69
792.882	18516.5
793.214	18571.42
793.546	18576.84
793.879	18454.36
794.211	18395.83
794.543	18456.85
794.875	18457.75
795.207	18554.02
795.539	18312.89
795.871	18344.08
796.203	18190.64
796.535	18174.14
796.867	18150.86
797.198	18076.52
797.53	18060.25
797.862	18047.36
798.193	18044.43
798.525	17956.29
798.856	17973.92
799.188	17716.98
799.519	17671.78
799.85	17652.12
800.182	17700.03
800.513	17651.22
800.844	17555.85
801.175	17676.98
801.506	17625.45
801.837	17430.21
802.168	17429.3
802.499	17453.48
802.83	17387.27
803.161	17390.88
803.491	17346.37
803.822	17286.25
804.153	17200.61
804.483	17134.62
804.814	17055.3
805.145	17059.37
805.475	17040.84
805.805	16898.47
806.136	16924
806.466	17035.19
806.796	16970.1
807.126	16876.32
807.457	16854.4
807.787	16790.67
808.117	16766.95
808.447	16700.06
808.777	16695.99
809.107	16730.79
809.436	16588.87
809.766	16493.73
810.096	16571.7
810.426	16453.28
810.755	16514.3
811.085	16370.8
811.414	16437.46
811.744	16294.42
812.073	16244.02
812.403	16333.74
812.732	16230.24
813.061	16328.09
813.39	16172.39
813.719	16050.35
814.049	16110.47
814.378	16043.58
814.707	15986.4
815.036	16108.88
815.365	15922.67
815.693	15794.09
816.022	15815.33
816.351	15739.63
816.68	15673.64
817.008	15768.33
817.337	15672.29
817.665	15631.16
817.994	15604.26
818.322	15589.35
818.651	15632.96
818.979	15513.42
819.307	15625.06
819.636	15635.45
819.964	15449.92
820.292	15604.94
820.62	15490.6
820.948	15462.57
821.276	15549.13
821.604	15537.6
821.932	15549.58
822.259	15411.28
822.587	15411.28
822.915	15432.97
823.243	15396.81
823.57	15458.05
823.898	15413.08
824.225	15410.6
824.553	15364.95
824.88	15359.53
825.207	15468.9
825.535	15463.25
825.862	15423.25
826.189	15354.1
826.516	15465.74
826.843	15442.46
827.17	15538.28
827.497	15517.49
827.824	15381.45
828.151	15467.09
828.478	15456.47
828.805	15553.87
829.131	15411.73
829.458	15431.84
829.785	15328.11
830.111	15469.81
830.438	15503.25
830.764	15392.29
831.09	15336.93
831.417	15419.41
831.743	15428.22
832.069	15426.64
832.395	15382.58
832.722	15402.24
833.048	15314.78
833.374	15418.73
833.7	15311.84
834.026	15326.31
834.351	15438.39
834.677	15333.54
835.003	15280.88
835.329	15328.57
835.654	15235.24
835.98	15154.11
836.306	15241.34
836.631	15177.16
836.956	15216.93
837.282	15305.06
837.607	15196.82
837.932	15098.29
838.258	15134.45
838.583	15137.38
838.908	15029.36
839.233	15043.83
839.558	15007.67
839.883	14947.11
840.208	14957.05
840.533	14926.09
840.858	14870.95
841.182	14962.47
841.507	14901.91
841.832	14785.53
842.156	14838.18
842.481	14751.63
842.805	14690.39
843.13	14680.45
843.454	14661.24
843.778	14679.54
844.103	14577.63
844.427	14586.21
844.751	14536.27
845.075	14519.55
845.399	14440.45
845.723	14397.06
846.047	14394.81
846.371	14306.67
846.695	14304.64
847.019	14139.22
847.343	14222.38
847.666	14044.08
847.99	14032.78
848.313	13968.38
848.637	13867.36
848.96	13836.85
849.284	13807.48
849.607	13779.68
849.931	13680.25
850.254	13635.73
850.577	13590.98
850.9	13529.97
851.223	13556.41
851.546	13376.3
851.869	13325.68
852.192	13377.43
852.515	13165.91
852.838	13241.62
853.161	13169.75
853.483	13129.98
853.806	13117.55
854.129	13073.71
854.451	13013.15
854.774	12988.29
855.096	12886.6
855.419	12963.66
855.741	12828.07
856.063	12837.78
856.385	12722.31
856.708	12769.31
857.03	12685.47
857.352	12646.83
857.674	12666.04
857.996	12519.15
858.318	12507.4
858.64	12526.15
858.961	12416.78
859.283	12387.4
859.605	12351.92
859.926	12386.04
860.248	12318.02
860.57	12250.68
860.891	12356.89
861.212	12201.42
861.534	12212.26
861.855	12190.34
862.176	12165.94
862.498	12178.82
862.819	12168.42
863.14	12115.77
863.461	12066.5
863.782	11991.48
864.103	11977.47
864.424	12018.6
864.745	12040.97
865.065	11953.06
865.386	11882.78
865.707	11876.91
866.027	11897.7
866.348	11912.16
866.668	11891.37
866.989	11785.83
867.309	11729.11
867.63	11768.66
867.95	11670.36
868.27	11679.17
868.59	11649.79
868.91	11636.91
869.23	11664.93
869.55	11629.91
869.87	11720.07
870.19	11608.21
870.51	11638.27
870.83	11596.69
871.15	11471.72
871.469	11543.13
871.789	11606.18
872.109	11468.55
872.428	11453.87
872.748	11460.87
873.067	11476.92
873.386	11452.74
873.706	11437.82
874.025	11387.43
874.344	11351.5
874.663	11359.86
874.982	11377.03
875.301	11331.83
875.62	11263.36
875.939	11207.77
876.258	11242.8
876.577	11228.11
876.896	11263.36
877.214	11142.46
877.533	11189.47
877.852	11148.11
878.17	11151.27
878.489	11109.92
878.807	11131.39
879.125	11176.58
879.444	11054.78
879.762	10952.18
880.08	11059.75
880.398	10942.24
880.716	11059.98
881.034	11031.96
881.352	10985.86
881.67	10954.44
881.988	10981.34
882.306	10875.35
882.624	10905.18
882.941	10788.12
883.259	10753.09
883.577	10774.34
883.894	10712.87
884.212	10742.25
884.529	10756.48
884.846	10706.09
885.164	10662.93
885.481	10612.08
885.798	10645.98
886.115	10542.48
886.432	10555.13
886.75	10510.61
887.067	10584.28
887.383	10460.67
887.7	10460.45
888.017	10467.68
888.334	10474
888.651	10390.39
888.967	10400.56
889.284	10344.74
889.6	10310.62
889.917	10295.48
890.233	10272.43
890.55	10237.63
890.866	10154.46
891.182	10184.97
891.498	10098.42
891.815	10056.16
892.131	10080.79
892.447	10040.12
892.763	10037.63
893.079	9977.29
893.395	9930.97
893.71	9902.27
894.026	9853.91
894.342	9904.3
894.657	9819.78
894.973	9741.14
895.289	9768.94
895.604	9709.96
895.92	9702.05
896.235	9577.98
896.55	9672.67
896.865	9556.51
897.181	9596.06
897.496	9612.11
897.811	9525.1
898.126	9485.1
898.441	9348.38
898.756	9377.54
899.071	9356.29
899.386	9380.93
899.7	9314.49
900.015	9171.67
900.33	9142.51
900.644	9170.08
900.959	9150.88
901.273	9103.87
901.588	9032.23
901.902	9062.52
902.216	9003.31
902.531	8968.28
902.845	8972.12
903.159	8933.71
903.473	8884.44
903.787	8845.8
904.101	8774.39
904.415	8748.17
904.729	8748.4
905.042	8653.49
905.356	8700.49
905.67	8713.15
905.984	8635.18
906.297	8621.17
906.611	8578.46
906.924	8528.74
907.237	8502.08
907.551	8517.9
907.864	8429.54
908.177	8403.55
908.491	8402.42
908.804	8298.69
909.117	8314.06
909.43	8216.89
909.743	8210.79
910.056	8151.58
910.368	8197
910.681	8107.51
910.994	8108.87
911.307	8070.45
911.619	8015.31
911.932	8018.48
912.244	8011.7
912.557	7955.43
912.869	7895.99
913.181	7877.91
913.494	7811.7
913.806	7861.64
914.118	7763.57
914.43	7700.97
914.742	7764.47
915.054	7677.02
915.366	7608.54
915.678	7621.65
915.99	7588.43
916.302	7491.03
916.613	7473.41
916.925	7494.65
917.236	7484.03
917.548	7430.92
917.859	7408.77
918.171	7322.22
918.482	7367.42
918.794	7279.29
919.105	7289.68
919.416	7180.08
919.727	7236.35
920.038	7180.31
920.349	7227.76
920.66	7093.98
920.971	7100.31
921.282	7083.13
921.593	6976.92
921.903	7027.77
922.214	6970.37
922.525	6976.02
922.835	6926.3
923.146	6899.18
923.456	6896.02
923.767	6854.21
924.077	6880.43
924.387	6748.68
924.697	6728.34
925.008	6730.15
925.318	6626.42
925.628	6652.64
925.938	6666.42
926.248	6578.51
926.558	6565.18
926.867	6574.22
927.177	6543.26
927.487	6525.86
927.796	6408.8
928.106	6464.84
928.416	6346.88
928.725	6437.05
929.034	6401.79
929.344	6359.08
929.653	6322.7
929.962	6250.39
930.271	6214.91
930.581	6216.49
930.89	6188.02
931.199	6138.98
931.508	6167.68
931.817	6171.29
932.125	6111.63
932.434	6095.36
932.743	6071.63
933.051	5987.12
933.36	6004.97
933.669	5943.73
933.977	5944.18
934.286	5964.07
934.594	5910.73
934.902	5884.29
935.21	5837.52
935.519	5899.66
935.827	5844.07
936.135	5776.95
936.443	5725.88
936.751	5747.12
937.059	5757.07
937.367	5677.07
937.674	5638.65
937.982	5624.19
938.29	5662.61
938.597	5622.38
938.905	5556.62
939.213	5526.56
939.52	5480.24
939.827	5542.61
940.135	5473.23
940.442	5478.66
940.749	5414.02
941.056	5490.63
941.363	5373.8
941.67	5348.26
941.977	5334.48
942.284	5296.29
942.591	5278.43
942.898	5277.08
943.205	5295.84
943.511	5240.7
943.818	5217.87
944.125	5177.65
944.431	5123.86
944.738	5092.68
945.044	5126.57
945.35	5094.48
945.657	5063.53
945.963	5043.41
946.269	4976.3
946.575	5002.74
946.881	4995.5
947.187	4989.85
947.493	4927.94
947.799	4960.48
948.105	4932.68
948.41	4896.3
948.716	4913.92
949.022	4851.55
949.327	4850.65
949.633	4749.64
949.938	4770.43
950.244	4781.05
950.549	4738.79
950.854	4682.07
951.16	4667.6
951.465	4640.71
951.77	4647.49
952.075	4617.21
952.38	4609.3
952.685	4556.19
952.99	4534.27
953.294	4585.8
953.599	4525.46
953.904	4517.78
954.209	4469.64
954.513	4449.3
954.818	4456.08
955.122	4434.62
955.426	4375.41
955.731	4374.28
956.035	4359.59
956.339	4361.62
956.643	4336.76
956.948	4289.99
957.252	4291.34
957.556	4264.9
957.86	4238.01
958.163	4255.18
958.467	4229.65
958.771	4240.5
959.075	4169.09
959.378	4165.7
959.682	4132.93
959.985	4132.7
960.289	4127.73
960.592	4072.82
960.896	4097.9
961.199	4048.41
961.502	4080.95
961.805	4019.03
962.108	4036.66
962.411	3966.38
962.714	3972.71
963.017	3970.22
963.32	3940.16
963.623	3915.31
963.926	3900.17
964.228	3923.89
964.531	3863.78
964.833	3858.81
965.136	3815.42
965.438	3803.45
965.741	3785.82
966.043	3764.58
966.345	3756.67
966.648	3768.64
966.95	3746.72
967.252	3732.71
967.554	3747.18
967.856	3685.03
968.158	3640.96
968.46	3629.89
968.761	3642.77
969.063	3598.7
969.365	3602.77
969.666	3598.93
969.968	3562.32
970.269	3545.6
970.571	3546.05
970.872	3523.45
971.174	3551.47
971.475	3499.27
971.776	3483.23
972.077	3476.22
972.378	3447.3
972.679	3432.83
972.98	3425.6
973.281	3410.46
973.582	3393.06
973.883	3359.84
974.183	3393.96
974.484	3371.82
974.785	3335.89
975.085	3345.6
975.386	3286.4
975.686	3275.1
975.986	3308.77
976.287	3235.55
976.587	3244.36
976.887	3228.55
977.187	3255.89
977.487	3211.6
977.787	3187.19
978.087	3152.16
978.387	3134.76
978.687	3143.12
978.987	3127.98
979.286	3134.08
979.586	3160.07
979.885	3108.32
980.185	3091.37
980.484	3089.79
980.784	3056.35
981.083	3023.13
981.382	2993.3
981.682	3033.97
981.981	3004.14
982.28	2986.74
982.579	2992.17
982.878	2939.74
983.177	2925.5
983.475	2941.55
983.774	2902.9
984.073	2885.05
984.372	2885.96
984.67	2889.57
984.969	2886.63
985.267	2850.7
985.566	2822.23
985.864	2800.53
986.162	2829.46
986.461	2819.52
986.759	2824.94
987.057	2785.17
987.355	2764.6
987.653	2758.27
987.951	2730.93
988.249	2712.85
988.547	2732.06
988.844	2677.6
989.142	2726.86
989.44	2660.42
989.737	2649.13
990.035	2630.82
990.332	2622.01
990.63	2603.02
990.927	2604.61
991.224	2632.85
991.521	2565.51
991.819	2575.68
992.116	2565.74
992.413	2556.47
992.71	2517.83
993.006	2532.74
993.303	2510.6
993.6	2509.69
993.897	2503.14
994.193	2482.35
994.49	2464.05
994.787	2470.6
995.083	2398.51
995.379	2439.64
995.676	2435.57
995.972	2387.44
996.268	2398.51
996.565	2401.45
996.861	2361
997.157	2360.09
997.453	2328.91
997.749	2339.75
998.044	2328
998.34	2327.55
998.636	2329.59
998.932	2307.67
999.227	2289.59
999.523	2276.48
999.818	2293.88
1000.114	2261.56
1000.409	2241
1000.704	2194.45
1001	2203.26
1001.295	2196.93
1001.59	2176.82
1001.885	2167.1
1002.18	2157.84
1002.475	2135.69
1002.77	2113.32
1003.065	2102.25
1003.359	2136.14
1003.654	2108.8
1003.949	2113.55
1004.243	2073.55
1004.538	2057.73
1004.832	2086.65
1005.127	2030.38
1005.421	2018.41
1005.715	2020.22
1006.009	1993.32
1006.304	1982.93
1006.598	2010.27
1006.892	1973.89
1007.186	1951.52
1007.48	1942.48
1007.773	1944.96
1008.067	1962.36
1008.361	1932.99
1008.655	1921.91
1008.948	1887.79
1009.242	1876.94
1009.535	1853.89
1009.829	1852.99
1010.122	1874.23
1010.415	1847.56
1010.708	1794.01
1011.001	1814.12
1011.295	1785.87
1011.588	1804.4
1011.881	1769.37
1012.173	1788.81
1012.466	1791.52
1012.759	1778.19
1013.052	1753.56
1013.344	1731.41
1013.637	1730.73
1013.93	1744.06
1014.222	1701.13
1014.514	1678.98
1014.807	1690.28
1015.099	1674.01
1015.391	1677.63
1015.683	1632.43
1015.976	1645.31
1016.268	1668.13
1016.56	1629.72
1016.851	1621.58
1017.143	1599.21
1017.435	1586.33
1017.727	1586.1
1018.018	1556.5
1018.31	1565.54
1018.602	1553.11
1018.893	1543.17
1019.185	1535.48
1019.476	1544.3
1019.767	1532.09
1020.058	1536.16
1020.35	1501.81
1020.641	1490.51
1020.932	1473.56
1021.223	1481.02
1021.514	1456.61
1021.804	1422.72
1022.095	1415.03
1022.386	1429.27
1022.677	1386.11
1022.967	1428.59
1023.258	1445.09
1023.548	1390.4
1023.839	1377.97
1024.129	1387.69
1024.419	1379.55
1024.709	1364.87
1025	1335.04
1025.29	1333.45
1025.58	1315.38
1025.87	1339.78
1026.16	1300.01
1026.449	1329.84
1026.739	1290.29
1027.029	1288.03
1027.319	1271.08
1027.608	1276.73
1027.898	1278.09
1028.187	1256.62
1028.477	1247.35
1028.766	1249.84
1029.055	1220.24
1029.344	1220.69
1029.634	1224.76
1029.923	1200.58
1030.212	1198.99
1030.501	1175.94
1030.79	1198.09
1031.078	1196.28
1031.367	1144.98
1031.656	1153.35
1031.945	1143.18
1032.233	1152.67
1032.522	1149.73
1032.81	1125.78
1033.099	1112.44
1033.387	1118.32
1033.675	1133.46
1033.963	1088.26
1034.251	1084.65
1034.54	1092.33
1034.828	1114.48
1035.116	1072.67
1035.403	1061.37
1035.691	1066.12
1035.979	1050.07
1036.267	1046.91
1036.554	1042.16
1036.842	1013.69
1037.129	1026.57
1037.417	1031.77
1037.704	1024.76
1037.992	1011.43
1038.279	990.41
1038.566	992.45
1038.853	992.45
1039.14	992.45
