Data from hue_150_FLMS001491_00048.txt Node
Date: Tue Feb 07 16:54:06 GMT 2017
User: dcchb
Spectrometer: FLMS00149
Trigger mode: 0
Integration Time (sec): 2.000000E-2
Scans to average: 10
Electric dark correction enabled: true
Nonlinearity correction enabled: false
Boxcar width: 0
XAxis mode: Wavelengths
Number of Pixels in Spectrum: 2048
>>>>>Begin Spectral Data<<<<<
341.393	-14.18
341.776	-14.18
342.16	-14.18
342.543	-60.28
342.927	-50.11
343.31	-72.94
343.693	-56.89
344.077	-55.54
344.46	-64.8
344.843	-55.31
345.226	-21.41
345.61	-53.5
345.993	-9.43
346.376	-4.01
346.759	1.86
347.142	7.29
347.525	25.82
347.908	50.9
348.291	74.4
348.674	113.27
349.057	120.28
349.44	142.2
349.823	134.74
350.206	161.86
350.588	193.05
350.971	200.05
351.354	216.55
351.737	244.34
352.119	243.21
352.502	269.2
352.884	280.05
353.267	283.44
353.65	293.83
354.032	302.65
354.414	302.87
354.797	330.44
355.179	305.59
355.562	316.66
355.944	319.37
356.326	329.54
356.709	333.16
357.091	341.29
357.473	352.59
357.855	345.13
358.238	339.03
358.62	338.35
359.002	333.61
359.384	356.21
359.766	358.69
360.148	333.61
360.53	336.32
360.912	351.69
361.294	341.97
361.676	325.25
362.057	322.31
362.439	338.8
362.821	324.34
363.203	311.23
363.584	341.29
363.966	305.59
364.348	305.13
364.729	324.79
365.111	308.3
365.493	324.57
365.874	328.86
366.256	295.64
366.637	288.64
367.019	303.78
367.4	320.5
367.781	311.69
368.163	294.96
368.544	308.97
368.925	330.22
369.306	316.43
369.688	312.82
370.069	308.75
370.45	312.59
370.831	320.73
371.212	309.43
371.593	312.82
371.974	319.14
372.355	307.85
372.736	310.56
373.117	331.35
373.498	317.56
373.879	319.37
374.26	337.45
374.641	316.66
375.021	299.71
375.402	341.29
375.783	327.05
376.163	324.79
376.544	328.18
376.925	323.21
377.305	346.94
377.686	316.43
378.066	320.05
378.447	346.26
378.827	319.6
379.208	324.12
379.588	312.82
379.968	349.43
380.349	334.51
380.729	309.2
381.109	340.16
381.489	315.3
381.87	329.54
382.25	343.1
382.63	325.02
383.01	338.8
383.39	323.21
383.77	347.17
384.15	344.23
384.53	335.41
384.91	341.06
385.29	341.74
385.67	341.06
386.049	340.61
386.429	350.1
386.809	351.69
387.189	344.68
387.568	357.79
387.948	351.91
388.328	359.14
388.707	352.82
389.087	332.48
389.466	356.21
389.846	363.44
390.225	369.54
390.605	368.86
390.984	364.79
391.363	363.89
391.743	374.51
392.122	368.63
392.501	383.55
392.881	364.11
393.26	378.8
393.639	378.8
394.018	367.5
394.397	373.61
394.776	379.71
395.155	375.19
395.534	379.93
395.913	368.63
396.292	383.32
396.671	374.51
397.05	383.55
397.429	381.74
397.808	380.16
398.186	395.07
398.565	386.71
398.944	406.6
399.323	383.1
399.701	375.19
400.08	385.58
400.458	378.8
400.837	411.8
401.215	393.04
401.594	391.91
401.972	400.5
402.351	419.03
402.729	414.51
403.107	414.73
403.486	415.19
403.864	398.46
404.242	401.4
404.62	405.7
404.999	400.27
405.377	422.42
405.755	430.78
406.133	445.69
406.511	435.75
406.889	410.67
407.267	418.58
407.645	428.97
408.023	441.63
408.401	453.38
408.779	461.97
409.156	468.52
409.534	442.53
409.912	462.19
410.29	472.13
410.667	457.45
411.045	460.84
411.422	461.97
411.8	468.74
412.178	491.79
412.555	475.98
412.933	469.87
413.31	496.99
413.687	472.81
414.065	482.76
414.442	484.56
414.819	499.48
415.197	499.03
415.574	520.04
415.951	521.4
416.328	475.52
416.705	511
417.082	496.54
417.46	510.33
417.837	522.3
418.214	546.93
418.591	520.04
418.967	529.99
419.344	522.3
419.721	541.96
420.098	520.04
420.475	537.9
420.852	574.28
421.228	548.74
421.605	550.55
421.982	549.87
422.358	561.85
422.735	575.41
423.111	576.09
423.488	579.25
423.864	556.88
424.241	580.38
424.617	557.56
424.994	585.58
425.37	604.56
425.746	585.58
426.123	602.3
426.499	600.72
426.875	603.43
427.251	619.02
427.627	603.43
428.003	623.77
428.379	647.95
428.756	640.04
429.132	627.38
429.507	651.34
429.883	660.15
430.259	664.67
430.635	664.22
431.011	675.52
431.387	665.12
431.763	677.55
432.138	679.59
432.514	700.6
432.89	680.94
433.265	711.9
433.641	708.29
434.016	688.17
434.392	726.14
434.767	703.31
435.143	729.08
435.518	733.37
435.894	745.12
436.269	758.23
436.644	747.83
437.02	763.2
437.395	754.16
437.77	749.42
438.145	771.56
438.52	793.71
438.895	805.46
439.271	812.92
439.646	801.62
440.021	819.02
440.395	807.94
440.77	824.44
441.145	816.76
441.52	829.87
441.895	857.21
442.27	863.54
442.645	865.57
443.019	860.82
443.394	858.79
443.769	862.63
444.143	878.23
444.518	866.47
444.892	891.11
445.267	875.74
445.641	915.06
446.016	901.28
446.39	880.94
446.764	935.63
447.139	892.46
447.513	915.74
447.887	914.83
448.262	906.02
448.636	907.83
449.01	940.6
449.384	950.31
449.758	963.2
450.132	958.68
450.506	981.27
450.88	965.68
451.254	953.03
451.628	986.25
452.002	1037.77
452.376	1017.88
452.75	1012.69
453.123	1031.67
453.497	1028.73
453.871	1028.73
454.244	1085.23
454.618	1083.42
454.992	1117.77
455.365	1088.39
455.739	1143.3
456.112	1117.54
456.486	1117.99
456.859	1140.82
457.232	1175.39
457.606	1174.04
457.979	1179.23
458.352	1212.45
458.725	1225.79
459.099	1218.56
459.472	1269.18
459.845	1272.57
460.218	1280.93
460.591	1291.32
460.964	1297.2
461.337	1318.89
461.71	1339.46
462.083	1363.18
462.456	1365.44
462.829	1378.78
463.201	1382.84
463.574	1420.36
463.947	1428.27
464.32	1447.7
464.692	1457.19
465.065	1478.89
465.438	1494.93
465.81	1535.16
466.183	1550.07
466.555	1596.17
466.928	1594.59
467.3	1617.87
467.672	1654.7
468.045	1681.82
468.417	1689.28
468.789	1690.63
469.161	1733.34
469.534	1813.12
469.906	1816.05
470.278	1839.33
470.65	1881.36
471.022	1922.04
471.394	1925.43
471.766	1964.75
472.138	2024.41
472.51	2056.5
472.882	2121.13
473.253	2117.29
473.625	2186.21
473.997	2249.04
474.369	2295.14
474.74	2300.79
475.112	2346.21
475.484	2436.83
475.855	2461.91
476.227	2479.77
476.598	2600.44
476.97	2599.76
477.341	2704.39
477.713	2766.31
478.084	2824.39
478.455	2941.9
478.827	2967.89
479.198	3058.96
479.569	3137.15
479.94	3234.32
480.311	3298.95
480.682	3383.7
481.053	3455.56
481.424	3555.22
481.795	3656.23
482.166	3730.81
482.537	3806.06
482.908	3879.28
483.279	4026.84
483.65	4116.11
484.021	4253.5
484.391	4341.19
484.762	4419.6
485.133	4479.71
485.503	4628.86
485.874	4778.91
486.244	4882.41
486.615	5010.09
486.985	5154.5
487.356	5219.58
487.726	5355.17
488.097	5460.25
488.467	5600.14
488.837	5736.4
489.207	5863.86
489.578	6005.55
489.948	6088.71
490.318	6282.6
490.688	6353.11
491.058	6512.43
491.428	6661.35
491.798	6703.38
492.168	6942.47
492.538	7036.26
492.908	7202.58
493.278	7304.72
493.648	7396.47
494.017	7542.68
494.387	7672.85
494.757	7799.17
495.126	7981.99
495.496	8067.87
495.866	8133.18
496.235	8221.31
496.605	8402.32
496.974	8434.64
497.344	8640.06
497.713	8718.25
498.082	8757.34
498.452	8994.17
498.821	9037.33
499.19	9131.12
499.559	9235.75
499.928	9294.5
500.298	9470.99
500.667	9531.56
501.036	9579.01
501.405	9739.01
501.774	9806.58
502.143	9849.29
502.512	9936.07
502.88	10060.13
503.249	10077.31
503.618	10211.99
503.987	10199.34
504.356	10403.85
504.724	10472.78
505.093	10515.71
505.462	10525.43
505.83	10708.7
506.199	10784.63
506.567	10947.11
506.936	10868.25
507.304	11063.95
507.672	11091.74
508.041	11069.37
508.409	11256.94
508.777	11291.06
509.145	11337.61
509.514	11322.92
509.882	11456.03
510.25	11476.14
510.618	11594.55
510.986	11663.25
511.354	11645.85
511.722	11735.79
512.09	11897.82
512.458	11837.49
512.826	11895.11
513.193	11943.47
513.561	12040.19
513.929	12049.23
514.297	12165.84
514.664	12255.78
515.032	12283.8
515.4	12335.78
515.767	12281.54
516.135	12374.19
516.502	12269.34
516.869	12493.97
517.237	12478.37
517.604	12516.56
517.972	12543.23
518.339	12549.33
518.706	12535.09
519.073	12642.89
519.44	12620.74
519.808	12781.64
520.175	12760.17
520.542	12811.7
520.909	12904.58
521.276	12828.87
521.643	12928.98
522.009	12931.47
522.376	13025.48
522.743	12981.64
523.11	13095.53
523.477	13191.35
523.843	13234.28
524.21	13229.77
524.577	13304.79
524.943	13285.81
525.31	13346.6
525.676	13377.11
526.043	13367.16
526.409	13519.02
526.776	13506.37
527.142	13496.65
527.508	13452.58
527.874	13488.97
528.241	13538.68
528.607	13586.59
528.973	13620.26
529.339	13552.92
529.705	13645.35
530.071	13728.51
530.437	13665.91
530.803	13707.27
531.169	13749.53
531.535	13666.36
531.901	13669.08
532.267	13688.06
532.632	13664.1
532.998	13683.99
533.364	13741.16
533.73	13655.52
534.095	13641.51
534.461	13654.39
534.826	13658.68
535.192	13719.92
535.557	13662.3
535.923	13676.99
536.288	13620.26
536.653	13653.03
537.019	13562.64
537.384	13559.47
537.749	13598.12
538.114	13473.15
538.479	13588.17
538.845	13491.45
539.21	13358.35
539.575	13349.08
539.94	13362.87
540.305	13338.69
540.67	13276.32
541.034	13297.11
541.399	13351.57
541.764	13316.99
542.129	13284.45
542.494	13243.32
542.858	13169.2
543.223	13237.67
543.587	13176.21
543.952	13147.73
544.316	13117.9
544.681	13020.28
545.045	13054.4
545.41	13059.6
545.774	13048.3
546.138	12964.46
546.503	12999.49
546.867	12903.45
547.231	12973.05
547.595	12904.8
547.959	12898.25
548.324	12879.27
548.688	12766.05
549.052	12745.94
549.416	12726.5
549.779	12691.93
550.143	12670.68
550.507	12730.57
550.871	12651.7
551.235	12657.8
551.599	12709.33
551.962	12632.49
552.326	12572.61
552.689	12643.11
553.053	12505.94
553.417	12482.21
553.78	12646.73
554.143	12438.37
554.507	12548.65
554.87	12438.6
555.234	12518.37
555.597	12436.34
555.96	12448.54
556.323	12506.39
556.686	12449.67
557.05	12406.28
557.413	12348.43
557.776	12385.95
558.139	12464.36
558.502	12319.51
558.865	12334.42
559.228	12394.31
559.59	12416.23
559.953	12478.82
560.316	12444.02
560.679	12407.41
561.041	12427.53
561.404	12471.37
561.767	12485.83
562.129	12494.64
562.492	12460.07
562.854	12412.39
563.217	12450.58
563.579	12482.44
563.941	12477.69
564.304	12482.44
564.666	12516.79
565.028	12486.51
565.39	12481.08
565.753	12590.23
566.115	12560.18
566.477	12608.31
566.839	12607.86
567.201	12647.63
567.563	12665.71
567.925	12659.61
568.287	12670.23
568.648	12579.16
569.01	12752.72
569.372	12765.37
569.734	12684.47
570.095	12760.85
570.457	12749.33
570.819	12770.79
571.18	12794.3
571.542	12820.96
571.903	12830.45
572.265	12824.13
572.626	12806.27
572.987	12815.54
573.349	12786.39
573.71	12820.51
574.071	12870.45
574.432	12804.69
574.794	12947.74
575.155	12872.49
575.516	12802.21
575.877	12936.21
576.238	12931.02
576.599	12958.36
576.96	12873.62
577.32	12875.65
577.681	12965.37
578.042	12967.17
578.403	12961.52
578.763	12981.64
579.124	12947.29
579.485	12966.5
579.845	13018.25
580.206	12999.26
580.566	12930.34
580.927	12934.18
581.287	13022.99
581.648	12911.36
582.008	12994.07
582.368	12916.33
582.728	13021.18
583.089	12971.92
583.449	12942.99
583.809	13017.57
584.169	13043.33
584.529	12944.35
584.889	12923.11
585.249	13009.88
585.609	12865.25
585.969	13009.66
586.329	12822.09
586.688	12853.73
587.048	12865.48
587.408	12839.27
587.768	12830.68
588.127	12865.93
588.487	12856.89
588.846	12896.21
589.206	12814.63
589.565	12789.55
589.925	12778.48
590.284	12843.33
590.643	12853.73
591.003	12900.28
591.362	12894.41
591.721	12894.41
592.08	12816.67
592.44	12823.45
592.799	12879.49
593.158	12716.78
593.517	12857.8
593.876	12745.94
594.235	12754.07
594.593	12844.46
594.952	12776.44
595.311	12693.73
595.67	12724.02
596.029	12781.87
596.387	12783.22
596.746	12713.62
597.104	12664.13
597.463	12682.43
597.822	12675.88
598.18	12639.72
598.538	12702.77
598.897	12733.28
599.255	12598.82
599.613	12805.82
599.972	12708.2
600.33	12750.23
600.688	12723.11
601.046	12745.26
601.404	12748.42
601.762	12781.64
602.12	12842.2
602.478	12807.86
602.836	12755.88
603.194	12750.46
603.552	12750
603.91	12626.84
604.268	12768.76
604.625	12727.18
604.983	12709.33
605.341	12702.32
605.698	12732.38
606.056	12704.58
606.413	12755.2
606.771	12733.06
607.128	12744.58
607.485	12672.04
607.843	12740.06
608.2	12835.65
608.557	12720.85
608.914	12759.27
609.272	12860.06
609.629	12785.26
609.986	12872.94
610.343	12830.45
610.7	12902.09
611.057	12874.97
611.414	12834.3
611.771	12858.02
612.127	12939.83
612.484	12873.84
612.841	12978.25
613.198	12883.56
613.554	12997.23
613.911	13001.75
614.267	13003.78
614.624	12880.62
614.98	12956.1
615.337	13044.91
615.693	12959.72
616.05	13006.72
616.406	13058.92
616.762	12991.35
617.118	12997.45
617.475	12975.99
617.831	13001.3
618.187	13147.73
618.543	13066.38
618.899	13209.65
619.255	13163.1
619.611	13144.12
619.967	13136.43
620.323	13179.37
620.678	13166.94
621.034	13087.17
621.39	13091.92
621.746	13068.87
622.101	13205.36
622.457	13071.58
622.812	13124.46
623.168	13161.07
623.523	13085.59
623.879	13209.43
624.234	13105.93
624.589	13093.72
624.945	13081.75
625.3	13210.1
625.655	13160.61
626.01	13149.99
626.365	13204.91
626.72	13135.76
627.075	13108.19
627.43	13031.8
627.785	13028.19
628.14	13105.47
628.495	13032.93
628.85	13028.19
629.205	13067.28
629.559	13067.96
629.914	13055.53
630.269	12969.43
630.623	13055.76
630.978	12992.03
631.332	13098.24
631.687	13089.2
632.041	12976.66
632.396	13000.17
632.75	12896.44
633.104	12930.79
633.459	12952.26
633.813	12904.35
634.167	12905.93
634.521	12978.02
634.875	12914.97
635.229	12841.07
635.583	12774.18
635.937	12818.93
636.291	12886.5
636.645	12837.01
636.999	12773.96
637.352	12830.45
637.706	12708.87
638.06	12800.17
638.413	12737.12
638.767	12714.75
639.121	12710
639.474	12644.02
639.828	12743
640.181	12661.64
640.534	12733.28
640.888	12646.5
641.241	12647.18
641.594	12601.76
641.947	12602.89
642.301	12593.4
642.654	12566.05
643.007	12633.4
643.36	12610.12
643.713	12625.71
644.066	12557.92
644.419	12497.58
644.771	12470.69
645.124	12316.79
645.477	12301.65
645.83	12168.55
646.182	12160.19
646.535	12158.61
646.888	12185.05
647.24	12063.69
647.593	12155.22
647.945	12148.21
648.298	12005.16
648.65	12062.56
649.002	12032.06
649.355	12120.64
649.707	12044.49
650.059	12139.62
650.411	12390.01
650.763	12350.47
651.115	12363.8
651.467	12338.04
651.819	12390.92
652.171	12419.39
652.523	12373.74
652.875	12338.26
653.227	12267.3
653.578	12430.92
653.93	12453.06
654.282	12359.96
654.633	12372.16
654.985	12342.78
655.337	12407.87
655.688	12350.92
656.039	12401.54
656.391	12263.01
656.742	12318.15
657.094	12310.24
657.445	12353.4
657.796	12322.67
658.147	12244.93
658.498	12295.1
658.849	12385.04
659.2	12318.15
659.551	12271.37
659.902	12229.57
660.253	12300.52
660.604	12359.51
660.955	12282.22
661.306	12350.92
661.656	12309.11
662.007	12440.18
662.358	12396.79
662.708	12453.29
663.059	12348.88
663.409	12342.56
663.76	12422.1
664.11	12395.21
664.461	12477.47
664.811	12436.11
665.161	12368.77
665.511	12315.89
665.862	12431.82
666.212	12416.23
666.562	12362.9
666.912	12381.88
667.262	12423.68
667.612	12399.96
667.962	12515.21
668.312	12360.64
668.662	12452.16
669.011	12394.31
669.361	12405.61
669.711	12355.89
670.06	12394.76
670.41	12289.22
670.76	12342.1
671.109	12379.62
671.459	12353.4
671.808	12282.67
672.157	12295.78
672.507	12238.6
672.856	12297.59
673.205	12250.58
673.554	12333.29
673.904	12244.93
674.253	12372.39
674.602	12176.01
674.951	12146.18
675.3	12058.72
675.649	12307.76
675.998	12157.02
676.346	12229.79
676.695	12289
677.044	12167.42
677.393	12202
677.741	12147.76
678.09	12194.54
678.438	12143.92
678.787	12159.74
679.135	12170.36
679.484	12030.47
679.832	12107.76
680.181	12024.83
680.529	12056.01
680.877	11987.31
681.225	11913.87
681.573	12008.33
681.922	11953.19
682.27	11909.57
682.618	12010.14
682.966	11849.46
683.314	11833.42
683.661	11820.08
684.009	11769.69
684.357	11723.14
684.705	11685.85
685.053	11746.19
685.4	11696.47
685.748	11630.26
686.095	11585.29
686.443	11621.45
686.79	11613.31
687.138	11622.12
687.485	11645.17
687.832	11496.93
688.18	11565.4
688.527	11503.48
688.874	11435.24
689.221	11460.55
689.568	11351.17
689.915	11412.19
690.262	11327.89
690.609	11282.92
690.956	11301.45
691.303	11315.47
691.65	11233.21
691.997	11184.62
692.344	11116.83
692.69	11118.18
693.037	11152.53
693.383	11015.59
693.73	10997.51
694.077	11016.49
694.423	11018.52
694.769	10922.26
695.116	10839.55
695.462	10848.13
695.808	10854.01
696.155	10819.66
696.501	10744.18
696.847	10755.25
697.193	10623.28
697.539	10696.5
697.885	10580.12
698.231	10501.25
698.577	10524.3
698.923	10495.15
699.269	10430.74
699.614	10409.73
699.96	10311.2
700.306	10378.99
700.651	10314.59
700.997	10244.98
701.342	10226
701.688	10228.71
702.033	10133.12
702.379	10112.78
702.724	10112.33
703.069	10097.19
703.415	9980.59
703.76	10006.8
704.105	10023.97
704.45	9928.38
704.795	9859.68
705.14	9841.15
705.485	9903.52
705.83	9756.86
706.175	9892.45
706.52	9774.04
706.865	9737.88
707.209	9702.85
707.554	9676.86
707.899	9702.4
708.243	9595.28
708.588	9715.06
708.932	9525.23
709.277	9580.14
709.621	9552.35
709.966	9481.84
710.31	9476.42
710.654	9426.25
710.998	9449.3
711.342	9418.11
711.687	9398.45
712.031	9323.65
712.375	9355.74
712.719	9349.42
713.063	9289.08
713.407	9337.21
713.75	9273.03
714.094	9268.97
714.438	9226.25
714.782	9267.16
715.125	9163.43
715.469	9169.53
715.812	9120.95
716.156	9103.09
716.499	9059.48
716.843	9034.85
717.186	9106.48
717.53	9124.11
717.873	9090.89
718.216	9134.51
718.559	9016.54
718.902	9035.07
719.246	9030.33
719.589	8961.85
719.932	8946.49
720.275	8989.2
720.617	8960.27
720.96	8923.89
721.303	8916.21
721.646	8867.17
721.989	8846.83
722.331	8862.42
722.674	8852.25
723.016	8925.02
723.359	8926.83
723.701	8903.78
724.044	8812.03
724.386	8732.03
724.729	8854.96
725.071	8750.79
725.413	8793.72
725.755	8776.1
726.097	8773.84
726.439	8745.14
726.782	8756.44
727.124	8746.72
727.465	8781.07
727.807	8709.66
728.149	8653.39
728.491	8744.91
728.833	8765.02
729.175	8715.08
729.516	8772.26
729.858	8652.26
730.199	8652.26
730.541	8666.27
730.882	8694.97
731.224	8670.79
731.565	8679.83
731.906	8636.89
732.248	8677.57
732.589	8613.62
732.93	8684.12
733.271	8646.16
733.612	8595.76
733.953	8640.28
734.294	8659.72
734.635	8657.68
734.976	8671.92
735.317	8593.28
735.658	8632.6
735.999	8592.15
736.339	8639.83
736.68	8676.89
737.021	8666.5
737.361	8596.89
737.702	8680.73
738.042	8693.16
738.383	8595.08
738.723	8694.29
739.063	8627.4
739.404	8696.33
739.744	8676.66
740.084	8678.7
740.424	8644.35
740.764	8713.5
741.104	8758.24
741.444	8685.25
741.784	8672.6
742.124	8794.63
742.464	8783.33
742.804	8788.3
743.143	8784.91
743.483	8847.28
743.823	8849.77
744.162	8814.06
744.502	8933.61
744.841	8888.64
745.181	8906.04
745.52	8890.44
745.86	8987.62
746.199	9037.33
746.538	9033.04
746.877	9108.29
747.216	9150.32
747.556	9151
747.895	9167.95
748.234	9288.85
748.573	9294.05
748.911	9282.07
749.25	9382.86
749.589	9436.64
749.928	9508.28
750.267	9572.91
750.605	9624.66
750.944	9668.05
751.283	9662.85
751.621	9837.99
751.96	9876.63
752.298	9947.59
752.636	10031.88
752.975	10083.41
753.313	10164.99
753.651	10302.16
753.989	10403.85
754.327	10455.15
754.666	10454.7
755.004	10758.87
755.342	10820.34
755.679	10915.02
756.017	11007.22
756.355	11151.4
756.693	11199.08
757.031	11411.73
757.368	11525.18
757.706	11675.23
758.044	11800.2
758.381	11932.4
758.719	12015.33
759.056	12214.65
759.394	12406.51
759.731	12420.75
760.068	12568.54
760.405	12760.4
760.743	12879.04
761.08	13094.18
761.417	13222.99
761.754	13366.71
762.091	13554.95
762.428	13703.2
762.765	13858.9
763.102	14002.4
763.438	14048.05
763.775	14186.35
764.112	14404.65
764.449	14630.41
764.785	14711.31
765.122	14754.02
765.458	15037.4
765.795	15082.82
766.131	15252.54
766.467	15391.06
766.804	15435.81
767.14	15569.59
767.476	15762.13
767.812	15783.82
768.148	15979.98
768.485	16078.05
768.821	16130.71
769.157	16276.46
769.492	16417.25
769.828	16513.97
770.164	16525.05
770.5	16669.22
770.836	16857.24
771.171	16834.87
771.507	16960.74
771.842	16946.5
772.178	17058.14
772.513	17121.64
772.849	17267.85
773.184	17269.88
773.519	17398.24
773.855	17497.9
774.19	17540.16
774.525	17560.72
774.86	17723.21
775.195	17621.97
775.53	17797.78
775.865	17748.52
776.2	17774.96
776.535	17654.06
776.87	17762.75
777.205	17826.25
777.539	17852.92
777.874	18044.33
778.209	17870.77
778.543	17955.74
778.878	17974.05
779.212	17953.03
779.547	17933.37
779.881	18016.53
780.215	18052.69
780.55	18068.28
780.884	18071.22
781.218	18121.84
781.552	18090.65
781.886	18016.31
782.22	17989.64
782.554	18070.77
782.888	17914.61
783.222	17986.7
783.556	17897.44
783.889	17904.44
784.223	17842.75
784.557	17962.07
784.89	18067.15
785.224	17779.7
785.557	17888.85
785.891	17757.33
786.224	17892.47
786.558	17939.7
786.891	17834.62
787.224	17730.89
787.557	17702.19
787.891	17724.79
788.224	17752.13
788.557	17791.45
788.89	17761.4
789.223	17649.31
789.556	17667.84
789.888	17614.73
790.221	17563.21
790.554	17447.73
790.887	17590.55
791.219	17453.61
791.552	17487.96
791.884	17301.07
792.217	17370.22
792.549	17297.68
792.882	17222.88
793.214	17228.53
793.546	17214.52
793.879	17189.66
794.211	17124.35
794.543	17203.67
794.875	17138.14
795.207	17156.44
795.539	17111.24
795.871	17048.65
796.203	16960.74
796.535	16858.37
796.867	16835.32
797.198	16867.86
797.53	16813.63
797.862	16665.16
798.193	16726.85
798.525	16606.63
798.856	16690.47
799.188	16561.43
799.519	16511.71
799.85	16410.25
800.182	16486.63
800.513	16332.28
800.844	16314.88
801.175	16425.39
801.506	16417.25
801.837	16226.3
802.168	16226.3
802.499	16191.95
802.83	16174.55
803.161	16056.36
803.491	16077.15
803.822	16052.97
804.153	16080.31
804.483	15996.47
804.814	15885.97
805.145	15881.67
805.475	15942.91
805.805	15890.49
806.136	15754.44
806.466	15894.55
806.796	15781.11
807.126	15705.63
807.457	15622.7
807.787	15585.41
808.117	15531.17
808.447	15524.62
808.777	15514.45
809.107	15524.85
809.436	15453.66
809.766	15386.32
810.096	15346.09
810.426	15354
810.755	15368.92
811.085	15236.04
811.414	15277.62
811.744	15101.13
812.073	15193.78
812.403	15119.66
812.732	15115.14
813.061	15135.25
813.39	14978.65
813.719	14946.33
814.049	15073.78
814.378	15045.76
814.707	14892.32
815.036	14999.21
815.365	14900.68
815.693	14702.27
816.022	14771.42
816.351	14806.22
816.68	14671.54
817.008	14786.56
817.337	14577.75
817.665	14576.85
817.994	14573.68
818.322	14570.97
818.651	14594.25
818.979	14439.9
819.307	14678.99
819.636	14468.38
819.964	14453.24
820.292	14474.25
820.62	14436.97
820.948	14431.77
821.276	14464.08
821.604	14400.58
821.932	14371.66
822.259	14448.72
822.587	14415.27
822.915	14334.59
823.243	14406.68
823.57	14331.21
823.898	14401.71
824.225	14333.24
824.553	14352.22
824.88	14374.37
825.207	14446.91
825.535	14379.57
825.862	14433.58
826.189	14411.2
826.516	14431.09
826.843	14494.59
827.17	14459.34
827.497	14395.38
827.824	14408.27
828.151	14463.86
828.478	14422.73
828.805	14491.43
829.131	14430.19
829.458	14333.01
829.785	14283.52
830.111	14367.81
830.438	14432.45
830.764	14362.39
831.09	14349.51
831.417	14339.57
831.743	14374.82
832.069	14422.73
832.395	14367.59
832.722	14368.49
833.048	14373.24
833.374	14298.21
833.7	14289.17
834.026	14290.53
834.351	14336.85
834.677	14299.57
835.003	14325.33
835.329	14258.44
835.654	14260.02
835.98	14149.97
836.306	14197.2
836.631	14222.51
836.956	14193.81
837.282	14180.7
837.607	14156.75
837.932	14089.18
838.258	14089.63
838.583	14127.14
838.908	14016.86
839.233	14079.01
839.558	14037.43
839.883	13899.58
840.208	13955.85
840.533	13890.76
840.858	13940.03
841.182	13921.27
841.507	13780.49
841.832	13871.56
842.156	13885.12
842.481	13837.43
842.805	13761.5
843.13	13686.7
843.454	13733.93
843.778	13663.65
844.103	13672.69
844.427	13540.04
844.751	13599.25
845.075	13526.48
845.399	13503.43
845.723	13464.56
846.047	13527.61
846.371	13277.9
846.695	13299.59
847.019	13278.35
847.343	13140.95
847.666	13041.07
847.99	13066.38
848.313	13068.64
848.637	13025.93
848.96	12890.11
849.284	12937.34
849.607	12818.02
849.931	12804.69
850.254	12677.92
850.577	12653.96
850.9	12604.02
851.223	12587.07
851.546	12561.31
851.869	12416.91
852.192	12451.71
852.515	12370.58
852.838	12216.91
853.161	12309.34
853.483	12208.78
853.806	12161.32
854.129	12201.77
854.451	12110.7
854.774	12069.12
855.096	12047.42
855.419	11966.07
855.741	11943.25
856.063	11877.03
856.385	11951.38
856.708	11803.81
857.03	11764.49
857.352	11778.96
857.674	11731.5
857.996	11693.08
858.318	11539.87
858.64	11647.89
858.961	11628.9
859.283	11579.41
859.605	11571.05
859.926	11542.35
860.248	11543.48
860.57	11460.77
860.891	11468
861.212	11399.76
861.534	11384.39
861.855	11350.49
862.176	11322.24
862.498	11339.65
862.819	11331.74
863.14	11260.1
863.461	11177.16
863.782	11202.02
864.103	11193.21
864.424	11254
864.745	11205.41
865.065	11072.53
865.386	11096.49
865.707	11105.98
866.027	11119.54
866.348	11029.37
866.668	11023.27
866.989	11025.76
867.309	10975.14
867.63	11035.92
867.95	10929.03
868.27	10910.28
868.59	10918.41
868.91	10875.93
869.23	10887.91
869.55	10833.9
869.87	10834.57
870.19	10878.41
870.51	10893.78
870.83	10849.71
871.15	10771.52
871.469	10826.21
871.789	10822.37
872.109	10787.8
872.428	10740.57
872.748	10767.91
873.067	10654.92
873.386	10767.68
873.706	10662.6
874.025	10648.36
874.344	10630.06
874.663	10621.92
874.982	10555.94
875.301	10588.7
875.62	10583.51
875.939	10581.02
876.258	10584.18
876.577	10458.31
876.896	10437.3
877.214	10525.66
877.533	10415.15
877.852	10447.24
878.17	10396.62
878.489	10473.91
878.807	10448.14
879.125	10412.21
879.444	10421.03
879.762	10286.34
880.08	10352.1
880.398	10328.6
880.716	10297.86
881.034	10352.33
881.352	10233.46
881.67	10141.03
881.988	10207.7
882.306	10208.15
882.624	10155.04
882.941	10124.08
883.259	10088.15
883.577	10058.32
883.894	10045.22
884.212	10080.24
884.529	10018.78
884.846	9993.24
885.164	9932
885.481	9898.33
885.798	9914.15
886.115	9850.19
886.432	9899.23
886.75	9831.44
887.067	9782.62
887.383	9836.63
887.7	9824.88
888.017	9735.85
888.334	9801.38
888.651	9671.44
888.967	9681.84
889.284	9629.86
889.6	9633.93
889.917	9605
890.233	9588.05
890.55	9533.59
890.866	9595.28
891.182	9489.07
891.498	9414.5
891.815	9454.5
892.131	9392.13
892.447	9377.89
892.763	9338.79
893.079	9320.26
893.395	9287.72
893.71	9216.31
894.026	9331.34
894.342	9210.66
894.657	9195.75
894.973	9162.3
895.289	9143.09
895.604	9141.96
895.92	9025.81
896.235	9003.21
896.55	9011.12
896.865	8950.56
897.181	8949.43
897.496	8921.63
897.811	8887.51
898.126	8853.83
898.441	8844.57
898.756	8780.39
899.071	8719.83
899.386	8761.63
899.7	8722.31
900.015	8624.69
900.33	8552.6
900.644	8532.04
900.959	8495.65
901.273	8560.28
901.588	8436.9
901.902	8431.25
902.216	8465.37
902.531	8429.89
902.845	8403.23
903.159	8310.35
903.473	8313.06
903.787	8171.14
904.101	8282.1
904.415	8166.4
904.729	8136.34
905.042	8137.7
905.356	8149.45
905.67	8062.9
905.984	8082.56
906.297	8043.69
906.611	7994.42
906.924	8006.17
907.237	7951.49
907.551	7949
907.864	7894.54
908.177	7838.27
908.491	7799.63
908.804	7738.16
909.117	7720.31
909.43	7677.59
909.743	7636.69
910.056	7648.89
910.368	7565.51
910.681	7600.76
910.994	7558.73
911.307	7457.49
911.619	7408.9
911.932	7459.3
912.244	7415.45
912.557	7456.58
912.869	7345.17
913.181	7285.51
913.494	7275.8
913.806	7195.57
914.118	7230.83
914.43	7180.88
914.742	7195.12
915.054	7143.82
915.366	7136.59
915.678	7126.42
915.99	7063.6
916.302	7017.95
916.613	7025.41
916.925	6936.6
917.236	7002.13
917.548	6924.62
917.859	6947.22
918.171	6905.86
918.482	6818.41
918.794	6831.74
919.105	6792.42
919.416	6730.73
919.727	6780.9
920.038	6734.34
920.349	6677.62
920.66	6644.63
920.971	6595.82
921.282	6647.79
921.593	6598.53
921.903	6525.53
922.214	6493.22
922.525	6483.28
922.835	6514.24
923.146	6422.49
923.456	6466.78
923.767	6394.69
924.077	6347.69
924.387	6383.84
924.697	6333
925.008	6264.98
925.318	6214.36
925.628	6241.25
925.938	6267.24
926.248	6155.6
926.558	6156.28
926.867	6126
927.177	6117.41
927.487	6116.96
927.796	6055.04
928.106	6070.63
928.416	6052.55
928.725	6006.23
929.034	5934.14
929.344	5947.24
929.653	5940.92
929.962	5907.7
930.271	5813.24
930.581	5876.96
930.89	5756.74
931.199	5754.48
931.508	5781.6
931.817	5743.41
932.125	5778.66
932.434	5721.26
932.743	5692.34
933.051	5652.11
933.36	5602.4
933.669	5592.23
933.977	5553.81
934.286	5581.15
934.594	5595.16
934.902	5453.92
935.21	5439.46
935.519	5498.44
935.827	5397.2
936.135	5412.12
936.443	5392.46
936.751	5343.19
937.059	5313.82
937.367	5283.99
937.674	5324.89
937.982	5297.32
938.29	5245.34
938.597	5269.97
938.905	5138.9
939.213	5134.38
939.52	5168.96
939.827	5169.41
940.135	5074.05
940.442	5104.1
940.749	5072.01
941.056	5097.1
941.363	5052.13
941.67	5034.27
941.977	4993.82
942.284	4945.24
942.591	4925.12
942.898	4979.36
943.205	4943.2
943.511	4871.34
943.818	4899.81
944.125	4840.83
944.431	4830.21
944.738	4855.97
945.044	4818.46
945.35	4789.54
945.657	4769.65
945.963	4745.24
946.269	4675.19
946.575	4703.66
946.881	4654.85
947.187	4683.78
947.493	4629.99
947.799	4638.8
948.105	4561.97
948.41	4569.43
948.716	4569.88
949.022	4564.91
949.327	4518.36
949.633	4475.19
949.938	4449.21
950.244	4491.46
950.549	4454.4
950.854	4426.15
951.16	4380.73
951.465	4382.99
951.77	4328.08
952.075	4357.23
952.38	4335.99
952.685	4310.68
952.99	4293.5
953.294	4232.49
953.599	4246.05
953.904	4221.19
954.209	4231.13
954.513	4200.62
954.818	4169.44
955.122	4126.73
955.426	4126.05
955.731	4078.14
956.035	4107.75
956.339	4123.34
956.643	4100.51
956.948	4055.54
957.252	4045.37
957.556	4032.72
957.86	4011.48
958.163	4021.42
958.467	3999.27
958.771	3926.51
959.075	3942.33
959.378	3899.61
959.682	3921.99
959.985	3874.08
960.289	3900.29
960.592	3859.62
960.896	3850.58
961.199	3862.1
961.502	3799.73
961.805	3803.57
962.108	3771.48
962.411	3764.7
962.714	3697.36
963.017	3762.44
963.32	3710.24
963.623	3666.4
963.926	3678.15
964.228	3656.23
964.531	3649.68
964.833	3589.79
965.136	3620.53
965.438	3550.47
965.741	3575.78
966.043	3536.23
966.345	3508.44
966.648	3552.73
966.95	3524.03
967.252	3463.24
967.554	3476.35
967.856	3452.62
968.158	3417.37
968.46	3424.83
968.761	3407.88
969.063	3407.88
969.365	3377.82
969.666	3417.59
969.968	3378.5
970.269	3336.01
970.571	3367.65
970.872	3304.38
971.174	3315.45
971.475	3299.86
971.776	3269.35
972.077	3270.48
972.378	3286.07
972.679	3279.07
972.98	3230.93
973.281	3247.2
973.582	3226.86
973.883	3181.67
974.183	3163.14
974.484	3191.61
974.785	3148.45
975.085	3105.29
975.386	3194.77
975.686	3109.35
975.986	3093.08
976.287	3106.42
976.587	3058.28
976.887	3074.78
977.187	3032.29
977.487	3030.71
977.787	2973.99
978.087	2928.57
978.387	2976.7
978.687	2983.93
978.987	2982.12
979.286	2932.41
979.586	2907.1
979.885	2901.9
980.185	2892.64
980.484	2914.56
980.784	2889.7
981.083	2878.85
981.382	2860.55
981.682	2834.11
981.981	2851.28
982.28	2824.84
982.579	2806.99
982.878	2822.13
983.177	2771.74
983.475	2797.27
983.774	2764.5
984.073	2727.44
984.372	2699.87
984.67	2736.71
984.969	2697.84
985.267	2679.08
985.566	2668.46
985.864	2670.04
986.162	2656.48
986.461	2670.27
986.759	2658.74
987.057	2603.38
987.355	2625.3
987.653	2604.73
987.951	2597.05
988.249	2569.25
988.547	2546.2
988.844	2544.4
989.142	2528.13
989.44	2502.14
989.737	2498.52
990.035	2525.64
990.332	2460.56
990.63	2486.54
990.927	2483.16
991.224	2458.3
991.521	2438.41
991.819	2452.2
992.116	2400.22
992.413	2386.89
992.71	2394.8
993.006	2401.58
993.303	2392.08
993.6	2367.9
993.897	2363.38
994.193	2344.85
994.49	2343.72
994.787	2344.63
995.083	2288.36
995.379	2287.91
995.676	2288.13
995.972	2273.44
996.268	2273.9
996.565	2222.37
996.861	2222.6
997.157	2224.18
997.453	2222.14
997.749	2191.41
998.044	2188.47
998.34	2216.95
998.636	2186.21
998.932	2172.43
999.227	2164.29
999.523	2190.06
999.818	2144.18
1000.114	2087.69
1000.409	2117.06
1000.704	2085.88
1001	2087.69
1001.295	2097.63
1001.59	2051.75
1001.885	2033
1002.18	2030.96
1002.475	2026.44
1002.77	2034.13
1003.065	2016.73
1003.359	2004.07
1003.654	2039.55
1003.949	1972.89
1004.243	1988.48
1004.538	1968.14
1004.832	1986.44
1005.127	1948.48
1005.421	1935.37
1005.715	1901.02
1006.009	1897.86
1006.304	1891.98
1006.598	1907.35
1006.892	1915.49
1007.186	1844.3
1007.48	1892.21
1007.773	1861.93
1008.067	1821.03
1008.361	1820.35
1008.655	1819.67
1008.948	1775.6
1009.242	1774.02
1009.535	1787.58
1009.829	1787.58
1010.122	1752.1
1010.415	1766.11
1010.708	1749.62
1011.001	1742.61
1011.295	1736.73
1011.588	1704.87
1011.881	1697.64
1012.173	1700.58
1012.466	1680.24
1012.759	1677.07
1013.052	1642.73
1013.344	1676.17
1013.637	1648.83
1013.93	1620.35
1014.222	1634.36
1014.514	1615.38
1014.807	1578.09
1015.099	1596.4
1015.391	1605.44
1015.683	1573.8
1015.976	1577.19
1016.268	1570.18
1016.56	1555.27
1016.851	1518.66
1017.143	1541.03
1017.435	1530.64
1017.727	1506.68
1018.018	1494.48
1018.31	1510.53
1018.602	1498.1
1018.893	1470.3
1019.185	1450.87
1019.476	1435.72
1019.767	1445.22
1020.058	1427.82
1020.35	1421.94
1020.641	1404.31
1020.932	1399.57
1021.223	1408.83
1021.514	1405.44
1021.804	1366.12
1022.095	1377.65
1022.386	1373.58
1022.677	1360.25
1022.967	1348.04
1023.258	1333.35
1023.548	1339.68
1023.839	1327.03
1024.129	1298.55
1024.419	1300.59
1024.709	1307.59
1025	1302.85
1025.29	1307.59
1025.58	1240.93
1025.87	1268.95
1026.16	1258.33
1026.449	1264.88
1026.739	1213.13
1027.029	1225.34
1027.319	1207.71
1027.608	1225.11
1027.898	1222.62
1028.187	1174.94
1028.477	1203.87
1028.766	1187.37
1029.055	1218.78
1029.344	1166.13
1029.634	1160.93
1029.923	1149.86
1030.212	1159.35
1030.501	1160.48
1030.79	1147.6
1031.078	1117.99
1031.367	1139.01
1031.656	1117.77
1031.945	1108.73
1032.233	1113.02
1032.522	1085.9
1032.81	1101.72
1033.099	1069.41
1033.387	1084.55
1033.675	1066.7
1033.963	1051.33
1034.251	1061.95
1034.54	1034.15
1034.828	1063.76
1035.116	1041.61
1035.403	1039.8
1035.691	1021.05
1035.979	1021.05
1036.267	1005.68
1036.554	988.73
1036.842	991.89
1037.129	970.2
1037.417	969.52
1037.704	991.22
1037.992	958.45
1038.279	940.14
1038.566	950.99
1038.853	950.99
1039.14	950.99
