Data from hue_230_FLMS001491_00075.txt Node
Date: Tue Feb 07 16:37:43 GMT 2017
User: dcchb
Spectrometer: FLMS00149
Trigger mode: 0
Integration Time (sec): 2.000000E-2
Scans to average: 10
Electric dark correction enabled: true
Nonlinearity correction enabled: false
Boxcar width: 0
XAxis mode: Wavelengths
Number of Pixels in Spectrum: 2048
>>>>>Begin Spectral Data<<<<<
341.393	-18.7
341.776	-18.7
342.16	-18.7
342.543	-79.04
342.927	-88.98
343.31	-54.41
343.693	-70.9
344.077	-60.05
344.46	-63.67
344.843	-45.37
345.226	-31.81
345.61	-43.11
345.993	-2.88
346.376	-17.34
346.759	-1.53
347.142	18.36
347.525	47.29
347.908	58.81
348.291	92.26
348.674	82.31
349.057	92.03
349.44	122.77
349.823	137.68
350.206	159.15
350.588	197.34
350.971	180.84
351.354	214.97
351.737	224.91
352.119	241.18
352.502	261.97
352.884	265.36
353.267	272.14
353.65	279.82
354.032	272.59
354.414	298.58
354.797	299.48
355.179	283.66
355.562	317.56
355.944	321.18
356.326	312.36
356.709	321.4
357.091	318.69
357.473	317.34
357.855	327.73
358.238	339.93
358.62	347.62
359.002	343.32
359.384	324.12
359.766	329.54
360.148	327.51
360.53	329.09
360.912	320.73
361.294	309.65
361.676	312.82
362.057	334.51
362.439	333.38
362.821	323.21
363.203	319.6
363.584	317.34
363.966	312.14
364.348	304.91
364.729	324.57
365.111	308.3
365.493	317.79
365.874	304
366.256	291.35
366.637	297.22
367.019	299.03
367.4	300.61
367.781	318.47
368.163	310.78
368.544	300.84
368.925	302.2
369.306	307.39
369.688	315.08
370.069	322.99
370.45	306.04
370.831	309.65
371.212	320.27
371.593	311.69
371.974	313.72
372.355	276.21
372.736	301.07
373.117	293.61
373.498	295.64
373.879	317.34
374.26	288.41
374.641	306.49
375.021	296.55
375.402	323.89
375.783	292.48
376.163	335.64
376.544	297.68
376.925	306.49
377.305	312.14
377.686	320.5
378.066	312.36
378.447	304
378.827	322.53
379.208	322.99
379.588	320.73
379.968	317.79
380.349	298.58
380.729	294.74
381.109	327.28
381.489	329.99
381.87	338.8
382.25	313.04
382.63	330.9
383.01	337
383.39	335.64
383.77	311.46
384.15	328.86
384.53	334.06
384.91	319.37
385.29	327.51
385.67	343.78
386.049	331.35
386.429	339.26
386.809	342.42
387.189	344.45
387.568	324.57
387.948	339.71
388.328	344.45
388.707	374.06
389.087	353.95
389.466	348.75
389.846	352.14
390.225	356.66
390.605	367.05
390.984	348.75
391.363	364.57
391.743	353.27
392.122	351.46
392.501	358.69
392.881	356.21
393.26	365.7
393.639	382.19
394.018	386.49
394.397	367.96
394.776	360.5
395.155	380.84
395.534	388.07
395.913	363.89
396.292	372.7
396.671	381.74
397.05	391.91
397.429	380.61
397.808	392.81
398.186	363.44
398.565	389.42
398.944	384.23
399.323	405.92
399.701	395.53
400.08	412.7
400.458	380.39
400.837	416.54
401.215	411.8
401.594	400.05
401.972	391.68
402.351	401.63
402.729	408.86
403.107	404.34
403.486	411.35
403.864	414.06
404.242	424.45
404.62	442.3
404.999	439.59
405.377	445.47
405.755	429.42
406.133	440.72
406.511	435.07
406.889	446.15
407.267	476.65
407.645	470.78
408.023	446.15
408.401	451.8
408.779	456.54
409.156	507.16
409.534	461.74
409.912	480.95
410.29	516.43
410.667	491.34
411.045	504.9
411.422	516.43
411.8	517.56
412.178	518.91
412.555	499.03
412.933	515.75
413.31	537.44
413.687	541.51
414.065	537.44
414.442	562.3
414.819	561.17
415.197	561.17
415.574	574.5
415.951	579.25
416.328	594.62
416.705	592.81
417.082	616.99
417.46	602.3
417.837	606.37
418.214	598.23
418.591	616.54
418.967	617.89
419.344	617.22
419.721	638.01
420.098	642.07
420.475	657.89
420.852	680.72
421.228	652.92
421.605	661.96
421.982	678.23
422.358	699.02
422.735	695.86
423.111	748.06
423.488	727.72
423.864	720.26
424.241	762.3
424.617	761.39
424.994	801.84
425.37	776.99
425.746	789.41
426.123	798.45
426.499	828.06
426.875	816.76
427.251	801.84
427.627	847.27
428.003	846.59
428.379	878.23
428.756	868.51
429.132	875.51
429.507	896.98
429.883	905.57
430.259	887.72
430.635	899.69
431.011	942.18
431.387	943.31
431.763	959.58
432.138	962.97
432.514	941.5
432.89	977.21
433.265	1006.58
433.641	1015.62
434.016	1033.02
434.392	1045.9
434.767	1056.98
435.143	1077.54
435.518	1094.72
435.894	1105.56
436.269	1159.57
436.644	1116.64
437.02	1161.38
437.395	1166.81
437.77	1172
438.145	1207.48
438.52	1195.28
438.895	1238.67
439.271	1238.22
439.646	1265.79
440.021	1280.93
440.395	1307.82
440.77	1314.15
441.145	1302.85
441.52	1336.97
441.895	1350.76
442.27	1367.7
442.645	1363.86
443.019	1400.25
443.394	1369.96
443.769	1423.97
444.143	1417.42
444.518	1448.15
444.892	1411.54
445.267	1452.67
445.641	1442.96
446.016	1477.53
446.39	1470.07
446.764	1501.26
447.139	1488.38
447.513	1504.42
447.887	1513.91
448.262	1534.93
448.636	1519.34
449.01	1554.14
449.384	1555.72
449.758	1600.01
450.132	1599.34
450.506	1615.38
450.88	1604.99
451.254	1628.04
451.628	1640.01
452.002	1643.18
452.376	1676.62
452.75	1685.21
453.123	1661.03
453.497	1704.19
453.871	1739.22
454.244	1759.33
454.618	1746.9
454.992	1800.01
455.365	1800.91
455.739	1839.33
456.112	1879.56
456.486	1881.36
456.859	1868.26
457.232	1886.33
457.606	1891.31
457.979	1927.24
458.352	1978.99
458.725	1981.7
459.099	1984.86
459.472	2013.11
459.845	2067.8
460.218	2071.41
460.591	2065.99
460.964	2082.49
461.337	2112.09
461.71	2129.04
462.083	2181.69
462.456	2180.79
462.829	2176.72
463.201	2213.78
463.574	2265.08
463.947	2277.06
464.32	2321.58
464.692	2309.37
465.065	2331.52
465.438	2358.19
465.81	2409.26
466.183	2395.47
466.555	2501.46
466.928	2491.06
467.3	2482.7
467.672	2508.92
468.045	2601.57
468.417	2578.97
468.789	2581.01
469.161	2648.57
469.534	2665.07
469.906	2722.24
470.278	2764.73
470.65	2754.11
471.022	2814.9
471.394	2832.3
471.766	2876.37
472.138	2901.45
472.51	2974.89
472.882	3015.34
473.253	2985.74
473.625	3059.64
473.997	3123.36
474.369	3127.21
474.74	3159.97
475.112	3228.67
475.484	3284.26
475.855	3329.69
476.227	3312.96
476.598	3394.54
476.97	3501.43
477.341	3509.79
477.713	3533.52
478.084	3528.55
478.455	3641.77
478.827	3646.29
479.198	3782.33
479.569	3756.34
479.94	3835.44
480.311	3898.71
480.682	3964.7
481.053	4031.59
481.424	4106.62
481.795	4133.73
482.166	4182.32
482.537	4216.67
482.908	4340.96
483.279	4324.24
483.65	4382.77
484.021	4493.05
484.391	4479.94
484.762	4554.74
485.133	4582.31
485.503	4634.51
485.874	4702.76
486.244	4759.93
486.615	4811.91
486.985	4874.96
487.356	4942.3
487.726	4985.69
488.097	5096.87
488.467	5062.52
488.837	5139.13
489.207	5228.62
489.578	5348.39
489.948	5315.4
490.318	5415.06
490.688	5372.57
491.058	5536.63
491.428	5574.37
491.798	5560.59
492.168	5663.64
492.538	5710.19
492.908	5747.25
493.278	5813.24
493.648	5791.77
494.017	5860.24
494.387	5902.95
494.757	5933.01
495.126	5940.01
495.496	6034.7
495.866	6036.06
496.235	6088.26
496.605	6128.03
496.974	6219.55
497.344	6260.68
497.713	6255.71
498.082	6260.91
498.452	6306.33
498.821	6342.94
499.19	6337.52
499.559	6425.65
499.928	6408.7
500.298	6482.37
500.667	6543.61
501.036	6505.87
501.405	6524.4
501.774	6564.86
502.143	6619.77
502.512	6646.21
502.88	6657.96
503.249	6686.89
503.618	6735.7
503.987	6691.63
504.356	6734.57
504.724	6779.09
505.093	6854.79
505.462	6854.11
505.83	6821.12
506.199	6878.52
506.567	6899.08
506.936	6937.95
507.304	6943.6
507.672	7032.87
508.041	6935.47
508.409	7062.92
508.777	7041
509.145	7095.69
509.514	7214.56
509.882	7145.41
510.25	7157.16
510.618	7123.03
510.986	7249.36
511.354	7244.61
511.722	7294.1
512.09	7283.93
512.458	7273.99
512.826	7376.36
513.193	7355.12
513.561	7354.44
513.929	7360.09
514.297	7435.79
514.664	7399.18
515.032	7397.83
515.4	7452.29
515.767	7500.65
516.135	7501.33
516.502	7400.77
516.869	7472.63
517.237	7552.4
517.604	7531.16
517.972	7525.96
518.339	7623.58
518.706	7622
519.073	7529.58
519.44	7607.09
519.808	7629.23
520.175	7635.56
520.542	7690.48
520.909	7723.02
521.276	7698.84
521.643	7731.15
522.009	7782.22
522.376	7816.8
522.743	7709.91
523.11	7829.46
523.477	7908.55
523.843	7840.75
524.21	7883.47
524.577	7920.53
524.943	7986.97
525.31	7904.26
525.676	8020.18
526.043	8022.67
526.409	7990.35
526.776	8013.18
527.142	8018.15
527.508	8082.56
527.874	8086.4
528.241	8110.13
528.607	8066.74
528.973	8163.01
529.339	8107.19
529.705	8132.95
530.071	8191.25
530.437	8159.16
530.803	8125.27
531.169	8193.74
531.535	8113.52
531.901	8151.25
532.267	8177.92
532.632	8159.39
532.998	8188.77
533.364	8221.99
533.73	8133.18
534.095	8256.34
534.461	8224.47
534.826	8241.2
535.192	8199.39
535.557	8232.83
535.923	8158.26
536.288	8171.59
536.653	8271.7
537.019	8148.09
537.384	8188.32
537.749	8207.75
538.114	8191.93
538.479	8153.74
538.845	8084.59
539.21	8122.33
539.575	8125.27
539.94	8102.89
540.305	8124.81
540.67	8112.84
541.034	8104.93
541.399	8044.59
541.764	8138.83
542.129	8099.28
542.494	8104.7
542.858	8091.37
543.223	8039.39
543.587	8078.49
543.952	8090.24
544.316	8052.27
544.681	8070.13
545.045	8027.87
545.41	8032.61
545.774	8016.12
546.138	8032.61
546.503	8005.27
546.867	7971.37
547.231	7941.32
547.595	7954.42
547.959	7944.25
548.324	7966.4
548.688	7947.87
549.052	7941.54
549.416	7934.31
549.779	7951.49
550.143	7901.77
550.507	7925.95
550.871	7933.18
551.235	7929.34
551.599	7899.28
551.962	7939.28
552.326	7820.42
552.689	7916.68
553.053	7783.58
553.417	7863.35
553.78	7876.01
554.143	7841.66
554.507	7923.46
554.87	7880.3
555.234	7909.68
555.597	7775.22
555.96	7840.53
556.323	7836.69
556.686	7863.8
557.05	7849.12
557.413	7844.14
557.776	7841.43
558.139	7839.17
558.502	7845.27
558.865	7800.08
559.228	7863.13
559.59	7934.99
559.953	7871.04
560.316	7941.77
560.679	7881.88
561.041	7937.02
561.404	7980.19
561.767	7998.72
562.129	7915.78
562.492	7957.59
562.854	7982.67
563.217	7953.29
563.579	7972.05
563.941	8013.63
564.304	7995.33
564.666	8048.88
565.028	8121.2
565.39	8080.3
565.753	8112.84
566.115	8099.05
566.477	8123.23
566.839	8105.61
567.201	8134.76
567.563	8179.28
567.925	8161.42
568.287	8159.62
568.648	8139.05
569.01	8209.78
569.372	8261.31
569.734	8262.89
570.095	8217.47
570.457	8305.15
570.819	8300.4
571.18	8311.02
571.542	8315.54
571.903	8362.32
572.265	8365.26
572.626	8395.09
572.987	8382.89
573.349	8486.84
573.71	8414.75
574.071	8480.51
574.432	8491.81
574.794	8526.16
575.155	8480.51
575.516	8471.02
575.877	8576.55
576.238	8601.64
576.599	8634.18
576.96	8586.27
577.32	8612.03
577.681	8691.13
578.042	8631.02
578.403	8643.22
578.763	8672.6
579.124	8674.86
579.485	8741.75
579.845	8805.47
580.206	8684.8
580.566	8786.04
580.927	8780.39
581.287	8783.78
581.648	8785.81
582.008	8809.54
582.368	8844.8
582.728	8786.72
583.089	8810.9
583.449	8829.88
583.809	8892.03
584.169	8922.53
584.529	8896.77
584.889	8914.17
585.249	8872.82
585.609	8855.19
585.969	8930.67
586.329	8902.2
586.688	8990.78
587.048	8980.39
587.408	8881.4
587.768	8898.58
588.127	8890.9
588.487	8957.34
588.846	9003.21
589.206	8969.54
589.565	9001.4
589.925	9070.1
590.284	8942.42
590.643	9029.2
591.003	8988.97
591.362	9117.78
591.721	9096.54
592.08	9157.1
592.44	9062.64
592.799	9178.35
593.158	9074.39
593.517	9094.73
593.876	9195.75
594.235	9106.03
594.593	9162.98
594.952	9158.91
595.311	9096.54
595.67	9154.84
596.029	9167.05
596.387	9245.69
596.746	9202.53
597.104	9191.91
597.463	9148.74
597.822	9221.73
598.18	9227.61
598.538	9183.09
598.897	9309.19
599.255	9198.23
599.613	9324.78
599.972	9270.1
600.33	9193.71
600.688	9207.27
601.046	9306.7
601.404	9308.51
601.762	9290.66
602.12	9346.93
602.478	9321.17
602.836	9290.21
603.194	9291.79
603.552	9275.97
603.91	9274.16
604.268	9341.96
604.625	9318.68
604.983	9327.95
605.341	9320.04
605.698	9356.19
606.056	9351
606.413	9392.13
606.771	9390.09
607.128	9390.32
607.485	9359.36
607.843	9376.08
608.2	9385.35
608.557	9414.72
608.914	9344.22
609.272	9414.72
609.629	9417.66
609.986	9468.06
610.343	9418.34
610.7	9561.61
611.057	9506.02
611.414	9474.84
611.771	9452.46
612.127	9515.96
612.484	9510.31
612.841	9552.57
613.198	9463.31
613.554	9487.49
613.911	9515.51
614.267	9542.4
614.624	9521.84
614.98	9516.42
615.337	9489.98
615.693	9581.05
616.05	9562.97
616.406	9596.19
616.762	9601.16
617.118	9555.74
617.475	9593.02
617.831	9595.96
618.187	9681.38
618.543	9692.46
618.899	9715.73
619.255	9680.48
619.611	9669.41
619.967	9664.66
620.323	9711.89
620.678	9665.79
621.034	9700.14
621.39	9679.35
621.746	9642.06
622.101	9724.32
622.457	9641.16
622.812	9689.97
623.168	9691.33
623.523	9718.45
623.879	9783.08
624.234	9635.74
624.589	9643.64
624.945	9695.85
625.3	9688.62
625.655	9685.68
626.01	9660.59
626.365	9695.39
626.72	9728.39
627.075	9650.65
627.43	9649.75
627.785	9684.55
628.14	9706.92
628.495	9708.05
628.85	9682.06
629.205	9677.32
629.559	9629.63
629.914	9658.11
630.269	9577.21
630.623	9628.5
630.978	9594.61
631.332	9620.82
631.687	9612.69
632.041	9579.69
632.396	9544.66
632.75	9522.74
633.104	9567.49
633.459	9510.99
633.813	9485.68
634.167	9490.65
634.521	9489.07
634.875	9513.25
635.229	9501.5
635.583	9369.98
635.937	9460.6
636.291	9466.25
636.645	9460.15
636.999	9418.57
637.352	9465.57
637.706	9351.45
638.06	9403.2
638.413	9331.34
638.767	9363.43
639.121	9319.59
639.474	9280.49
639.828	9313.48
640.181	9330.88
640.534	9303.99
640.888	9276.42
641.241	9255.86
641.594	9278.23
641.947	9332.47
642.301	9266.25
642.654	9242.07
643.007	9331.56
643.36	9376.08
643.713	9302.41
644.066	9244.33
644.419	9244.56
644.771	9183.77
645.124	9095.86
645.477	9072.36
645.83	9047.73
646.182	8965.47
646.535	8949.88
646.888	8906.71
647.24	8893.83
647.593	8911.91
647.945	8911.69
648.298	8825.36
648.65	8871.01
649.002	8803.21
649.355	8906.26
649.707	8892.25
650.059	8960.05
650.411	9056.32
650.763	9080.27
651.115	9161.62
651.467	9114.85
651.819	9152.13
652.171	9075.3
652.523	9094.51
652.875	9076.43
653.227	9016.54
653.578	9084.34
653.93	9072.36
654.282	9009.76
654.633	9069.42
654.985	9114.39
655.337	9059.93
655.688	9079.82
656.039	9102.19
656.391	8971.57
656.742	9010.67
657.094	9042.3
657.445	9038.24
657.796	9023.77
658.147	9052.7
658.498	9007.05
658.849	9109.2
659.2	9006.83
659.551	9096.99
659.902	9066.26
660.253	9106.94
660.604	9087.73
660.955	9002.53
661.306	9078.69
661.656	9025.13
662.007	9153.94
662.358	9064.9
662.708	9077.56
663.059	9073.04
663.409	9056.32
663.76	9142.19
664.11	9107.61
664.461	9056.77
664.811	9122.53
665.161	9097.22
665.511	9122.75
665.862	9048.63
666.212	9081.63
666.562	9098.35
666.912	9068.29
667.262	9110.1
667.612	9068.07
667.962	9119.36
668.312	9079.59
668.662	9136.31
669.011	9079.59
669.361	9080.04
669.711	9048.18
670.06	9047.95
670.41	9063.1
670.76	9041.85
671.109	9029.65
671.459	9068.07
671.808	8996.43
672.157	9083.89
672.507	8977
672.856	8944.23
673.205	9000.27
673.554	9001.85
673.904	9027.16
674.253	9005.24
674.602	8994.62
674.951	8844.8
675.3	8805.93
675.649	8961.85
675.998	8931.35
676.346	8997.56
676.695	9045.92
677.044	8908.07
677.393	8899.94
677.741	8951.91
678.09	8887.51
678.438	8903.1
678.787	8968.41
679.135	8875.08
679.484	8822.42
679.832	8860.61
680.181	8807.06
680.529	8862.2
680.877	8763.44
681.225	8792.37
681.573	8802.99
681.922	8781.07
682.27	8724.12
682.618	8766.83
682.966	8713.27
683.314	8642.09
683.661	8694.52
684.009	8671.69
684.357	8612.94
684.705	8654.29
685.053	8666.72
685.4	8617.46
685.748	8559.83
686.095	8581.3
686.443	8571.13
686.79	8473.51
687.138	8504.24
687.485	8508.31
687.832	8491.13
688.18	8503.56
688.527	8413.62
688.874	8454.07
689.221	8411.81
689.568	8420.85
689.915	8345.83
690.262	8305.6
690.609	8338.59
690.956	8297.69
691.303	8294.75
691.65	8211.14
691.997	8279.61
692.344	8200.74
692.69	8203.91
693.037	8169.11
693.383	8030.35
693.73	8066.51
694.077	8101.09
694.423	8056.12
694.769	8044.14
695.116	7989.68
695.462	7988.32
695.808	7943.35
696.155	7950.58
696.501	7862.22
696.847	7873.97
697.193	7831.49
697.539	7894.54
697.885	7753.3
698.231	7785.84
698.577	7769.34
698.923	7719.85
699.269	7747.88
699.614	7647.09
699.96	7681.44
700.306	7607.31
700.651	7575
700.997	7540.88
701.342	7538.62
701.688	7550.59
702.033	7510.59
702.379	7453.87
702.724	7434.44
703.069	7412.97
703.415	7337.49
703.76	7354.44
704.105	7364.16
704.45	7312.86
704.795	7266.31
705.14	7244.61
705.485	7234.44
705.83	7210.94
706.175	7211.39
706.52	7197.83
706.865	7182.47
707.209	7173.65
707.554	7100.66
707.899	7135.01
708.243	7059.31
708.588	7083.94
708.932	7013.88
709.277	7011.17
709.621	7025.63
709.966	7046.2
710.31	6985.41
710.654	6933.43
710.998	6999.19
711.342	6948.35
711.687	6847.11
712.031	6844.17
712.375	6885.98
712.719	6818.86
713.063	6829.71
713.407	6868.58
713.75	6834.68
714.094	6805.53
714.438	6781.12
714.782	6780.44
715.125	6788.35
715.469	6776.6
715.812	6719.2
716.156	6699.32
716.499	6702.03
716.843	6713.55
717.186	6654.12
717.53	6687.34
717.873	6718.3
718.216	6671.29
718.559	6669.49
718.902	6628.36
719.246	6636.94
719.589	6569.15
719.932	6634.68
720.275	6581.13
720.617	6549.26
720.96	6579.32
721.303	6561.47
721.646	6582.48
721.989	6521.47
722.331	6527.12
722.674	6495.03
723.016	6548.81
723.359	6570.73
723.701	6536.61
724.044	6497.74
724.386	6476.72
724.729	6504.07
725.071	6506.55
725.413	6502.94
725.755	6522.14
726.097	6437.4
726.439	6402.37
726.782	6469.72
727.124	6457.51
727.465	6437.63
727.807	6428.81
728.149	6382.94
728.491	6422.94
728.833	6478.08
729.175	6368.7
729.516	6325.54
729.858	6388.36
730.199	6402.15
730.541	6357.4
730.882	6374.58
731.224	6389.72
731.565	6370.28
731.906	6377.97
732.248	6389.27
732.589	6379.55
732.93	6344.07
733.271	6410.06
733.612	6367.57
733.953	6402.6
734.294	6452.99
734.635	6403.5
734.976	6368.02
735.317	6361.02
735.658	6389.72
735.999	6422.94
736.339	6411.87
736.68	6456.84
737.021	6360.57
737.361	6361.47
737.702	6364.86
738.042	6400.79
738.383	6406.22
738.723	6435.14
739.063	6394.92
739.404	6377.29
739.744	6407.35
740.084	6451.86
740.424	6409.15
740.764	6349.49
741.104	6491.19
741.444	6416.61
741.784	6469.72
742.124	6474.01
742.464	6481.24
742.804	6516.5
743.143	6472.65
743.483	6532.31
743.823	6571.18
744.162	6461.81
744.502	6482.82
744.841	6512.88
745.181	6618.64
745.52	6558.3
745.86	6617.06
746.199	6601.46
746.538	6639.66
746.877	6703.84
747.216	6767.34
747.556	6743.61
747.895	6788.58
748.234	6781.57
748.573	6823.61
748.911	6827.45
749.25	6931.63
749.589	6946.99
749.928	6984.05
750.267	6993.32
750.605	7110.6
750.944	7093.88
751.283	7138.17
751.621	7227.21
751.96	7242.35
752.298	7413.87
752.636	7458.17
752.975	7462.23
753.313	7501.78
753.651	7640.76
753.989	7671.49
754.327	7793.07
754.666	7737.48
755.004	7854.99
755.342	8016.57
755.679	8110.13
756.017	8145.61
756.355	8262.21
756.693	8326.84
757.031	8482.77
757.368	8556.67
757.706	8590.57
758.044	8706.49
758.381	8845.7
758.719	8964.79
759.056	9024.23
759.394	9203.88
759.731	9258.8
760.068	9386.7
760.405	9456.53
760.743	9523.42
761.08	9759.12
761.417	9725.68
761.754	9922.51
762.091	9977.87
762.428	10085.89
762.765	10193.69
763.102	10413.79
763.438	10471.42
763.775	10505.09
764.112	10684.07
764.449	10832.99
764.785	10921.8
765.122	11004.96
765.458	11060.33
765.795	11150.5
766.131	11253.32
766.467	11289.48
766.804	11415.35
767.14	11503.03
767.476	11518.62
767.812	11717.94
768.148	11826.19
768.485	11811.05
768.821	11948.67
769.157	12006.75
769.492	12013.98
769.828	12206.52
770.164	12143.69
770.5	12204.03
770.836	12342.56
771.171	12392.72
771.507	12436.11
771.842	12441.54
772.178	12529.67
772.513	12612.83
772.849	12692.83
773.184	12653.51
773.519	12738.7
773.855	12707.74
774.19	12826.16
774.525	12783.9
774.86	12944.12
775.195	13016.21
775.53	13016.89
775.865	12962.2
776.2	12968.3
776.535	12981.86
776.87	13051.69
777.205	13001.75
777.539	13058.02
777.874	13083.1
778.209	13082.88
778.543	13144.34
778.878	13008.98
779.212	13105.93
779.547	13017.34
779.881	13118.13
780.215	13154.29
780.55	13148.41
780.884	13113.38
781.218	13146.15
781.552	13159.26
781.886	13134.4
782.22	13066.61
782.554	13128.3
782.888	12999.94
783.222	12983.44
783.556	12994.29
783.889	12979.6
784.223	12957.68
784.557	12949.09
784.89	13026.61
785.224	13004.91
785.557	12910.45
785.891	12868.64
786.224	12912.49
786.558	13020.96
786.891	12783.22
787.224	12791.13
787.557	12825.26
787.891	12824.8
788.224	12852.6
788.557	12815.31
788.89	12798.59
789.223	12844.46
789.556	12739.83
789.888	12783.9
790.221	12743.22
790.554	12664.36
790.887	12613.51
791.219	12570.8
791.552	12562.66
791.884	12581.19
792.217	12576.67
792.549	12517.69
792.882	12445.83
793.214	12474.3
793.546	12454.42
793.879	12348.66
794.211	12234.54
794.543	12326.06
794.875	12326.29
795.207	12412.61
795.539	12294.65
795.871	12333.97
796.203	12230.02
796.535	12181.21
796.867	12211.49
797.198	12183.69
797.53	12131.04
797.862	12047.42
798.193	12101.21
798.525	12047.65
798.856	12023.02
799.188	11964.49
799.519	11891.04
799.85	11857.37
800.182	11857.82
800.513	11835.68
800.844	11773.08
801.175	11890.59
801.506	11772.85
801.837	11802.46
802.168	11775.11
802.499	11651.5
802.83	11681.11
803.161	11615.8
803.491	11646.98
803.822	11686.3
804.153	11554.78
804.483	11528.79
804.814	11449.47
805.145	11393.43
805.475	11433.43
805.805	11503.48
806.136	11410.6
806.466	11456.93
806.796	11367.89
807.126	11223.26
807.457	11294.45
807.787	11343.49
808.117	11280.21
808.447	11191.63
808.777	11197.73
809.107	11226.2
809.436	11142.81
809.766	11117.96
810.096	11130.16
810.426	11106.66
810.755	11129.93
811.085	11080.9
811.414	11076.15
811.744	11038.86
812.073	10871.86
812.403	10907.57
812.732	10918.87
813.061	10959.32
813.39	10818.98
813.719	10789.15
814.049	10905.76
814.378	10853.56
814.707	10742.37
815.036	10768.81
815.365	10793.67
815.693	10660.57
816.022	10650.62
816.351	10698.08
816.68	10583.06
817.008	10627.57
817.337	10580.57
817.665	10524.75
817.994	10535.37
818.322	10568.14
818.651	10542.15
818.979	10440.01
819.307	10491.98
819.636	10446.11
819.964	10368.15
820.292	10433.68
820.62	10400.91
820.948	10374.25
821.276	10436.84
821.604	10350.97
821.932	10368.15
822.259	10401.82
822.587	10429.61
822.915	10362.95
823.243	10462.15
823.57	10382.61
823.898	10383.51
824.225	10322.27
824.553	10407.24
824.88	10348.48
825.207	10466
825.535	10404.3
825.862	10466.22
826.189	10372.89
826.516	10418.31
826.843	10531.76
827.17	10429.84
827.497	10464.64
827.824	10409.95
828.151	10378.09
828.478	10364.3
828.805	10353.68
829.131	10402.04
829.458	10389.39
829.785	10327.24
830.111	10330.63
830.438	10416.51
830.764	10419.44
831.09	10387.13
831.417	10334.7
831.743	10396.17
832.069	10387.13
832.395	10292.89
832.722	10402.04
833.048	10325.21
833.374	10398.2
833.7	10242.73
834.026	10319.11
834.351	10351.2
834.677	10323.4
835.003	10265.55
835.329	10246.11
835.654	10332.21
835.98	10236.17
836.306	10306.45
836.631	10298.54
836.956	10247.02
837.282	10248.6
837.607	10197.98
837.932	10179.9
838.258	10183.97
838.583	10203.4
838.908	10162.5
839.233	10135.61
839.558	10146.23
839.883	10124.76
840.208	10053.8
840.533	10037.53
840.858	10150.3
841.182	10068.04
841.507	10034.82
841.832	10035.05
842.156	10022.84
842.481	9970.87
842.805	9960.92
843.13	9952.56
843.454	9924.32
843.778	9833.92
844.103	9839.12
844.427	9804.77
844.751	9863.75
845.075	9786.92
845.399	9797.54
845.723	9676.86
846.047	9710.08
846.371	9656.53
846.695	9654.04
847.019	9594.38
847.343	9553.03
847.666	9469.19
847.99	9531.11
848.313	9439.36
848.637	9421.96
848.96	9370.88
849.284	9361.84
849.607	9231.9
849.931	9296.31
850.254	9221.06
850.577	9205.92
850.9	9110.55
851.223	9106.94
851.546	9098.12
851.869	9022.87
852.192	9065.13
852.515	8979.48
852.838	8967.05
853.161	8896.32
853.483	8868.75
853.806	8854.96
854.129	8825.36
854.451	8748.98
854.774	8744.01
855.096	8714.18
855.419	8691.35
855.741	8717.57
856.063	8661.07
856.385	8609.55
856.708	8642.09
857.03	8617.01
857.352	8627.63
857.674	8571.58
857.996	8499.95
858.318	8495.65
858.64	8468.53
858.961	8439.38
859.283	8388.08
859.605	8340.63
859.926	8441.42
860.248	8421.08
860.57	8331.36
860.891	8339.05
861.212	8354.41
861.534	8306.05
861.855	8249.78
862.176	8308.31
862.498	8258.37
862.819	8283.23
863.14	8233.06
863.461	8190.8
863.782	8165.04
864.103	8172.05
864.424	8102.67
864.745	8118.04
865.065	8125.72
865.386	8092.73
865.707	8044.82
866.027	8132.95
866.348	8029.9
866.668	8048.88
866.989	8046.85
867.309	7967.98
867.63	8030.58
867.95	7999.39
868.27	7995.33
868.59	7967.08
868.91	7955.1
869.23	7930.47
869.55	7894.54
869.87	7940.86
870.19	7905.84
870.51	7911.26
870.83	7914.42
871.15	7840.08
871.469	7810.7
871.789	7887.08
872.109	7861.54
872.428	7803.47
872.748	7850.02
873.067	7801.66
873.386	7775.9
873.706	7763.69
874.025	7774.32
874.344	7701.77
874.663	7781.55
874.982	7769.57
875.301	7679.85
875.62	7682.11
875.939	7672.4
876.258	7658.61
876.577	7620.2
876.896	7658.61
877.214	7622
877.533	7621.33
877.852	7569.57
878.17	7622.45
878.489	7612.06
878.807	7589.91
879.125	7537.03
879.444	7531.38
879.762	7488.45
880.08	7512.63
880.398	7438.28
880.716	7466.3
881.034	7454.78
881.352	7482.12
881.67	7453.87
881.988	7405.96
882.306	7429.92
882.624	7417.04
882.941	7383.14
883.259	7369.58
883.577	7376.36
883.894	7333.2
884.212	7304.05
884.529	7307.89
884.846	7258.4
885.164	7268.34
885.481	7238.28
885.798	7269.7
886.115	7209.13
886.432	7173.65
886.75	7161
887.067	7156.7
887.383	7121.45
887.7	7201.45
888.017	7124.61
888.334	7085.29
888.651	7084.62
888.967	7077.16
889.284	7061.11
889.6	7044.39
889.917	6990.16
890.233	6974.79
890.55	6947.9
890.866	6970.27
891.182	6968.23
891.498	6906.09
891.815	6909.25
892.131	6856.15
892.447	6890.5
892.763	6817.28
893.079	6839.42
893.395	6729.6
893.71	6796.26
894.026	6707
894.342	6737.05
894.657	6692.76
894.973	6675.81
895.289	6705.19
895.604	6645.76
895.92	6600.79
896.235	6587.45
896.55	6613.89
896.865	6598.75
897.181	6570.51
897.496	6578.87
897.811	6552.88
898.126	6503.84
898.441	6473.11
898.756	6431.75
899.071	6381.58
899.386	6377.29
899.7	6345.2
900.015	6383.84
900.33	6312.88
900.644	6311.3
900.959	6327.35
901.273	6221.36
901.588	6260.46
901.902	6192.66
902.216	6216.39
902.531	6233.34
902.845	6158.76
903.159	6103.4
903.473	6104.3
903.787	6015.72
904.101	5966.45
904.415	6015.27
904.729	5984.98
905.042	5927.13
905.356	6012.78
905.67	5943.18
905.984	5965.55
906.297	5958.09
906.611	5883.74
906.924	5836.06
907.237	5921.71
907.551	5881.71
907.864	5799.45
908.177	5798.32
908.491	5740.92
908.804	5739.34
909.117	5685.1
909.43	5670.19
909.743	5662.05
910.056	5607.82
910.368	5628.84
910.681	5584.09
910.994	5577.08
911.307	5542.28
911.619	5499.8
911.932	5533.7
912.244	5513.13
912.557	5477.43
912.869	5422.06
913.181	5420.7
913.494	5417.77
913.806	5375.28
914.118	5407.82
914.43	5321.95
914.742	5325.34
915.054	5272.46
915.366	5279.01
915.678	5309.97
915.99	5220.26
916.302	5226.13
916.613	5229.07
916.925	5170.77
917.236	5154.72
917.548	5146.59
917.859	5108.85
918.171	5055.74
918.482	5103.2
918.794	5013.94
919.105	5030.43
919.416	4998.34
919.727	5013.03
920.038	4990.66
920.349	4940.72
920.66	4933.26
920.971	4942.75
921.282	4888.29
921.593	4878.12
921.903	4824.79
922.214	4845.35
922.525	4828.18
922.835	4825.69
923.146	4734.17
923.456	4781.63
923.767	4747.05
924.077	4742.76
924.387	4733.04
924.697	4668.18
925.008	4664.11
925.318	4670.89
925.628	4617.56
925.938	4636.09
926.248	4567.39
926.558	4556.55
926.867	4558.81
927.177	4526.04
927.487	4450.56
927.796	4501.86
928.106	4497.79
928.416	4449.43
928.725	4445.36
929.034	4429.54
929.344	4434.74
929.653	4379.83
929.962	4355.87
930.271	4344.12
930.581	4345.48
930.89	4270.45
931.199	4312.71
931.508	4298.25
931.817	4311.13
932.125	4253.05
932.434	4223.9
932.743	4184.58
933.051	4237.91
933.36	4163.34
933.669	4173.73
933.977	4161.3
934.286	4129.21
934.594	4067.97
934.902	4120.17
935.21	4104.36
935.519	4074.3
935.827	4063.45
936.135	4016.67
936.443	3992.04
936.751	4007.86
937.059	4031.14
937.367	3973.06
937.674	3967.18
937.982	3964.7
938.29	3921.31
938.597	3912.04
938.905	3920.63
939.213	3924.93
939.52	3856.9
939.827	3874.76
940.135	3832.05
940.442	3837.47
940.749	3810.13
941.056	3776.23
941.363	3737.13
941.67	3739.85
941.977	3695.55
942.284	3742.1
942.591	3687.19
942.898	3685.16
943.205	3688.77
943.511	3630.02
943.818	3651.71
944.125	3622.33
944.431	3641.77
944.738	3630.02
945.044	3605.39
945.35	3572.17
945.657	3538.95
945.963	3512.05
946.269	3522
946.575	3512.28
946.881	3524.48
947.187	3470.47
947.493	3494.88
947.799	3463.92
948.105	3452.85
948.41	3423.7
948.716	3413.75
949.022	3423.92
949.327	3338.27
949.633	3355.22
949.938	3354.77
950.244	3371.72
950.549	3287.43
950.854	3287.88
951.16	3324.94
951.465	3272.06
951.77	3275.45
952.075	3273.87
952.38	3243.81
952.685	3244.26
952.99	3176.7
953.294	3186.64
953.599	3220.76
953.904	3178.96
954.209	3157.94
954.513	3170.37
954.818	3098.96
955.122	3128.56
955.426	3126.08
955.731	3090.82
956.035	3048.34
956.339	3065.29
956.643	3070.48
956.948	3039.75
957.252	3034.33
957.556	3028.9
957.86	2997.49
958.163	3002.69
958.467	3001.56
958.771	2946.19
959.075	2969.02
959.378	2981.45
959.682	2926.76
959.985	2900.77
960.289	2892.86
960.592	2884.73
960.896	2890.83
961.199	2863.71
961.502	2833.2
961.805	2802.92
962.108	2860.32
962.411	2814.22
962.714	2796.82
963.017	2825.29
963.32	2791.17
963.623	2763.6
963.926	2767.89
964.228	2784.84
964.531	2773.77
964.833	2726.09
965.136	2698.29
965.438	2737.16
965.741	2690.61
966.043	2644.05
966.345	2682.7
966.648	2692.19
966.95	2653.32
967.252	2641.12
967.554	2624.39
967.856	2616.94
968.158	2605.86
968.46	2547.33
968.761	2578.07
969.063	2606.77
969.365	2565.41
969.666	2558.18
969.968	2539.88
970.269	2522.02
970.571	2538.97
970.872	2542.59
971.174	2521.57
971.475	2503.04
971.776	2498.97
972.077	2468.47
972.378	2475.02
972.679	2470.27
972.98	2471.86
973.281	2433.44
973.582	2443.38
973.883	2380.78
974.183	2455.81
974.484	2376.49
974.785	2386.21
975.085	2378.3
975.386	2383.5
975.686	2368.58
975.986	2350.5
976.287	2359.09
976.587	2309.83
976.887	2359.99
977.187	2343.5
977.487	2306.66
977.787	2268.25
978.087	2300.56
978.387	2287
978.687	2278.41
978.987	2247.46
979.286	2233.67
979.586	2209.26
979.885	2239.77
980.185	2211.98
980.484	2186.67
980.784	2150.51
981.083	2190.96
981.382	2181.92
981.682	2188.93
981.981	2171.75
982.28	2138.53
982.579	2125.2
982.878	2116.84
983.177	2083.39
983.475	2138.98
983.774	2094.01
984.073	2071.64
984.372	2089.27
984.67	2065.31
984.969	2075.93
985.267	2064.63
985.566	2079.55
985.864	2056.27
986.162	2038.65
986.461	1999.78
986.759	2017.4
987.057	2022.38
987.355	2004.07
987.653	1967.01
987.951	1994.58
988.249	1960.46
988.547	1971.08
988.844	1974.47
989.142	1986.22
989.44	1955.26
989.737	1927.46
990.035	1919.55
990.332	1915.49
990.63	1881.36
990.927	1881.36
991.224	1895.15
991.521	1879.33
991.819	1861.25
992.116	1863.06
992.413	1866.22
992.71	1853.12
993.006	1838.65
993.303	1814.92
993.6	1811.76
993.897	1816.96
994.193	1804.3
994.49	1763.63
994.787	1781.25
995.083	1791.87
995.379	1765.89
995.676	1770.63
995.972	1748.49
996.268	1737.64
996.565	1745.55
996.861	1723.18
997.157	1726.34
997.453	1714.36
997.749	1722.72
998.044	1707.58
998.34	1701.71
998.636	1677.98
998.932	1662.16
999.227	1656.28
999.523	1662.16
999.818	1658.77
1000.114	1653.35
1000.409	1604.76
1000.704	1647.92
1001	1653.35
1001.295	1610.64
1001.59	1611.77
1001.885	1616.06
1002.18	1604.53
1002.475	1560.02
1002.77	1583.29
1003.065	1567.92
1003.359	1573.57
1003.654	1545.1
1003.949	1557.3
1004.243	1527.02
1004.538	1557.08
1004.832	1505.78
1005.127	1494.93
1005.421	1510.53
1005.715	1517.3
1006.009	1485.89
1006.304	1498.77
1006.598	1459.91
1006.892	1453.35
1007.186	1439.34
1007.48	1427.59
1007.773	1461.94
1008.067	1444.31
1008.361	1422.39
1008.655	1410.64
1008.948	1409.74
1009.242	1409.28
1009.535	1389.62
1009.829	1389.17
1010.122	1372.22
1010.415	1380.36
1010.708	1353.92
1011.001	1346.46
1011.295	1367.03
1011.588	1367.93
1011.881	1340.81
1012.173	1318.89
1012.466	1318.21
1012.759	1321.38
1013.052	1324.54
1013.344	1292.9
1013.637	1314.82
1013.93	1290.42
1014.222	1267.14
1014.514	1254.49
1014.807	1282.73
1015.099	1262.4
1015.391	1287.25
1015.683	1243.19
1015.976	1220.82
1016.268	1238.44
1016.56	1216.97
1016.851	1234.37
1017.143	1209.74
1017.435	1195.73
1017.727	1200.48
1018.018	1200.25
1018.31	1174.26
1018.602	1174.71
1018.893	1196.64
1019.185	1176.3
1019.476	1161.61
1019.767	1165
1020.058	1131.78
1020.35	1129.97
1020.641	1110.76
1020.932	1099.69
1021.223	1093.59
1021.514	1121.38
1021.804	1119.12
1022.095	1090.2
1022.386	1097.65
1022.677	1076.86
1022.967	1102.63
1023.258	1050.2
1023.548	1071.67
1023.839	1074.6
1024.129	1059.69
1024.419	1054.72
1024.709	1049.97
1025	1031.67
1025.29	1012.69
1025.58	1030.54
1025.87	1008.17
1026.16	961.16
1026.449	1008.84
1026.739	984.21
1027.029	988.73
1027.319	943.08
1027.608	950.54
1027.898	949.64
1028.187	956.64
1028.477	969.52
1028.766	965.45
1029.055	933.37
1029.344	953.7
1029.634	930.43
1029.923	932.46
1030.212	940.37
1030.501	928.62
1030.79	939.69
1031.078	915.29
1031.367	885.68
1031.656	904.21
1031.945	885.68
1032.233	898.79
1032.522	886.13
1032.81	869.41
1033.099	873.93
1033.387	919.13
1033.675	866.02
1033.963	854.72
1034.251	860.15
1034.54	846.81
1034.828	835.51
1035.116	843.65
1035.403	864.21
1035.691	832.35
1035.979	799.13
1036.267	814.72
1036.554	819.47
1036.842	806.14
1037.129	817.89
1037.417	795.06
1037.704	788.96
1037.992	796.42
1038.279	786.93
1038.566	772.69
1038.853	772.69
1039.14	772.69
