Data from hue_330_FLMS001491_23.txt Node
Date: Mon Feb 06 15:45:09 GMT 2017
User: dcchb
Spectrometer: FLMS00149
Trigger mode: 0
Integration Time (sec): 2.000000E-2
Scans to average: 10
Electric dark correction enabled: true
Nonlinearity correction enabled: false
Boxcar width: 0
XAxis mode: Wavelengths
Number of Pixels in Spectrum: 2048
>>>>>Begin Spectral Data<<<<<
341.393	-11.1
341.776	-11.1
342.16	-11.1
342.543	-69.4
342.927	-69.4
343.31	-45
343.693	-60.14
344.077	-82.74
344.46	-66.69
344.843	-47.26
345.226	-40.93
345.61	-22.63
345.993	-26.02
346.376	0.88
346.759	20.31
347.142	-1.38
347.525	31.61
347.908	64.83
348.291	77.48
348.674	85.17
349.057	112.51
349.44	139.18
349.823	144.37
350.206	138.05
350.588	190.48
350.971	212.62
351.354	211.72
351.737	246.52
352.119	264.82
352.502	261.66
352.884	281.32
353.267	277.03
353.65	277.48
354.032	301.88
354.414	291.72
354.797	306.4
355.179	317.93
355.562	319.06
355.944	303.47
356.326	326.74
356.709	320.42
357.091	310.47
357.473	346.18
357.855	322.68
358.238	333.3
358.62	330.81
359.002	335.78
359.384	326.97
359.766	344.6
360.148	340.98
360.53	341.21
360.912	325.84
361.294	325.61
361.676	335.56
362.057	339.17
362.439	318.61
362.821	326.29
363.203	326.52
363.584	312.28
363.966	315.9
364.348	332.17
364.729	327.65
365.111	312.96
365.493	322.22
365.874	316.12
366.256	312.05
366.637	296.91
367.019	311.6
367.4	316.57
367.781	314.31
368.163	321.77
368.544	309.57
368.925	296.91
369.306	297.82
369.688	326.06
370.069	306.86
370.45	317.7
370.831	315.9
371.212	287.87
371.593	320.19
371.974	312.51
372.355	314.31
372.736	299.62
373.117	309.79
373.498	314.54
373.879	309.34
374.26	321.32
374.641	294.88
375.021	287.65
375.402	325.61
375.783	316.12
376.163	305.5
376.544	306.86
376.925	330.81
377.305	313.64
377.686	310.7
378.066	337.14
378.447	345.5
378.827	332.39
379.208	332.17
379.588	338.27
379.968	319.06
380.349	322.22
380.729	328.1
381.109	341.66
381.489	331.04
381.87	319.51
382.25	353.41
382.63	349.34
383.01	344.37
383.39	353.18
383.77	341.21
384.15	337.36
384.53	338.49
384.91	347.08
385.29	343.92
385.67	343.69
386.049	346.18
386.429	342.34
386.809	348.44
387.189	344.6
387.568	351.37
387.948	347.31
388.328	344.82
388.707	353.18
389.087	362
389.466	349.57
389.846	371.04
390.225	357.25
390.605	351.83
390.984	376.91
391.363	355.44
391.743	369.23
392.122	357.25
392.501	344.37
392.881	362.9
393.26	355.89
393.639	362.9
394.018	376.46
394.397	380.3
394.776	392.28
395.155	374.65
395.534	373.75
395.913	369.45
396.292	390.47
396.671	376.91
397.05	368.1
397.429	377.81
397.808	369.68
398.186	390.47
398.565	371.49
398.944	377.59
399.323	389.79
399.701	379.85
400.08	389.11
400.458	395.44
400.837	407.64
401.215	397.02
401.594	382.11
401.972	411.49
402.351	423.69
402.729	413.29
403.107	413.29
403.486	425.5
403.864	419.85
404.242	398.61
404.62	430.02
404.999	433.18
405.377	414.2
405.755	430.47
406.133	420.98
406.511	419.85
406.889	421.43
407.267	432.95
407.645	430.69
408.023	445.61
408.401	440.19
408.779	450.13
409.156	451.03
409.534	475.44
409.912	461.88
410.29	476.8
410.667	477.02
411.045	478.83
411.422	494.2
411.8	469.34
412.178	475.89
412.555	513.4
412.933	518.6
413.31	530.58
413.687	523.8
414.065	510.92
414.442	532.16
414.819	523.35
415.197	524.48
415.574	536.45
415.951	525.83
416.328	564.93
416.705	553.86
417.082	563.35
417.46	559.73
417.837	552.05
418.214	584.59
418.591	581.88
418.967	576.23
419.344	592.95
419.721	590.69
420.098	604.02
420.475	622.78
420.852	604.25
421.228	618.03
421.605	601.76
421.982	613.51
422.358	619.84
422.735	634.53
423.111	658.26
423.488	660.97
423.864	659.84
424.241	669.33
424.617	661.2
424.994	682.89
425.37	680.41
425.746	679.28
426.123	677.69
426.499	712.95
426.875	713.85
427.251	710.01
427.627	722.66
428.003	738.94
428.379	729.9
428.756	718.82
429.132	754.98
429.507	746.39
429.883	772.83
430.259	770.57
430.635	772.15
431.011	803.11
431.387	814.64
431.763	804.24
432.138	803.34
432.514	816.67
432.89	824.81
433.265	825.49
433.641	843.79
434.016	839.95
434.392	869.1
434.767	886.5
435.143	888.08
435.518	876.33
435.894	901.19
436.269	885.82
436.644	928.53
437.02	912.94
437.395	923.34
437.77	945.03
438.145	963.56
438.52	936.9
438.895	964.69
439.271	950.68
439.646	965.37
440.021	980.96
440.395	958.14
440.77	971.7
441.145	969.89
441.52	1019.83
441.895	1008.53
442.27	1006.5
442.645	1000.62
443.019	1031.81
443.394	1014.18
443.769	1043.79
444.143	1011.92
444.518	1065.03
444.892	1049.44
445.267	1050.57
445.641	1074.52
446.016	1071.58
446.39	1051.02
446.764	1071.36
447.139	1057.12
447.513	1089.21
447.887	1084.91
448.262	1087.63
448.636	1075.65
449.01	1091.24
449.384	1079.27
449.758	1115.42
450.132	1114.07
450.506	1098.02
450.88	1137.57
451.254	1133.95
451.628	1126.04
452.002	1159.26
452.376	1137.34
452.75	1137.57
453.123	1151.13
453.497	1152.48
453.871	1182.99
454.244	1193.39
454.618	1205.59
454.992	1225.48
455.365	1216.89
455.739	1199.04
456.112	1247.62
456.486	1233.84
456.859	1245.81
457.232	1272.48
457.606	1274.51
457.979	1270.22
458.352	1309.32
458.725	1315.64
459.099	1311.35
459.472	1349.31
459.845	1347.96
460.218	1331.69
460.591	1325.59
460.964	1334.17
461.337	1378.24
461.71	1378.92
462.083	1403.78
462.456	1408.75
462.829	1417.34
463.201	1449.2
463.574	1426.6
463.947	1438.13
464.32	1469.99
464.692	1482.42
465.065	1474.28
465.438	1495.3
465.81	1484.45
466.183	1524.68
466.555	1538.01
466.928	1533.72
467.3	1530.1
467.672	1580.95
468.045	1610.78
468.417	1611
468.789	1618.91
469.161	1641.06
469.534	1649.87
469.906	1699.59
470.278	1678.8
470.65	1702.98
471.022	1714.05
471.394	1723.77
471.766	1747.72
472.138	1736.2
472.51	1805.8
472.882	1836.76
473.253	1813.03
473.625	1856.87
473.997	1892.35
474.369	1923.09
474.74	1923.99
475.112	1938.68
475.484	1954.04
475.855	2024.55
476.227	2020.71
476.598	2038.56
476.97	2072.91
477.341	2081.05
477.713	2114.49
478.084	2137.32
478.455	2179.8
478.827	2200.14
479.198	2241.95
479.569	2234.94
479.94	2300.25
480.311	2283.08
480.682	2342.96
481.053	2385.67
481.424	2409.63
481.795	2426.8
482.166	2476.97
482.537	2474.93
482.908	2527.36
483.279	2544.54
483.65	2561.71
484.021	2632.22
484.391	2673.35
484.762	2690.75
485.133	2742.72
485.503	2709.51
485.874	2775.27
486.244	2794.02
486.615	2816.17
486.985	2846.9
487.356	2916.05
487.726	2913.12
488.097	2962.15
488.467	3022.49
488.837	3032.43
489.207	3022.49
489.578	3148.59
489.948	3123.51
490.318	3161.24
490.688	3171.87
491.058	3204.41
491.428	3249.15
491.798	3287.34
492.168	3333.9
492.538	3347
492.908	3352.2
493.278	3372.09
493.648	3410.28
494.017	3445.08
494.387	3421.8
494.757	3472.2
495.126	3526.66
495.496	3539.99
495.866	3528.47
496.235	3603.27
496.605	3612.98
496.974	3619.99
497.344	3675.36
497.713	3628.12
498.082	3688.46
498.452	3747.9
498.821	3744.51
499.19	3723.04
499.559	3786.54
499.928	3803.26
500.298	3812.75
500.667	3813.2
501.036	3824.05
501.405	3883.26
501.774	3867.21
502.143	3878.29
502.512	3927.33
502.88	3945.86
503.249	3951.05
503.618	3985.86
503.987	4001.67
504.356	3990.83
504.724	4036.48
505.093	4053.65
505.462	4000.77
505.83	4021.56
506.199	4087.55
506.567	4097.94
506.936	4106.08
507.304	4144.04
507.672	4167.09
508.041	4142.46
508.409	4214.55
508.777	4184.95
509.145	4183.59
509.514	4223.82
509.882	4232.63
510.25	4248.22
510.618	4266.07
510.986	4280.76
511.354	4262.23
511.722	4337.48
512.09	4375.9
512.458	4336.35
512.826	4337.71
513.193	4354.89
513.561	4390.14
513.929	4388.33
514.297	4401.44
514.664	4399.18
515.032	4446.63
515.4	4510.81
515.767	4542.45
516.135	4464.94
516.502	4466.52
516.869	4533.19
517.237	4569.57
517.604	4538.61
517.972	4563.02
518.339	4578.16
518.706	4549.91
519.073	4605.5
519.44	4640.98
519.808	4616.57
520.175	4623.58
520.542	4651.37
520.909	4705.84
521.276	4691.37
521.643	4729.56
522.009	4698.83
522.376	4728.21
522.743	4776.12
523.11	4809.11
523.477	4880.07
523.843	4820.86
524.21	4906.96
524.577	4910.35
524.943	4878.04
525.31	4920.52
525.676	4981.99
526.043	4970.46
526.409	5039.61
526.776	5055.43
527.142	5026.96
527.508	5090.23
527.874	5070.57
528.241	5125.94
528.607	5126.84
528.973	5129.33
529.339	5170.68
529.705	5252.04
530.071	5226.95
530.437	5254.52
530.803	5253.84
531.169	5318.02
531.535	5284.58
531.901	5313.05
532.267	5322.77
532.632	5352.37
532.998	5454.74
533.364	5458.59
533.73	5473.27
534.095	5515.31
534.461	5445.7
534.826	5565.93
535.192	5534.52
535.557	5595.53
535.923	5602.99
536.288	5646.6
536.653	5640.73
537.019	5605.93
537.384	5680.5
537.749	5693.16
538.114	5736.09
538.479	5772.93
538.845	5773.15
539.21	5766.15
539.575	5787.84
539.94	5786.26
540.305	5866.94
540.67	5850.44
541.034	5864.68
541.399	5906.71
541.764	5935.63
542.129	5968.4
542.494	5999.36
542.858	5981.96
543.223	6060.38
543.587	6098.34
543.952	6056.08
544.316	6071.9
544.681	6113.48
545.045	6123.2
545.41	6147.83
545.774	6196.64
546.138	6190.77
546.503	6252.46
546.867	6242.75
547.231	6317.09
547.595	6301.5
547.959	6342.63
548.324	6367.04
548.688	6313.03
549.052	6369.97
549.416	6408.16
549.779	6403.87
550.143	6381.27
550.507	6519.8
550.871	6505.56
551.235	6512.79
551.599	6598.44
551.962	6580.82
552.326	6563.41
552.689	6581.04
553.053	6582.85
553.417	6626.46
553.78	6691.1
554.143	6639.35
554.507	6687.25
554.87	6694.71
555.234	6764.99
555.597	6758.21
555.96	6692.9
556.323	6746.46
556.686	6774.48
557.05	6819.23
557.413	6853.8
557.776	6838.44
558.139	6865.1
558.502	6917.08
558.865	6914.37
559.228	6964.53
559.59	6967.7
559.953	6981.03
560.316	7057.64
560.679	7073.23
561.041	7104.42
561.404	7053.35
561.767	7157.75
562.129	7162.04
562.492	7240.01
562.854	7237.52
563.217	7191.42
563.579	7209.95
563.941	7253.79
564.304	7249.72
564.666	7332.89
565.028	7335.82
565.39	7320.91
565.753	7376.05
566.115	7416.73
566.477	7440
566.839	7399.33
567.201	7498.31
567.563	7479.78
567.925	7560.45
568.287	7527.68
568.648	7574.01
569.01	7601.81
569.372	7677.96
569.734	7686.78
570.095	7739.43
570.457	7715.25
570.819	7812.65
571.18	7817.39
571.542	7830.27
571.903	7839.99
572.265	7951.63
572.626	7988.69
572.987	8028.69
573.349	8011.96
573.71	8048.57
574.071	8133.77
574.432	8205.86
574.794	8254.67
575.155	8298.06
575.516	8323.59
575.877	8330.6
576.238	8411.73
576.599	8513.65
576.96	8575.11
577.32	8599.52
577.681	8708.9
578.042	8851.26
578.403	8913.18
578.763	8960.19
579.124	9056
579.485	9178.49
579.845	9320.4
580.206	9395.66
580.566	9517.01
580.927	9557.69
581.287	9818.02
581.648	9822.99
582.008	9928.75
582.368	10133.72
582.728	10309.08
583.089	10447.15
583.449	10541.16
583.809	10741.16
584.169	10901.83
584.529	11031.55
584.889	11316.06
585.249	11302.27
585.609	11581.81
585.969	11780.68
586.329	11987.68
586.688	12165.3
587.048	12422.02
587.408	12608.23
587.768	12850.03
588.127	13093.86
588.487	13290.24
588.846	13603
589.206	13748.76
589.565	13940.62
589.925	14300.39
590.284	14539.25
590.643	14769.75
591.003	15081.38
591.362	15346.01
591.721	15614.25
592.08	15841.14
592.44	16137.17
592.799	16420.1
593.158	16688.12
593.517	16907.1
593.876	17272.51
594.235	17528.55
594.593	17807.19
594.952	18135.77
595.311	18360.39
595.67	18736.88
596.029	19063.88
596.387	19263.87
596.746	19648.49
597.104	19900.24
597.463	20244.64
597.822	20448.02
598.18	20602.59
598.538	20954
598.897	21279.64
599.255	21495.68
599.613	22015.66
599.972	22156.9
600.33	22522.77
600.688	22649.55
601.046	23018.8
601.404	23388.74
601.762	23584.21
602.12	24031.88
602.478	24200.92
602.836	24360.69
603.194	24590.96
603.552	24918.86
603.91	25016.72
604.268	25326.54
604.625	25581.45
604.983	25966.29
605.341	26002.23
605.698	26426.62
606.056	26743
606.413	26898.25
606.771	27155.19
607.128	27433.15
607.485	27582.3
607.843	27779.81
608.2	28143.41
608.557	28504.08
608.914	28441.03
609.272	28800.8
609.629	29179.09
609.986	29254.8
610.343	29344.96
610.7	29703.82
611.057	29872.41
611.414	29922.8
611.771	30253.19
612.127	30595.78
612.484	30577.47
612.841	30991.93
613.198	30925.94
613.554	31134.75
613.911	31559.37
614.267	31512.82
614.624	31742.64
614.98	31898.12
615.337	32186.7
615.693	32220.37
616.05	32331.33
616.406	32570.87
616.762	32754.14
617.118	32855.61
617.475	32881.37
617.831	33125.88
618.187	33292.43
618.543	33418.98
618.899	33802.92
619.255	33736.49
619.611	33848.12
619.967	34061.45
620.323	34203.82
620.678	34244.95
621.034	34163.14
621.39	34340.54
621.746	34518.39
622.101	34873.18
622.457	34742.79
622.812	34947.3
623.168	35006.28
623.523	35102.1
623.879	35159.27
624.234	35276.11
624.589	35377.8
624.945	35472.26
625.3	35547.74
625.655	35623.89
626.01	35686.72
626.365	35724.68
626.72	35731.24
627.075	35811.01
627.43	35954.73
627.785	35857.33
628.14	36063.43
628.495	36160.15
628.85	36126.71
629.205	36089.42
629.559	36418.22
629.914	36228.4
630.269	36380.26
630.623	36237.89
630.978	36212.35
631.332	36517.66
631.687	36669.52
632.041	36467.04
632.396	36639.23
632.75	36436.08
633.104	36612.57
633.459	36511.55
633.813	36593.36
634.167	36569.86
634.521	36609.63
634.875	36624.77
635.229	36523.98
635.583	36359.47
635.937	36584.32
636.291	36545
636.645	36575.96
636.999	36597.88
637.352	36795.16
637.706	36458
638.06	36811.21
638.413	36759.46
638.767	36561.27
639.121	36653.25
639.474	36408.28
639.828	36494.83
640.181	36603.98
640.534	36545.9
640.888	36545.23
641.241	36369.64
641.594	36602.63
641.947	36595.62
642.301	36356.76
642.654	36612.79
643.007	36530.54
643.36	36453.25
643.713	36366.47
644.066	36569.86
644.419	36352.24
644.771	36128.97
645.124	35772.59
645.477	35900.72
645.83	35550.9
646.182	35383.67
646.535	35369.44
646.888	35579.15
647.24	35259.38
647.593	35568.08
647.945	35317.69
648.298	35307.07
648.65	35174.19
649.002	35231.14
649.355	35349.55
649.707	35166.5
650.059	35360.4
650.411	35856.2
650.763	35992.92
651.115	36359.69
651.467	36213.03
651.819	36091
652.171	36192.92
652.523	35880.61
652.875	36139.81
653.227	36064.79
653.578	36289.41
653.93	36084.9
654.282	35981.85
654.633	35912.25
654.985	36085.58
655.337	36044.22
655.688	35924
656.039	36059.59
656.391	35791.57
656.742	35881.51
657.094	35893.49
657.445	36017.78
657.796	35937.78
658.147	35796.32
658.498	35801.52
658.849	35916.09
659.2	35814.17
659.551	35672.48
659.902	35886.71
660.253	35710.67
660.604	35884
660.955	35626.15
661.306	35768.07
661.656	35772.59
662.007	35741.4
662.358	35614.4
662.708	35756.32
663.059	35715.87
663.409	35444.69
663.76	35713.38
664.11	35769.65
664.461	35749.77
664.811	35739.15
665.161	35846.71
665.511	35730.11
665.862	35718.13
666.212	35745.02
666.562	35797.22
666.912	35697.56
667.262	35602.65
667.612	35678.81
667.962	35637.23
668.312	35515.2
668.662	35868.86
669.011	35642.2
669.361	35622.09
669.711	35634.97
670.06	35405.37
670.41	35437.46
670.76	35470.68
671.109	35688.52
671.459	35483.56
671.808	35456.89
672.157	35569.88
672.507	35402.2
672.856	35450.34
673.205	35371.25
673.554	35524.01
673.904	35409.89
674.253	35580.51
674.602	35506.83
674.951	34910.47
675.3	34712.05
675.649	35340.96
675.998	35283.11
676.346	35284.47
676.695	35384.13
677.044	35172.83
677.393	35226.16
677.741	35404.46
678.09	35278.59
678.438	35112.27
678.787	35211.25
679.135	35156.34
679.484	34972.61
679.832	35062.1
680.181	34884.25
680.529	35030.46
680.877	34905.72
681.225	35024.14
681.573	35052.16
681.922	34785.27
682.27	34816.91
682.618	34876.57
682.966	34573.98
683.314	34727.42
683.661	34637.25
684.009	34516.58
684.357	34483.58
684.705	34383.93
685.053	34498.27
685.4	34422.8
685.748	34312.52
686.095	34346.41
686.443	34043.37
686.79	34073.2
687.138	34212.63
687.485	34149.36
687.832	33919.76
688.18	34009.25
688.527	33829.36
688.874	33797.5
689.221	33706.43
689.568	33750.95
689.915	33692.19
690.262	33484.29
690.609	33459.88
690.956	33380.56
691.303	33404.74
691.65	33227.8
691.997	33228.93
692.344	33025.54
692.69	32965.43
693.037	33084.75
693.383	32723.86
693.73	32874.36
694.077	32615.61
694.423	32645.44
694.769	32612.67
695.116	32559.57
695.462	32494.48
695.808	32357.77
696.155	32497.87
696.501	32096.3
696.847	32267.37
697.193	32070.54
697.539	32092.91
697.885	31770.44
698.231	31814.5
698.577	31820.15
698.923	31857.89
699.269	31549.42
699.614	31374.97
699.96	31404.57
700.306	31627.61
700.651	31307.85
700.997	31203.22
701.342	31075.76
701.688	31101.3
702.033	30971.36
702.379	30965.71
702.724	30871.25
703.069	30853.17
703.415	30504.71
703.76	30621.54
704.105	30588.32
704.45	30536.8
704.795	30419.96
705.14	30233.3
705.485	30334.99
705.83	30167.31
706.175	30158.27
706.52	30092.29
706.865	30001.89
707.209	29945.17
707.554	29852.97
707.899	29953.76
708.243	29808
708.588	29700.43
708.932	29574.56
709.277	29526.2
709.621	29548.35
709.966	29256.15
710.31	29273.55
710.654	29146.78
710.998	29168.24
711.342	29204.63
711.687	29013.67
712.031	28912.43
712.375	28828.82
712.719	28941.58
713.063	28867.91
713.407	29048.47
713.75	28776.39
714.094	28757.41
714.438	28553.12
714.782	28638.77
715.125	28396.51
715.469	28370.75
715.812	28343.18
716.156	28253.24
716.499	28258.89
716.843	28452.56
717.186	28132.11
717.53	28168.72
717.873	28261.6
718.216	28103.19
718.559	28016.86
718.902	27901.61
719.246	28027.71
719.589	27859.35
719.932	27719.02
720.275	27789.52
720.617	27774.61
720.96	27759.47
721.303	27607.83
721.646	27578
721.989	27516.76
722.331	27529.64
722.674	27376.88
723.016	27413.04
723.359	27409.19
723.701	27395.18
724.044	27274.73
724.386	27068.41
724.729	27195.87
725.071	27123.33
725.413	26998.13
725.755	27134.4
726.097	27041.75
726.439	26936.21
726.782	26983.44
727.124	27003.56
727.465	26812.6
727.807	26893.95
728.149	26737.35
728.491	26624.36
728.833	26761.08
729.175	26560.4
729.516	26626.84
729.858	26518.82
730.199	26578.93
730.541	26438.6
730.882	26472.04
731.224	26492.83
731.565	26336.23
731.906	26289.68
732.248	26281.54
732.589	26301.43
732.93	25999.29
733.271	26077.7
733.612	26161.09
733.953	26088.1
734.294	26043.35
734.635	26019.17
734.976	26007.42
735.317	25907.77
735.658	25922.23
735.999	25781.44
736.339	25798.39
736.68	25921.55
737.021	25719.97
737.361	25737.37
737.702	25801.1
738.042	25727.66
738.383	25706.41
738.723	25622.35
739.063	25545.97
739.404	25513.43
739.744	25603.37
740.084	25350.49
740.424	25435.24
740.764	25382.13
741.104	25434.33
741.444	25337.61
741.784	25234.79
742.124	25271.85
742.464	25315.46
742.804	25120.44
743.143	25041.12
743.483	25162.47
743.823	25049.48
744.162	25124.73
744.502	25001.57
744.841	24978.98
745.181	24957.96
745.52	24958.64
745.86	24969.26
746.199	24830.51
746.538	24786.89
746.877	24798.19
747.216	24796.83
747.556	24703.05
747.895	24642.26
748.234	24486.11
748.573	24568.82
748.911	24490.4
749.25	24522.04
749.589	24424.19
749.928	24399.1
750.267	24367.01
750.605	24255.61
750.944	24270.52
751.283	24198.88
751.621	24106.23
751.96	24152.78
752.298	24069.62
752.636	24070.98
752.975	23955.27
753.313	23936.52
753.651	23942.17
753.989	23837.31
754.327	23877.76
754.666	23705.56
755.004	23688.84
755.342	23681.38
755.679	23677.99
756.017	23401.16
756.355	23625.79
756.693	23358.91
757.031	23432.35
757.368	23389.41
757.706	23337.44
758.044	23228.06
758.381	23251.79
758.719	23099.25
759.056	23176.31
759.394	23089.53
759.731	22864.68
760.068	22961.85
760.405	22819.48
760.743	22840.5
761.08	22763.89
761.417	22663.1
761.754	22537.91
762.091	22530
762.428	22471.7
762.765	22391.7
763.102	22510.79
763.438	22376.78
763.775	22152.38
764.112	22177.24
764.449	22245.04
764.785	22100.41
765.122	21919.85
765.458	21888.44
765.795	21887.76
766.131	21762.34
766.467	21739.06
766.804	21613.64
767.14	21547.2
767.476	21435.34
767.812	21386.98
768.148	21421.78
768.485	21317.6
768.821	21140.88
769.157	21167.32
769.492	21106.76
769.828	21081.45
770.164	20808.01
770.5	20836.49
770.836	20912.19
771.171	20670.61
771.507	20730.95
771.842	20539.09
772.178	20461.58
772.513	20425.65
772.849	20494.57
773.184	20308.14
773.519	20316.73
773.855	20234.47
774.19	20064.98
774.525	19995.15
774.86	19990.63
775.195	19995.83
775.53	19870.18
775.865	19793.8
776.2	19638.78
776.535	19463.19
776.87	19527.14
777.205	19435.39
777.539	19398.56
777.874	19449.18
778.209	19179.58
778.543	19130.99
778.878	19026.82
779.212	19011.9
779.547	18905.24
779.881	18942.3
780.215	18908.85
780.55	18816.65
780.884	18704.34
781.218	18635.41
781.552	18575.53
781.886	18501.18
782.22	18519.26
782.554	18383.44
782.888	18135.09
783.222	18146.39
783.556	18114.98
783.889	18031.14
784.223	18047.18
784.557	17846.06
784.89	17954.53
785.224	17788.43
785.557	17775.1
785.891	17686.96
786.224	17644.25
786.558	17622.79
786.891	17378.5
787.224	17405.39
787.557	17386.41
787.891	17340.76
788.224	17259.63
788.557	17373.3
788.89	17228.45
789.223	17219.41
789.556	17030.71
789.888	17014.44
790.221	16919.53
790.554	16844.5
790.887	16846.31
791.219	16763.15
791.552	16745.75
791.884	16621.23
792.217	16545.98
792.549	16573.1
792.882	16420.56
793.214	16336.04
793.546	16391.18
793.879	16304.85
794.211	16239.09
794.543	16236.83
794.875	16130.4
795.207	16134.69
795.539	15988.25
795.871	16076.61
796.203	15835.94
796.535	15737.19
796.867	15791.42
797.198	15778.54
797.53	15715.26
797.862	15669.84
798.193	15660.35
798.525	15527.93
798.856	15500.13
799.188	15331.32
799.519	15381.26
799.85	15291.1
800.182	15257.2
800.513	15317.08
800.844	15179.69
801.175	15254.94
801.506	15176.07
801.837	15005.23
802.168	14976.08
802.499	15056.53
802.83	14919.13
803.161	14853.59
803.491	14841.84
803.822	14898.11
804.153	14857.21
804.483	14649.76
804.814	14694.73
805.145	14622.64
805.475	14571.79
805.805	14501.74
806.136	14569.98
806.466	14477.56
806.796	14428.97
807.126	14350.33
807.457	14267.39
807.787	14340.61
808.117	14231.01
808.447	14221.74
808.777	14248.41
809.107	14221.29
809.436	14139.49
809.766	14239.15
810.096	14071.01
810.426	13976.78
810.755	13959.6
811.085	13969.32
811.414	13873.73
811.744	13827.63
812.073	13738.59
812.403	13798.25
812.732	13668.76
813.061	13746.28
813.39	13581.54
813.719	13600.52
814.049	13673.96
814.378	13592.61
814.707	13494.53
815.036	13469
815.365	13414.08
815.693	13322.33
816.022	13372.05
816.351	13247.08
816.68	13222.45
817.008	13275.1
817.337	13143.58
817.665	13113.53
817.994	13059.06
818.322	13111.27
818.651	13092.28
818.979	12992.4
819.307	13012.51
819.636	13038.5
819.964	12904.04
820.292	12908.33
820.62	12946.07
820.948	12920.99
821.276	12968.9
821.604	12848.45
821.932	12910.37
822.259	12935.22
822.587	12815.23
822.915	12843.25
823.243	12894.1
823.57	12860.2
823.898	12842.8
824.225	12803.7
824.553	12770.94
824.88	12802.57
825.207	12803.48
825.535	12727.77
825.862	12897.49
826.189	12831.27
826.516	12890.93
826.843	12889.35
827.17	12834.44
827.497	12839.41
827.824	12771.61
828.151	12897.26
828.478	12837.37
828.805	12842.8
829.131	12796.02
829.458	12756.25
829.785	12689.81
830.111	12721.45
830.438	12781.33
830.764	12840.76
831.09	12777.26
831.417	12746.53
831.743	12776.13
832.069	12788.56
832.395	12763.48
832.722	12739.07
833.048	12760.99
833.374	12699.3
833.7	12760.09
834.026	12724.38
834.351	12692.29
834.677	12678.73
835.003	12673.54
835.329	12709.92
835.654	12656.81
835.98	12603.03
836.306	12560.32
836.631	12450.72
836.956	12626.53
837.282	12536.82
837.607	12552.86
837.932	12492.07
838.258	12493.2
838.583	12485.29
838.908	12410.27
839.233	12475.8
839.558	12374.34
839.883	12318.97
840.208	12320.33
840.533	12338.4
840.858	12316.48
841.182	12323.94
841.507	12294.79
841.832	12203.72
842.156	12137.05
842.481	12196.94
842.805	12036.27
843.13	12126.43
843.454	12110.16
843.778	12012.09
844.103	12031.97
844.427	12068.13
844.751	12008.02
845.075	11980.22
845.399	11905.2
845.723	11817.06
846.047	11881.92
846.371	11712.21
846.695	11728.93
847.019	11647.35
847.343	11596.28
847.666	11548.59
847.99	11455.94
848.313	11490.07
848.637	11418.88
848.96	11431.08
849.284	11423.85
849.607	11348.37
849.931	11320.8
850.254	11096.18
850.577	11156.97
850.9	11059.57
851.223	10987.93
851.546	10920.59
851.869	10921.49
852.192	11019.34
852.515	10895.96
852.838	10807.37
853.161	10916.29
853.483	10774.15
853.806	10773.25
854.129	10692.35
854.451	10641.5
854.774	10700.93
855.096	10674.95
855.419	10524.67
855.741	10475.85
856.063	10519.24
856.385	10449.41
856.708	10473.14
857.03	10436.99
857.352	10460.94
857.674	10332.36
857.996	10336.65
858.318	10274.96
858.64	10299.14
858.961	10257.33
859.283	10224.79
859.605	10135.3
859.926	10110.89
860.248	10223.66
860.57	10124.9
860.891	10151.12
861.212	10051.68
861.534	10002.87
861.855	9994.51
862.176	9983.89
862.498	9938.69
862.819	9968.75
863.14	9903.44
863.461	9897.56
863.782	9803.33
864.103	9867.96
864.424	9835.65
864.745	9839.26
865.065	9734.18
865.386	9714.97
865.707	9801.3
866.027	9767.85
866.348	9733.73
866.668	9775.53
866.989	9674.52
867.309	9610.11
867.63	9725.59
867.95	9602.66
868.27	9524.24
868.59	9660.96
868.91	9663.45
869.23	9528.99
869.55	9524.02
869.87	9533.96
870.19	9536.67
870.51	9528.99
870.83	9514.52
871.15	9437.46
871.469	9473.85
871.789	9497.12
872.109	9482.89
872.428	9369.44
872.748	9402.44
873.067	9416.67
873.386	9389.56
873.706	9431.81
874.025	9289.67
874.344	9248.99
874.663	9281.54
874.982	9371.7
875.301	9289.9
875.62	9307.98
875.939	9218.71
876.258	9239.05
876.577	9162.44
876.896	9172.16
877.214	9141.65
877.533	9171.03
877.852	9176.45
878.17	9128.77
878.489	9175.1
878.807	9133.29
879.125	9169
879.444	9067.98
879.762	9041.54
880.08	9016.68
880.398	8984.59
880.716	9004.71
881.034	8917.48
881.352	9014.2
881.67	8952.5
881.988	8943.47
882.306	8904.14
882.624	8892.39
882.941	8881.09
883.259	8823.24
883.577	8814.88
883.894	8819.4
884.212	8795.22
884.529	8786.86
884.846	8752.74
885.164	8710.7
885.481	8700.99
885.798	8678.61
886.115	8667.99
886.432	8697.37
886.75	8669.35
887.067	8587.54
887.383	8569.69
887.7	8619.86
888.017	8557.49
888.334	8556.58
888.651	8528.56
888.967	8535.34
889.284	8481.1
889.6	8476.81
889.917	8356.59
890.233	8446.53
890.55	8394.33
890.866	8385.74
891.182	8256.25
891.498	8318.17
891.815	8277.27
892.131	8268.91
892.447	8213.77
892.763	8223.71
893.079	8171.96
893.395	8155.01
893.71	8132.19
894.026	8112.53
894.342	8070.27
894.657	8092.41
894.973	8028.24
895.289	8009.48
895.604	8060.1
895.92	7919.09
896.235	7909.14
896.55	7969.48
896.865	7941.46
897.181	7853.78
897.496	7811.74
897.811	7888.13
898.126	7759.54
898.441	7733.55
898.756	7685.42
899.071	7712.99
899.386	7675.02
899.7	7638.64
900.015	7594.35
900.33	7522.71
900.644	7531.07
900.959	7538.3
901.273	7434.8
901.588	7437.29
901.902	7433
902.216	7373.34
902.531	7378.76
902.845	7390.96
903.159	7310.74
903.473	7383.28
903.787	7232.32
904.101	7245.43
904.415	7187.35
904.729	7180.57
905.042	7119.78
905.356	7110.07
905.67	7123.85
905.984	7078.88
906.297	7123.85
906.611	6973.8
906.924	7029.39
907.237	6967.25
907.551	6967.25
907.864	6932.44
908.177	6924.08
908.491	6882.95
908.804	6899.9
909.117	6858.77
909.43	6787.59
909.743	6762.05
910.056	6754.14
910.368	6713.24
910.681	6639.12
910.994	6683.64
911.307	6616.29
911.619	6593.7
911.932	6639.12
912.244	6551.89
912.557	6582.85
912.869	6525.45
913.181	6455.85
913.494	6442.06
913.806	6414.27
914.118	6369.07
914.43	6421.5
914.742	6373.59
915.054	6336.08
915.366	6245.68
915.678	6296.53
915.99	6283.65
916.302	6234.61
916.613	6166.82
916.925	6214.95
917.236	6172.46
917.548	6124.33
917.859	6096.76
918.171	6074.39
918.482	5983.09
918.794	5982.19
919.105	6035.07
919.416	5957.1
919.727	5984
920.038	5919.36
920.349	5880.5
920.66	5896.99
920.971	5906.03
921.282	5805.02
921.593	5784.9
921.903	5780.84
922.214	5753.72
922.525	5728.63
922.835	5712.59
923.146	5716.43
923.456	5640.73
923.767	5686.38
924.077	5630.11
924.387	5607.73
924.697	5606.15
925.008	5532.26
925.318	5502.65
925.628	5537.91
925.938	5482.99
926.248	5438.02
926.558	5383.11
926.867	5444.57
927.177	5438.02
927.487	5374.75
927.796	5325.48
928.106	5358.25
928.416	5343.33
928.725	5311.24
929.034	5260.4
929.344	5237.35
929.653	5230.79
929.962	5146.05
930.271	5132.94
930.581	5141.31
930.89	5118.26
931.199	5082.1
931.508	5070.12
931.817	5068.31
932.125	5099.95
932.434	5044.13
932.743	4979.95
933.051	4932.05
933.36	4939.5
933.669	4916.68
933.977	4923.46
934.286	4889.79
934.594	4881.2
934.902	4860.86
935.21	4821.09
935.519	4821.99
935.827	4770.02
936.135	4765.04
936.443	4744.93
936.751	4701.09
937.059	4722.79
937.367	4680.75
937.674	4668.78
937.982	4661.09
938.29	4626.29
938.597	4623.58
938.905	4568.44
939.213	4567.99
939.52	4495.67
939.827	4566.18
940.135	4514.66
940.442	4495.9
940.749	4444.37
941.056	4430.36
941.363	4411.61
941.67	4426.97
941.977	4374.32
942.284	4357.15
942.591	4358.05
942.898	4306.53
943.205	4343.36
943.511	4313.08
943.818	4290.03
944.125	4240.99
944.431	4233.98
944.738	4257.49
945.044	4254.32
945.35	4198.96
945.657	4173.65
945.963	4125.74
946.269	4195.79
946.575	4152.4
946.881	4089.13
947.187	4122.35
947.493	4071.73
947.799	4075.8
948.105	4012.97
948.41	4022.92
948.716	4043.48
949.022	4009.81
949.327	3966.42
949.633	3930.04
949.938	3946.53
950.244	3942.01
950.549	3877.84
950.854	3857.05
951.16	3842.36
951.465	3879.42
951.77	3847.55
952.075	3844.39
952.38	3784.73
952.685	3805.07
952.99	3756.94
953.294	3756.94
953.599	3769.14
953.904	3717.84
954.209	3705.64
954.513	3679.42
954.818	3671.51
955.122	3681.46
955.426	3674.9
955.731	3611.4
956.035	3579.76
956.339	3610.05
956.643	3560.78
956.948	3573.89
957.252	3515.81
957.556	3548.58
957.86	3551.97
958.163	3523.04
958.467	3500.67
958.771	3500.9
959.075	3480.11
959.378	3436.94
959.682	3467
959.985	3377.06
960.289	3379.77
960.592	3395.14
960.896	3362.14
961.199	3320.56
961.502	3345.42
961.805	3344.06
962.108	3302.26
962.411	3303.16
962.714	3275.59
963.017	3303.39
963.32	3285.08
963.623	3227.68
963.926	3237.4
964.228	3199.66
964.531	3188.14
964.833	3168.02
965.136	3222.71
965.438	3134.13
965.741	3132.77
966.043	3125.54
966.345	3125.54
966.648	3106.56
966.95	3128.03
967.252	3079.89
967.554	3107.91
967.856	3043.73
968.158	3037.41
968.46	2999.44
968.761	3009.16
969.063	3040.34
969.365	2995.15
969.666	2949.95
969.968	2962.83
970.269	2958.76
970.571	2936.17
970.872	2935.71
971.174	2939.56
971.475	2923.74
971.776	2903.17
972.077	2892.1
972.378	2860.24
972.679	2857.52
972.98	2839.9
973.281	2797.41
973.582	2835.15
973.883	2819.11
974.183	2806.45
974.484	2758.32
974.785	2786.57
975.085	2793.8
975.386	2745.21
975.686	2691.43
975.986	2736.62
976.287	2739.11
976.587	2681.94
976.887	2713.12
977.187	2690.97
977.487	2670.41
977.787	2666.57
978.087	2635.38
978.387	2623.86
978.687	2637.87
978.987	2608.72
979.286	2568.27
979.586	2569.4
979.885	2597.64
980.185	2536.85
980.484	2556.97
980.784	2532.11
981.083	2552.45
981.382	2514.03
981.682	2543.41
981.981	2537.08
982.28	2489.4
982.579	2449.62
982.878	2465.44
983.177	2456.63
983.475	2425.9
983.774	2436.07
984.073	2418.44
984.372	2419.57
984.67	2392.9
984.969	2407.37
985.267	2385.45
985.566	2351.32
985.864	2329.63
986.162	2352.45
986.461	2294.6
986.759	2333.02
987.057	2321.27
987.355	2309.74
987.653	2308.16
987.951	2291.21
988.249	2273.13
988.547	2248.27
988.844	2243.98
989.142	2269.29
989.44	2229.97
989.737	2218.22
990.035	2184.77
990.332	2192.68
990.63	2189.74
990.927	2220.25
991.224	2177.99
991.521	2152.68
991.819	2143.19
992.116	2154.27
992.413	2140.71
992.71	2145.68
993.006	2098.9
993.303	2085.34
993.6	2110.88
993.897	2072.69
994.193	2119.46
994.49	2085.79
994.787	2076.53
995.083	2027.49
995.379	2043.76
995.676	2032.91
995.972	2012.57
996.268	1992.01
996.565	1982.07
996.861	1972.35
997.157	1987.04
997.453	1981.39
997.749	1977.77
998.044	1950.88
998.34	1925.34
998.636	1927.15
998.932	1924.44
999.227	1900.03
999.523	1891.9
999.818	1929.41
1000.114	1909.3
1000.409	1874.95
1000.704	1881.5
1001	1872.92
1001.295	1816.42
1001.59	1818.68
1001.885	1855.52
1002.18	1831.79
1002.475	1817.1
1002.77	1796.53
1003.065	1793.37
1003.359	1784.11
1003.654	1802.64
1003.949	1781.17
1004.243	1723.54
1004.538	1751.11
1004.832	1756.99
1005.127	1716.76
1005.421	1752.24
1005.715	1724.45
1006.009	1688.74
1006.304	1717.21
1006.598	1669.98
1006.892	1684.9
1007.186	1670.66
1007.48	1644.22
1007.773	1668.63
1008.067	1610.55
1008.361	1618.46
1008.655	1636.76
1008.948	1582.75
1009.242	1594.96
1009.535	1604.22
1009.829	1576.65
1010.122	1578.24
1010.415	1567.61
1010.708	1546.37
1011.001	1531.91
1011.295	1521.74
1011.588	1531
1011.881	1500.5
1012.173	1506.6
1012.466	1507.5
1012.759	1519.93
1013.052	1488.75
1013.344	1492.36
1013.637	1473.61
1013.93	1484
1014.222	1450.1
1014.514	1469.09
1014.807	1456.43
1015.099	1444.45
1015.391	1443.1
1015.683	1417.56
1015.976	1411.23
1016.268	1403.32
1016.56	1394.51
1016.851	1405.81
1017.143	1379.6
1017.435	1354.06
1017.727	1382.53
1018.018	1366.49
1018.31	1349.09
1018.602	1321.97
1018.893	1330.78
1019.185	1344.8
1019.476	1309.77
1019.767	1288.53
1020.058	1302.99
1020.35	1293.05
1020.641	1288.53
1020.932	1270.22
1021.223	1289.2
1021.514	1250.11
1021.804	1228.41
1022.095	1256.21
1022.386	1234.29
1022.677	1246.72
1022.967	1221.41
1023.258	1217.79
1023.548	1200.84
1023.839	1193.61
1024.129	1190.45
1024.419	1170.79
1024.709	1147.74
1025	1187.96
1025.29	1151.35
1025.58	1176.89
1025.87	1151.81
1026.16	1133.05
1026.449	1141.18
1026.739	1133.73
1027.029	1127.85
1027.319	1098.7
1027.608	1108.19
1027.898	1084.91
1028.187	1074.75
1028.477	1098.02
1028.766	1074.52
1029.055	1037.68
1029.344	1089.89
1029.634	1090.11
1029.923	1076.55
1030.212	1064.35
1030.501	1048.08
1030.79	1029.55
1031.078	1008.76
1031.367	1039.49
1031.656	1006.72
1031.945	991.58
1032.233	990.45
1032.522	998.36
1032.81	980.06
1033.099	982.77
1033.387	953.17
1033.675	961.98
1033.963	987.52
1034.251	932.6
1034.54	954.3
1034.828	962.21
1035.116	925.37
1035.403	938.03
1035.691	933.05
1035.979	929.21
1036.267	910
1036.554	923.79
1036.842	913.62
1037.129	908.65
1037.417	876.56
1037.704	919.5
1037.992	874.98
1038.279	864.36
1038.566	892.15
1038.853	892.15
1039.14	892.15
