Data from hue_350_FLMS001491_75.txt Node
Date: Mon Feb 06 15:38:30 GMT 2017
User: dcchb
Spectrometer: FLMS00149
Trigger mode: 0
Integration Time (sec): 2.000000E-2
Scans to average: 10
Electric dark correction enabled: true
Nonlinearity correction enabled: false
Boxcar width: 0
XAxis mode: Wavelengths
Number of Pixels in Spectrum: 2048
>>>>>Begin Spectral Data<<<<<
341.393	-19.66
341.776	-19.66
342.16	-19.66
342.543	-64.41
342.927	-80.45
343.31	-75.93
343.693	-66.89
344.077	-55.14
344.46	-75.7
344.843	-54.69
345.226	-52.65
345.61	-43.61
345.993	-19.66
346.376	-6.1
346.759	0.23
347.142	18.53
347.525	59.66
347.908	41.13
348.291	105.08
348.674	106.44
349.057	119.32
349.44	117.51
349.823	127
350.206	169.49
350.588	195.02
350.971	197.51
351.354	211.97
351.737	230.28
352.119	244.29
352.502	284.29
352.884	267.79
353.267	271.18
353.65	309.37
354.032	287.45
354.414	328.35
354.797	310.05
355.179	299.2
355.562	318.41
355.944	307.56
356.326	318.86
356.709	346.43
357.091	327
357.473	320.9
357.855	323.83
358.238	348.69
358.62	313.66
359.002	334.23
359.384	329.93
359.766	323.16
360.148	350.73
360.53	320.22
360.912	339.43
361.294	337.62
361.676	309.37
362.057	330.16
362.439	312.53
362.821	309.82
363.203	328.8
363.584	340.78
363.966	324.51
364.348	301.24
364.729	318.86
365.111	309.6
365.493	301.01
365.874	317.05
366.256	309.14
366.637	309.6
367.019	303.72
367.4	308.69
367.781	300.33
368.163	318.64
368.544	307.11
368.925	313.44
369.306	313.66
369.688	312.31
370.069	304.17
370.45	298.52
370.831	310.73
371.212	297.85
371.593	296.49
371.974	302.59
372.355	298.07
372.736	292.42
373.117	297.17
373.498	315.47
373.879	307.56
374.26	312.31
374.641	322.25
375.021	339.43
375.402	315.7
375.783	316.38
376.163	327
376.544	317.73
376.925	334.68
377.305	327.22
377.686	326.32
378.066	310.73
378.447	344.17
378.827	334.68
379.208	335.13
379.588	328.58
379.968	327
380.349	334.45
380.729	341.91
381.109	340.33
381.489	325.42
381.87	331.52
382.25	330.16
382.63	318.41
383.01	343.95
383.39	348.69
383.77	334.23
384.15	332.65
384.53	344.17
384.91	328.8
385.29	329.71
385.67	334.23
386.049	338.97
386.429	335.36
386.809	326.09
387.189	358.63
387.568	333.55
387.948	334.23
388.328	350.27
388.707	357.73
389.087	340.56
389.466	346.43
389.846	360.67
390.225	359.76
390.605	346.88
390.984	343.27
391.363	364.06
391.743	378.3
392.122	365.64
392.501	336.71
392.881	360.22
393.26	355.7
393.639	352.76
394.018	361.12
394.397	362.7
394.776	380.78
395.155	365.19
395.534	369.93
395.913	368.35
396.292	369.71
396.671	374.45
397.05	370.39
397.429	368.35
397.808	371.29
398.186	365.87
398.565	376.71
398.944	374.68
399.323	379.43
399.701	384.4
400.08	382.59
400.458	377.62
400.837	387.11
401.215	395.92
401.594	390.5
401.972	384.4
402.351	393.21
402.729	371.74
403.107	372.42
403.486	395.02
403.864	390.95
404.242	401.12
404.62	398.18
404.999	389.14
405.377	396.15
405.755	401.35
406.133	411.29
406.511	408.58
406.889	404.28
407.267	430.5
407.645	425.75
408.023	406.32
408.401	428.24
408.779	411.74
409.156	417.16
409.534	426.43
409.912	412.87
410.29	435.69
410.667	428.46
411.045	437.73
411.422	422.81
411.8	461.91
412.178	432.76
412.555	452.64
412.933	443.83
413.31	460.1
413.687	446.09
414.065	465.07
414.442	475.92
414.819	484.28
415.197	466.2
415.574	482.02
415.951	489.93
416.328	464.85
416.705	477.73
417.082	456.94
417.46	494.9
417.837	499.42
418.214	489.7
418.591	484.96
418.967	493.77
419.344	477.73
419.721	494.22
420.098	510.72
420.475	500.33
420.852	531.96
421.228	528.35
421.605	516.37
421.982	510.95
422.358	504.85
422.735	508.91
423.111	521.34
423.488	511.4
423.864	550.72
424.241	530.83
424.617	527.44
424.994	535.35
425.37	542.36
425.746	529.93
426.123	541.45
426.499	552.53
426.875	571.28
427.251	559.76
427.627	570.61
428.003	609.48
428.379	576.93
428.756	549.59
429.132	590.94
429.507	595.69
429.883	602.24
430.259	614
430.635	620.1
431.011	613.54
431.387	594.33
431.763	627.1
432.138	615.8
432.514	644.05
432.89	629.36
433.265	637.72
433.641	648.34
434.016	654.67
434.392	665.52
434.767	656.48
435.143	649.7
435.518	653.77
435.894	668.01
436.269	680.43
436.644	685.18
437.02	691.28
437.395	681.56
437.77	684.5
438.145	698.06
438.52	707.33
438.895	727.21
439.271	704.16
439.646	731.05
440.021	721.11
440.395	714.56
440.77	718.17
441.145	754.33
441.52	739.64
441.895	750.49
442.27	748.45
442.645	742.35
443.019	753.88
443.394	757.49
443.769	772.41
444.143	772.64
444.518	771.96
444.892	764.5
445.267	765.4
445.641	786.19
446.016	792.97
446.39	785.52
446.764	796.82
447.139	786.19
447.513	781.67
447.887	808.79
448.262	792.52
448.636	805.4
449.01	801.56
449.384	814.67
449.758	794.33
450.132	835.46
450.506	846.53
450.88	853.76
451.254	838.62
451.628	856.02
452.002	862.12
452.376	845.85
452.75	861.45
453.123	874.78
453.497	860.54
453.871	878.85
454.244	900.77
454.618	925.4
454.992	901.45
455.365	890.37
455.739	904.16
456.112	939.41
456.486	919.3
456.859	976.92
457.232	954.1
457.606	967.21
457.979	939.86
458.352	952.74
458.725	958.84
459.099	980.09
459.472	984.38
459.845	992.97
460.218	1010.82
460.591	1006.53
460.964	1026.41
461.337	1027.77
461.71	1039.29
462.083	1042.46
462.456	1060.09
462.829	1053.76
463.201	1071.61
463.574	1068.45
463.947	1100.99
464.32	1123.59
464.692	1107.32
465.065	1131.72
465.438	1145.51
465.81	1166.07
466.183	1187.77
466.555	1197.26
466.928	1206.52
467.3	1195.45
467.672	1203.13
468.045	1244.94
468.417	1265.5
468.789	1246.07
469.161	1236.13
469.534	1275.22
469.906	1306.41
470.278	1282.45
470.65	1322.23
471.022	1354.99
471.394	1355.22
471.766	1371.94
472.138	1413.97
472.51	1388.44
472.882	1448.1
473.253	1449
473.625	1495.33
473.997	1483.8
474.369	1502.79
474.74	1523.35
475.112	1560.86
475.484	1544.82
475.855	1585.95
476.227	1641.09
476.598	1667.3
476.97	1694.42
477.341	1729.45
477.713	1701.88
478.084	1728.99
478.455	1774.64
478.827	1798.37
479.198	1856.45
479.569	1821.87
479.94	1912.72
480.311	1895.77
480.682	1957.24
481.053	1957.69
481.424	2026.84
481.795	2052.15
482.166	2073.17
482.537	2107.97
482.908	2139.6
483.279	2165.59
483.65	2188.87
484.021	2243.78
484.391	2259.15
484.762	2328.98
485.133	2288.75
485.503	2328.75
485.874	2402.42
486.244	2425.92
486.615	2461.4
486.985	2523.1
487.356	2534.17
487.726	2584.11
488.097	2606.03
488.467	2633.15
488.837	2684.45
489.207	2696.65
489.578	2731.68
489.948	2775.07
490.318	2791.11
490.688	2833.6
491.058	2886.48
491.428	2935.74
491.798	2952.24
492.168	3041.5
492.538	3001.95
492.908	3011.9
493.278	3103.42
493.648	3106.81
494.017	3159.46
494.387	3130.99
494.757	3206.92
495.126	3203.53
495.496	3219.58
495.866	3258.9
496.235	3319.46
496.605	3296.64
496.974	3346.35
497.344	3366.47
497.713	3394.26
498.082	3423.86
498.452	3471.55
498.821	3455.05
499.19	3452.79
499.559	3501.38
499.928	3527.36
500.298	3532.56
500.667	3559.91
501.036	3573.24
501.405	3576.86
501.774	3597.65
502.143	3654.82
502.512	3657.76
502.88	3713.12
503.249	3661.6
503.618	3684.42
503.987	3730.52
504.356	3743.86
504.724	3780.01
505.093	3765.55
505.462	3778.88
505.83	3799.22
506.199	3836.51
506.567	3900.24
506.936	3908.82
507.304	3902.27
507.672	3909.95
508.041	3915.38
508.409	3968.94
508.777	4015.94
509.145	4018.2
509.514	4012.55
509.882	4029.95
510.25	4032.21
510.618	4060.46
510.986	4095.49
511.354	4092.55
511.722	4141.36
512.09	4098.2
512.458	4125.99
512.826	4207.12
513.193	4178.2
513.561	4194.92
513.929	4210.74
514.297	4278.76
514.664	4248.7
515.032	4241.47
515.4	4278.08
515.767	4277.63
516.135	4328.25
516.502	4267.23
516.869	4344.07
517.237	4355.82
517.604	4338.19
517.972	4407.12
518.339	4385.42
518.706	4424.29
519.073	4420.22
519.44	4441.69
519.808	4477.62
520.175	4398.08
520.542	4521.46
520.909	4503.61
521.276	4557.17
521.643	4537.06
522.009	4516.49
522.376	4586.32
522.743	4634
523.11	4572.08
523.477	4635.58
523.843	4650.73
524.21	4704.96
524.577	4772.3
524.943	4711.74
525.31	4802.59
525.676	4811.17
526.043	4798.29
526.409	4858.4
526.776	4885.97
527.142	4857.27
527.508	4904.05
527.874	4898.85
528.241	4958.97
528.607	4986.31
528.973	5011.17
529.339	5029.02
529.705	5032.86
530.071	5057.72
530.437	5119.64
530.803	5119.64
531.169	5160.09
531.535	5139.75
531.901	5192.63
532.267	5218.85
532.632	5248.45
532.998	5229.24
533.364	5239.64
533.73	5301.1
534.095	5325.74
534.461	5323.02
534.826	5368.22
535.192	5408.9
535.557	5424.94
535.923	5415.22
536.288	5455.68
536.653	5481.89
537.019	5469.46
537.384	5547.42
537.749	5538.39
538.114	5589.46
538.479	5533.19
538.845	5584.03
539.21	5579.29
539.575	5631.26
539.94	5672.39
540.305	5663.13
540.67	5709
541.034	5757.14
541.399	5690.7
541.764	5729.79
542.129	5756.46
542.494	5826.97
542.858	5776.35
543.223	5801.88
543.587	5861.31
543.952	5896.34
544.316	5922.33
544.681	5923.01
545.045	5927.08
545.41	5948.77
545.774	6005.72
546.138	6004.59
546.503	6002.78
546.867	6041.88
547.231	6104.02
547.595	6111.93
547.959	6118.03
548.324	6151.93
548.688	6123.68
549.052	6185.37
549.416	6176.56
549.779	6196.45
550.143	6181.31
550.507	6299.72
550.871	6293.17
551.235	6272.6
551.599	6313.05
551.962	6346.27
552.326	6371.13
552.689	6399.61
553.053	6416.55
553.417	6424.01
553.78	6448.64
554.143	6438.47
554.507	6497.68
554.87	6549.88
555.234	6602.76
555.597	6565.48
555.96	6522.09
556.323	6620.39
556.686	6599.15
557.05	6677.79
557.413	6679.82
557.776	6694.97
558.139	6689.99
558.502	6746.72
558.865	6680.5
559.228	6797.56
559.59	6794.17
559.953	6771.57
560.316	6839.59
560.679	6839.82
561.041	6875.07
561.404	6904.68
561.767	6944.68
562.129	6895.86
562.492	6965.24
562.854	6976.54
563.217	7005.69
563.579	7075.52
563.941	7071.23
564.304	7082.75
564.666	7130.89
565.028	7094.28
565.39	7162.98
565.753	7160.04
566.115	7184.44
566.477	7238.23
566.839	7321.84
567.201	7338.56
567.563	7334.5
567.925	7437.77
568.287	7309.64
568.648	7390.99
569.01	7446.58
569.372	7453.82
569.734	7472.35
570.095	7498.11
570.457	7585.79
570.819	7573.81
571.18	7597.09
571.542	7617.43
571.903	7780.36
572.265	7730.19
572.626	7789.4
572.987	7794.6
573.349	7840.92
573.71	7913.24
574.071	7947.14
574.432	7912.33
574.794	8058.09
575.155	8063.52
575.516	8098.77
575.877	8129.28
576.238	8207.69
576.599	8308.93
576.96	8339.44
577.32	8456.73
577.681	8505.09
578.042	8629.38
578.403	8631.19
578.763	8738.53
579.124	8829.6
579.485	8931.29
579.845	9003.61
580.206	9054.9
580.566	9134.45
580.927	9255.58
581.287	9385.97
581.648	9466.87
582.008	9672.74
582.368	9720.42
582.728	9815.56
583.089	10033.41
583.449	10086.29
583.809	10237.7
584.169	10457.58
584.529	10531.7
584.889	10779.38
585.249	10916.78
585.609	11029.31
585.969	11253.72
586.329	11389.98
586.688	11653.7
587.048	11813.47
587.408	11980.25
587.768	12193.8
588.127	12423.4
588.487	12601.02
588.846	12911.52
589.206	13022.26
589.565	13294.79
589.925	13631.28
590.284	13748.79
590.643	14032.85
591.003	14288.44
591.362	14641.65
591.721	14744.02
592.08	14982.88
592.44	15318.69
592.799	15572.25
593.158	15840.04
593.517	16111.21
593.876	16370.42
594.235	16597.98
594.593	16980.12
594.952	17359.32
595.311	17491.52
595.67	17726.99
596.029	18161.1
596.387	18469.8
596.746	18778.26
597.104	18940.97
597.463	19292.6
597.822	19570.78
598.18	19798.58
598.538	19975.07
598.897	20499.35
599.255	20497.77
599.613	21109.73
599.972	21169.84
600.33	21500.45
600.688	21759.2
601.046	22036.71
601.404	22414.55
601.762	22629.91
602.12	23004.59
602.478	23345.15
602.836	23468.31
603.194	23708.3
603.552	24036.2
603.91	24192.81
604.268	24579.47
604.625	24710.76
604.983	25084.31
605.341	25269.62
605.698	25567.01
606.056	25840.9
606.413	26002.03
606.771	26228.24
607.128	26707.09
607.485	26759.3
607.843	26995.22
608.2	27348.21
608.557	27602.89
608.914	27694.64
609.272	28079.94
609.629	28228.64
609.986	28564.9
610.343	28635.63
610.7	29125.11
611.057	29179.35
611.414	29366.46
611.771	29511.09
612.127	29822.27
612.484	30001.25
612.841	30276.49
613.198	30236.04
613.554	30480.78
613.911	30936.14
614.267	31038.05
614.624	31172.51
614.98	31375.22
615.337	31621.09
615.693	31786.28
616.05	31832.61
616.406	32083
616.762	32143.56
617.118	32269.43
617.475	32422.42
617.831	32710.33
618.187	32808.85
618.543	32937.67
618.899	33335.39
619.255	33343.3
619.611	33469.85
619.967	33579.91
620.323	33736.74
620.678	33800.47
621.034	33944.19
621.39	33944.87
621.746	33948.26
622.101	34470.73
622.457	34238.42
622.812	34574.68
623.168	34593.44
623.523	34672.08
623.879	34878.18
624.234	34771.97
624.589	34940.78
624.945	35205.18
625.3	35232.52
625.655	35304.38
626.01	35380.09
626.365	35392.52
626.72	35388.9
627.075	35586.18
627.43	35607.88
627.785	35639.29
628.14	35846.52
628.495	35877.7
628.85	35892.39
629.205	35832.5
629.559	36127.86
629.914	36039.73
630.269	36112.27
630.623	35966.96
630.978	35955.44
631.332	36184.59
631.687	36084.7
632.041	36124.7
632.396	36269.55
632.75	36209.44
633.104	36189.33
633.459	36224.81
633.813	36270.68
634.167	36169.9
634.521	36296.9
634.875	36475.43
635.229	36271.81
635.583	36233.17
635.937	36190.69
636.291	36242.66
636.645	36329.89
636.999	36333.51
637.352	36505.48
637.706	36199.27
638.06	36402.21
638.413	36312.72
638.767	36298.48
639.121	36355.65
639.474	36254.64
639.828	36318.82
640.181	36387.74
640.534	36257.13
640.888	36253.96
641.241	36060.52
641.594	36296.67
641.947	36337.58
642.301	36166.96
642.654	36303.68
643.007	36241.53
643.36	36261.19
643.713	36152.72
644.066	36449.44
644.419	36102.1
644.771	35916.34
645.124	35641.77
645.477	35646.97
645.83	35423.7
646.182	35183.03
646.535	35141.9
646.888	35336.47
647.24	35067.33
647.593	35353.65
647.945	35231.62
648.298	35087.21
648.65	34902.36
649.002	34862.81
649.355	35211.5
649.707	35095.12
650.059	35198.85
650.411	35568.1
650.763	35611.94
651.115	36001.09
651.467	35876.57
651.819	35964.7
652.171	35856.23
652.523	35782.56
652.875	35882.45
653.227	35714.32
653.578	35997.7
653.93	35839.96
654.282	35687.88
654.633	35719.74
654.985	35729.23
655.337	35827.08
655.688	35729.23
656.039	35860.3
656.391	35511.61
656.742	35580.53
657.094	35715.67
657.445	35734.43
657.796	35751.6
658.147	35740.53
658.498	35573.08
658.849	35603.58
659.2	35565.39
659.551	35482.68
659.902	35697.82
660.253	35577.82
660.604	35524.04
660.955	35416.92
661.306	35731.04
661.656	35520.87
662.007	35507.09
662.358	35567.88
662.708	35532.17
663.059	35490.59
663.409	35302.12
663.76	35637.48
664.11	35519.52
664.461	35510.48
664.811	35506.86
665.161	35474.77
665.511	35386.87
665.862	35447.66
666.212	35498.73
666.562	35538.27
666.912	35501.21
667.262	35432.74
667.612	35469.12
667.962	35505.73
668.312	35397.26
668.662	35529.69
669.011	35440.42
669.361	35406.98
669.711	35494.89
670.06	35383.02
670.41	35243.82
670.76	35319.52
671.109	35500.54
671.459	35371.73
671.808	35224.38
672.157	35386.64
672.507	35164.73
672.856	35165.18
673.205	35255.8
673.554	35363.14
673.904	35311.61
674.253	35435.45
674.602	35336.25
674.951	34810.38
675.3	34561.35
675.649	35161.56
675.998	35155.01
676.346	35208.11
676.695	35153.2
677.044	34989.14
677.393	35053.99
677.741	35011.96
678.09	34964.5
678.438	34952.75
678.787	34995.69
679.135	34919.76
679.484	34754.57
679.832	34903.04
680.181	34693.78
680.529	34862.81
680.877	34610.84
681.225	34680.67
681.573	34822.59
681.922	34660.56
682.27	34693.1
682.618	34568.13
682.966	34610.16
683.314	34488.81
683.661	34496.95
684.009	34321.81
684.357	34325.65
684.705	34188.03
685.053	34296.05
685.4	34051.76
685.748	34045.43
686.095	34059.67
686.443	33951.2
686.79	33846.34
687.138	33872.33
687.485	33873.01
687.832	33672.79
688.18	33771.99
688.527	33640.47
688.874	33716.18
689.221	33523.64
689.568	33417.88
689.915	33404.09
690.262	33403.87
690.609	33407.26
690.956	33241.16
691.303	33202.06
691.65	33070.32
691.997	33082.07
692.344	32960.26
692.69	32816.76
693.037	32767.5
693.383	32600.95
693.73	32657.67
694.077	32426.04
694.423	32468.52
694.769	32264.24
695.116	32446.6
695.462	32346.27
695.808	32242.77
696.155	32358.25
696.501	31972.94
696.847	31984.47
697.193	31818.6
697.539	31802.78
697.885	31642.11
698.231	31640.52
698.577	31596.23
698.923	31464.71
699.269	31332.28
699.614	31339.29
699.96	31187.43
700.306	31234.88
700.651	31135.45
700.997	31072.63
701.342	30914.44
701.688	30905.63
702.033	30862.01
702.379	30727.1
702.724	30781.34
703.069	30684.62
703.415	30345.19
703.76	30351.07
704.105	30509.48
704.45	30426.54
704.795	30122.15
705.14	30138.64
705.485	30063.16
705.83	29977.97
706.175	30052.09
706.52	29876.95
706.865	29862.27
707.209	29688.94
707.554	29652.33
707.899	29657.75
708.243	29515.16
708.588	29461.82
708.932	29325.33
709.277	29329.17
709.621	29292.79
709.966	29040.82
710.31	29168.05
710.654	28982.51
710.998	29056.41
711.342	29020.25
711.687	28836.08
712.031	28730.54
712.375	28754.27
712.719	28760.6
713.063	28627.95
713.407	28754.05
713.75	28535.07
714.094	28575.97
714.438	28486.03
714.782	28402.64
715.125	28312.02
715.469	28440.16
715.812	28306.37
716.156	28086.27
716.499	28058.25
716.843	28138.7
717.186	28065.25
717.53	28113.39
717.873	27993.16
718.216	27917.68
718.559	27818.25
718.902	27600.18
719.246	27818.93
719.589	27686.05
719.932	27585.94
720.275	27540.07
720.617	27441.99
720.96	27487.41
721.303	27455.1
721.646	27430.69
721.989	27223.24
722.331	27278.83
722.674	27327.64
723.016	27279.51
723.359	27253.97
723.701	27213.07
724.044	26971.49
724.386	26903.7
724.729	27047.65
725.071	27013.98
725.413	26965.17
725.755	26982.12
726.097	26906.41
726.439	26739.86
726.782	26743.03
727.124	26793.19
727.465	26649.02
727.807	26698.51
728.149	26552.07
728.491	26551.17
728.833	26630.71
729.175	26550.26
729.516	26433.43
729.858	26308.46
730.199	26479.76
730.541	26376.48
730.882	26202.7
731.224	26332.19
731.565	26182.14
731.906	26064.85
732.248	26149.82
732.589	26044.06
732.93	25875.93
733.271	26001.12
733.612	26098.3
733.953	26045.19
734.294	25892.65
734.635	25717.52
734.976	25851.07
735.317	25764.52
735.658	25743.28
735.999	25652.43
736.339	25616.05
736.68	25663.05
737.021	25651.98
737.361	25590.74
737.702	25622.38
738.042	25527.92
738.383	25636.39
738.723	25575.6
739.063	25441.14
739.404	25479.1
739.744	25417.41
740.084	25340.12
740.424	25270.75
740.764	25243.63
741.104	25406.79
741.444	25162.5
741.784	25122.96
742.124	25183.29
742.464	25105.55
742.804	25012.9
743.143	24938.55
743.483	25012.9
743.823	24800.03
744.162	24839.35
744.502	24923.19
744.841	24768.16
745.181	24910.98
745.52	24700.14
745.86	24762.74
746.199	24734.49
746.538	24708.05
746.877	24736.98
747.216	24752.8
747.556	24581.73
747.895	24603.19
748.234	24363.43
748.573	24422.18
748.911	24404.56
749.25	24321.17
749.589	24360.26
749.928	24408.85
750.267	24293.37
750.605	24240.49
750.944	24144
751.283	24177.44
751.621	24270.77
751.96	24059.25
752.298	24012.7
752.636	24052.47
752.975	23932.25
753.313	23848.86
753.651	23877.56
753.989	23797.57
754.327	23782.88
754.666	23671.02
755.004	23674.18
755.342	23633.73
755.679	23642.99
756.017	23538.36
756.355	23624.46
756.693	23327.97
757.031	23433.06
757.368	23298.6
757.706	23293.62
758.044	23313.29
758.381	23191.25
758.719	23106.51
759.056	23087.3
759.394	23045.04
759.731	22851.15
760.068	22877.59
760.405	22855.9
760.743	22838.04
761.08	22683.7
761.417	22636.24
761.754	22540.42
762.091	22431.95
762.428	22459.97
762.765	22281.9
763.102	22456.36
763.438	22268.57
763.775	22166.87
764.112	22235.8
764.449	22179.76
764.785	22102.02
765.122	21914.9
765.458	21883.72
765.795	21873.55
766.131	21888.24
766.467	21758.98
766.804	21585.2
767.14	21552.88
767.476	21495.03
767.812	21398.53
768.148	21504.52
768.485	21311.53
768.821	21276.28
769.157	21117.86
769.492	21151.53
769.828	21218.88
770.164	20907.47
770.5	20925.55
770.836	20909.51
771.171	20693.92
771.507	20718.1
771.842	20485.56
772.178	20614.37
772.513	20522.4
772.849	20476.75
773.184	20360.37
773.519	20415.28
773.855	20233.59
774.19	20218.23
774.525	20115.63
774.86	20129.19
775.195	20032.47
775.53	19965.12
775.865	19828.18
776.2	19664.79
776.535	19530.11
776.87	19585.02
777.205	19517.23
777.539	19451.47
777.874	19365.37
778.209	19287.4
778.543	19254.41
778.878	19139.84
779.212	19114.98
779.547	18971.7
779.881	18925.6
780.215	18916.79
780.55	18923.8
780.884	18761.09
781.218	18691.94
781.552	18768.09
781.886	18622.34
782.22	18489.91
782.554	18472.28
782.888	18276.13
783.222	18247.2
783.556	18148.9
783.889	18089.69
784.223	17999.98
784.557	17935.57
784.89	18099.86
785.224	17884.73
785.557	17884.5
785.891	17775.8
786.224	17711.17
786.558	17671.63
786.891	17595.24
787.224	17532.65
787.557	17472.76
787.891	17461.69
788.224	17389.37
788.557	17384.63
788.89	17310.96
789.223	17284.07
789.556	17140.79
789.888	17172.2
790.221	16952.77
790.554	16854.7
790.887	16877.52
791.219	16755.49
791.552	16757.53
791.884	16733.12
792.217	16710.3
792.549	16593.01
792.882	16492.22
793.214	16486.35
793.546	16420.81
793.879	16322.28
794.211	16176.52
794.543	16310.53
794.875	16190.76
795.207	16207.26
795.539	16099.92
795.871	16083.19
796.203	15967.72
796.535	15925.91
796.867	15798.23
797.198	15871.67
797.53	15796.19
797.862	15738.34
798.193	15728.85
798.525	15586.26
798.856	15670.55
799.188	15490.44
799.519	15457.67
799.85	15348.75
800.182	15311.69
800.513	15446.6
800.844	15222.2
801.175	15322.08
801.506	15293.84
801.837	15092.48
802.168	15097.91
802.499	15057.23
802.83	14926.61
803.161	15006.16
803.491	14939.27
803.822	14970.45
804.153	14864.92
804.483	14764.58
804.814	14645.04
805.145	14666.51
805.475	14534.31
805.805	14534.99
806.136	14535.66
806.466	14620.41
806.796	14473.07
807.126	14517.58
807.457	14361.43
807.787	14383.58
808.117	14287.08
808.447	14231.94
808.777	14292.51
809.107	14272.62
809.436	14136.58
809.766	14182.9
810.096	14142
810.426	14055.68
810.755	14104.49
811.085	14066.07
811.414	14008.45
811.744	13901.78
812.073	13771.39
812.403	13754.21
812.732	13691.17
813.061	13817.72
813.39	13588.12
813.719	13634.67
814.049	13712.18
814.378	13583.82
814.707	13518.74
815.036	13573.43
815.365	13521
815.693	13385.64
816.022	13404.62
816.351	13342.02
816.68	13336.15
817.008	13376.6
817.337	13201.01
817.665	13115.14
817.994	13204.4
818.322	13143.61
818.651	13099.54
818.979	13081.92
819.307	13141.8
819.636	13087.79
819.964	12937.51
820.292	13046.66
820.62	12997.4
820.948	12937.06
821.276	13036.72
821.604	12952.2
821.932	13045.76
822.259	12964.63
822.587	12902.26
822.915	12927.34
823.243	12934.12
823.57	12918.53
823.898	12939.09
824.225	12863.84
824.553	12867.46
824.88	12851.64
825.207	12851.19
825.535	12870.62
825.862	12860
826.189	12799.21
826.516	12981.81
826.843	12977.29
827.17	12888.93
827.497	12984.29
827.824	12900
828.151	12896.84
828.478	12839.44
828.805	12909.04
829.131	12854.13
829.458	12888.02
829.785	12785.43
830.111	12786.56
830.438	12820.68
830.764	12890.51
831.09	12864.29
831.417	12693.68
831.743	12881.92
832.069	12827.46
832.395	12775.26
832.722	12758.08
833.048	12719.89
833.374	12725.99
833.7	12706.56
834.026	12783.62
834.351	12677.41
834.677	12693.68
835.003	12700.68
835.329	12719.44
835.654	12742.49
835.98	12542.95
836.306	12649.84
836.631	12658.42
836.956	12569.39
837.282	12571.65
837.607	12567.35
837.932	12520.12
838.258	12535.26
838.583	12493.23
838.908	12551.53
839.233	12435.15
839.558	12426.57
839.883	12356.29
840.208	12348.6
840.533	12360.35
840.858	12361.71
841.182	12324.65
841.507	12280.58
841.832	12290.98
842.156	12237.19
842.481	12244.65
842.805	12171.43
843.13	12113.13
843.454	12160.58
843.778	12089.63
844.103	12063.64
844.427	12063.41
844.751	12014.37
845.075	12001.49
845.399	11963.3
845.723	11831.1
846.047	11949.74
846.371	11797.43
846.695	11772.57
847.019	11700.48
847.343	11669.98
847.666	11565.12
847.99	11672.46
848.313	11573.03
848.637	11494.16
848.96	11497.32
849.284	11398.8
849.607	11325.13
849.931	11363.99
850.254	11321.06
850.577	11280.61
850.9	11116.54
851.223	11179.14
851.546	11088.52
851.869	10943.67
852.192	11080.61
852.515	11017.79
852.838	10866.83
853.161	10873.61
853.483	10790.22
853.806	10761.52
854.129	10864.57
854.451	10717.01
854.774	10680.85
855.096	10591.81
855.419	10601.98
855.741	10525.37
856.063	10531.93
856.385	10540.51
856.708	10489.22
857.03	10466.62
857.352	10422.32
857.674	10404.47
857.996	10356.56
858.318	10259.62
858.64	10340.97
858.961	10318.6
859.283	10271.82
859.605	10192.05
859.926	10179.62
860.248	10174.2
860.57	10151.82
860.891	10157.92
861.212	10067.53
861.534	10060.3
861.855	10037.93
862.176	10043.35
862.498	10065.05
862.819	10024.14
863.14	9980.53
863.461	9915.67
863.782	9855.11
864.103	9899.17
864.424	9900.53
864.745	9931.26
865.065	9841.78
865.386	9773.3
865.707	9820.08
866.027	9770.59
866.348	9726.75
866.668	9751.38
866.989	9721.55
867.309	9644.04
867.63	9705.06
867.95	9673.42
868.27	9651.27
868.59	9602.23
868.91	9675.9
869.23	9652.85
869.55	9552.07
869.87	9618.5
870.19	9592.97
870.51	9602.69
870.83	9551.39
871.15	9550.48
871.469	9521.78
871.789	9534.89
872.109	9516.59
872.428	9504.61
872.748	9467.32
873.067	9458.06
873.386	9404.95
873.706	9396.82
874.025	9338.29
874.344	9319.53
874.663	9300.32
874.982	9368.12
875.301	9344.84
875.62	9263.71
875.939	9232.07
876.258	9279.98
876.577	9239.53
876.896	9220.55
877.214	9190.49
877.533	9222.36
877.852	9193.66
878.17	9206.54
878.489	9193.43
878.807	9178.29
879.125	9127.9
879.444	9095.81
879.762	9082.47
880.08	9072.53
880.398	9062.13
880.716	9077.73
881.034	9042.47
881.352	9006.77
881.67	9040.89
881.988	9037.5
882.306	8986.43
882.624	8999.54
882.941	8897.85
883.259	8889.48
883.577	8914.34
883.894	8875.92
884.212	8817.85
884.529	8821.91
884.846	8774.23
885.164	8780.56
885.481	8783.95
885.798	8795.7
886.115	8702.6
886.432	8708.47
886.75	8657.4
887.067	8686.1
887.383	8598.42
887.7	8601.58
888.017	8603.84
888.334	8621.02
888.651	8567.68
888.967	8538.08
889.284	8545.76
889.6	8463.28
889.917	8383.51
890.233	8446.56
890.55	8417.18
890.866	8366.11
891.182	8385.09
891.498	8349.38
891.815	8300.35
892.131	8264.42
892.447	8248.82
892.763	8240.01
893.079	8213.8
893.395	8197.75
893.71	8226.22
894.026	8154.59
894.342	8094.48
894.657	8070.97
894.973	8089.28
895.289	8019.68
895.604	8035.95
895.92	8011.77
896.235	7945.33
896.55	7926.57
896.865	7898.1
897.181	7877.53
897.496	7823.98
897.811	7821.04
898.126	7768.38
898.441	7764.77
898.756	7788.95
899.071	7767.48
899.386	7733.81
899.7	7667.82
900.015	7620.14
900.33	7639.57
900.644	7594.6
900.959	7585.79
901.273	7490.2
901.588	7537.2
901.902	7465.34
902.216	7455.4
902.531	7440.93
902.845	7359.58
903.159	7413.82
903.473	7384.66
903.787	7320.26
904.101	7273.03
904.415	7296.98
904.729	7236.65
905.042	7235.74
905.356	7190.77
905.67	7193.03
905.984	7200.26
906.297	7092.47
906.611	7081.4
906.924	7066.48
907.237	7023.77
907.551	7029.42
907.864	7000.04
908.177	6987.61
908.491	6947.61
908.804	6936.54
909.117	6911.91
909.43	6818.8
909.743	6758.24
910.056	6781.29
910.368	6780.16
910.681	6720.73
910.994	6698.35
911.307	6668.3
911.619	6620.84
911.932	6647.73
912.244	6594.63
912.557	6533.39
912.869	6542.88
913.181	6555.53
913.494	6503.78
913.806	6457.68
914.118	6455.42
914.43	6421.53
914.742	6368.19
915.054	6357.35
915.366	6338.36
915.678	6282.55
915.99	6286.61
916.302	6201.87
916.613	6202.1
916.925	6207.29
917.236	6146.96
917.548	6066.28
917.859	6134.75
918.171	6033.51
918.482	6109.67
918.794	6072.61
919.105	6074.42
919.416	5990.58
919.727	6000.29
920.038	6024.02
920.349	5910.13
920.66	5925.49
920.971	5905.61
921.282	5870.13
921.593	5805.95
921.903	5756.68
922.214	5768.44
922.525	5789.45
922.835	5739.74
923.146	5702.9
923.456	5685.27
923.767	5697.7
924.077	5643.02
924.387	5645.28
924.697	5586.07
925.008	5579.51
925.318	5524.37
925.628	5530.02
925.938	5511.04
926.248	5475.34
926.558	5445.28
926.867	5415.68
927.177	5440.76
927.487	5383.14
927.796	5335
928.106	5374.1
928.416	5356.02
928.725	5296.81
929.034	5255.91
929.344	5287.77
929.653	5240.77
929.962	5191.28
930.271	5177.04
930.581	5157.38
930.89	5139.07
931.199	5088.91
931.508	5118.06
931.817	5089.36
932.125	5026.53
932.434	5058.4
932.743	5019.76
933.051	4938.85
933.36	4963.26
933.669	4953.99
933.977	4891.85
934.286	4961.45
934.594	4903.15
934.902	4857.95
935.21	4816.14
935.519	4824.96
935.827	4793.77
936.135	4808.91
936.443	4781.34
936.751	4746.09
937.059	4741.12
937.367	4726.88
937.674	4701.57
937.982	4690.05
938.29	4643.04
938.597	4636.71
938.905	4633.1
939.213	4575.25
939.52	4559.88
939.827	4558.98
940.135	4519.88
940.442	4509.03
940.749	4438.75
941.056	4531.41
941.363	4476.49
941.67	4527.34
941.977	4418.19
942.284	4403.05
942.591	4379.55
942.898	4318.98
943.205	4338.19
943.511	4328.7
943.818	4325.31
944.125	4252.32
944.431	4248.7
944.738	4278.31
945.044	4198.99
945.35	4277.18
945.657	4178.87
945.963	4196.95
946.269	4124.19
946.575	4156.73
946.881	4095.94
947.187	4127.58
947.493	4083.06
947.799	4091.87
948.105	4050.06
948.41	4003.51
948.716	3980.23
949.022	4002.83
949.327	3999.44
949.633	3987.01
949.938	3936.85
950.244	3926
950.549	3914.02
950.854	3901.37
951.16	3911.31
951.465	3885.1
951.77	3870.18
952.075	3849.39
952.38	3793.8
952.685	3810.75
952.99	3780.47
953.294	3748.6
953.599	3758.32
953.904	3728.04
954.209	3752.67
954.513	3695.72
954.818	3690.07
955.122	3677.19
955.426	3717.42
955.731	3639.9
956.035	3608.49
956.339	3582.73
956.643	3611.2
956.948	3549.51
957.252	3588.83
957.556	3523.75
957.86	3543.18
958.163	3553.35
958.467	3533.01
958.771	3509.96
959.075	3495.5
959.378	3443.75
959.682	3446.01
959.985	3412.34
960.289	3363.98
960.592	3422.28
960.896	3401.94
961.199	3354.71
961.502	3377.09
961.805	3416.86
962.108	3314.26
962.411	3292.57
962.714	3272.23
963.017	3291.21
963.32	3301.38
963.623	3270.65
963.926	3252.12
964.228	3252.57
964.531	3209.41
964.833	3183.87
965.136	3187.03
965.438	3216.41
965.741	3188.62
966.043	3112.46
966.345	3175.74
966.648	3097.77
966.95	3104.78
967.252	3100.71
967.554	3095.96
967.856	3048.73
968.158	3041.73
968.46	3018.68
968.761	3037.89
969.063	3031.78
969.365	3028.17
969.666	2994.72
969.968	2959.7
970.269	2968.74
970.571	2966.93
970.872	2941.39
971.174	2963.31
971.475	2893.48
971.776	2894.84
972.077	2865.24
972.378	2890.55
972.679	2879.02
972.98	2859.59
973.281	2830.21
973.582	2840.15
973.883	2832.02
974.183	2800.38
974.484	2762.87
974.785	2767.16
975.085	2748.4
975.386	2731.23
975.686	2722.19
975.986	2739.36
976.287	2735.97
976.587	2699.82
976.887	2695.75
977.187	2666.37
977.487	2681.29
977.787	2620.04
978.087	2671.34
978.387	2649.87
978.687	2619.59
978.987	2630.67
979.286	2634.51
979.586	2612.59
979.885	2588.18
980.185	2554.06
980.484	2543.66
980.784	2574.85
981.083	2535.53
981.382	2508.18
981.682	2523.32
981.981	2500.73
982.28	2476.09
982.579	2487.17
982.878	2477.45
983.177	2479.71
983.475	2486.04
983.774	2440.16
984.073	2421.18
984.372	2424.12
984.67	2400.39
984.969	2388.86
985.267	2397.23
985.566	2351.58
985.864	2350.22
986.162	2364.91
986.461	2328.07
986.759	2361.97
987.057	2310.22
987.355	2319.71
987.653	2282.88
987.951	2316.55
988.249	2309.54
988.547	2273.39
988.844	2269.77
989.142	2259.83
989.44	2263.67
989.737	2229.55
990.035	2197.23
990.332	2215.76
990.63	2192.26
990.927	2207.85
991.224	2236.33
991.521	2176.89
991.819	2181.86
992.116	2128.76
992.413	2154.75
992.71	2141.64
993.006	2130.57
993.303	2106.16
993.6	2093.96
993.897	2085.14
994.193	2103
994.49	2102.54
994.787	2074.75
995.083	2083.11
995.379	2044.01
995.676	2040.62
995.972	2026.39
996.268	2009.44
996.565	2011.92
996.861	2012.6
997.157	1973.51
997.453	1975.77
997.749	1976.67
998.044	1953.85
998.34	1951.36
998.636	1951.14
998.932	1946.16
999.227	1910.91
999.523	1967.41
999.818	1937.35
1000.114	1905.26
1000.409	1897.13
1000.704	1864.81
1001	1848.09
1001.295	1847.18
1001.59	1834.53
1001.885	1857.8
1002.18	1821.2
1002.475	1823.91
1002.77	1810.35
1003.065	1788.65
1003.359	1780.07
1003.654	1812.16
1003.949	1754.08
1004.243	1787.75
1004.538	1733.06
1004.832	1767.64
1005.127	1744.36
1005.421	1739.62
1005.715	1711.82
1006.009	1721.54
1006.304	1669.33
1006.598	1688.32
1006.892	1699.16
1007.186	1667.07
1007.48	1685.15
1007.773	1648.54
1008.067	1636.57
1008.361	1642.67
1008.655	1611.94
1008.948	1597.47
1009.242	1588.66
1009.535	1592.73
1009.829	1573.74
1010.122	1561.99
1010.415	1563.57
1010.708	1539.85
1011.001	1575.1
1011.295	1535.78
1011.588	1560.18
1011.881	1512.05
1012.173	1521.09
1012.466	1517.47
1012.759	1497.14
1013.052	1513.63
1013.344	1487.19
1013.637	1491.03
1013.93	1461.2
1014.222	1480.19
1014.514	1431.15
1014.807	1448.55
1015.099	1439.96
1015.391	1423.01
1015.683	1447.87
1015.976	1404.48
1016.268	1407.65
1016.56	1397.93
1016.851	1393.64
1017.143	1413.3
1017.435	1369.46
1017.727	1338.04
1018.018	1359.51
1018.31	1339.85
1018.602	1336.24
1018.893	1328.1
1019.185	1322.45
1019.476	1329.91
1019.767	1341.43
1020.058	1314.99
1020.35	1295.79
1020.641	1300.08
1020.932	1291.49
1021.223	1276.8
1021.514	1252.4
1021.804	1250.59
1022.095	1241.32
1022.386	1240.87
1022.677	1254.2
1022.967	1211.95
1023.258	1193.19
1023.548	1220.98
1023.839	1204.94
1024.129	1185.05
1024.419	1193.64
1024.709	1195.67
1025	1168.33
1025.29	1180.31
1025.58	1169.91
1025.87	1167.88
1026.16	1146.86
1026.449	1143.25
1026.739	1120.65
1027.029	1106.64
1027.319	1105.06
1027.608	1103.25
1027.898	1103.02
1028.187	1096.69
1028.477	1077.71
1028.766	1072.74
1029.055	1081.55
1029.344	1070.71
1029.634	1063.25
1029.923	1033.87
1030.212	1062.34
1030.501	1030.48
1030.79	1049.24
1031.078	1021.67
1031.367	1019.18
1031.656	995.45
1031.945	996.58
1032.233	1010.14
1032.522	998.84
1032.81	969.01
1033.099	993.65
1033.387	977.6
1033.675	967.88
1033.963	982.35
1034.251	973.08
1034.54	971.95
1034.828	950.71
1035.116	947.77
1035.403	935.79
1035.691	921.78
1035.979	918.85
1036.267	929.47
1036.554	931.27
1036.842	901.45
1037.129	924.72
1037.417	885.85
1037.704	898.51
1037.992	895.8
1038.279	882.91
1038.566	894.89
1038.853	894.89
1039.14	894.89
