Data from hue_350_FLMS001491_28.txt Node
Date: Mon Feb 06 15:37:48 GMT 2017
User: dcchb
Spectrometer: FLMS00149
Trigger mode: 0
Integration Time (sec): 2.000000E-2
Scans to average: 10
Electric dark correction enabled: true
Nonlinearity correction enabled: false
Boxcar width: 0
XAxis mode: Wavelengths
Number of Pixels in Spectrum: 2048
>>>>>Begin Spectral Data<<<<<
341.393	1.54
341.776	1.54
342.16	1.54
342.543	-49.53
342.927	-86.59
343.31	-76.65
343.693	-58.35
344.077	-66.03
344.46	-74.39
344.843	-54.28
345.226	-51.57
345.61	-37.56
345.993	-3.88
346.376	4.03
346.759	11.93
347.142	25.04
347.525	46.51
347.908	63.23
348.291	79.5
348.674	96.45
349.057	96
349.44	113.4
349.823	148.2
350.206	152.5
350.588	200.63
350.971	216
351.354	237.47
351.737	219.39
352.119	243.34
352.502	251.02
352.884	263.45
353.267	280.63
353.65	295.54
354.032	305.71
354.414	283.11
354.797	304.58
355.179	317.92
355.562	332.6
355.944	313.62
356.326	330.12
356.709	308.42
357.091	335.99
357.473	334.19
357.855	346.62
358.238	324.24
358.62	335.77
359.002	342.1
359.384	316.79
359.766	319.95
360.148	331.02
360.53	333.28
360.912	355.65
361.294	346.39
361.676	324.24
362.057	304.81
362.439	336.45
362.821	321.98
363.203	290.12
363.584	339.84
363.966	325.6
364.348	322.21
364.729	333.96
365.111	302.55
365.493	297.12
365.874	298.25
366.256	311.59
366.637	308.2
367.019	301.19
367.4	313.17
367.781	306.16
368.163	298.71
368.544	316.56
368.925	308.88
369.306	324.92
369.688	324.92
370.069	317.69
370.45	307.97
370.831	314.07
371.212	312.27
371.593	296.67
371.974	296.22
372.355	321.76
372.736	314.07
373.117	306.84
373.498	309.55
373.879	305.26
374.26	296
374.641	313.62
375.021	321.08
375.402	301.64
375.783	296.22
376.163	309.33
376.544	305.26
376.925	331.93
377.305	319.05
377.686	310.01
378.066	341.87
378.447	342.77
378.827	295.77
379.208	316.33
379.588	318.59
379.968	338.03
380.349	321.53
380.729	345.26
381.109	313.85
381.489	309.78
381.87	320.85
382.25	334.64
382.63	345.26
383.01	319.5
383.39	328.99
383.77	335.09
384.15	332.38
384.53	317.69
384.91	354.75
385.29	342.1
385.67	357.69
386.049	354.52
386.429	319.95
386.809	344.58
387.189	349.1
387.568	356.78
387.948	334.19
388.328	352.26
388.707	327.86
389.087	345.71
389.466	327.41
389.846	336.67
390.225	350.68
390.605	380.96
390.984	331.47
391.363	366.05
391.743	350
392.122	348.65
392.501	339.16
392.881	357.91
393.26	367.63
393.639	345.94
394.018	367.63
394.397	376.22
394.776	357.46
395.155	357.01
395.534	344.81
395.913	346.39
396.292	385.48
396.671	395.43
397.05	356.56
397.429	364.47
397.808	363.79
398.186	382.09
398.565	357.46
398.944	350.46
399.323	365.37
399.701	367.86
400.08	396.11
400.458	390
400.837	375.77
401.215	380.74
401.594	382.77
401.972	379.16
402.351	395.2
402.729	387.74
403.107	401.08
403.486	388.42
403.864	383
404.242	429.1
404.62	398.14
404.999	394.98
405.377	406.95
405.755	400.63
406.133	380.96
406.511	410.12
406.889	413.28
407.267	400.63
407.645	424.81
408.023	410.79
408.401	432.04
408.779	442.66
409.156	407.4
409.534	433.39
409.912	432.04
410.29	428.65
410.667	413.51
411.045	467.29
411.422	439.04
411.8	431.58
412.178	421.87
412.555	451.47
412.933	457.12
413.31	448.08
413.687	462.77
414.065	481.53
414.442	442.88
414.819	484.01
415.197	470.91
415.574	463.9
415.951	477.91
416.328	489.66
416.705	476.1
417.082	477.46
417.46	471.58
417.837	492.6
418.214	487.85
418.591	497.57
418.967	514.29
419.344	507.51
419.721	521.98
420.098	523.33
420.475	527.63
420.852	505.03
421.228	529.44
421.605	541.41
421.982	513.84
422.358	528.31
422.735	542.09
423.111	556.78
423.488	558.36
423.864	561.98
424.241	541.64
424.617	555.65
424.994	558.14
425.37	573.05
425.746	568.53
426.123	559.72
426.499	580.28
426.875	566.95
427.251	575.31
427.627	591.81
428.003	593.84
428.379	610.11
428.756	602.2
429.132	599.49
429.507	635.2
429.883	613.95
430.259	619.83
430.635	623.44
431.011	603.56
431.387	633.61
431.763	647.85
432.138	625.48
432.514	640.62
432.89	638.58
433.265	665.02
433.641	654.18
434.016	686.27
434.392	685.36
434.767	699.15
435.143	680.39
435.518	712.48
435.894	699.37
436.269	721.07
436.644	718.58
437.02	703.22
437.395	717.45
437.77	710.67
438.145	708.64
438.52	729.88
438.895	742.09
439.271	725.81
439.646	745.93
440.021	747.51
440.395	761.29
440.77	746.83
441.145	766.72
441.52	786.15
441.895	784.12
442.27	765.36
442.645	781.86
443.019	782.54
443.394	780.95
443.769	812.59
444.143	794.29
444.518	785.93
444.892	806.04
445.267	808.75
445.641	793.16
446.016	838.58
446.39	828.86
446.764	811.01
447.139	811.91
447.513	824.34
447.887	849.43
448.262	832.48
448.636	862.53
449.01	868.64
449.384	845.81
449.758	891.23
450.132	870.22
450.506	853.27
450.88	874.28
451.254	844
451.628	907.28
452.002	904.79
452.376	900.72
452.75	907.96
453.123	897.79
453.497	909.76
453.871	904.79
454.244	952.25
454.618	939.82
454.992	949.76
455.365	942.31
455.739	931.91
456.112	959.93
456.486	989.54
456.859	974.17
457.232	1007.61
457.606	996.32
457.979	1003.1
458.352	1034.73
458.725	1015.3
459.099	1008.52
459.472	1059.36
459.845	1045.13
460.218	1055.52
460.591	1084
460.964	1064.11
461.337	1098.46
461.71	1117.22
462.083	1109.08
462.456	1137.33
462.829	1127.84
463.201	1149.08
463.574	1153.83
463.947	1154.05
464.32	1182.98
464.692	1196.08
465.065	1156.31
465.438	1219.59
465.81	1258.68
466.183	1224.33
466.555	1246.93
466.928	1244.22
467.3	1244.22
467.672	1291.9
468.045	1329.19
468.417	1314.27
468.789	1309.08
469.161	1330.09
469.534	1335.97
469.906	1389.98
470.278	1368.28
470.65	1396.98
471.022	1422.07
471.394	1440.6
471.766	1486.25
472.138	1470.2
472.51	1528.51
472.882	1517.88
473.253	1503.19
473.625	1564.21
473.997	1582.97
474.369	1601.5
474.74	1629.97
475.112	1640.59
475.484	1674.49
475.855	1770.98
476.227	1736.41
476.598	1759.91
476.97	1753.58
477.341	1771.66
477.713	1835.39
478.084	1863.86
478.455	1910.64
478.827	1910.87
479.198	1986.35
479.569	1951.54
479.94	2038.55
480.311	2019.11
480.682	2082.39
481.053	2132.33
481.424	2168.49
481.795	2162.61
482.166	2194.25
482.537	2225.21
482.908	2288.03
483.279	2323.29
483.65	2358.09
484.021	2386.34
484.391	2412.1
484.762	2452.77
485.133	2476.95
485.503	2532.32
485.874	2548.14
486.244	2566.67
486.615	2643.73
486.985	2654.35
487.356	2732.99
487.726	2708.36
488.097	2781.13
488.467	2793.33
488.837	2871.97
489.207	2921.24
489.578	2994.91
489.948	2978.64
490.318	2982.93
490.688	3026.09
491.058	3088.92
491.428	3121.01
491.798	3176.37
492.168	3198.74
492.538	3210.04
492.908	3302.24
493.278	3285.07
493.648	3350.83
494.017	3340.89
494.387	3407.1
494.757	3410.72
495.126	3477.38
495.496	3487.32
495.866	3500.88
496.235	3567.55
496.605	3514.22
496.974	3597.15
497.344	3593.99
497.713	3645.96
498.082	3699.3
498.452	3719.41
498.821	3725.96
499.19	3724.15
499.559	3746.53
499.928	3791.27
500.298	3800.54
500.667	3824.49
501.036	3863.13
501.405	3888.67
501.774	3902.45
502.143	3934.09
502.512	3947.42
502.88	3994.65
503.249	3978.61
503.618	3979.74
503.987	3974.32
504.356	4054.31
504.724	4047.99
505.093	4083.92
505.462	4133.86
505.83	4161.43
506.199	4165.72
506.567	4210.24
506.936	4207.76
507.304	4202.78
507.672	4265.16
508.041	4299.73
508.409	4252.05
508.777	4316
509.145	4353.29
509.514	4288.21
509.882	4362.55
510.25	4323.46
510.618	4378.6
510.986	4407.98
511.354	4479.16
511.722	4475.55
512.09	4479.84
512.458	4461.54
512.826	4492.04
513.193	4532.04
513.561	4520.97
513.929	4571.14
514.297	4619.05
514.664	4640.74
515.032	4600.74
515.4	4713.51
515.767	4644.13
516.135	4667.63
516.502	4644.36
516.869	4749.44
517.237	4719.61
517.604	4711.7
517.972	4751.47
518.339	4775.43
518.706	4777.23
519.073	4801.41
519.44	4816.78
519.808	4870.11
520.175	4827.85
520.542	4928.64
520.909	4939.71
521.276	4875.99
521.643	5027.85
522.009	5005.48
522.376	5012.93
522.743	5026.27
523.11	5077.11
523.477	5084.12
523.843	5122.76
524.21	5146.49
524.577	5214.74
524.943	5137
525.31	5221.06
525.676	5231.91
526.043	5286.82
526.409	5306.71
526.776	5379.25
527.142	5283.21
527.508	5392.13
527.874	5369.99
528.241	5420.15
528.607	5472.58
528.973	5482.75
529.339	5500.15
529.705	5490.21
530.071	5582.41
530.437	5642.3
530.803	5636.19
531.169	5665.57
531.535	5623.54
531.901	5666.93
532.267	5702.63
532.632	5767.04
532.998	5730.2
533.364	5747.6
533.73	5847.04
534.095	5833.25
534.461	5855.85
534.826	5968.61
535.192	5908.05
535.557	5926.58
535.923	5948.95
536.288	5919.8
536.653	5964.09
537.019	6021.27
537.384	6041.38
537.749	6004.32
538.114	6102.62
538.479	6117.54
538.845	6156.18
539.21	6107.82
539.575	6148.27
539.94	6162.96
540.305	6228.95
540.67	6250.87
541.034	6250.19
541.399	6278.89
541.764	6293.58
542.129	6375.38
542.494	6335.38
542.858	6413.35
543.223	6368.83
543.587	6485.89
543.952	6453.8
544.316	6524.98
544.681	6491.09
545.045	6542.16
545.41	6573.34
545.774	6540.35
546.138	6552.55
546.503	6629.61
546.867	6679.56
547.231	6701.48
547.595	6663.29
547.959	6703.06
548.324	6801.59
548.688	6802.49
549.052	6778.08
549.416	6774.24
549.779	6824.86
550.143	6782.6
550.507	6860.79
550.871	6969.72
551.235	6887.69
551.599	6947.12
551.962	6984.86
552.326	7021.47
552.689	7028.7
553.053	7030.51
553.417	7081.81
553.78	7120.67
554.143	7080
554.507	7155.25
554.87	7105.31
555.234	7200.9
555.597	7162.48
555.96	7206.1
556.323	7277.28
556.686	7210.16
557.05	7291.97
557.413	7283.61
557.776	7333.32
558.139	7414.9
558.502	7420.1
558.865	7369.48
559.228	7444.51
559.59	7529.25
559.953	7486.99
560.316	7557.27
560.679	7502.81
561.041	7579.87
561.404	7590.04
561.767	7663.26
562.129	7654.22
562.492	7679.98
562.854	7687.89
563.217	7702.13
563.579	7705.07
563.941	7863.25
564.304	7833.42
564.666	7875.68
565.028	7848.34
565.39	7947.77
565.753	7968.79
566.115	7988
566.477	8014.21
566.839	8028.22
567.201	8049.24
567.563	8029.35
567.925	8071.61
568.287	8157.71
568.648	8147.77
569.01	8147.31
569.372	8235.9
569.734	8184.15
570.095	8313.19
570.457	8400.19
570.819	8330.36
571.18	8387.99
571.542	8410.36
571.903	8477.02
572.265	8503.91
572.626	8536.46
572.987	8584.59
573.349	8642.44
573.71	8731.93
574.071	8749.56
574.432	8814.19
574.794	8902.55
575.155	8914.3
575.516	8874.07
575.877	8972.83
576.238	9041.53
576.599	9108.42
576.96	9184.12
577.32	9166.72
577.681	9256.44
578.042	9397.22
578.403	9470.67
578.763	9538.92
579.124	9588.63
579.485	9727.84
579.845	9840.83
580.206	9859.36
580.566	9949.98
580.927	10179.58
581.287	10210.99
581.648	10309.52
582.008	10555.61
582.368	10639.68
582.728	10764.19
583.089	10846.45
583.449	11011.87
583.809	11176.84
584.169	11328.25
584.529	11522.14
584.889	11662.7
585.249	11817.95
585.609	11905.86
585.969	12159.86
586.329	12343.81
586.688	12543.36
587.048	12738.83
587.408	12915.78
587.768	13072.16
588.127	13247.07
588.487	13481.41
588.846	13902.19
589.206	13977.44
589.565	14270.99
589.925	14508.95
590.284	14665.11
590.643	15037.75
591.003	15274.81
591.362	15435.26
591.721	15698.53
592.08	16014.45
592.44	16228.23
592.799	16593.87
593.158	16782.57
593.517	17084.25
593.876	17327.41
594.235	17647.18
594.593	17950.45
594.952	18214.62
595.311	18418.68
595.67	18795.4
596.029	19170.75
596.387	19389.5
596.746	19700.46
597.104	19889.15
597.463	20120.11
597.822	20446.65
598.18	20699.3
598.538	21051.83
598.897	21396.23
599.255	21476
599.613	22106.95
599.972	22208.41
600.33	22432.14
600.688	22717.1
601.046	23080.71
601.404	23363.41
601.762	23638.21
602.12	24005.65
602.478	24124.3
602.836	24480.67
603.194	24628.01
603.552	24809.93
603.91	25076.59
604.268	25421.21
604.625	25540.3
604.983	25925.38
605.341	26071.36
605.698	26415.53
606.056	26709.09
606.413	26770.1
606.771	27058.23
607.128	27484.21
607.485	27507.26
607.843	27770.07
608.2	28080.35
608.557	28340.46
608.914	28544.74
609.272	28879.88
609.629	29001.23
609.986	29280.77
610.343	29392.86
610.7	29868.1
611.057	29996.46
611.414	30107.19
611.771	30253.85
612.127	30484.58
612.484	30635.54
612.841	30939.26
613.198	30981.06
613.554	31212.02
613.911	31553.48
614.267	31639.8
614.624	31787.14
614.98	32024.88
615.337	32242.27
615.693	32325.89
616.05	32439.78
616.406	32768.14
616.762	32718.65
617.118	32879.55
617.475	33002.03
617.831	33295.58
618.187	33420.55
618.543	33545.29
618.899	33846.07
619.255	33898.05
619.611	33928.78
619.967	34213.3
620.323	34389.11
620.678	34266.85
621.034	34456.23
621.39	34425.95
621.746	34542.78
622.101	35058.24
622.457	34897.35
622.812	35008.75
623.168	35234.74
623.523	35243.78
623.879	35376.2
624.234	35234.51
624.589	35457.56
624.945	35648.74
625.3	35611
625.655	35712.69
626.01	35799.24
626.365	35955.62
626.72	35838.56
627.075	35983.87
627.43	35989.75
627.785	36068.84
628.14	36227.03
628.495	36243.98
628.85	36379.34
629.205	36147.48
629.559	36395.16
629.914	36345.22
630.269	36477.19
630.623	36417.53
630.978	36410.07
631.332	36427.25
631.687	36756.51
632.041	36549.28
632.396	36747.47
632.75	36495.72
633.104	36665.66
633.459	36543.86
633.813	36713.57
634.167	36549.28
634.521	36687.58
634.875	36742.27
635.229	36673.12
635.583	36646.9
635.937	36766
636.291	36787.46
636.645	36733
636.999	36705.43
637.352	36882.38
637.706	36683.06
638.06	36942.49
638.413	36702.5
638.767	36676.73
639.121	36746.34
639.474	36610.52
639.828	36628.6
640.181	36690.74
640.534	36749.73
640.888	36564.65
641.241	36409.17
641.594	36528.71
641.947	36602.61
642.301	36642.16
642.654	36678.54
643.007	36576.62
643.36	36590.18
643.713	36403.29
644.066	36718.99
644.419	36436.29
644.771	36373.69
645.124	36083.08
645.477	35866.81
645.83	35855.51
646.182	35505.01
646.535	35509.98
646.888	35619.36
647.24	35296.43
647.593	35590.21
647.945	35483.32
648.298	35407.39
648.65	35293.27
649.002	35279.48
649.355	35340.05
649.707	35303.89
650.059	35474.51
650.411	35861.84
650.763	36004.66
651.115	36449.17
651.467	36176.63
651.819	36087.6
652.171	36163.3
652.523	36018.22
652.875	36034.72
653.227	35939.8
653.578	36285.33
653.93	36140.48
654.282	36042.17
654.633	36016.41
654.985	36018.67
655.337	35981.61
655.688	36032
656.039	36241.49
656.391	35872.91
656.742	35913.59
657.094	36092.57
657.445	36105
657.796	35933.7
658.147	35917.43
658.498	35931.44
658.849	35945.45
659.2	35949.97
659.551	35858.68
659.902	35977.54
660.253	35876.3
660.604	35976.86
660.955	35789.07
661.306	35841.28
661.656	35819.13
662.007	35719.47
662.358	35872.01
662.708	35888.51
663.059	35787.49
663.409	35628.17
663.76	35806.02
664.11	35719.47
664.461	35796.08
664.811	35793.59
665.161	35739.36
665.511	35696.42
665.862	35784.55
666.212	35949.29
666.562	35763.99
666.912	35662.75
667.262	35617.1
667.612	35852.12
667.962	35740.03
668.312	35628.17
668.662	35921.72
669.011	35758.79
669.361	35857.09
669.711	35735.52
670.06	35489.65
670.41	35592.92
670.76	35546.37
671.109	35644.44
671.459	35624.56
671.808	35520.61
672.157	35558.12
672.507	35345.69
672.856	35340.95
673.205	35540.04
673.554	35496.43
673.904	35447.84
674.253	35663.88
674.602	35554.95
674.951	35036.78
675.3	34804.92
675.649	35391.12
675.998	35255.75
676.346	35350.44
676.695	35441.96
677.044	35328.52
677.393	35241.97
677.741	35254.4
678.09	35270.67
678.438	35206.04
678.787	35182.99
679.135	35261.4
679.484	34969.89
679.832	35234.74
680.181	34871.81
680.529	35130.56
680.877	34964.46
681.225	34945.25
681.573	35154.06
681.922	34874.07
682.27	34745.94
682.618	34852.15
682.966	34850.79
683.314	34734.64
683.661	34725.15
684.009	34565.83
684.357	34420.07
684.705	34496.68
685.053	34447.41
685.4	34423.46
685.748	34241.32
686.095	34250.13
686.443	34156.8
686.79	34204.93
687.138	34152.51
687.485	34104.6
687.832	33971.49
688.18	34082
688.527	33808.33
688.874	33738.51
689.221	33811.95
689.568	33675
689.915	33577.83
690.262	33583.71
690.609	33591.16
690.956	33476.14
691.303	33410.15
691.65	33186.2
691.997	33243.38
692.344	32947.11
692.69	33016.04
693.037	33005.87
693.383	32811.75
693.73	32924.52
694.077	32691.08
694.423	32674.58
694.769	32621.92
695.116	32529.5
695.462	32560.68
695.808	32327.7
696.155	32439.56
696.501	32174.7
696.847	32268.26
697.193	31988.27
697.539	32046.35
697.885	31814.26
698.231	31800.48
698.577	31877.09
698.923	31610.43
699.269	31524.1
699.614	31516.42
699.96	31440.71
700.306	31350.77
700.651	31255.86
700.997	31239.59
701.342	31187.61
701.688	30981.52
702.033	30891.57
702.379	30794.4
702.724	30693.16
703.069	30824.01
703.415	30602.99
703.76	30549.66
704.105	30542.43
704.45	30390.8
704.795	30373.17
705.14	30290.69
705.485	30198.26
705.83	30094.31
706.175	30117.81
706.52	30057.47
706.865	29932.5
707.209	29893.86
707.554	29762.56
707.899	29777.03
708.243	29672.17
708.588	29679.18
708.932	29463.59
709.277	29509.24
709.621	29323.48
709.966	29342.01
710.31	29314.44
710.654	29236.03
710.998	29197.16
711.342	29200.77
711.687	29110.15
712.031	28937.28
712.375	28761.01
712.719	28946.99
713.063	28853.44
713.407	28906.77
713.75	28696.83
714.094	28634.01
714.438	28699.32
714.782	28660.22
715.125	28395.37
715.469	28551.98
715.812	28353.34
716.156	28173
716.499	28138.2
716.843	28195.15
717.186	28124.87
717.53	28225.66
717.873	28173.68
718.216	27996.74
718.559	27952.89
718.902	27789.28
719.246	27975.49
719.589	27757.42
719.932	27719.45
720.275	27611.89
720.617	27688.95
720.96	27674.94
721.303	27655.05
721.646	27494.15
721.989	27343.42
722.331	27531.44
722.674	27382.29
723.016	27343.87
723.359	27291.44
723.701	27297.77
724.044	27111.34
724.386	27036.53
724.729	27175.06
725.071	27028.63
725.413	27109.98
725.755	27016.42
726.097	26927.39
726.439	26746.15
726.782	26890.55
727.124	26971.23
727.465	26690.56
727.807	26750.21
728.149	26749.31
728.491	26540.5
728.833	26725.36
729.175	26492.82
729.516	26552.25
729.858	26521.97
730.199	26529.2
730.541	26551.12
730.882	26394.29
731.224	26479.26
731.565	26275.2
731.906	26208.53
732.248	26323.56
732.589	26056.67
732.93	26075.88
733.271	26140.74
733.612	26090.12
733.953	26135.77
734.294	25979.61
734.635	25921.54
734.976	25990.69
735.317	25822.33
735.658	25798.15
735.999	25910.24
736.339	25732.16
736.68	25891.03
737.021	25729.45
737.361	25600.64
737.702	25809.67
738.042	25622.11
738.383	25708.89
738.723	25646.06
739.063	25643.35
739.404	25628.21
739.744	25511.38
740.084	25340.53
740.424	25298.05
740.764	25368.1
741.104	25418.95
741.444	25296.24
741.784	25117.26
742.124	25218.28
742.464	25221.44
742.804	25178.5
743.143	25104.38
743.483	25093.54
743.823	24975.35
744.162	25053.54
744.502	24991.39
744.841	24977.38
745.181	25084.95
745.52	24892.18
745.86	24919.3
746.199	24839.08
746.538	24796.14
746.877	24885.86
747.216	24873.88
747.556	24655.58
747.895	24624.62
748.234	24629.37
748.573	24558.63
748.911	24526.77
749.25	24550.27
749.589	24432.31
749.928	24448.35
750.267	24389.15
750.605	24295.82
750.944	24224.41
751.283	24136.05
751.621	24295.59
751.96	24086.56
752.298	24183.95
752.636	24119.32
752.975	24018.08
753.313	23890.63
753.651	24021.47
753.989	23906
754.327	23904.41
754.666	23699.67
755.004	23882.72
755.342	23742.16
755.679	23716.85
756.017	23612.67
756.355	23633.46
756.693	23507.59
757.031	23624.42
757.368	23378.55
757.706	23326.12
758.044	23240.48
758.381	23420.13
758.719	23184.88
759.056	23250.19
759.394	23248.61
759.731	22979.69
760.068	22894.72
760.405	22912.58
760.743	22835.52
761.08	22852.92
761.417	22779.47
761.754	22678.91
762.091	22622.64
762.428	22568.63
762.765	22429.65
763.102	22460.38
763.438	22370.67
763.775	22331.35
764.112	22402.98
764.449	22268.75
764.785	22172.03
765.122	22013.16
765.458	21838.71
765.795	21970
766.131	22014.07
766.467	21800.29
766.804	21803.45
767.14	21585.83
767.476	21654.76
767.812	21670.57
768.148	21668.54
768.485	21499.73
768.821	21328.44
769.157	21270.13
769.492	21162.57
769.828	21229.46
770.164	20985.39
770.5	20982
770.836	20983.81
771.171	20879.63
771.507	20760.54
771.842	20619.75
772.178	20648.23
772.513	20556.93
772.849	20509.47
773.184	20412.53
773.519	20491.17
773.855	20271.97
774.19	20308.35
774.525	20151.97
774.86	20162.14
775.195	20121.01
775.53	20006.66
775.865	19854.35
776.2	19709.27
776.535	19617.29
776.87	19634.24
777.205	19640.57
777.539	19509.05
777.874	19571.19
778.209	19246.23
778.543	19367.13
778.878	19219.79
779.212	19186.57
779.547	19019.12
779.881	19019.34
780.215	18876.3
780.55	19000.36
780.884	18850.31
781.218	18745
781.552	18725.11
781.886	18670.88
782.22	18573.03
782.554	18492.8
782.888	18368.06
783.222	18207.39
783.556	18145.92
783.889	18218.46
784.223	18069.54
784.557	18027.51
784.89	18010.11
785.224	17943.67
785.557	17794.52
785.891	17778.47
786.224	17694.63
786.558	17786.61
786.891	17607.63
787.224	17557.69
787.557	17463.68
787.891	17457.8
788.224	17388.88
788.557	17371.93
788.89	17314.3
789.223	17341.87
789.556	17131.48
789.888	17126.29
790.221	17068.44
790.554	17012.84
790.887	16877.48
791.219	16823.47
791.552	16765.17
791.884	16765.17
792.217	16798.16
792.549	16698.5
792.882	16506.87
793.214	16550.71
793.546	16493.54
793.879	16395.68
794.211	16279.3
794.543	16364.73
794.875	16362.69
795.207	16280.43
795.539	16252.41
795.871	16180.78
796.203	16012.42
796.535	15943.04
796.867	15967.45
797.198	15902.36
797.53	15909.6
797.862	15771.52
798.193	15776.04
798.525	15633.44
798.856	15647.46
799.188	15475.03
799.519	15460.34
799.85	15434.81
800.182	15429.83
800.513	15370.17
800.844	15265.77
801.175	15287.24
801.506	15286.56
801.837	15143.06
802.168	15120.01
802.499	15094.02
802.83	15016.29
803.161	14921.37
803.491	14988.94
803.822	14921.37
804.153	14822.17
804.483	14713.02
804.814	14750.3
805.145	14685
805.475	14671.89
805.805	14630.53
806.136	14666.01
806.466	14603.42
806.796	14527.49
807.126	14425.57
807.457	14429.41
807.787	14377.21
808.117	14380.14
808.447	14263.31
808.777	14354.83
809.107	14200.04
809.436	14182.64
809.766	14310.54
810.096	14168.4
810.426	14033.71
810.755	14137.66
811.085	14043.43
811.414	14042.3
811.744	13884.11
812.073	13914.39
812.403	13902.19
812.732	13754.62
813.061	13763.66
813.39	13724.34
813.719	13681.18
814.049	13794.85
814.378	13658.36
814.707	13558.02
815.036	13535.65
815.365	13527.06
815.693	13405.93
816.022	13443.9
816.351	13303.34
816.68	13305.6
817.008	13362.77
817.337	13270.12
817.665	13226.95
817.994	13302.88
818.322	13178.14
818.651	13168.88
818.979	13152.15
819.307	13179.95
819.636	13093.4
819.964	13001.42
820.292	13013.17
820.62	13116.67
820.948	12941.76
821.276	13066.28
821.604	13036
821.932	12993.29
822.259	13035.77
822.587	12925.95
822.915	12851.82
823.243	12989.45
823.57	12951.93
823.898	13015.21
824.225	12908.77
824.553	12848.66
824.88	12898.15
825.207	12971.14
825.535	12908.77
825.862	12991.48
826.189	12876.68
826.516	12924.36
826.843	12979.05
827.17	12837.36
827.497	13021.99
827.824	12939.96
828.151	12834.87
828.478	12891.6
828.805	12986.06
829.131	12939.73
829.458	12868.09
829.785	12923.23
830.111	12882.78
830.438	12926.85
830.764	12915.1
831.09	12885.72
831.417	12799.4
831.743	12814.76
832.069	12871.03
832.395	12757.14
832.722	12846.63
833.048	12823.8
833.374	12765.72
833.7	12718.49
834.026	12737.02
834.351	12784.25
834.677	12746.74
835.003	12825.16
835.329	12673.75
835.654	12658.38
835.98	12654.54
836.306	12641.89
836.631	12524.83
836.956	12629.23
837.282	12652.28
837.607	12545.62
837.932	12574.09
838.258	12497.48
838.583	12558.27
838.908	12437.6
839.233	12506.97
839.558	12411.16
839.883	12411.16
840.208	12371.84
840.533	12414.55
840.858	12377.71
841.182	12371.61
841.507	12344.04
841.832	12228.11
842.156	12175.46
842.481	12276.92
842.805	12221.78
843.13	12215.46
843.454	12159.41
843.778	12069.92
844.103	12086.42
844.427	12037.16
844.751	12097.72
845.075	12072.86
845.399	11986.76
845.723	11945.86
846.047	11916.93
846.371	11773.21
846.695	11760.33
847.019	11732.76
847.343	11642.14
847.666	11702.02
847.99	11605.08
848.313	11623.83
848.637	11562.59
848.96	11488.02
849.284	11458.64
849.607	11316.95
849.931	11394.46
850.254	11198.08
850.577	11278.76
850.9	11100.23
851.223	11151.08
851.546	11071.53
851.869	10981.59
852.192	11043.28
852.515	10985.66
852.838	10878.32
853.161	10882.38
853.483	10864.98
853.806	10712.67
854.129	10807.58
854.451	10772.56
854.774	10634.25
855.096	10613.69
855.419	10591.54
855.741	10564.88
856.063	10537.53
856.385	10522.39
856.708	10490.76
857.03	10491.43
857.352	10455.95
857.674	10453.24
857.996	10369.4
858.318	10302.96
858.64	10277.43
858.961	10279.24
859.283	10298.67
859.605	10188.62
859.926	10173.02
860.248	10205.34
860.57	10120.37
860.891	10093.03
861.212	10054.61
861.534	10147.26
861.855	10008.51
862.176	10100.93
862.498	10000.82
862.819	10083.99
863.14	9905.01
863.461	9947.27
863.782	9828.4
864.103	9931.9
864.424	9892.13
864.745	9876.76
865.065	9889.87
865.386	9817.78
865.707	9859.59
866.027	9810.1
866.348	9808.74
866.668	9732.36
866.989	9725.8
867.309	9698.46
867.63	9695.52
867.95	9722.19
868.27	9594.96
868.59	9703.43
868.91	9614.62
869.23	9614.39
869.55	9603.77
869.87	9656.2
870.19	9610.33
870.51	9597.67
870.83	9538.01
871.15	9514.06
871.469	9535.07
871.789	9489.43
872.109	9517
872.428	9500.5
872.748	9511.57
873.067	9421.4
873.386	9461.4
873.706	9419.14
874.025	9390.67
874.344	9375.53
874.663	9367.17
874.982	9391.35
875.301	9334.4
875.62	9285.36
875.939	9315.87
876.258	9331.69
876.577	9198.59
876.896	9233.16
877.214	9176.21
877.533	9257.79
877.852	9188.19
878.17	9198.36
878.489	9216.66
878.807	9172.37
879.125	9163.78
879.444	9125.82
879.762	9096.67
880.08	9067.52
880.398	9074.3
880.716	9139.83
881.034	9102.54
881.352	9047.86
881.67	8997.69
881.988	8987.97
882.306	8968.31
882.624	8970.57
882.941	8939.84
883.259	8896.9
883.577	8988.2
883.894	8884.7
884.212	8862.1
884.529	8852.61
884.846	8767.86
885.164	8840.4
885.481	8779.84
885.798	8763.12
886.115	8740.29
886.432	8711.14
886.75	8711.37
887.067	8662.33
887.383	8648.77
887.7	8618.71
888.017	8572.16
888.334	8564.93
888.651	8544.14
888.967	8594.76
889.284	8496.91
889.6	8575.1
889.917	8519.73
890.233	8485.16
890.55	8442.22
890.866	8443.13
891.182	8371.71
891.498	8345.5
891.815	8367.42
892.131	8279.97
892.447	8264.15
892.763	8258.5
893.079	8210.59
893.395	8206.3
893.71	8103.93
894.026	8108.44
894.342	8143.47
894.657	8077.03
894.973	8100.31
895.289	8142.34
895.604	8064.83
895.92	8028.67
896.235	7991.39
896.55	7975.57
896.865	7943.7
897.181	7854.67
897.496	7897.15
897.811	7853.54
898.126	7879.52
898.441	7854.21
898.756	7751.84
899.071	7763.37
899.386	7757.95
899.7	7653.09
900.015	7610.38
900.33	7609.7
900.644	7605.18
900.959	7550.04
901.273	7576.71
901.588	7519.53
901.902	7502.13
902.216	7440.89
902.531	7397.28
902.845	7402.47
903.159	7333.1
903.473	7380.33
903.787	7319.99
904.101	7326.09
904.415	7296.26
904.729	7276.38
905.042	7225.08
905.356	7230.05
905.67	7196.15
905.984	7126.55
906.297	7127.45
906.611	7090.62
906.924	7049.49
907.237	7030.28
907.551	7005.42
907.864	6958.64
908.177	6989.6
908.491	6964.52
908.804	6904.63
909.117	6905.76
909.43	6845.65
909.743	6781.47
910.056	6790.06
910.368	6744.41
910.681	6742.15
910.994	6725.88
911.307	6658.31
911.619	6609.28
911.932	6623.74
912.244	6637.3
912.557	6551.42
912.869	6548.94
913.181	6521.82
913.494	6510.29
913.806	6448.38
914.118	6441.82
914.43	6386.46
914.742	6372.22
915.054	6327.02
915.366	6328.6
915.678	6302.84
915.99	6283.41
916.302	6212.22
916.613	6275.27
916.925	6232.56
917.236	6191.89
917.548	6172.45
917.859	6158.89
918.171	6121.15
918.482	6115.05
918.794	6044.09
919.105	6015.39
919.416	6034.6
919.727	5988.73
920.038	5975.17
920.349	5928.84
920.66	5940.37
920.971	5925.68
921.282	5805.91
921.593	5813.82
921.903	5772.01
922.214	5786.92
922.525	5794.83
922.835	5725.23
923.146	5750.54
923.456	5695.18
923.767	5679.58
924.077	5691.56
924.387	5635.74
924.697	5645.46
925.008	5567.04
925.318	5532.47
925.628	5499.93
925.938	5514.39
926.248	5472.36
926.558	5477.1
926.867	5425.35
927.177	5373.83
927.487	5352.13
927.796	5371.79
928.106	5358.46
928.416	5342.19
928.725	5307.39
929.034	5265.81
929.344	5286.15
929.653	5269.65
929.962	5203.66
930.271	5195.98
930.581	5122.53
930.89	5146.71
931.199	5130.44
931.508	5082.54
931.817	5090.22
932.125	5053.61
932.434	5007.28
932.743	4949.21
933.051	4975.19
933.36	4989.43
933.669	4944.46
933.977	4914.63
934.286	4927.51
934.594	4897.68
934.902	4861.75
935.21	4888.87
935.519	4811.36
935.827	4791.7
936.135	4767.74
936.443	4714.64
936.751	4751.7
937.059	4656.33
937.367	4672.15
937.674	4719.38
937.982	4675.54
938.29	4717.8
938.597	4662.89
938.905	4612.72
939.213	4598.48
939.52	4577.46
939.827	4580.4
940.135	4533.85
940.442	4524.36
940.749	4510.57
941.056	4499.73
941.363	4439.39
941.67	4440.07
941.977	4435.32
942.284	4388.54
942.591	4370.92
942.898	4348.77
943.205	4345.15
943.511	4279.85
943.818	4330.92
944.125	4306.29
944.431	4232.84
944.738	4236.91
945.044	4226.29
945.35	4187.42
945.657	4218.15
945.963	4202.78
946.269	4164.37
946.575	4187.64
946.881	4116.46
947.187	4122.56
947.493	4090.47
947.799	4099.96
948.105	4028.33
948.41	4022.45
948.716	4043.92
949.022	3989.68
949.327	4012.96
949.633	3988.33
949.938	3942.9
950.244	3927.76
950.549	3902.91
950.854	3870.14
951.16	3895.9
951.465	3881.44
951.77	3849.8
952.075	3873.53
952.38	3775.45
952.685	3791.04
952.99	3776.58
953.294	3787.2
953.599	3735.9
953.904	3724.38
954.209	3730.03
954.513	3713.98
954.818	3666.98
955.122	3635.79
955.426	3688.45
955.731	3660.2
956.035	3593.54
956.339	3613.87
956.643	3632.18
956.948	3530.03
957.252	3568.68
957.556	3568.23
957.86	3536.81
958.163	3539.53
958.467	3495.01
958.771	3475.35
959.075	3454.1
959.378	3466.99
959.682	3453.65
959.985	3419.98
960.289	3429.02
960.592	3379.98
960.896	3405.29
961.199	3378.63
961.502	3327.33
961.805	3327.1
962.108	3318.06
962.411	3274.45
962.714	3265.63
963.017	3269.93
963.32	3260.89
963.623	3261.57
963.926	3235.13
964.228	3240.32
964.531	3222.92
964.833	3211.85
965.136	3182.25
965.438	3160.55
965.741	3167.78
966.043	3137.5
966.345	3114.9
966.648	3123.27
966.95	3105.86
967.252	3112.64
967.554	3062.25
967.856	3062.7
968.158	3016.15
968.46	3064.74
968.761	2995.13
969.063	3010.95
969.365	2989.26
969.666	3006.21
969.968	2994.68
970.269	2947.22
970.571	2955.36
970.872	2930.73
971.174	2944.29
971.475	2908.58
971.776	2896.83
972.077	2887.57
972.378	2878.75
972.679	2852.31
972.98	2845.53
973.281	2861.58
973.582	2834.23
973.883	2809.83
974.183	2783.16
974.484	2846.21
974.785	2779.32
975.085	2764.86
975.386	2757.17
975.686	2754.01
975.986	2714.91
976.287	2725.54
976.587	2680.11
976.887	2725.76
977.187	2696.16
977.487	2664.97
977.787	2652.77
978.087	2630.62
978.387	2624.07
978.687	2609.83
978.987	2664.75
979.286	2639.21
979.586	2612.77
979.885	2568.48
980.185	2569.38
980.484	2565.77
980.784	2537.07
981.083	2531.64
981.382	2513.56
981.682	2502.72
981.981	2498.87
982.28	2486.67
982.579	2467.92
982.878	2446.9
983.177	2483.28
983.475	2460.01
983.774	2460.46
984.073	2421.36
984.372	2372.55
984.67	2412.1
984.969	2413.68
985.267	2402.15
985.566	2395.15
985.864	2345.43
986.162	2352.21
986.461	2373.23
986.759	2329.16
987.057	2322.61
987.355	2307.47
987.653	2337.3
987.951	2277.64
988.249	2291.87
988.547	2257.3
988.844	2267.24
989.142	2267.02
989.44	2257.07
989.737	2205.32
990.035	2231.09
990.332	2209.62
990.63	2207.81
990.927	2176.4
991.224	2168.49
991.521	2198.77
991.819	2186.79
992.116	2188.6
992.413	2144.99
992.71	2106.34
993.006	2128.49
993.303	2112.9
993.6	2102.28
993.897	2116.29
994.193	2054.59
994.49	2067.93
994.787	2057.98
995.083	2021.6
995.379	2068.15
995.676	2042.84
995.972	2001.94
996.268	1999.45
996.565	1982.5
996.861	1974.59
997.157	1997.42
997.453	1982.28
997.749	1980.02
998.044	1982.28
998.34	1972.34
998.636	1938.21
998.932	1928.04
999.227	1902.73
999.523	1892.79
999.818	1884.65
1000.114	1876.97
1000.409	1873.81
1000.704	1880.59
1001	1892.34
1001.295	1825.9
1001.59	1870.19
1001.885	1832
1002.18	1814.37
1002.475	1789.52
1002.77	1830.42
1003.065	1799.46
1003.359	1789.52
1003.654	1779.57
1003.949	1775.05
1004.243	1726.01
1004.538	1761.95
1004.832	1731.89
1005.127	1711.78
1005.421	1737.77
1005.715	1708.84
1006.009	1700.93
1006.304	1679.91
1006.598	1679.91
1006.892	1660.48
1007.186	1666.35
1007.48	1650.99
1007.773	1644.21
1008.067	1651.44
1008.361	1629.52
1008.655	1596.98
1008.948	1617.32
1009.242	1615.96
1009.535	1601.27
1009.829	1613.47
1010.122	1560.82
1010.415	1560.14
1010.708	1569.41
1011.001	1535.74
1011.295	1541.39
1011.588	1540.03
1011.881	1515.62
1012.173	1523.99
1012.466	1500.03
1012.759	1516.3
1013.052	1496.42
1013.344	1472.24
1013.637	1467.49
1013.93	1467.94
1014.222	1457.55
1014.514	1459.81
1014.807	1442.41
1015.099	1439.69
1015.391	1422.52
1015.683	1404.21
1015.976	1397.66
1016.268	1395.85
1016.56	1390.2
1016.851	1402.86
1017.143	1366.48
1017.435	1340.71
1017.727	1366.02
1018.018	1371.22
1018.31	1353.37
1018.602	1334.39
1018.893	1309.08
1019.185	1339.36
1019.476	1307.95
1019.767	1320.37
1020.058	1301.62
1020.35	1289.87
1020.641	1273.82
1020.932	1303.88
1021.223	1261.62
1021.514	1270.66
1021.804	1224.56
1022.095	1236.76
1022.386	1240.6
1022.677	1243.31
1022.967	1217.55
1023.258	1220.49
1023.548	1190.89
1023.839	1187.05
1024.129	1181.62
1024.419	1199.25
1024.709	1184.56
1025	1175.52
1025.29	1161.28
1025.58	1140.72
1025.87	1148.63
1026.16	1113.6
1026.449	1137.78
1026.739	1138.01
1027.029	1077.44
1027.319	1119.48
1027.608	1113.37
1027.898	1109.98
1028.187	1096.2
1028.477	1092.36
1028.766	1083.09
1029.055	1057.33
1029.344	1044.22
1029.634	1036.99
1029.923	1061.62
1030.212	1028.86
1030.501	1023.21
1030.79	1039.25
1031.078	1021.63
1031.367	1010.33
1031.656	1016.88
1031.945	990.67
1032.233	1011.68
1032.522	993.15
1032.81	994.51
1033.099	986.82
1033.387	964.45
1033.675	954.73
1033.963	961.06
1034.251	960.84
1034.54	958.8
1034.828	948.86
1035.116	923.55
1035.403	928.75
1035.691	932.14
1035.979	939.14
1036.267	936.2
1036.554	909.76
1036.842	911.8
1037.129	886.49
1037.417	900.72
1037.704	886.04
1037.992	872.03
1038.279	886.04
1038.566	856.88
1038.853	856.88
1039.14	856.88
