Data from hue_300_FLMS001491_00045.txt Node
Date: Tue Feb 07 15:50:47 GMT 2017
User: dcchb
Spectrometer: FLMS00149
Trigger mode: 0
Integration Time (sec): 2.000000E-2
Scans to average: 10
Electric dark correction enabled: true
Nonlinearity correction enabled: false
Boxcar width: 0
XAxis mode: Wavelengths
Number of Pixels in Spectrum: 2048
>>>>>Begin Spectral Data<<<<<
341.393	-14.39
341.776	-14.39
342.16	-14.39
342.543	-49.42
342.927	-55.52
343.31	-69.98
343.693	-73.6
344.077	-73.37
344.46	-68.85
344.843	-62.98
345.226	-52.81
345.61	-26.14
345.993	-9.19
346.376	-18.69
346.759	21.54
347.142	36.91
347.525	30.35
347.908	59.28
348.291	80.29
348.674	93.85
349.057	133.4
349.44	129.33
349.823	139.5
350.206	158.48
350.588	190.8
350.971	190.35
351.354	230.12
351.737	237.13
352.119	260.85
352.502	283
352.884	271.7
353.267	285.26
353.65	293.4
354.032	292.49
354.414	308.54
354.797	306.5
355.179	320.97
355.562	327.97
355.944	352.15
356.326	339.95
356.709	330.68
357.091	331.81
357.473	351.47
357.855	353.06
358.238	335.2
358.62	351.25
359.002	337.91
359.384	354.41
359.766	343.56
360.148	349.89
360.53	337.01
360.912	342.89
361.294	309.22
361.676	342.43
362.057	350.57
362.439	346.95
362.821	339.5
363.203	333.85
363.584	340.17
363.966	330.68
364.348	323.9
364.729	322.55
365.111	318.48
365.493	319.38
365.874	308.76
366.256	323.68
366.637	341.76
367.019	312.83
367.4	329.1
367.781	316.9
368.163	322.55
368.544	325.94
368.925	319.16
369.306	332.72
369.688	327.97
370.069	323.9
370.45	314.86
370.831	325.94
371.212	296.56
371.593	323.9
371.974	299.95
372.355	306.05
372.736	334.75
373.117	311.25
373.498	327.52
373.879	329.33
374.26	329.55
374.641	321.42
375.021	322.77
375.402	333.4
375.783	345.15
376.163	339.72
376.544	327.75
376.925	340.17
377.305	330.23
377.686	306.5
378.066	343.56
378.447	338.59
378.827	345.37
379.208	337.24
379.588	350.34
379.968	343.79
380.349	352.15
380.729	335.2
381.109	352.83
381.489	345.6
381.87	334.07
382.25	349.21
382.63	364.81
383.01	344.02
383.39	364.81
383.77	325.03
384.15	355.32
384.53	362.09
384.91	335.88
385.29	366.39
385.67	346.05
386.049	376.33
386.429	370.68
386.809	360.74
387.189	368.65
387.568	357.35
387.948	384.92
388.328	367.52
388.707	371.81
389.087	376.56
389.466	371.36
389.846	386.05
390.225	405.48
390.605	363.68
390.984	376.56
391.363	389.44
391.743	404.13
392.122	395.77
392.501	381.3
392.881	381.3
393.26	401.19
393.639	382.89
394.018	397.8
394.397	418.59
394.776	394.18
395.155	414.52
395.534	420.62
395.913	405.48
396.292	415.88
396.671	404.13
397.05	428.31
397.429	446.16
397.808	424.47
398.186	413.17
398.565	435.09
398.944	417.01
399.323	444.58
399.701	427.63
400.08	438.48
400.458	435.31
400.837	449.55
401.215	442.09
401.594	439.16
401.972	446.16
402.351	451.13
402.729	437.57
403.107	455.88
403.486	453.62
403.864	458.82
404.242	479.38
404.62	466.27
404.999	455.65
405.377	471.92
405.755	474.41
406.133	491.58
406.511	512.15
406.889	507.18
407.267	494.52
407.645	506.72
408.023	522.09
408.401	512.15
408.779	528.42
409.156	513.96
409.534	544.46
409.912	543.33
410.29	537.46
410.667	529.55
411.045	581.3
411.422	562.77
411.8	574.07
412.178	600.05
412.555	581.52
412.933	597.8
413.31	601.41
413.687	613.84
414.065	622.65
414.442	616.55
414.819	652.48
415.197	658.58
415.574	663.1
415.951	697.68
416.328	685.93
416.705	710.33
417.082	709.88
417.46	718.47
417.837	688.87
418.214	730.67
418.591	741.07
418.967	724.8
419.344	721.63
419.721	788.98
420.098	744.91
420.475	745.81
420.852	781.07
421.228	789.65
421.605	826.94
421.982	825.36
422.358	831.46
422.735	835.75
423.111	836.66
423.488	866.04
423.864	837.34
424.241	886.6
424.617	892.7
424.994	908.52
425.37	891.12
425.746	904.68
426.123	928.86
426.499	927.73
426.875	942.19
427.251	941.97
427.627	954.4
428.003	962.98
428.379	993.04
428.756	994.85
429.132	1008.86
429.507	1029.42
429.883	1045.01
430.259	1084.56
430.635	1038.24
431.011	1062.64
431.387	1093.15
431.763	1097.89
432.138	1110.1
432.514	1125.46
432.89	1134.73
433.265	1150.77
433.641	1176.76
434.016	1159.81
434.392	1199.36
434.767	1193.94
435.143	1207.5
435.518	1202.98
435.894	1245.01
436.269	1263.09
436.644	1248.63
437.02	1298.12
437.395	1280.94
437.77	1310.77
438.145	1323.65
438.52	1322.97
438.895	1338.79
439.271	1329.98
439.646	1350.32
440.021	1375.18
440.395	1357.1
440.77	1379.02
441.145	1380.37
441.52	1386.02
441.895	1430.99
442.27	1447.26
442.645	1402.97
443.019	1461.95
443.394	1404.33
443.769	1454.72
444.143	1454.72
444.518	1447.94
444.892	1469.64
445.267	1473.03
445.641	1509.64
446.016	1482.07
446.39	1525
446.764	1519.8
447.139	1511.22
447.513	1504.44
447.887	1517.32
448.262	1530.43
448.636	1536.53
449.01	1546.7
449.384	1541.72
449.758	1553.25
450.132	1546.47
450.506	1578.11
450.88	1606.36
451.254	1583.76
451.628	1594.38
452.002	1587.83
452.376	1621.95
452.75	1605
453.123	1629.63
453.497	1636.19
453.871	1646.58
454.244	1678.67
454.618	1688.84
454.992	1665.11
455.365	1702.17
455.739	1713.02
456.112	1750.08
456.486	1738.33
456.859	1780.59
457.232	1776.97
457.606	1778.33
457.979	1781.94
458.352	1804.77
458.725	1862.62
459.099	1839.12
459.472	1864.43
459.845	1885.44
460.218	1875.05
460.591	1897.42
460.964	1888.83
461.337	1928.16
461.71	1982.39
462.083	1984.43
462.456	2001.37
462.829	2021.26
463.201	2016.06
463.574	1993.46
463.947	2068.72
464.32	2086.57
464.692	2047.7
465.065	2092.22
465.438	2126.57
465.81	2110.75
466.183	2149.39
466.555	2198.43
466.928	2170.41
467.3	2179.45
467.672	2204.08
468.045	2260.35
468.417	2271.2
468.789	2295.38
469.161	2298.77
469.534	2305.09
469.906	2342.83
470.278	2323.63
470.65	2342.38
471.022	2407.01
471.394	2436.84
471.766	2466.9
472.138	2481.14
472.51	2515.03
472.882	2542.6
473.253	2543.05
473.625	2572.21
473.997	2664.41
474.369	2656.72
474.74	2666.89
475.112	2640.68
475.484	2735.37
475.855	2707.34
476.227	2770.39
476.598	2793.9
476.97	2795.25
477.341	2882.03
477.713	2915.02
478.084	2927.68
478.455	2953.44
478.827	2951.41
479.198	3050.16
479.569	3072.08
479.94	3131.74
480.311	3143.26
480.682	3182.13
481.053	3209.93
481.424	3228.23
481.795	3277.27
482.166	3314.79
482.537	3359.98
482.908	3408.34
483.279	3432.3
483.65	3477.72
484.021	3529.92
484.391	3546.87
484.762	3598.62
485.133	3569.24
485.503	3567.66
485.874	3697.37
486.244	3663.48
486.615	3767.43
486.985	3818.73
487.356	3865.05
487.726	3899.18
488.097	3899.86
488.467	3933.3
488.837	4041.09
489.207	3996.58
489.578	4086.52
489.948	4097.14
490.318	4148.44
490.688	4136.91
491.058	4181.88
491.428	4253.29
491.798	4243.12
492.168	4286.74
492.538	4310.01
492.908	4356.57
493.278	4411.93
493.648	4457.58
494.017	4443.34
494.387	4500.29
494.757	4555.66
495.126	4512.04
495.496	4531.25
495.866	4554.08
496.235	4640.4
496.605	4640.17
496.974	4665.03
497.344	4658.25
497.713	4675.43
498.082	4703
498.452	4756.33
498.821	4767.85
499.19	4811.24
499.559	4849.43
499.928	4875.2
500.298	4853.5
500.667	4919.26
501.036	4900.51
501.405	4924.91
501.774	4926.49
502.143	4963.78
502.512	5026.83
502.88	5026.61
503.249	4994.97
503.618	5072.48
503.987	5039.94
504.356	5027.96
504.724	5067.28
505.093	5126.26
505.462	5145.25
505.83	5144.57
506.199	5242.64
506.567	5236.32
506.936	5271.8
507.304	5299.37
507.672	5269.31
508.041	5268.18
508.409	5348.18
508.777	5375.75
509.145	5412.13
509.514	5400.38
509.882	5388.63
510.25	5440.61
510.618	5400.61
510.986	5444.45
511.354	5486.71
511.722	5476.31
512.09	5581.84
512.458	5568.96
512.826	5561.96
513.193	5632.69
513.561	5597.66
513.929	5606.93
514.297	5678.57
514.664	5699.36
515.032	5693.03
515.4	5712.91
515.767	5714.5
516.135	5764.66
516.502	5688.73
516.869	5782.52
517.237	5803.76
517.604	5770.31
517.972	5811.9
518.339	5818.45
518.706	5823.19
519.073	5901.38
519.44	5863.65
519.808	5969.63
520.175	5954.94
520.542	5943.19
520.909	6033.81
521.276	6024.77
521.643	6083.98
522.009	6082.17
522.376	6084.43
522.743	6125.33
523.11	6188.38
523.477	6184.99
523.843	6244.88
524.21	6257.08
524.577	6301.83
524.943	6337.53
525.31	6319
525.676	6378.21
526.043	6419.56
526.409	6422.05
526.776	6521.71
527.142	6528.49
527.508	6502.27
527.874	6611.2
528.241	6580.24
528.607	6619.78
528.973	6682.61
529.339	6644.87
529.705	6708.14
530.071	6761.7
530.437	6791.53
530.803	6834.24
531.169	6852.09
531.535	6836.5
531.901	6872.66
532.267	6879.66
532.632	6996.04
532.998	6989.04
533.364	7037.85
533.73	7065.87
534.095	7153.33
534.461	7102.93
534.826	7136.15
535.192	7239.88
535.557	7249.15
535.923	7224.97
536.288	7246.43
536.653	7264.29
537.019	7323.04
537.384	7356.94
537.749	7313.32
538.114	7396.26
538.479	7368.92
538.845	7415.69
539.21	7433.77
539.575	7522.58
539.94	7444.17
540.305	7512.87
540.67	7579.76
541.034	7612.98
541.399	7684.61
541.764	7637.38
542.129	7737.72
542.494	7724.39
542.858	7756.25
543.223	7798.28
543.587	7807.32
543.952	7795.12
544.316	7846.19
544.681	7866.53
545.045	7900.2
545.41	7970.48
545.774	7989.92
546.138	8026.3
546.503	7993.08
546.867	8011.61
547.231	8205.28
547.595	8170.93
547.959	8170.48
548.324	8170.93
548.688	8149.46
549.052	8207.76
549.416	8232.4
549.779	8275.11
550.143	8290.7
550.507	8325.95
550.871	8414.54
551.235	8357.59
551.599	8468.1
551.962	8431.71
552.326	8472.84
552.689	8474.65
553.053	8394.88
553.417	8494.54
553.78	8579.96
554.143	8591.26
554.507	8601.2
554.87	8679.39
555.234	8771.14
555.597	8606.85
555.96	8674.64
556.323	8704.7
556.686	8691.37
557.05	8787.64
557.413	8811.82
557.776	8849.33
558.139	8903.79
558.502	8805.49
558.865	8831.93
559.228	8933.4
559.59	9014.97
559.953	8968.2
560.316	9050
560.679	9009.1
561.041	9045.71
561.404	9110.11
561.767	9152.15
562.129	9145.59
562.492	9219.94
562.854	9251.13
563.217	9251.13
563.579	9261.3
563.941	9323.22
564.304	9327.51
564.666	9414.74
565.028	9388.98
565.39	9432.82
565.753	9447.96
566.115	9488.86
566.477	9549.88
566.839	9530.67
567.201	9596.65
567.563	9620.61
567.925	9709.65
568.287	9689.08
568.648	9704.45
569.01	9713.71
569.372	9813.82
569.734	9941.5
570.095	9929.98
570.457	9968.85
570.819	9913.26
571.18	9979.92
571.542	9958.68
571.903	10031.9
572.265	10147.83
572.626	10248.84
572.987	10274.6
573.349	10277.09
573.71	10348.73
574.071	10509.85
574.432	10412.68
574.794	10596.63
575.155	10568.83
575.516	10571.09
575.877	10711.43
576.238	10762.27
576.599	10850.41
576.96	10903.96
577.32	10974.47
577.681	11115.26
578.042	11224.18
578.403	11312.99
578.763	11474.57
579.124	11529.26
579.485	11648.13
579.845	11810.83
580.206	11822.13
580.566	12026.2
580.927	12090.37
581.287	12348.9
581.648	12411.72
582.008	12672.73
582.368	12733.07
582.728	12972.38
583.089	13014.87
583.449	13253.96
583.809	13473.39
584.169	13652.82
584.529	13822.31
584.889	14106.59
585.249	14173.26
585.609	14303.65
585.969	14691.66
586.329	14892.56
586.688	15150.63
587.048	15352.21
587.408	15535.93
587.768	15845.3
588.127	16037.39
588.487	16317.83
588.846	16737.71
589.206	16781.55
589.565	17148.32
589.925	17388.54
590.284	17640.96
590.643	18118.01
591.003	18191.46
591.362	18712.35
591.721	18898.56
592.08	19170.19
592.44	19481.14
592.799	19866.89
593.158	19997.74
593.517	20368.57
593.876	20626.87
594.235	20905.74
594.593	21117.93
594.952	21577.81
595.311	21861.19
595.67	22134.86
596.029	22468.41
596.387	22909.98
596.746	23184.09
597.104	23387.48
597.463	23739.11
597.822	24123.96
598.18	24282.82
598.538	24621.34
598.897	24993.76
599.255	25181.78
599.613	25753.74
599.972	25757.59
600.33	26252.71
600.688	26291.81
601.046	26776.99
601.404	27161.84
601.762	27418.11
602.12	27712.11
602.478	27971.09
602.836	28287.46
603.194	28383.73
603.552	28649.03
603.91	28838.18
604.268	29324.95
604.625	29290.15
604.983	29806.74
605.341	29813.07
605.698	30364.47
606.056	30628.64
606.413	30783.67
606.771	31145.01
607.128	31388.85
607.485	31433.82
607.843	31697.09
608.2	32027.25
608.557	32281.26
608.914	32381.14
609.272	32674.92
609.629	32883.95
609.986	33278.97
610.343	33360.55
610.7	33716.25
611.057	33862.46
611.414	33886.86
611.771	34235.55
612.127	34445.27
612.484	34603.45
612.841	34817.46
613.198	34853.62
613.554	35165.02
613.911	35506.93
614.267	35614.05
614.624	35665.8
614.98	35934.72
615.337	36353.92
615.693	36355.72
616.05	36447.02
616.406	36919.55
616.762	36765.21
617.118	36867.12
617.475	36986.67
617.831	37302.14
618.187	37382.36
618.543	37559.31
618.899	37809.47
619.255	37724.73
619.611	37843.37
619.967	38150.03
620.323	38229.57
620.678	38331.27
621.034	38150.93
621.39	38332.17
621.746	38514.31
622.101	38911.59
622.457	38773.97
622.812	38894.42
623.168	39145.03
623.523	39095.09
623.879	39301.18
624.234	39172.37
624.589	39326.27
624.945	39492.82
625.3	39496.89
625.655	39629.99
626.01	39718.57
626.365	39945.91
626.72	39901.85
627.075	39881.06
627.43	39980.04
627.785	40153.14
628.14	40227.94
628.495	40257.09
628.85	40310.65
629.205	40158.34
629.559	40426.8
629.914	40399.69
630.269	40226.81
630.623	40291.21
630.978	40201.95
631.332	40516.97
631.687	40686.68
632.041	40448.72
632.396	40614.14
632.75	40435.84
633.104	40507.71
633.459	40449.4
633.813	40523.75
634.167	40639.91
634.521	40569.85
634.875	40615.5
635.229	40582.96
635.583	40454.37
635.937	40466.8
636.291	40443.08
636.645	40580.25
636.999	40522.62
637.352	40685.55
637.706	40271.78
638.06	40752.9
638.413	40571.43
638.767	40527.37
639.121	40542.51
639.474	40310.65
639.828	40547.48
640.181	40373.47
640.534	40465.67
640.888	40345.22
641.241	40241.27
641.594	40364.21
641.947	40621.83
642.301	40400.82
642.654	40354.49
643.007	40442.62
643.36	40385
643.713	40299.35
644.066	40494.37
644.419	40360.14
644.771	40151.78
645.124	39697.56
645.477	39621.18
645.83	39576.43
646.182	39260.96
646.535	39141.64
646.888	39293.5
647.24	38912.72
647.593	39428.64
647.945	39235.88
648.298	39089.44
648.65	39078.82
649.002	39002.89
649.355	39198.59
649.707	39065.03
650.059	39350.22
650.411	39705.24
650.763	39771.68
651.115	40214.38
651.467	40072.01
651.819	40074.95
652.171	39987.49
652.523	39943.88
652.875	40008.28
653.227	39849.64
653.578	40132.57
653.93	40000.15
654.282	39904.78
654.633	39680.16
654.985	39915.86
655.337	39892.58
655.688	39891
656.039	40034.95
656.391	39742.53
656.742	39818.23
657.094	39731
657.445	39938.91
657.796	39874.73
658.147	39658.01
658.498	39602.65
658.849	39774.17
659.2	39685.81
659.551	39745.24
659.902	39870.89
660.253	39703.43
660.604	39640.61
660.955	39709.99
661.306	39826.82
661.656	39662.98
662.007	39768.74
662.358	39722.19
662.708	39648.29
663.059	39502.53
663.409	39494.63
663.76	39856.65
664.11	39707.28
664.461	39687.84
664.811	39656.88
665.161	39624.34
665.511	39613.27
665.862	39560.61
666.212	39728.97
666.562	39815.07
666.912	39644.68
667.262	39551.12
667.612	39642.19
667.962	39818.46
668.312	39566.94
668.662	39724.45
669.011	39568.07
669.361	39651.01
669.711	39519.26
670.06	39521.74
670.41	39425.47
670.76	39341.64
671.109	39587.28
671.459	39560.84
671.808	39375.08
672.157	39449.88
672.507	39259.38
672.856	39194.52
673.205	39269.77
673.554	39388.19
673.904	39352.71
674.253	39410.11
674.602	39243.56
674.951	38790.46
675.3	38582.56
675.649	39173.28
675.998	39144.13
676.346	39163.11
676.695	39190.68
677.044	38972.38
677.393	39068.2
677.741	39219.38
678.09	38987.75
678.438	38858.94
678.787	39027.97
679.135	39034.98
679.484	38757.24
679.832	38891.03
680.181	38661.43
680.529	38733.97
680.877	38752.05
681.225	38700.3
681.573	38956.11
681.922	38511.15
682.27	38453.07
682.618	38595.44
682.966	38398.83
683.314	38522
683.661	38319.06
684.009	38137.37
684.357	38268.89
684.705	38173.76
685.053	38085.62
685.4	38116.58
685.748	37907.55
686.095	37804.95
686.443	37886.08
686.79	37858.96
687.138	37815.8
687.485	37846.53
687.832	37711.62
688.18	37633.43
688.527	37482.02
688.874	37536.03
689.221	37420.1
689.568	37338.98
689.915	37239.54
690.262	37214.69
690.609	37031.41
690.956	36842.49
691.303	37053.11
691.65	36864.19
691.997	36849.5
692.344	36588.94
692.69	36581.26
693.037	36600.92
693.383	36358.66
693.73	36593.68
694.077	36219.91
694.423	36242.28
694.769	36139.46
695.116	36030.76
695.462	35880.03
695.808	35800.26
696.155	35851.33
696.501	35627.61
696.847	35647.27
697.193	35445.47
697.539	35523.43
697.885	35242.99
698.231	35104.68
698.577	35298.58
698.923	35104.68
699.269	35044.35
699.614	34854.3
699.96	34737.91
700.306	34915.54
700.651	34584.7
700.997	34506.28
701.342	34452.5
701.688	34440.52
702.033	34499.5
702.379	34266.97
702.724	34141.09
703.069	34245.5
703.415	33820.2
703.76	33953.3
704.105	33770.93
704.45	33737.04
704.795	33675.34
705.14	33350.15
705.485	33455.01
705.83	33433.54
706.175	33397.16
706.52	33387.89
706.865	33121.91
707.209	33174.57
707.554	33048.69
707.899	32976.6
708.243	32859.32
708.588	32828.59
708.932	32644.64
709.277	32622.26
709.621	32693.67
709.966	32330.52
710.31	32443.51
710.654	32182.5
710.998	32270.86
711.342	32278.09
711.687	32114.71
712.031	32045.1
712.375	31879.23
712.719	32005.78
713.063	31899.12
713.407	32095.72
713.75	31631.56
714.094	31840.59
714.438	31675.62
714.782	31726.69
715.125	31496.64
715.469	31644.44
715.812	31361.96
716.156	31346.82
716.499	31422.07
716.843	31376.87
717.186	31141.85
717.53	31333.71
717.873	31354.73
718.216	31349.08
718.559	31040.38
718.902	30888.07
719.246	30944.57
719.589	30752.71
719.932	30861.18
720.275	30757.91
720.617	30732.14
720.96	30571.24
721.303	30653.05
721.646	30681.75
721.989	30362.21
722.331	30560.17
722.674	30424.81
723.016	30484.47
723.359	30361.08
723.701	30407.41
724.044	30138.26
724.386	30002.22
724.729	30133.97
725.071	30034.54
725.413	30042.44
725.755	30028.21
726.097	29848.55
726.439	29790.47
726.782	29749.12
727.124	29984.82
727.465	29893.52
727.807	29670.48
728.149	29482.69
728.491	29576.69
728.833	29607.65
729.175	29476.36
729.516	29468.67
729.858	29402.69
730.199	29493.08
730.541	29392.29
730.882	29296.48
731.224	29412.18
731.565	29148.46
731.906	29134.9
732.248	29196.82
732.589	28912.76
732.93	28994.34
733.271	28920.67
733.612	28956.15
733.953	29067.33
734.294	28874.79
734.635	28850.84
734.976	28843.83
735.317	28692.88
735.658	28710.05
735.999	28686.55
736.339	28652.65
736.68	28766.55
737.021	28641.35
737.361	28561.13
737.702	28702.37
738.042	28617.4
738.383	28572.2
738.723	28628.7
739.063	28475.25
739.404	28428.7
739.744	28353.22
740.084	28271.87
740.424	28388.7
740.764	28221.02
741.104	28269.38
741.444	28080.69
741.784	28124.08
742.124	28168.14
742.464	28117.75
742.804	28049.5
743.143	28050.41
743.483	28006.79
743.823	27796.18
744.162	27805.22
744.502	27951.2
744.841	27673.02
745.181	27915.04
745.52	27654.71
745.86	27750.3
746.199	27766.35
746.538	27663.52
746.877	27756.63
747.216	27725.44
747.556	27606.35
747.895	27652.22
748.234	27478.22
748.573	27401.38
748.911	27576.29
749.25	27546.92
749.589	27270.54
749.928	27475.28
750.267	27389.41
750.605	27339.92
750.944	27332.69
751.283	27208.39
751.621	27261.73
751.96	27035.07
752.298	27092.24
752.636	27074.39
752.975	26973.6
753.313	26935.63
753.651	27167.94
753.989	26927.27
754.327	26933.37
754.666	26688.18
755.004	26831.46
755.342	26857.9
755.679	26699.71
756.017	26638.92
756.355	26758.92
756.693	26662.19
757.031	26748.75
757.368	26486.15
757.706	26429.21
758.044	26476.66
758.381	26445.48
758.719	26294.07
759.056	26388.3
759.394	26271.47
759.731	26110.8
760.068	26021.99
760.405	25983.79
760.743	25839.84
761.08	26001.87
761.417	25907.64
761.754	25818.37
762.091	25726.85
762.428	25550.36
762.765	25524.6
763.102	25626.06
763.438	25487.99
763.775	25426.07
764.112	25419.74
764.449	25412.51
764.785	25204.83
765.122	25115.34
765.458	25156.7
765.795	25044.61
766.131	25028.34
766.467	24865.86
766.804	24760.32
767.14	24752.87
767.476	24631.74
767.812	24566.66
768.148	24664.73
768.485	24463.61
768.821	24309.94
769.157	24262.03
769.492	24126.44
769.828	24279.66
770.164	24014.13
770.5	24048.93
770.836	23944.53
771.171	23907.46
771.507	23874.7
771.842	23549.96
772.178	23656.4
772.513	23565.55
772.849	23572.56
773.184	23367.14
773.519	23252.79
773.855	23381.15
774.19	23135.51
774.525	23163.76
774.86	23034.72
775.195	23085.57
775.53	22881.5
775.865	22809.19
776.2	22733.71
776.535	22527.61
776.87	22606.26
777.205	22402.42
777.539	22347.96
777.874	22343.89
778.209	22225.02
778.543	22193.16
778.878	21960.17
779.212	22073.84
779.547	21946.16
779.881	22007.85
780.215	21731.7
780.55	21685.6
780.884	21613.29
781.218	21527.64
781.552	21551.59
781.886	21464.14
782.22	21351.83
782.554	21276.35
782.888	21093.75
783.222	21003.13
783.556	20846.98
783.889	20774.44
784.223	20682.24
784.557	20634.33
784.89	20682.46
785.224	20577.16
785.557	20542.36
785.891	20395.92
786.224	20406.54
786.558	20432.53
786.891	20202.48
787.224	20058.3
787.557	20113.21
787.891	20076.83
788.224	19990.73
788.557	20039.77
788.89	20006.78
789.223	19973.56
789.556	19773.34
789.888	19615.15
790.221	19583.28
790.554	19399.79
790.887	19444.76
791.219	19458.54
791.552	19333.57
791.884	19242.5
792.217	19164.76
792.549	19180.58
792.882	18941.04
793.214	18921.83
793.546	18924.32
793.879	18795.28
794.211	18713.02
794.543	18765.68
794.875	18646.36
795.207	18799.8
795.539	18609.75
795.871	18565.01
796.203	18471.68
796.535	18357.78
796.867	18304.22
797.198	18144.68
797.53	18255.41
797.862	18058.8
798.193	18121.4
798.525	17946.04
798.856	17975.64
799.188	17876.21
799.519	17751.69
799.85	17731.58
800.182	17678.48
800.513	17732.94
800.844	17564.13
801.175	17597.8
801.506	17528.88
801.837	17526.16
802.168	17404.36
802.499	17392.83
802.83	17305.6
803.161	17220.63
803.491	17265.38
803.822	17165.72
804.153	17078.27
804.483	17061.32
804.814	16948.33
805.145	16966.63
805.475	16847.99
805.805	16864.26
806.136	16850.02
806.466	16743.59
806.796	16684.6
807.126	16714.89
807.457	16560.54
807.787	16551.95
808.117	16379.75
808.447	16341.34
808.777	16522.57
809.107	16360.54
809.436	16370.94
809.766	16281.45
810.096	16206.88
810.426	16175.01
810.755	16181.57
811.085	16109.93
811.414	16150.38
811.744	15986.09
812.073	16013.43
812.403	15979.99
812.732	15951.06
813.061	15886.43
813.39	15798.3
813.719	15669.04
814.049	15859.09
814.378	15723.72
814.707	15676.27
815.036	15603.73
815.365	15517.4
815.693	15377.52
816.022	15392.43
816.351	15304.98
816.68	15330.29
817.008	15347.92
817.337	15213.46
817.665	15173.46
817.994	15286.67
818.322	15191.54
818.651	15015.72
818.979	15049.17
819.307	15132.33
819.636	15090.07
819.964	15058.66
820.292	15045.32
820.62	14954.93
820.948	14948.6
821.276	14869.74
821.604	14790.42
821.932	14963.52
822.259	14871.32
822.587	14910.86
822.915	14846.46
823.243	14883.3
823.57	14780.92
823.898	14834.93
824.225	14790.19
824.553	14838.55
824.88	14891.66
825.207	14963.74
825.535	14890.07
825.862	14941.37
826.189	14856.63
826.516	14846.46
826.843	14840.81
827.17	14823.86
827.497	14915.84
827.824	14882.17
828.151	14879.23
828.478	14824.54
828.805	14885.78
829.131	14909.74
829.458	14846.23
829.785	14750.42
830.111	14766.46
830.438	14833.13
830.764	14823.18
831.09	14843.52
831.417	14767.37
831.743	14877.87
832.069	14777.08
832.395	14739.8
832.722	14721.72
833.048	14785.9
833.374	14788.61
833.7	14661.38
834.026	14666.8
834.351	14696.63
834.677	14693.02
835.003	14667.71
835.329	14626.13
835.654	14549.97
835.98	14551.78
836.306	14531.67
836.631	14563.08
836.956	14551.1
837.282	14527.82
837.607	14493.47
837.932	14437.88
838.258	14422.74
838.583	14495.96
838.908	14336.64
839.233	14394.49
839.558	14324.44
839.883	14269.53
840.208	14226.59
840.533	14289.64
840.858	14258.68
841.182	14274.95
841.507	14209.41
841.832	14164.9
842.156	14125.57
842.481	14120.15
842.805	14081.51
843.13	14073.82
843.454	14011.68
843.778	13987.73
844.103	13871.8
844.427	13806.71
844.751	13947.5
845.075	13832.48
845.399	13771.01
845.723	13780.05
846.047	13677.23
846.371	13624.12
846.695	13631.35
847.019	13517.91
847.343	13414.86
847.666	13405.59
847.99	13376.22
848.313	13259.61
848.637	13277.01
848.96	13153.17
849.284	13119.27
849.607	13078.6
849.931	12999.95
850.254	12876.57
850.577	12856
850.9	12791.6
851.223	12853.74
851.546	12778.49
851.869	12649.91
852.192	12744.82
852.515	12609.23
852.838	12534.43
853.161	12599.06
853.483	12452.4
853.806	12415.79
854.129	12409.24
854.451	12385.06
854.774	12349.12
855.096	12222.12
855.419	12181.9
855.741	12152.07
856.063	12131.73
856.385	12124.5
856.708	12004.05
857.03	12021.68
857.352	12063.71
857.674	11936.48
857.996	11952.52
858.318	11834.34
858.64	11851.96
858.961	11859.65
859.283	11782.59
859.605	11695.58
859.926	11703.72
860.248	11739.87
860.57	11697.62
860.891	11689.71
861.212	11569.71
861.534	11592.31
861.855	11469.15
862.176	11572.42
862.498	11588.92
862.819	11573.33
863.14	11499.66
863.461	11461.69
863.782	11461.46
864.103	11419.43
864.424	11339.89
864.745	11349.83
865.065	11331.52
865.386	11289.27
865.707	11281.81
866.027	11289.72
866.348	11247.23
866.668	11256.05
866.989	11184.64
867.309	11189.83
867.63	11196.61
867.95	11195.93
868.27	11101.25
868.59	11061.7
868.91	11057.18
869.23	11081.14
869.55	11063.28
869.87	11086.78
870.19	11001.14
870.51	10996.39
870.83	10947.58
871.15	10935.83
871.469	10906
871.789	10932.44
872.109	10947.13
872.428	10868.26
872.748	10907.35
873.067	10813.35
873.386	10917.52
873.706	10877.75
874.025	10813.35
874.344	10755.27
874.663	10826.9
874.982	10781.48
875.301	10806.79
875.62	10661.49
875.939	10679.79
876.258	10684.99
876.577	10667.81
876.896	10685.44
877.214	10592.56
877.533	10646.34
877.852	10681.15
878.17	10568.38
878.489	10560.02
878.807	10531.32
879.125	10527.48
879.444	10494.26
879.762	10459
880.08	10494.48
880.398	10397.76
880.716	10424.2
881.034	10475.05
881.352	10391.44
881.67	10311.66
881.988	10354.15
882.306	10342.62
882.624	10268.05
882.941	10288.84
883.259	10181.95
883.577	10213.36
883.894	10205.9
884.212	10083.87
884.529	10166.58
884.846	10084.78
885.164	10083.87
885.481	10053.37
885.798	10022.41
886.115	9997.55
886.432	10004.78
886.75	9933.59
887.067	9972.46
887.383	9939.7
887.7	9886.14
888.017	9884.78
888.334	9840.49
888.651	9887.95
888.967	9797.33
889.284	9777.67
889.6	9745.35
889.917	9712.81
890.233	9688.86
890.55	9609.08
890.866	9674.84
891.182	9704
891.498	9562.31
891.815	9584.23
892.131	9489.31
892.447	9511.23
892.763	9491.57
893.079	9482.08
893.395	9456.55
893.71	9391.91
894.026	9330.9
894.342	9345.59
894.657	9273.27
894.973	9318.92
895.289	9273.05
895.604	9262.88
895.92	9149.21
896.235	9156.67
896.55	9093.16
896.865	9147.63
897.181	9103.11
897.496	9069.21
897.811	9016.1
898.126	8995.09
898.441	8926.39
898.756	8927.29
899.071	8841.65
899.386	8920.74
899.7	8764.36
900.015	8739.95
900.33	8663.12
900.644	8690.46
900.959	8706.73
901.273	8638.04
901.588	8598.71
901.902	8536.34
902.216	8511.94
902.531	8542.44
902.845	8460.41
903.159	8420.64
903.473	8415.67
903.787	8327.08
904.101	8345.61
904.415	8351.26
904.729	8274.88
905.042	8275.33
905.356	8218.84
905.67	8161.21
905.984	8188.33
906.297	8145.85
906.611	8112.85
906.924	8098.61
907.237	8114.43
907.551	8061.33
907.864	8012.52
908.177	7958.28
908.491	8010.03
908.804	7892.97
909.117	7828.79
909.43	7868.34
909.743	7806.19
910.056	7820.2
910.368	7733.2
910.681	7714.9
910.994	7727.1
911.307	7634.22
911.619	7580.89
911.932	7615.24
912.244	7608.23
912.557	7515.35
912.869	7542.47
913.181	7455.69
913.494	7458.18
913.806	7363.94
914.118	7404.17
914.43	7325.75
914.742	7284.4
915.054	7325.53
915.366	7294.79
915.678	7173.22
915.99	7218.41
916.302	7194.01
916.613	7171.63
916.925	7116.49
917.236	7040.11
917.548	6993.11
917.859	7041.47
918.171	6972.32
918.482	6918.76
918.794	6930.96
919.105	6908.82
919.416	6842.15
919.727	6794.69
920.038	6829.27
920.349	6739.78
920.66	6745.43
920.971	6723.74
921.282	6699.78
921.593	6661.36
921.903	6638.77
922.214	6597.86
922.525	6557.86
922.835	6582.27
923.146	6500.92
923.456	6499.33
923.767	6488.94
924.077	6469.05
924.387	6454.82
924.697	6416.85
925.008	6359.9
925.318	6348.38
925.628	6306.35
925.938	6303.63
926.248	6218.21
926.558	6201.04
926.867	6221.15
927.177	6161.26
927.487	6135.73
927.796	6137.76
928.106	6121.49
928.416	6062.96
928.725	6031.32
929.034	6017.54
929.344	5964.43
929.653	6010.99
929.962	5913.59
930.271	5890.09
930.581	5892.35
930.89	5833.59
931.199	5862.52
931.508	5833.59
931.817	5823.19
932.125	5757.66
932.434	5747.72
932.743	5737.32
933.051	5727.15
933.36	5636.31
933.669	5675.85
933.977	5615.97
934.286	5602.64
934.594	5592.24
934.902	5554.5
935.21	5479.02
935.519	5509.08
935.827	5494.84
936.135	5429.76
936.443	5421.17
936.751	5412.13
937.059	5380.27
937.367	5329.65
937.674	5362.87
937.982	5315.86
938.29	5313.15
938.597	5308.63
938.905	5243.55
939.213	5228.18
939.52	5156.77
939.827	5204.45
940.135	5123.55
940.442	5140.05
940.749	5134.17
941.056	5129.88
941.363	5013.5
941.67	5041.97
941.977	4996.55
942.284	4998.58
942.591	4997.68
942.898	4960.62
943.205	4949.54
943.511	4925.82
943.818	4917.46
944.125	4889.89
944.431	4819.6
944.738	4885.82
945.044	4787.74
945.35	4750.91
945.657	4751.36
945.963	4736.44
946.269	4723.34
946.575	4692.38
946.881	4623.68
947.187	4662.77
947.493	4623.68
947.799	4616.67
948.105	4579.16
948.41	4517.24
948.716	4542.1
949.022	4552.04
949.327	4530.8
949.633	4444.7
949.938	4460.97
950.244	4438.15
950.549	4463.68
950.854	4374.42
951.16	4354.98
951.465	4373.97
951.77	4335.55
952.075	4342.33
952.38	4333.97
952.685	4278.83
952.99	4248.77
953.294	4244.93
953.599	4240.86
953.904	4183.24
954.209	4227.98
954.513	4195.67
954.818	4163.8
955.122	4145.95
955.426	4123.13
955.731	4166.06
956.035	4081.09
956.339	4097.14
956.643	4050.13
956.948	4036.35
957.252	4044.03
957.556	4021.66
957.86	4017.82
958.163	3962.9
958.467	3985.28
958.771	3984.37
959.075	3907.76
959.378	3942.11
959.682	3905.73
959.985	3902.11
960.289	3848.78
960.592	3842.46
960.896	3813.76
961.199	3843.81
961.502	3823.47
961.805	3778.95
962.108	3740.54
962.411	3773.76
962.714	3727.88
963.017	3710.71
963.32	3696.7
963.623	3711.39
963.926	3689.47
964.228	3641.33
964.531	3648.56
964.833	3621.22
965.136	3599.07
965.438	3581.67
965.741	3556.36
966.043	3551.62
966.345	3557.27
966.648	3497.38
966.95	3477.49
967.252	3474.1
967.554	3443.6
967.856	3476.82
968.158	3441.11
968.46	3409.02
968.761	3433.65
969.063	3407.66
969.365	3412.18
969.666	3377.38
969.968	3320.66
970.269	3326.54
970.571	3306.42
970.872	3309.81
971.174	3290.15
971.475	3298.74
971.776	3262.81
972.077	3277.5
972.378	3249.25
972.679	3250.38
972.98	3254.45
973.281	3190.5
973.582	3175.81
973.883	3186.65
974.183	3169.03
974.484	3132.64
974.785	3115.24
975.085	3119.99
975.386	3120.89
975.686	3091.74
975.986	3072.31
976.287	3023.27
976.587	3041.8
976.887	3063.94
977.187	3024.4
977.487	3009.93
977.787	2983.49
978.087	2923.61
978.387	2944.4
978.687	2930.84
978.987	2901.24
979.286	2941.91
979.586	2934
979.885	2883.84
980.185	2887.9
980.484	2858.07
980.784	2845.65
981.083	2838.41
981.382	2859.43
981.682	2863.27
981.981	2796.16
982.28	2801.13
982.579	2740.79
982.878	2828.24
983.177	2767.91
983.475	2743.95
983.774	2745.31
984.073	2720.45
984.372	2698.08
984.67	2708.93
984.969	2698.98
985.267	2723.16
985.566	2695.14
985.864	2636.84
986.162	2619.89
986.461	2634.13
986.759	2625.09
987.057	2585.99
987.355	2583.05
987.653	2594.35
987.951	2568.36
988.249	2529.5
988.547	2523.85
988.844	2576.95
989.142	2521.81
989.44	2477.52
989.737	2491.76
990.035	2493.79
990.332	2503.51
990.63	2507.35
990.927	2439.78
991.224	2419.89
991.521	2428.48
991.819	2451.08
992.116	2402.72
992.413	2400.01
992.71	2381.02
993.006	2388.93
993.303	2354.58
993.6	2374.02
993.897	2330.63
994.193	2339.22
994.49	2337.86
994.787	2316.85
995.083	2293.12
995.379	2295.38
995.676	2266.45
995.972	2268.03
996.268	2250.86
996.565	2241.14
996.861	2237.3
997.157	2235.94
997.453	2223.74
997.749	2207.7
998.044	2161.37
998.34	2204.98
998.636	2200.92
998.932	2161.14
999.227	2105.55
999.523	2133.8
999.818	2130.18
1000.114	2103.52
1000.409	2073.01
1000.704	2090.19
1001	2116.4
1001.295	2084.54
1001.59	2044.54
1001.885	2054.48
1002.18	2033.46
1002.475	2032.11
1002.77	2015.84
1003.065	1974.48
1003.359	2010.19
1003.654	1972.22
1003.949	1987.81
1004.243	1989.62
1004.538	1925.67
1004.832	1933.58
1005.127	1923.41
1005.421	1931.32
1005.715	1895.39
1006.009	1896.97
1006.304	1873.47
1006.598	1884.31
1006.892	1842.28
1007.186	1859.46
1007.48	1843.64
1007.773	1824.2
1008.067	1819.91
1008.361	1788.72
1008.655	1781.04
1008.948	1763.19
1009.242	1790.31
1009.535	1765
1009.829	1782.62
1010.122	1744.21
1010.415	1740.59
1010.708	1714.83
1011.001	1713.25
1011.295	1715.05
1011.588	1690.87
1011.881	1672.34
1012.173	1697.2
1012.466	1688.16
1012.759	1670.76
1013.052	1662.85
1013.344	1630.54
1013.637	1638.22
1013.93	1637.77
1014.222	1602.06
1014.514	1606.36
1014.807	1589.63
1015.099	1616.75
1015.391	1579.24
1015.683	1562.52
1015.976	1535.4
1016.268	1545.11
1016.56	1537.43
1016.851	1539.24
1017.143	1523.42
1017.435	1509.64
1017.727	1473.48
1018.018	1455.63
1018.31	1494.27
1018.602	1448.62
1018.893	1452.91
1019.185	1461.28
1019.476	1441.61
1019.767	1426.02
1020.058	1437.55
1020.35	1424.67
1020.641	1404.55
1020.932	1392.12
1021.223	1377.21
1021.514	1369.98
1021.804	1373.82
1022.095	1348.96
1022.386	1339.92
1022.677	1374.95
1022.967	1338.79
1023.258	1332.01
1023.548	1299.25
1023.839	1316.65
1024.129	1319.81
1024.419	1262.64
1024.709	1317.32
1025	1276.65
1025.29	1259.47
1025.58	1251.79
1025.87	1222.64
1026.16	1252.92
1026.449	1216.31
1026.739	1209.08
1027.029	1229.87
1027.319	1210.89
1027.608	1221.06
1027.898	1219.47
1028.187	1195.97
1028.477	1171.11
1028.766	1175.18
1029.055	1158.01
1029.344	1118.23
1029.634	1141.28
1029.923	1129.08
1030.212	1127.95
1030.501	1149.19
1030.79	1121.62
1031.078	1100.61
1031.367	1115.07
1031.656	1093.6
1031.945	1084.11
1032.233	1101.96
1032.522	1091.57
1032.81	1062.64
1033.099	1059.7
1033.387	1066.03
1033.675	1060.61
1033.963	1059.03
1034.251	1045.69
1034.54	1043.88
1034.828	1023.32
1035.116	1012.7
1035.403	1027.16
1035.691	992.81
1035.979	995.07
1036.267	973.83
1036.554	991.68
1036.842	979.03
1037.129	971.8
1037.417	972.7
1037.704	960.05
1037.992	951.68
1038.279	946.49
1038.566	935.41
1038.853	935.41
1039.14	935.41
