Data from hue_50_FLMS001491_2.txt Node
Date: Mon Feb 06 15:09:29 GMT 2017
User: dcchb
Spectrometer: FLMS00149
Trigger mode: 0
Integration Time (sec): 2.000000E-2
Scans to average: 10
Electric dark correction enabled: true
Nonlinearity correction enabled: false
Boxcar width: 0
XAxis mode: Wavelengths
Number of Pixels in Spectrum: 2048
>>>>>Begin Spectral Data<<<<<
341.393	17.03
341.776	17.03
342.16	17.03
342.543	-52.8
342.927	-60.93
343.31	-72.46
343.693	-72.23
344.077	-45.79
344.46	-69.07
344.843	-60.7
345.226	-48.5
345.61	-21.84
345.993	-11.44
346.376	-10.54
346.759	10.71
347.142	10.93
347.525	41.89
347.908	64.04
348.291	86.64
348.674	85.05
349.057	113.3
349.44	116.01
349.823	144.04
350.206	147.65
350.588	172.06
350.971	222.45
351.354	217.93
351.737	232.17
352.119	258.84
352.502	267.65
352.884	253.19
353.267	287.53
353.65	280.08
354.032	299.29
354.414	306.74
354.797	306.29
355.179	292.73
355.562	325.5
355.944	314.88
356.326	325.73
356.709	322.79
357.091	350.81
357.473	309
357.855	342.45
358.238	349.91
358.62	335.22
359.002	350.58
359.384	347.65
359.766	327.76
360.148	336.57
360.53	341.32
360.912	338.38
361.294	332.73
361.676	338.61
362.057	317.82
362.439	323.92
362.821	352.62
363.203	324.82
363.584	350.36
363.966	330.92
364.348	329.34
364.729	316.23
365.111	330.25
365.493	343.58
365.874	328.89
366.256	325.05
366.637	311.26
367.019	300.87
367.4	306.29
367.781	309
368.163	331.83
368.544	323.47
368.925	321.66
369.306	312.84
369.688	324.14
370.069	313.52
370.45	302.45
370.831	306.52
371.212	302.68
371.593	310.59
371.974	306.52
372.355	313.07
372.736	319.4
373.117	310.13
373.498	308.33
373.879	308.78
374.26	331.15
374.641	296.57
375.021	308.78
375.402	315.78
375.783	321.43
376.163	324.37
376.544	334.09
376.925	351.04
377.305	328.44
377.686	325.73
378.066	302.9
378.447	325.27
378.827	324.82
379.208	332.05
379.588	313.07
379.968	339.74
380.349	313.97
380.729	319.85
381.109	335.9
381.489	318.95
381.87	318.72
382.25	328.21
382.63	330.92
383.01	339.28
383.39	337.03
383.77	322.56
384.15	325.27
384.53	335.44
384.91	330.47
385.29	330.92
385.67	345.61
386.049	327.31
386.429	333.64
386.809	330.25
387.189	358.27
387.568	356.23
387.948	359.62
388.328	354.2
388.707	336.57
389.087	342
389.466	353.07
389.846	361.88
390.225	353.52
390.605	360.98
390.984	344.48
391.363	341.77
391.743	370.7
392.122	352.17
392.501	379.51
392.881	351.71
393.26	360.75
393.639	375.67
394.018	373.41
394.397	372.28
394.776	363.24
395.155	346.52
395.534	375.67
395.913	385.39
396.292	368.66
396.671	354.65
397.05	370.24
397.429	366.4
397.808	373.41
398.186	382.22
398.565	391.49
398.944	368.44
399.323	361.66
399.701	374.99
400.08	385.16
400.458	386.29
400.837	387.87
401.215	394.42
401.594	383.13
401.972	375.22
402.351	385.39
402.729	386.97
403.107	381.54
403.486	396.01
403.864	378.38
404.242	391.26
404.62	397.14
404.999	423.12
405.377	387.87
405.755	409.34
406.133	386.97
406.511	421.77
406.889	414.09
407.267	400.3
407.645	389.23
408.023	392.84
408.401	413.41
408.779	403.69
409.156	427.19
409.534	419.51
409.912	438.27
410.29	425.16
410.667	439.62
411.045	433.07
411.422	413.41
411.8	440.3
412.178	454.54
412.555	424.48
412.933	446.17
413.31	466.74
413.687	455.21
414.065	444.59
414.442	456.34
414.819	459.96
415.197	447.53
415.574	461.99
415.951	469.9
416.328	469.9
416.705	470.35
417.082	454.08
417.46	467.64
417.837	470.58
418.214	461.99
418.591	467.87
418.967	494.08
419.344	498.15
419.721	466.74
420.098	506.74
420.475	496.79
420.852	508.09
421.228	495.21
421.605	496.57
421.982	492.95
422.358	501.31
422.735	499.73
423.111	499.96
423.488	487.3
423.864	511.26
424.241	512.39
424.617	497.25
424.994	516.23
425.37	519.17
425.746	530.01
426.123	522.1
426.499	515.33
426.875	523.91
427.251	528.66
427.627	565.27
428.003	534.31
428.379	545.83
428.756	577.92
429.132	570.92
429.507	563.23
429.883	546.51
430.259	574.08
430.635	563.23
431.011	570.24
431.387	561.88
431.763	572.95
432.138	593.97
432.514	577.24
432.89	571.14
433.265	610.46
433.641	614.98
434.016	605.27
434.392	608.2
434.767	628.32
435.143	617.47
435.518	619.73
435.894	625.15
436.269	661.99
436.644	631.25
437.02	628.99
437.395	652.05
437.77	649.11
438.145	640.07
438.52	644.81
438.895	668.77
439.271	632.38
439.646	680.52
440.021	675.77
440.395	665.83
440.77	658.37
441.145	669.22
441.52	697.02
441.895	700.63
442.27	694.76
442.645	677.81
443.019	683
443.394	687.75
443.769	716.45
444.143	708.54
444.518	696.56
444.892	711.03
445.267	725.04
445.641	728.88
446.016	708.31
446.39	713.29
446.764	725.26
447.139	737.24
447.513	759.61
447.887	745.6
448.262	752.61
448.636	756.45
449.01	756
449.384	766.17
449.758	752.83
450.132	781.08
450.506	795.09
450.88	767.52
451.254	763.23
451.628	780.63
452.002	791.93
452.376	802.32
452.75	803.23
453.123	798.03
453.497	796
453.871	813.62
454.244	807.52
454.618	836.45
454.992	881.64
455.365	838.71
455.739	852.94
456.112	875.77
456.486	903.79
456.859	899.72
457.232	896.11
457.606	892.04
457.979	906.05
458.352	921.64
458.725	930.46
459.099	918.48
459.472	956.44
459.845	952.6
460.218	987.86
460.591	997.57
460.964	965.26
461.337	1001.64
461.71	1017.69
462.083	1028.53
462.456	1045.71
462.829	1046.38
463.201	1044.58
463.574	1033.96
463.947	1070.79
464.32	1079.15
464.692	1124.8
465.065	1105.14
465.438	1152.37
465.81	1137
466.183	1145.14
466.555	1177
466.928	1210.67
467.3	1208.19
467.672	1212.03
468.045	1227.85
468.417	1267.4
468.789	1276.66
469.161	1287.96
469.534	1285.47
469.906	1330.67
470.278	1357.56
470.65	1358.24
471.022	1417
471.394	1429.65
471.766	1437.56
472.138	1480.5
472.51	1503.32
472.882	1543.32
473.253	1547.39
473.625	1599.82
473.997	1624.67
474.369	1664.67
474.74	1671
475.112	1719.59
475.484	1736.99
475.855	1805.69
476.227	1856.99
476.598	1910.32
476.97	1955.97
477.341	1994.38
477.713	2030.09
478.084	2076.87
478.455	2149.86
478.827	2199.12
479.198	2267.37
479.569	2314.6
479.94	2409.96
480.311	2429.85
480.682	2484.31
481.053	2594.14
481.424	2647.02
481.795	2728.6
482.166	2797.07
482.537	2859.67
482.908	2933.79
483.279	3032.55
483.65	3111.64
484.021	3226.89
484.391	3343.5
484.762	3402.93
485.133	3425.53
485.503	3558.18
485.874	3670.72
486.244	3724.73
486.615	3879.53
486.985	4001.56
487.356	4072.29
487.726	4244.94
488.097	4297.37
488.467	4345.73
488.837	4556.8
489.207	4640.41
489.578	4732.62
489.948	4847.87
490.318	5003.12
490.688	5104.13
491.058	5228.65
491.428	5385.93
491.798	5469.32
492.168	5659.6
492.538	5696.43
492.908	5905.47
493.278	5992.7
493.648	6046.25
494.017	6239.92
494.387	6370.31
494.757	6441.72
495.126	6575.51
495.496	6741.83
495.866	6816.18
496.235	6912.45
496.605	7110.63
496.974	7195.6
497.344	7390.85
497.713	7470.85
498.082	7564.41
498.452	7627.45
498.821	7790.84
499.19	7889.14
499.559	8079.65
499.928	8164.62
500.298	8273.31
500.667	8396.93
501.036	8478.28
501.405	8621.55
501.774	8694.77
502.143	8828.1
502.512	8918.27
502.88	9123.69
503.249	9201.2
503.618	9274.19
503.987	9358.03
504.356	9490.46
504.724	9638.02
505.093	9717.34
505.462	9813.16
505.83	9878.47
506.199	10037.11
506.567	10223.09
506.936	10232.36
507.304	10387.61
507.672	10561.61
508.041	10521.16
508.409	10706.92
508.777	10814.94
509.145	10979.91
509.514	10928.16
509.882	11160.7
510.25	11171.09
510.618	11314.14
510.986	11404.76
511.354	11555.04
511.722	11635.94
512.09	11716.39
512.458	11809.27
512.826	11939.43
513.193	11985.98
513.561	12090.39
513.929	12336.71
514.297	12321.12
514.664	12448.35
515.032	12538.74
515.4	12632.07
515.767	12738.05
516.135	12839.75
516.502	12779.86
516.869	13079.51
517.237	13085.16
517.604	13159.51
517.972	13243.8
518.339	13373.97
518.706	13475.66
519.073	13536.23
519.44	13648.54
519.808	13715.66
520.175	13804.92
520.542	14001.07
520.909	14093.27
521.276	14102.31
521.643	14264.79
522.009	14366.94
522.376	14479.7
522.743	14554.5
523.11	14674.73
523.477	14840.6
523.843	14982.52
524.21	15150.65
524.577	15266.8
524.943	15253.02
525.31	15413.24
525.676	15541.6
526.043	15648.49
526.409	15655.94
526.776	15975.26
527.142	15999.44
527.508	16048.93
527.874	16214.12
528.241	16265.42
528.607	16270.62
528.973	16556.49
529.339	16506.54
529.705	16715.13
530.071	16854.78
530.437	16898.85
530.803	16967.1
531.169	17078.28
531.535	17059.07
531.901	17219.29
532.267	17304.26
532.632	17334.09
532.998	17438.72
533.364	17579.51
533.73	17593.07
534.095	17754.87
534.461	17832.16
534.826	17946.73
535.192	17934.53
535.557	18217.91
535.923	18124.81
536.288	18202.09
536.653	18248.19
537.019	18323.67
537.384	18408.19
537.749	18425.81
538.114	18527.73
538.479	18543.1
538.845	18579.48
539.21	18615.19
539.575	18732.7
539.94	18843.66
540.305	18896.54
540.67	18951
541.034	19050.88
541.399	19107.6
541.764	19168.62
542.129	19172.46
542.494	19367.03
542.858	19308.5
543.223	19447.71
543.587	19601.38
543.952	19549.63
544.316	19590.76
544.681	19658.1
545.045	19767.93
545.41	19887.7
545.774	19919.34
546.138	19923.18
546.503	19997.75
546.867	20078.88
547.231	20182.15
547.595	20289.72
547.959	20325.43
548.324	20387.35
548.688	20414.24
549.052	20479.09
549.416	20538.08
549.779	20615.59
550.143	20745.98
550.507	20846.77
550.871	20940.1
551.235	20868.01
551.599	21075.69
551.962	20991.62
552.326	21041.34
552.689	21282.69
553.053	21173.99
553.417	21222.8
553.78	21431.16
554.143	21378.05
554.507	21567.43
554.87	21671.61
555.234	21916.12
555.597	21780.53
555.96	21825.95
556.323	21994.76
556.686	21935.78
557.05	22033.63
557.413	22261.65
557.776	22185.72
558.139	22412.15
558.502	22425.48
558.865	22502.77
559.228	22651.92
559.59	22651.24
559.953	22803.33
560.316	22977.56
560.679	22952.48
561.041	23157.44
561.404	23221.62
561.767	23423.2
562.129	23341.84
562.492	23550.2
562.854	23476.76
563.217	23660.03
563.579	23594.04
563.941	23828.61
564.304	23850.98
564.666	24022.05
565.028	24048.72
565.39	24102.95
565.753	24195.83
566.115	24391.31
566.477	24477.18
566.839	24461.36
567.201	24696.38
567.563	24672.88
567.925	24917.62
568.287	24951.75
568.648	25011.4
569.01	25104.96
569.372	25233.09
569.734	25270.83
570.095	25371.85
570.457	25508.34
570.819	25587.21
571.18	25575.23
571.542	25811.61
571.903	25835.79
572.265	25859.29
572.626	25901.55
572.987	26008.21
573.349	26184.26
573.71	26243.01
574.071	26383.8
574.432	26434.42
574.794	26716.22
575.155	26570.46
575.516	26680.74
575.877	26783.56
576.238	26887.74
576.599	26988.08
576.96	27054.29
577.32	27137
577.681	27336.09
578.042	27344
578.403	27398.91
578.763	27450.44
579.124	27501.96
579.485	27721.62
579.845	27846.81
580.206	27848.84
580.566	27887.49
580.927	28066.69
581.287	28111.66
581.648	28163.41
582.008	28368.83
582.368	28432.78
582.728	28519.33
583.089	28457.42
583.449	28646.34
583.809	28843.39
584.169	28921.13
584.529	28922.94
584.889	29241.12
585.249	29214.23
585.609	29174.68
585.969	29387.56
586.329	29449.25
586.688	29463.94
587.048	29560.89
587.408	29691.73
587.768	29761.79
588.127	29824.39
588.487	29899.64
588.846	30119.07
589.206	30190.03
589.565	30191.38
589.925	30392.96
590.284	30370.81
590.643	30602.67
591.003	30614.2
591.362	30853.06
591.721	30931.47
592.08	30863.23
592.44	31184.12
592.799	31311.58
593.158	31321.3
593.517	31310.22
593.876	31551.57
594.235	31480.61
594.593	31698.46
594.952	31856.42
595.311	31823.43
595.67	31932.58
596.029	32227.26
596.387	32284.66
596.746	32338.67
597.104	32232.68
597.463	32376.63
597.822	32662.05
598.18	32497.08
598.538	32522.85
598.897	32825.89
599.255	32648.04
599.613	33151.3
599.972	33004.19
600.33	33129.16
600.688	32966.68
601.046	33249.83
601.404	33529.82
601.762	33383.84
602.12	33619.54
602.478	33813.66
602.836	33833.77
603.194	33635.36
603.552	33688.46
603.91	33663.38
604.268	33852.3
604.625	33920.55
604.983	34120.09
605.341	33990.15
605.698	34191.28
606.056	34286.87
606.413	34401.89
606.771	34457.94
607.128	34589.23
607.485	34421.33
607.843	34569.57
608.2	34786.51
608.557	34905.83
608.914	34788.77
609.272	35022.44
609.629	35173.17
609.986	35500.85
610.343	35285.26
610.7	35495.65
611.057	35507.63
611.414	35463.79
611.771	35623.78
612.127	35887.28
612.484	35732.93
612.841	35962.53
613.198	35859.71
613.554	35898.58
613.911	36012.47
614.267	36136.31
614.624	36174.27
614.98	36155.29
615.337	36346.93
615.693	36307.6
616.05	36419.47
616.406	36540.37
616.762	36490.65
617.118	36466.7
617.475	36607.03
617.831	36801.83
618.187	36736.75
618.543	36844.77
618.899	37120.24
619.255	37015.38
619.611	36932
619.967	37224.19
620.323	37258.77
620.678	37171.99
621.034	37046.57
621.39	37107.81
621.746	37125.44
622.101	37528.36
622.457	37179.45
622.812	37490.4
623.168	37509.38
623.523	37516.16
623.879	37636.16
624.234	37418.99
624.589	37560
624.945	37718.42
625.3	37551.64
625.655	37566.55
626.01	37663.28
626.365	37774.23
626.72	37701.69
627.075	37718.42
627.43	37724.97
627.785	37677.96
628.14	37757.74
628.495	37738.98
628.85	37781.92
629.205	37719.09
629.559	37834.34
629.914	37721.35
630.269	37762.26
630.623	37727.45
630.978	37651.75
631.332	37818.53
631.687	37963.83
632.041	37750.28
632.396	37803.16
632.75	37724.97
633.104	37713.9
633.459	37636.16
633.813	37629.6
634.167	37637.51
634.521	37661.69
634.875	37689.72
635.229	37614.69
635.583	37505.09
635.937	37608.36
636.291	37447.46
636.645	37595.25
636.999	37502.38
637.352	37603.39
637.706	37373.79
638.06	37505.54
638.413	37495.14
638.767	37430.74
639.121	37345.09
639.474	37108.04
639.828	37235.49
640.181	37442.04
640.534	37399.33
640.888	37229.39
641.241	37106.45
641.594	37269.84
641.947	37195.26
642.301	37125.89
642.654	37120.24
643.007	37211.76
643.36	37307.58
643.713	37133.8
644.066	37244.98
644.419	36909.85
644.771	36661.72
645.124	36391.22
645.477	36446.81
645.83	36174.73
646.182	35986.03
646.535	36000.27
646.888	36020.15
647.24	35781.29
647.593	36044.11
647.945	35828.75
648.298	35779.03
648.65	35757.34
649.002	35600.5
649.355	35881.63
649.707	35763.21
650.059	35970.44
650.411	36309.86
650.763	36336.3
651.115	36672.79
651.467	36539.91
651.819	36583.98
652.171	36496.53
652.523	36508.5
652.875	36474.83
653.227	36333.14
653.578	36567.26
653.93	36353.48
654.282	36252.01
654.633	36097.44
654.985	36397.09
655.337	36285.91
655.688	36331.33
656.039	36437.77
656.391	36118.46
656.742	36153.94
657.094	36120.94
657.445	36226.7
657.796	36229.19
658.147	36119.81
658.498	36125.46
658.849	36286.36
659.2	36258.79
659.551	36096.08
659.902	36272.35
660.253	35948.07
660.604	36194.84
660.955	35953.04
661.306	36109.19
661.656	36079.59
662.007	36105.35
662.358	36050.21
662.708	36078.23
663.059	36040.49
663.409	35717.56
663.76	35979.03
664.11	36128.4
664.461	36159.59
664.811	36033.71
665.161	36050.66
665.511	35965.24
665.862	36113.94
666.212	36011.12
666.562	36099.02
666.912	36079.59
667.262	35876.43
667.612	35883.66
667.962	35939.03
668.312	35800.27
668.662	36073.71
669.011	35875.3
669.361	35857
669.711	35746.72
670.06	35820.61
670.41	35798.69
670.76	35778.13
671.109	35824
671.459	35794.85
671.808	35683.67
672.157	35778.35
672.507	35559.15
672.856	35596.21
673.205	35579.94
673.554	35680.05
673.904	35498.81
674.253	35855.64
674.602	35582.65
674.951	35092.27
675.3	35037.81
675.649	35557.34
675.998	35540.85
676.346	35390.79
676.695	35594.86
677.044	35363.67
677.393	35471.24
677.741	35507.17
678.09	35388.31
678.438	35397.57
678.787	35407.06
679.135	35358.7
679.484	35086.85
679.832	35282.55
680.181	35135.43
680.529	35180.18
680.877	35171.82
681.225	35031.03
681.573	35213.17
681.922	34880.75
682.27	34902.67
682.618	34836.23
682.966	34783.35
683.314	34931.37
683.661	34782.45
684.009	34678.27
684.357	34617.71
684.705	34564.37
685.053	34541.78
685.4	34466.3
685.748	34258.17
686.095	34313.08
686.443	34234.21
686.79	34211.16
687.138	34278.05
687.485	34178.62
687.832	34123.71
688.18	34183.59
688.527	33952.86
688.874	33928.91
689.221	33810.04
689.568	33655.92
689.915	33652.31
690.262	33769.82
690.609	33479.43
690.956	33618.18
691.303	33391.52
691.65	33311.75
691.997	33335.93
692.344	33252.09
692.69	33130.29
693.037	33121.25
693.383	32935.26
693.73	33034.02
694.077	32787.92
694.423	32666.57
694.769	32751.77
695.116	32549.06
695.462	32556.52
695.808	32445.11
696.155	32503.64
696.501	32140.48
696.847	32339.12
697.193	32133.7
697.539	32148.62
697.885	31831.34
698.231	31809.87
698.577	31929.64
698.923	31814.62
699.269	31615.75
699.614	31534.17
699.96	31455.53
700.306	31547.73
700.651	31336.89
700.997	31239.72
701.342	31185.93
701.688	31072.71
702.033	31015.77
702.379	31165.82
702.724	30981.42
703.069	30929.89
703.415	30637.47
703.76	30672.27
704.105	30665.95
704.45	30631.6
704.795	30390.25
705.14	30430.7
705.485	30312.51
705.83	30162.46
706.175	30339.63
706.52	29979.18
706.865	30044.94
707.209	30002.69
707.554	29918.85
707.899	29917.49
708.243	29764.73
708.588	29772.41
708.932	29568.12
709.277	29504.39
709.621	29525.18
709.966	29348.92
710.31	29436.82
710.654	29177.4
710.998	29255.13
711.342	29173.78
711.687	29127.23
712.031	29047.68
712.375	28922.94
712.719	28992.77
713.063	28871.42
713.407	29115.48
713.75	28824.64
714.094	28722.95
714.438	28566.34
714.782	28807.91
715.125	28426.91
715.469	28597.52
715.812	28486.57
716.156	28337.19
716.499	28292.45
716.843	28259.91
717.186	28097.2
717.53	28327.25
717.873	28275.05
718.216	28081.15
718.559	27907.6
718.902	27837.32
719.246	28004.09
719.589	27841.39
719.932	27689.53
720.275	27740.82
720.617	27770.43
720.96	27728.4
721.303	27639.36
721.646	27682.07
721.989	27503.77
722.331	27568.4
722.674	27552.13
723.016	27413.83
723.359	27294.96
723.701	27486.82
724.044	27252.48
724.386	27147.85
724.729	27224.91
725.071	27170.22
725.413	27208.41
725.755	27062.42
726.097	27045.7
726.439	26852.71
726.782	26817.46
727.124	26918.7
727.465	26689.78
727.807	26887.97
728.149	26744.92
728.491	26692.94
728.833	26700.85
729.175	26578.82
729.516	26554.64
729.858	26569.56
730.199	26537.69
730.541	26418.15
730.882	26426.73
731.224	26539.05
731.565	26364.36
731.906	26256.12
732.248	26329.79
732.589	26272.61
732.93	26117.59
733.271	26191.49
733.612	26130.92
733.953	26278.04
734.294	26058.83
734.635	25957.59
734.976	26076.24
735.317	25873.08
735.658	25837.6
735.999	25882.12
736.339	25889.35
736.68	25859.74
737.021	25801.67
737.361	25655
737.702	25829.69
738.042	25784.49
738.383	25615
738.723	25657.94
739.063	25556.7
739.404	25608.45
739.744	25458.62
740.084	25426.99
740.424	25368.01
740.764	25330.27
741.104	25568.23
741.444	25230.83
741.784	25244.62
742.124	25277.61
742.464	25208.01
742.804	25098.86
743.143	25065.64
743.483	25108.58
743.823	24896.38
744.162	24967.34
744.502	25113.77
744.841	24808.92
745.181	24941.35
745.52	24862.93
745.86	24876.72
746.199	24782.94
746.538	24574.13
746.877	24835.59
747.216	24683.05
747.556	24683.5
747.895	24598.99
748.234	24507.24
748.573	24445.54
748.911	24542.26
749.25	24513.34
749.589	24369.39
749.928	24458.65
750.267	24421.59
750.605	24335.49
750.944	24241.03
751.283	24190.41
751.621	24186.12
751.96	24111.09
752.298	24055.95
752.636	24198.32
752.975	24027.25
753.313	23904.77
753.651	23956.07
753.989	23867.71
754.327	23887.14
754.666	23700.03
755.004	23655.73
755.342	23699.35
755.679	23701.83
756.017	23486.02
756.355	23572.8
756.693	23549.3
757.031	23491.9
757.368	23335.29
757.706	23280.15
758.044	23283.31
758.381	23262.3
758.719	23089.65
759.056	23209.87
759.394	23052.59
759.731	22891.69
760.068	22893.27
760.405	22867.73
760.743	22713.16
761.08	22733.27
761.417	22715.19
761.754	22634.74
762.091	22470.45
762.428	22545.25
762.765	22345.71
763.102	22385.71
763.438	22232.27
763.775	22062.56
764.112	22157.24
764.449	22180.97
764.785	22099.39
765.122	21847.65
765.458	21921.77
765.795	21865.27
766.131	21764.48
766.467	21779.85
766.804	21488.56
767.14	21496.24
767.476	21498.73
767.812	21410.37
768.148	21449.24
768.485	21236.36
768.821	21231.16
769.157	21110.04
769.492	20984.84
769.828	21025.29
770.164	20880.44
770.5	20799.54
770.836	20829.37
771.171	20775.13
771.507	20650.84
771.842	20574.46
772.178	20630.5
772.513	20567.91
772.849	20409.94
773.184	20260.57
773.519	20343.73
773.855	20124.98
774.19	20040.69
774.525	20046.11
774.86	20082.49
775.195	19907.58
775.53	19840.24
775.865	19761.37
776.2	19641.6
776.535	19557.08
776.87	19489.29
777.205	19486.58
777.539	19372.46
777.874	19348.95
778.209	19241.16
778.543	19276.19
778.878	19048.4
779.212	19060.15
779.547	19020.38
779.881	18930.66
780.215	18788.97
780.55	18911.23
780.884	18674.62
781.218	18731.8
781.552	18675.3
781.886	18565.92
782.22	18503.78
782.554	18459.71
782.888	18217.01
783.222	18144.69
783.556	18128.87
783.889	18105.37
784.223	18010.23
784.557	18035.09
784.89	17954.87
785.224	17794.87
785.557	17761.65
785.891	17646.4
786.224	17701.09
786.558	17709.45
786.891	17483.69
787.224	17412.96
787.557	17396.92
787.891	17367.31
788.224	17307.65
788.557	17258.39
788.89	17227.88
789.223	17114.66
789.556	17001.22
789.888	17044.38
790.221	16865.4
790.554	16829.47
790.887	16809.36
791.219	16751.96
791.552	16706.09
791.884	16584.06
792.217	16582.02
792.549	16511.74
792.882	16373.67
793.214	16302.48
793.546	16443.49
793.879	16206.21
794.211	16196.5
794.543	16194.46
794.875	16207.57
795.207	16212.54
795.539	16013
795.871	16100.45
796.203	15907.01
796.535	15797.41
796.867	15758.54
797.198	15740.91
797.53	15675.15
797.862	15592.67
798.193	15613.01
798.525	15566
798.856	15527.13
799.188	15424.31
799.519	15296.63
799.85	15278.1
800.182	15286.46
800.513	15250.76
800.844	15170.99
801.175	15193.36
801.506	15228.16
801.837	15099.57
802.168	15092.34
802.499	15008.96
802.83	14995.4
803.161	14884.44
803.491	14880.37
803.822	14912.01
804.153	14755.4
804.483	14693.94
804.814	14663.2
805.145	14568.52
805.475	14578.01
805.805	14528.52
806.136	14541.85
806.466	14515.86
806.796	14469.08
807.126	14304.12
807.457	14282.87
807.787	14318.8
808.117	14284.68
808.447	14212.37
808.777	14196.1
809.107	14147.74
809.436	14018.25
809.766	14011.24
810.096	14009.21
810.426	13989.55
810.755	13967.18
811.085	13925.14
811.414	13952.71
811.744	13852.83
812.073	13824.35
812.403	13738.93
812.732	13693.28
813.061	13574.64
813.39	13614.87
813.719	13586.17
814.049	13618.71
814.378	13593.63
814.707	13523.34
815.036	13555.89
815.365	13391.6
815.693	13309.79
816.022	13345.72
816.351	13301.66
816.68	13201.55
817.008	13246.52
817.337	13165.39
817.665	13048.33
817.994	13226.4
818.322	13098.72
818.651	13152.28
818.979	12973.08
819.307	13080.64
819.636	12932.4
819.964	12842.46
820.292	12990.93
820.62	12960.2
820.948	12884.94
821.276	12917.71
821.604	12884.94
821.932	12933.76
822.259	12893.53
822.587	12919.75
822.915	12917.26
823.243	12875.45
823.57	12814.89
823.898	12883.36
824.225	12834.55
824.553	12822.8
824.88	12831.61
825.207	12936.24
825.535	12830.48
825.862	12860.54
826.189	12808.34
826.516	12875.45
826.843	12847.2
827.17	12792.74
827.497	12851.27
827.824	12864.38
828.151	12848.33
828.478	12799.97
828.805	12870.71
829.131	12823.93
829.458	12751.84
829.785	12715
830.111	12755.91
830.438	12846.53
830.764	12771.95
831.09	12760.65
831.417	12756.36
831.743	12823.7
832.069	12714.78
832.395	12727.66
832.722	12778.28
833.048	12688.79
833.374	12728.11
833.7	12596.36
834.026	12745.51
834.351	12666.87
834.677	12602.69
835.003	12652.18
835.329	12675.23
835.654	12592.3
835.98	12578.51
836.306	12575.8
836.631	12538.96
836.956	12644.72
837.282	12529.47
837.607	12518.63
837.932	12536.03
838.258	12546.2
838.583	12445.86
838.908	12385.75
839.233	12367.22
839.558	12340.55
839.883	12359.53
840.208	12289.03
840.533	12204.74
840.858	12232.08
841.182	12261.91
841.507	12327.44
841.832	12164.51
842.156	12184.62
842.481	12138.97
842.805	12149.14
843.13	12038.41
843.454	12111.63
843.778	12066.89
844.103	11978.53
844.427	11939.66
844.751	11913.67
845.075	11873.67
845.399	11919.09
845.723	11841.81
846.047	11777.85
846.371	11750.06
846.695	11737.86
847.019	11617.63
847.343	11626.67
847.666	11494.47
847.99	11466.68
848.313	11505.54
848.637	11372.89
848.96	11348.49
849.284	11396.62
849.607	11279.56
849.931	11277.75
850.254	11201.6
850.577	11138.77
850.9	11034.6
851.223	10983.3
851.546	11028.04
851.869	10917.09
852.192	10961.38
852.515	10860.36
852.838	10847.48
853.161	10806.35
853.483	10812.23
853.806	10699.24
854.129	10748.28
854.451	10614.72
854.774	10662.4
855.096	10582.63
855.419	10567.26
855.741	10521.62
856.063	10464.44
856.385	10409.53
856.708	10412.92
857.03	10413.37
857.352	10374.5
857.674	10343.32
857.996	10258.57
858.318	10213.83
858.64	10207.95
858.961	10224.67
859.283	10183.77
859.605	10064.68
859.926	10177.67
860.248	10127.5
860.57	10027.84
860.891	10055.64
861.212	9987.17
861.534	10054.74
861.855	10017.45
862.176	10042.31
862.498	9912.37
862.819	9918.92
863.14	9933.38
863.461	9923.21
863.782	9843.89
864.103	9855.87
864.424	9767.96
864.745	9850.45
865.065	9726.38
865.386	9806.83
865.707	9799.15
866.027	9755.08
866.348	9696.55
866.668	9715.76
866.989	9697.68
867.309	9678.02
867.63	9652.71
867.95	9612.71
868.27	9522.55
868.59	9596.22
868.91	9576.78
869.23	9487.97
869.55	9515.54
869.87	9607.74
870.19	9489.33
870.51	9566.61
870.83	9479.84
871.15	9454.3
871.469	9443.9
871.789	9531.59
872.109	9428.54
872.428	9383.57
872.748	9316.45
873.067	9371.59
873.386	9344.25
873.706	9423.11
874.025	9304.47
874.344	9288.2
874.663	9283.46
874.982	9286.39
875.301	9266.51
875.62	9180.63
875.939	9197.58
876.258	9294.3
876.577	9191.26
876.896	9165.49
877.214	9180.18
877.533	9180.18
877.852	9167.98
878.17	9117.13
878.489	9104.48
878.807	9112.61
879.125	9061.77
879.444	9100.86
879.762	9073.97
880.08	9069.9
880.398	9017.02
880.716	8985.39
881.034	8960.3
881.352	8966.85
881.67	8960.08
881.988	8984.03
882.306	8950.58
882.624	8893.86
882.941	8812.06
883.259	8777.26
883.577	8790.81
883.894	8714.21
884.212	8794.88
884.529	8740.65
884.846	8709.01
885.164	8689.12
885.481	8673.75
885.798	8705.84
886.115	8629.01
886.432	8591.72
886.75	8594.66
887.067	8644.6
887.383	8582.01
887.7	8550.14
888.017	8573.42
888.334	8568.67
888.651	8527.09
888.967	8501.56
889.284	8485.06
889.6	8394.44
889.917	8417.49
890.233	8378.17
890.55	8342.24
890.866	8364.16
891.182	8329.58
891.498	8282.58
891.815	8260.66
892.131	8250.04
892.447	8265.86
892.763	8209.36
893.079	8156.93
893.395	8155.35
893.71	8179.08
894.026	8113.77
894.342	8046.43
894.657	8021.57
894.973	7997.16
895.289	7998.52
895.604	8036.71
895.92	7957.16
896.235	7895.7
896.55	7980.44
896.865	7852.31
897.181	7820.9
897.496	7860.22
897.811	7818.41
898.126	7746.77
898.441	7830.61
898.756	7754.68
899.071	7734.8
899.386	7719.88
899.7	7573.67
900.015	7574.8
900.33	7518.53
900.644	7484.41
900.959	7521.24
901.273	7519.66
901.588	7431.75
901.902	7520.11
902.216	7359.21
902.531	7354.92
902.845	7416.84
903.159	7294.36
903.473	7288.93
903.787	7274.7
904.101	7242.38
904.415	7260.68
904.729	7202.38
905.042	7150.41
905.356	7124.87
905.67	7111.54
905.984	7175.49
906.297	7068.6
906.611	6998.77
906.924	7036.96
907.237	6985.21
907.551	6953.12
907.864	6913.35
908.177	6912.9
908.491	6913.8
908.804	6900.69
909.117	6846.68
909.43	6779.34
909.743	6778.21
910.056	6747.93
910.368	6745.9
910.681	6671.1
910.994	6647.37
911.307	6662.51
911.619	6611.21
911.932	6643.53
912.244	6534.6
912.557	6528.95
912.869	6502.06
913.181	6506.13
913.494	6451.44
913.806	6426.58
914.118	6381.39
914.43	6288.06
914.742	6370.09
915.054	6312.46
915.366	6283.08
915.678	6266.81
915.99	6224.1
916.302	6160.37
916.613	6191.33
916.925	6181.62
917.236	6144.78
917.548	6137.1
917.859	6067.27
918.171	6057.33
918.482	6078.12
918.794	6027.5
919.105	5976.65
919.416	5957.22
919.727	5918.8
920.038	5932.81
920.349	5839.03
920.66	5870.44
920.971	5872.7
921.282	5798.35
921.593	5727.62
921.903	5720.16
922.214	5705.92
922.525	5693.49
922.835	5684.46
923.146	5647.39
923.456	5639.03
923.767	5624.57
924.077	5587.73
924.387	5541.41
924.697	5537.79
925.008	5583.67
925.318	5523.1
925.628	5534.63
925.938	5492.82
926.248	5447.63
926.558	5405.14
926.867	5419.38
927.177	5341.41
927.487	5368.76
927.796	5310.91
928.106	5319.04
928.416	5295.54
928.725	5279.04
929.034	5211.25
929.344	5242.88
929.653	5178.48
929.962	5141.19
930.271	5153.85
930.581	5105.04
930.89	5084.47
931.199	5075.88
931.508	5078.14
931.817	5036.11
932.125	5063
932.434	5004.02
932.743	4961.99
933.051	4969.67
933.36	4947.3
933.669	4892.16
933.977	4917.24
934.286	4859.17
934.594	4839.05
934.902	4810.81
935.21	4801.54
935.519	4757.47
935.827	4748.43
936.135	4746.63
936.443	4687.42
936.751	4708.44
937.059	4667.76
937.367	4650.81
937.674	4665.72
937.982	4617.82
938.29	4588.89
938.597	4609.46
938.905	4581.66
939.213	4547.08
939.52	4544.37
939.827	4543.24
940.135	4496.69
940.442	4497.14
940.749	4456.24
941.056	4481.1
941.363	4390.48
941.67	4434.32
941.977	4368.33
942.284	4352.51
942.591	4364.49
942.898	4353.42
943.205	4299.41
943.511	4267.54
943.818	4305.51
944.125	4238.39
944.431	4237.26
944.738	4191.61
945.044	4199.52
945.35	4163.59
945.657	4138.96
945.963	4140.99
946.269	4131.73
946.575	4096.93
946.881	4097.6
947.187	4060.99
947.493	4043.37
947.799	4025.74
948.105	4011.5
948.41	3992.3
948.716	3988.68
949.022	3973.99
949.327	3964.73
949.633	3947.78
949.938	3957.04
950.244	3910.49
950.549	3881.34
950.854	3872.75
951.16	3871.85
951.465	3835.69
951.77	3817.61
952.075	3795.47
952.38	3812.87
952.685	3798.4
952.99	3698.97
953.294	3759.31
953.599	3743.49
953.904	3675.02
954.209	3674.56
954.513	3676.6
954.818	3638.41
955.122	3651.74
955.426	3596.15
955.731	3613.32
956.035	3586.21
956.339	3595.92
956.643	3608.13
956.948	3559.99
957.252	3575.81
957.556	3537.62
957.86	3497.85
958.163	3498.52
958.467	3493.1
958.771	3465.53
959.075	3448.58
959.378	3443.16
959.682	3461.69
959.985	3414.68
960.289	3411.52
960.592	3349.83
960.896	3368.58
961.199	3362.48
961.502	3343.95
961.805	3337.4
962.108	3275.7
962.411	3294.91
962.714	3254.91
963.017	3249.72
963.32	3271.86
963.623	3204.29
963.926	3259.21
964.228	3193.9
964.531	3206.78
964.833	3205.2
965.136	3140.79
965.438	3157.97
965.741	3143.05
966.043	3102.83
966.345	3123.17
966.648	3098.08
966.95	3110.74
967.252	3066.22
967.554	3065.99
967.856	3049.95
968.158	3043.85
968.46	3012.66
968.761	2993.23
969.063	2991.64
969.365	3032.32
969.666	2978.54
969.968	2967.46
970.269	2929.05
970.571	2940.35
970.872	2970.85
971.174	2882.27
971.475	2915.26
971.776	2884.08
972.077	2856.28
972.378	2872.78
972.679	2874.81
972.98	2860.35
973.281	2785.55
973.582	2782.84
973.883	2835.04
974.183	2783.51
974.484	2765.66
974.785	2715.49
975.085	2763.63
975.386	2771.09
975.686	2735.38
975.986	2710.52
976.287	2691.09
976.587	2665.78
976.887	2672.56
977.187	2677.53
977.487	2640.02
977.787	2648.6
978.087	2657.64
978.387	2651.54
978.687	2590.75
978.987	2604.08
979.286	2581.26
979.586	2558.44
979.885	2550.75
980.185	2529.74
980.484	2508.72
980.784	2521.15
981.083	2527.7
981.382	2492.67
981.682	2512.79
981.981	2457.65
982.28	2474.82
982.579	2454.26
982.878	2449.96
983.177	2445.44
983.475	2433.24
983.774	2383.98
984.073	2419.23
984.372	2412
984.67	2387.59
984.969	2357.08
985.267	2352.34
985.566	2342.62
985.864	2364.77
986.162	2355.73
986.461	2331.55
986.759	2348.27
987.057	2314.37
987.355	2296.07
987.653	2261.27
987.951	2268.95
988.249	2269.86
988.547	2259.69
988.844	2245.45
989.142	2279.35
989.44	2233.47
989.737	2195.51
990.035	2186.24
990.332	2199.12
990.63	2181.04
990.927	2162.97
991.224	2186.47
991.521	2169.97
991.819	2143.08
992.116	2134.72
992.413	2116.87
992.71	2085
993.006	2134.72
993.303	2123.42
993.6	2095.85
993.897	2101.27
994.193	2067.83
994.49	2079.58
994.787	2024.66
995.083	2033.48
995.379	2049.07
995.676	2005.23
995.972	2016.53
996.268	2000.94
996.565	1990.77
996.861	1990.77
997.157	2001.61
997.453	1979.69
997.749	1975.4
998.044	1977.89
998.34	1919.36
998.636	1934.05
998.932	1934.05
999.227	1925.46
999.523	1928.85
999.818	1895.18
1000.114	1882.75
1000.409	1867.38
1000.704	1848.4
1001	1838
1001.295	1822.86
1001.59	1838.45
1001.885	1806.59
1002.18	1810.43
1002.475	1827.83
1002.77	1775.86
1003.065	1776.99
1003.359	1766.59
1003.654	1757.33
1003.949	1779.92
1004.243	1741.28
1004.538	1732.47
1004.832	1747.38
1005.127	1732.02
1005.421	1724.56
1005.715	1692.24
1006.009	1684.56
1006.304	1673.94
1006.598	1665.13
1006.892	1649.53
1007.186	1633.49
1007.48	1639.14
1007.773	1620.38
1008.067	1633.26
1008.361	1647.95
1008.655	1608.63
1008.948	1640.27
1009.242	1598.91
1009.535	1599.82
1009.829	1566.6
1010.122	1567.73
1010.415	1549.42
1010.708	1552.36
1011.001	1554.62
1011.295	1520.72
1011.588	1535.86
1011.881	1496.99
1012.173	1506.71
1012.466	1506.71
1012.759	1482.76
1013.052	1494.51
1013.344	1495.19
1013.637	1480.27
1013.93	1478.46
1014.222	1470.33
1014.514	1425.58
1014.807	1462.65
1015.099	1437.11
1015.391	1423.78
1015.683	1399.37
1015.976	1418.35
1016.268	1378.35
1016.56	1378.81
1016.851	1399.82
1017.143	1355.53
1017.435	1362.53
1017.727	1351.01
1018.018	1348.3
1018.31	1323.44
1018.602	1319.6
1018.893	1358.69
1019.185	1320.28
1019.476	1327.73
1019.767	1288.64
1020.058	1288.19
1020.35	1265.14
1020.641	1268.53
1020.932	1271.24
1021.223	1278.02
1021.514	1247.06
1021.804	1233.72
1022.095	1240.5
1022.386	1238.02
1022.677	1209.09
1022.967	1195.08
1023.258	1193.05
1023.548	1195.99
1023.839	1173.61
1024.129	1178.58
1024.419	1161.86
1024.709	1163.9
1025	1157.57
1025.29	1176.78
1025.58	1148.76
1025.87	1138.81
1026.16	1145.59
1026.449	1132.48
1026.739	1103.78
1027.029	1123.67
1027.319	1090.23
1027.608	1103.33
1027.898	1084.8
1028.187	1102.2
1028.477	1075.08
1028.766	1083.67
1029.055	1050.45
1029.344	1071.69
1029.634	1067.63
1029.923	1029.89
1030.212	1035.09
1030.501	1051.13
1030.79	1032.83
1031.078	1028.76
1031.367	1010.23
1031.656	1000.51
1031.945	998.48
1032.233	1006.16
1032.522	991.47
1032.81	990.12
1033.099	959.16
1033.387	964.58
1033.675	959.61
1033.963	972.04
1034.251	962.55
1034.54	940.17
1034.828	948.76
1035.116	915.77
1035.403	933.85
1035.691	928.42
1035.979	942.43
1036.267	882.32
1036.554	903.79
1036.842	897.69
1037.129	914.41
1037.417	898.82
1037.704	905.37
1037.992	884.13
1038.279	870.8
1038.566	880.74
1038.853	880.74
1039.14	880.74
