Data from hue_90_FLMS001491_57.txt Node
Date: Mon Feb 06 15:25:20 GMT 2017
User: dcchb
Spectrometer: FLMS00149
Trigger mode: 0
Integration Time (sec): 2.000000E-2
Scans to average: 10
Electric dark correction enabled: true
Nonlinearity correction enabled: false
Boxcar width: 0
XAxis mode: Wavelengths
Number of Pixels in Spectrum: 2048
>>>>>Begin Spectral Data<<<<<
341.393	5.9
341.776	5.9
342.16	5.9
342.543	-54.66
342.927	-71.16
343.31	-99.18
343.693	-86.07
344.077	-65.28
344.46	-53.76
344.843	-55.34
345.226	-28.45
345.61	-42.23
345.993	-13.08
346.376	4.55
346.759	-2.68
347.142	28.05
347.525	49.97
347.908	66.69
348.291	82.51
348.674	111.89
349.057	102.4
349.44	137.65
349.823	180.81
350.206	153.92
350.588	183.53
350.971	197.31
351.354	240.02
351.737	238.44
352.119	221.04
352.502	250.19
352.884	262.62
353.267	294.94
353.65	277.99
354.032	283.41
354.414	300.59
354.797	310.75
355.179	323.18
355.562	333.35
355.944	327.25
356.326	327.25
356.709	339.45
357.091	320.25
357.473	336.06
357.855	336.06
358.238	348.95
358.62	353.24
359.002	333.58
359.384	329.96
359.766	327.25
360.148	339.91
360.53	335.39
360.912	330.42
361.294	322.73
361.676	327.25
362.057	329.51
362.439	318.89
362.821	320.47
363.203	306.46
363.584	328.83
363.966	324.09
364.348	310.08
364.729	337.87
365.111	319.57
365.493	322.28
365.874	324.99
366.256	326.8
366.637	324.09
367.019	307.14
367.4	316.86
367.781	306.69
368.163	309.17
368.544	321.15
368.925	297.65
369.306	327.03
369.688	307.59
370.069	313.92
370.45	301.72
370.831	318.66
371.212	307.59
371.593	332.9
371.974	302.17
372.355	320.25
372.736	298.55
373.117	312.56
373.498	330.64
373.879	327.93
374.26	307.82
374.641	308.95
375.021	318.44
375.402	317.76
375.783	315.27
376.163	321.83
376.544	333.58
376.925	330.87
377.305	317.99
377.686	339
378.066	316.63
378.447	337.87
378.827	315.73
379.208	325.9
379.588	317.08
379.968	322.96
380.349	317.76
380.729	339.68
381.109	302.62
381.489	337.87
381.87	327.48
382.25	333.8
382.63	343.52
383.01	337.42
383.39	313.47
383.77	337.42
384.15	347.36
384.53	348.04
384.91	341.04
385.29	338.55
385.67	331.32
386.049	346.46
386.429	336.74
386.809	358.66
387.189	334.03
387.568	360.7
387.948	350.53
388.328	339.23
388.707	349.62
389.087	357.31
389.466	339.68
389.846	350.3
390.225	384.42
390.605	357.31
390.984	362.05
391.363	369.06
391.743	342.39
392.122	358.89
392.501	351.43
392.881	348.95
393.26	367.7
393.639	374.26
394.018	385.33
394.397	359.57
394.776	377.19
395.155	369.28
395.534	378.78
395.913	396.63
396.292	357.76
396.671	368.38
397.05	394.14
397.429	374.93
397.808	384.42
398.186	386.46
398.565	382.17
398.944	369.51
399.323	375.84
399.701	389.85
400.08	381.71
400.458	391.2
400.837	399.79
401.215	420.36
401.594	394.14
401.972	407.25
402.351	407.7
402.729	408.38
403.107	412.67
403.486	414.03
403.864	409.96
404.242	407.02
404.62	404.54
404.999	410.64
405.377	400.47
405.755	403.86
406.133	420.81
406.511	421.03
406.889	421.94
407.267	426.01
407.645	425.33
408.023	441.37
408.401	419.68
408.779	441.82
409.156	451.77
409.534	426.23
409.912	436.17
410.29	426.68
410.667	434.14
411.045	450.19
411.422	444.08
411.8	460.81
412.178	474.59
412.555	447.93
412.933	455.38
413.31	451.09
413.687	474.14
414.065	469.17
414.442	484.08
414.819	476.85
415.197	466.23
415.574	490.41
415.951	482.73
416.328	484.76
416.705	476.17
417.082	478.66
417.46	484.76
417.837	501.71
418.214	509.39
418.591	513.01
418.967	503.07
419.344	479.79
419.721	526.12
420.098	499.22
420.475	518.21
420.852	527.02
421.228	518.21
421.605	523.18
421.982	527.25
422.358	528.38
422.735	547.13
423.111	542.16
423.488	522.95
423.864	548.94
424.241	561.14
424.617	541.71
424.994	559.56
425.37	543.06
425.746	553.46
426.123	544.19
426.499	541.71
426.875	541.03
427.251	554.82
427.627	579
428.003	551.65
428.379	566.34
428.756	561.14
429.132	580.13
429.507	605.44
429.883	580.13
430.259	599.33
430.635	627.36
431.011	618.54
431.387	606.79
431.763	620.35
432.138	610.86
432.514	633.91
432.89	643.63
433.265	673
433.641	650.18
434.016	623.97
434.392	643.85
434.767	665.1
435.143	662.61
435.518	674.81
435.894	680.24
436.269	689.73
436.644	680.69
437.02	702.83
437.395	673.23
437.77	713.68
438.145	708.03
438.52	721.82
438.895	707.35
439.271	738.31
439.646	724.98
440.021	742.61
440.395	732.89
440.77	746.45
441.145	744.42
441.52	762.95
441.895	746.45
442.27	745.32
442.645	756.62
443.019	786.22
443.394	760.69
443.769	770.18
444.143	778.76
444.518	774.02
444.892	784.41
445.267	782.15
445.641	795.49
446.016	788.48
446.39	776.05
446.764	819.44
447.139	821.48
447.513	817.41
447.887	851.31
448.262	829.61
448.636	847.24
449.01	853.34
449.384	863.51
449.758	849.27
450.132	856.73
450.506	861.7
450.88	884.3
451.254	878.42
451.628	883.39
452.002	876.62
452.376	904.41
452.75	910.29
453.123	921.13
453.497	923.39
453.871	938.31
454.244	945.31
454.618	935.14
454.992	964.75
455.365	948.93
455.739	970.85
456.112	1007.01
456.486	992.77
456.859	1001.81
457.232	1024.63
457.606	1023.5
457.979	1065.76
458.352	1044.07
458.725	1037.97
459.099	1081.13
459.472	1088.59
459.845	1104.86
460.218	1113.45
460.591	1104.18
460.964	1134.91
461.337	1134.91
461.71	1155.48
462.083	1160.45
462.456	1186.44
462.829	1177.62
463.201	1223.05
463.574	1212.43
463.947	1231.41
464.32	1263.72
464.692	1301.46
465.065	1286.32
465.438	1319.99
465.81	1327.22
466.183	1334.23
466.555	1368.35
466.928	1376.04
467.3	1372.42
467.672	1408.8
468.045	1456.94
468.417	1471.18
468.789	1469.37
469.161	1495.13
469.534	1564.73
469.906	1563.38
470.278	1564.73
470.65	1621.45
471.022	1631.85
471.394	1658.74
471.766	1680.89
472.138	1703.71
472.51	1734.45
472.882	1790.94
473.253	1832.75
473.625	1876.59
473.997	1896.25
474.369	1919.3
474.74	1952.75
475.112	2020.09
475.484	2069.58
475.855	2116.13
476.227	2158.39
476.598	2227.77
476.97	2248.78
477.341	2311.83
477.713	2383.02
478.084	2405.61
478.455	2477.93
478.827	2559.96
479.198	2634.08
479.569	2699.84
479.94	2771.03
480.311	2853.06
480.682	2890.8
481.053	3018.25
481.424	3101.42
481.795	3133.51
482.166	3254.41
482.537	3324.23
482.908	3391.58
483.279	3512.93
483.65	3587.73
484.021	3696.65
484.391	3787.73
484.762	3879.47
485.133	3966.03
485.503	4026.14
485.874	4162.18
486.244	4269.07
486.615	4368.73
486.985	4472.23
487.356	4599.68
487.726	4717.87
488.097	4895.04
488.467	4902.5
488.837	5078.76
489.207	5201.02
489.578	5372.09
489.948	5460.9
490.318	5527.11
490.688	5656.15
491.058	5767.33
491.428	5923.26
491.798	6038.06
492.168	6226.53
492.538	6273.54
492.908	6379.97
493.278	6587.2
493.648	6694.09
494.017	6746.97
494.387	6901.54
494.757	7014.76
495.126	7134.98
495.496	7250.91
495.866	7274.87
496.235	7397.35
496.605	7597.79
496.974	7697.9
497.344	7799.37
497.713	7891.12
498.082	7985.81
498.452	8171.11
498.821	8269.64
499.19	8355.29
499.559	8411.56
499.928	8530.2
500.298	8631.89
500.667	8718.67
501.036	8728.84
501.405	8838.89
501.774	8926.35
502.143	9072.56
502.512	9123.4
502.88	9201.59
503.249	9282.04
503.618	9361.82
503.987	9491.3
504.356	9534.24
504.724	9603.39
505.093	9653.79
505.462	9777.4
505.83	9798.87
506.199	9873.89
506.567	9997.96
506.936	10084.28
507.304	10225.3
507.672	10213.77
508.041	10226.65
508.409	10348
508.777	10371.73
509.145	10461.67
509.514	10457.38
509.882	10602.24
510.25	10603.14
510.618	10699.41
510.986	10757.03
511.354	10848.1
511.722	10893.3
512.09	11006.07
512.458	10948.67
512.826	11071.83
513.193	11074.54
513.561	11135.78
513.929	11206.06
514.297	11337.36
514.664	11294.42
515.032	11268.43
515.4	11423.46
515.767	11465.94
516.135	11512.27
516.502	11453.74
516.869	11618.71
517.237	11635.2
517.604	11542.1
517.972	11657.8
518.339	11722.43
518.706	11717.69
519.073	11714.97
519.44	11796.1
519.808	11842.2
520.175	11916.78
520.542	11882.2
520.909	12006.27
521.276	11920.17
521.643	12026.15
522.009	12070.45
522.376	12135.75
522.743	12148.18
523.11	12245.36
523.477	12339.59
523.843	12306.15
524.21	12345.47
524.577	12424.79
524.943	12464.56
525.31	12408.52
525.676	12559.25
526.043	12504.11
526.409	12533.26
526.776	12631.11
527.142	12589.08
527.508	12667.04
527.874	12722.41
528.241	12697.55
528.607	12672.24
528.973	12772.35
529.339	12745.91
529.705	12775.74
530.071	12833.82
530.437	12688.73
530.803	12821.16
531.169	12824.78
531.535	12797.21
531.901	12797.88
532.267	12809.63
532.632	12757.21
532.998	12870.2
533.364	12791.1
533.73	12803.31
534.095	12804.21
534.461	12865.9
534.826	12837.88
535.192	12764.21
535.557	12863.64
535.923	12774.16
536.288	12756.08
536.653	12800.6
537.019	12751.33
537.384	12732.57
537.749	12748.39
538.114	12680.6
538.479	12713.37
538.845	12723.31
539.21	12609.19
539.575	12635.4
539.94	12632.92
540.305	12592.69
540.67	12589.08
541.034	12521.96
541.399	12534.16
541.764	12467.72
542.129	12421.17
542.494	12406.03
542.858	12430.44
543.223	12384.34
543.587	12425.69
543.952	12273.38
544.316	12372.81
544.681	12237.9
545.045	12294.85
545.41	12333.94
545.774	12258.69
546.138	12260.04
546.503	12268.63
546.867	12153.38
547.231	12173.49
547.595	12171.46
547.959	12104.34
548.324	12128.07
548.688	12039.49
549.052	12013.72
549.416	12010.56
549.779	11921.97
550.143	11922.2
550.507	11956.32
550.871	11919.26
551.235	11932.82
551.599	11978.02
551.962	11846.04
552.326	11863.67
552.689	11823.9
553.053	11796.78
553.417	11768.98
553.78	11806.05
554.143	11761.75
554.507	11695.54
554.87	11787.97
555.234	11811.24
555.597	11703
555.96	11605.6
556.323	11664.81
556.686	11604.92
557.05	11718.59
557.413	11709.78
557.776	11680.85
558.139	11657.12
558.502	11636.11
558.865	11593.17
559.228	11602.44
559.59	11634.75
559.953	11621.64
560.316	11725.14
560.679	11680.85
561.041	11768.08
561.404	11688.31
561.767	11730.34
562.129	11618.25
562.492	11771.47
562.854	11706.61
563.217	11723.56
563.579	11711.81
563.941	11744.8
564.304	11743.22
564.666	11773.05
565.028	11797.01
565.39	11870
565.753	11842.65
566.115	11785.26
566.477	11841.75
566.839	11872.94
567.201	11830
567.563	11841.3
567.925	11939.38
568.287	11902.09
568.648	11873.84
569.01	11987.74
569.372	11911.13
569.734	11874.07
570.095	11882.2
570.457	11990.9
570.819	11944.12
571.18	11973.27
571.542	12011.69
571.903	11967.62
572.265	12027.73
572.626	11974.4
572.987	11996.1
573.349	12065.7
573.71	12048.3
574.071	12066.38
574.432	12129.88
574.794	12133.27
575.155	12048.3
575.516	12040.62
575.877	12092.14
576.238	12104.12
576.599	12134.17
576.96	12096.66
577.32	12098.47
577.681	12219.37
578.042	12147.96
578.403	12170.56
578.763	12094.4
579.124	12140.73
579.485	12285.58
579.845	12165.81
580.206	12166.49
580.566	12213.49
580.927	12124.23
581.287	12204.23
581.648	12156.54
582.008	12124.91
582.368	12093.5
582.728	12227.73
583.089	12091.69
583.449	12076.09
583.809	12218.69
584.169	12166.49
584.529	12123.33
584.889	12194.28
585.249	12123.1
585.609	12142.99
585.969	12127.17
586.329	12128.07
586.688	12096.89
587.048	12033.38
587.408	12005.14
587.768	12101.63
588.127	12091.69
588.487	12020.05
588.846	12018.92
589.206	11943.67
589.565	11989.54
589.925	12055.76
590.284	11997.68
590.643	11990.22
591.003	12069.32
591.362	12013.72
591.721	11946.61
592.08	11992.48
592.44	12021.41
592.799	12010.79
593.158	11938.02
593.517	11924.69
593.876	11971.24
594.235	11977.34
594.593	11904.12
594.952	11969.88
595.311	11896.89
595.67	11903.44
596.029	11958.36
596.387	11880.62
596.746	11935.31
597.104	11949.09
597.463	11903.44
597.822	11893.95
598.18	11906.61
598.538	11830.68
598.897	11918.13
599.255	11883.11
599.613	11973.05
599.972	11913.61
600.33	11899.15
600.688	11801.53
601.046	11889.89
601.404	11919.94
601.762	11866.38
602.12	11919.49
602.478	11897.12
602.836	11911.81
603.194	11868.42
603.552	11969.43
603.91	11871.81
604.268	11902.31
604.625	11795.42
604.983	11877.23
605.341	11860.51
605.698	11874.07
606.056	11872.94
606.413	11867.51
606.771	11882.65
607.128	11923.1
607.485	11859.83
607.843	11825.93
608.2	11837.91
608.557	11981.63
608.914	11980.73
609.272	11974.18
609.629	11937.79
609.986	12011.92
610.343	11959.49
610.7	11999.26
611.057	12036.55
611.414	11986.83
611.771	11955.87
612.127	12060.5
612.484	12017.11
612.841	12084.46
613.198	11977.57
613.554	12049.65
613.911	12104.57
614.267	12078.35
614.624	12110.22
614.98	12126.49
615.337	12172.59
615.693	12106.38
616.05	12097.79
616.406	12141.63
616.762	12157
617.118	12123.1
617.475	12123.33
617.831	12233.6
618.187	12168.75
618.543	12169.88
618.899	12268.63
619.255	12221.63
619.611	12276.54
619.967	12317.67
620.323	12241.29
620.678	12214.4
621.034	12191.8
621.39	12178.01
621.746	12151.57
622.101	12246.26
622.457	12205.13
622.812	12239.25
623.168	12307.05
623.523	12345.01
623.879	12317.9
624.234	12161.97
624.589	12239.48
624.945	12195.19
625.3	12256.88
625.655	12349.53
626.01	12200.16
626.365	12258.91
626.72	12246.49
627.075	12215.53
627.43	12252.59
627.785	12260.95
628.14	12192.7
628.495	12196.32
628.85	12205.36
629.205	12193.38
629.559	12201.97
629.914	12198.13
630.269	12193.83
630.623	12181.18
630.978	12081.52
631.332	12186.37
631.687	12158.58
632.041	12094.85
632.396	12112.7
632.75	12033.61
633.104	12145.92
633.459	12017.79
633.813	11971.92
634.167	12004.23
634.521	12032.48
634.875	12087.62
635.229	11953.84
635.583	11944.8
635.937	11901.64
636.291	11890.34
636.645	11988.19
636.999	11869.55
637.352	11889.89
637.706	11849.89
638.06	11862.09
638.413	11820.96
638.767	11815.08
639.121	11784.13
639.474	11759.04
639.828	11815.76
640.181	11835.42
640.534	11753.39
640.888	11797.91
641.241	11669.55
641.594	11729.89
641.947	11791.81
642.301	11664.81
642.654	11728.31
643.007	11759.27
643.36	11675.43
643.713	11682.88
644.066	11701.87
644.419	11636.11
644.771	11628.88
645.124	11510.91
645.477	11484.25
645.83	11428.88
646.182	11369.22
646.535	11358.15
646.888	11357.02
647.24	11286.74
647.593	11291.48
647.945	11277.92
648.298	11240.86
648.65	11246.74
649.002	11215.78
649.355	11230.69
649.707	11287.87
650.059	11271.6
650.411	11418.49
650.763	11401.99
651.115	11570.35
651.467	11562.66
651.819	11545.26
652.171	11453.51
652.523	11451.03
652.875	11571.7
653.227	11428.2
653.578	11638.14
653.93	11468.2
654.282	11448.54
654.633	11409.67
654.985	11483.12
655.337	11514.3
655.688	11433.17
656.039	11520.18
656.391	11408.77
656.742	11506.17
657.094	11483.57
657.445	11506.39
657.796	11530.12
658.147	11511.14
658.498	11495.32
658.849	11494.64
659.2	11431.82
659.551	11468.43
659.902	11467.3
660.253	11500.97
660.604	11536
660.955	11478.82
661.306	11592.72
661.656	11583.68
662.007	11559.72
662.358	11563.11
662.708	11596.79
663.059	11617.8
663.409	11545.71
663.76	11514.08
664.11	11563.11
664.461	11576.67
664.811	11642.89
665.161	11638.37
665.511	11576.45
665.862	11599.05
666.212	11559.5
666.562	11569.44
666.912	11645.82
667.262	11543.68
667.612	11623.68
667.962	11553.85
668.312	11559.95
668.662	11571.25
669.011	11533.51
669.361	11573.51
669.711	11533.51
670.06	11551.36
670.41	11544.81
670.76	11476.34
671.109	11479.05
671.459	11496.9
671.808	11514.98
672.157	11527.41
672.507	11462.55
672.856	11462.78
673.205	11480.86
673.554	11552.94
673.904	11423.46
674.253	11538.71
674.602	11461.87
674.951	11334.19
675.3	11297.13
675.649	11536.45
675.998	11377.13
676.346	11412.38
676.695	11424.13
677.044	11352.27
677.393	11375.55
677.741	11357.92
678.09	11374.64
678.438	11329.45
678.787	11380.75
679.135	11303.91
679.484	11244.48
679.832	11262.78
680.181	11249.68
680.529	11265.72
680.877	11222.56
681.225	11203.58
681.573	11216.23
681.922	11158.83
682.27	11092.17
682.618	11169
682.966	11152.73
683.314	11097.82
683.661	11091.49
684.009	10995.22
684.357	10973.3
684.705	10964.94
685.053	10948.44
685.4	10911.38
685.748	10898.72
686.095	10922
686.443	10888.78
686.79	10826.41
687.138	10824.83
687.485	10858.27
687.832	10724.04
688.18	10766.07
688.527	10695.57
688.874	10716.81
689.221	10753.64
689.568	10631.39
689.915	10623.93
690.262	10591.39
690.609	10514.55
690.956	10514.1
691.303	10524.95
691.65	10515.46
691.997	10538.06
692.344	10387.33
692.69	10367.67
693.037	10347.55
693.383	10281.34
693.73	10340.55
694.077	10195.69
694.423	10262.58
694.769	10198.86
695.116	10167.9
695.462	10151.63
695.808	10086.77
696.155	10080.44
696.501	9934.91
696.847	9962.25
697.193	9887
697.539	9927.9
697.885	9836.38
698.231	9841.58
698.577	9852.65
698.923	9812.43
699.269	9702.15
699.614	9675.03
699.96	9630.51
700.306	9648.81
700.651	9595.71
700.997	9578.08
701.342	9525.88
701.688	9524.52
702.033	9448.37
702.379	9477.29
702.724	9433.9
703.069	9395.04
703.415	9349.16
703.76	9362.49
704.105	9325.43
704.45	9259.45
704.795	9200.01
705.14	9201.59
705.485	9193.46
705.83	9181.26
706.175	9154.59
706.52	9177.87
706.865	9113.01
707.209	9109.17
707.554	8965.67
707.899	9071.65
708.243	8990.07
708.588	8963.63
708.932	8923.86
709.277	8898.33
709.621	8860.13
709.966	8848.61
710.31	8839.12
710.654	8800.47
710.998	8815.62
711.342	8806.8
711.687	8754.83
712.031	8651.1
712.375	8616.75
712.719	8655.39
713.063	8614.72
713.407	8651.55
713.75	8591.21
714.094	8607.26
714.438	8536.07
714.782	8552.57
715.125	8517.32
715.469	8542.18
715.812	8490.2
716.156	8481.61
716.499	8477.77
716.843	8422.18
717.186	8380.6
717.53	8448.62
717.873	8423.99
718.216	8415.4
718.559	8363.42
718.902	8336.98
719.246	8327.72
719.589	8375.63
719.932	8332.01
720.275	8306.48
720.617	8347.38
720.96	8291.56
721.303	8305.12
721.646	8317.55
721.989	8224.9
722.331	8263.31
722.674	8249.53
723.016	8249.3
723.359	8245.91
723.701	8260.83
724.044	8181.96
724.386	8146.25
724.729	8142.64
725.071	8128.18
725.413	8094.96
725.755	8196.65
726.097	8204.11
726.439	8126.37
726.782	8109.42
727.124	8158.68
727.465	8113.04
727.807	8096.31
728.149	8128.63
728.491	8100.15
728.833	8127.5
729.175	8093.6
729.516	8094.28
729.858	8100.61
730.199	8148.97
730.541	8121.17
730.882	8123.2
731.224	8086.82
731.565	8063.77
731.906	8100.61
732.248	8133.6
732.589	8038.46
732.93	8045.47
733.271	8029.65
733.612	8024.45
733.953	8017.9
734.294	8020.83
734.635	8063.55
734.976	8050.89
735.317	8054.73
735.658	8055.86
735.999	8060.38
736.339	8035.3
736.68	8097.89
737.021	8104.9
737.361	8063.55
737.702	8126.82
738.042	8092.02
738.383	8076.43
738.723	8073.49
739.063	8090.44
739.404	8112.13
739.744	8088.86
740.084	8075.97
740.424	8144.22
740.764	8126.14
741.104	8168.63
741.444	8168.18
741.784	8130.89
742.124	8160.72
742.464	8204.33
742.804	8215.18
743.143	8243.65
743.483	8254.5
743.823	8209.76
744.162	8195.29
744.502	8265.57
744.841	8337.44
745.181	8362.07
745.52	8311.67
745.86	8422.41
746.199	8403.65
746.538	8438.68
746.877	8530.2
747.216	8610.65
747.556	8573.14
747.895	8638.67
748.234	8621.27
748.573	8672.12
748.911	8755.73
749.25	8782.17
749.589	8832.79
749.928	8874.6
750.267	8944.88
750.605	9018.55
750.944	9068.04
751.283	9149.84
751.621	9215.83
751.96	9202.05
752.298	9326.34
752.636	9451.76
752.975	9466.67
753.313	9578.76
753.651	9707.57
753.989	9809.26
754.327	9928.35
754.666	9937.17
755.004	10110.04
755.342	10245.41
755.679	10302.13
756.017	10332.19
756.355	10492.18
756.693	10620.09
757.031	10769.46
757.368	10877.71
757.706	11017.37
758.044	11077.03
758.381	11184.59
758.719	11324.93
759.056	11450.12
759.394	11582.55
759.731	11703.68
760.068	11810.11
760.405	11876.33
760.743	12021.86
761.08	12272.02
761.417	12364.22
761.754	12457.1
762.091	12686.93
762.428	12705.23
762.765	12843.08
763.102	13054.15
763.438	13131.89
763.775	13260.92
764.112	13410.3
764.449	13492.55
764.785	13721.48
765.122	13781.59
765.458	13861.81
765.795	14017.51
766.131	14175.47
766.467	14283.49
766.804	14375.7
767.14	14479.87
767.476	14570.04
767.812	14590.61
768.148	14868.56
768.485	14981.1
768.821	15061.33
769.157	15021.78
769.492	15180.42
769.828	15279.63
770.164	15319.17
770.5	15325.28
770.836	15570.92
771.171	15561.2
771.507	15631.03
771.842	15580.41
772.178	15725.94
772.513	15798.48
772.849	15846.17
773.184	15880.97
773.519	16005.94
773.855	15919.38
774.19	16049.32
774.525	16076.89
774.86	16163.9
775.195	16267.17
775.53	16208.64
775.865	16236.44
776.2	16265.82
776.535	16179.26
776.87	16179.26
777.205	16266.95
777.539	16294.97
777.874	16400.05
778.209	16398.69
778.543	16293.39
778.878	16351.24
779.212	16413.83
779.547	16300.16
779.881	16380.61
780.215	16382.65
780.55	16565.24
780.884	16487.05
781.218	16457.67
781.552	16557.33
781.886	16490.22
782.22	16346.04
782.554	16341.97
782.888	16288.87
783.222	16336.32
783.556	16310.33
783.889	16296.77
784.223	16239.6
784.557	16238.25
784.89	16311.69
785.224	16165.93
785.557	16155.54
785.891	16226.49
786.224	16179.72
786.558	16207.06
786.891	16077.12
787.224	16104.69
787.557	16105.14
787.891	16043.45
788.224	16070.57
788.557	16013.39
788.89	15982.88
789.223	16019.27
789.556	15935.2
789.888	15870.35
790.221	15896.11
790.554	15747.86
790.887	15837.58
791.219	15820.18
791.552	15785.6
791.884	15741.54
792.217	15680.75
792.549	15658.6
792.882	15557.36
793.214	15524.14
793.546	15602.33
793.879	15489.11
794.211	15379.06
794.543	15525.72
794.875	15433.75
795.207	15439.62
795.539	15369.12
795.871	15355.78
796.203	15315.56
796.535	15209.12
796.867	15163.25
797.198	15225.16
797.53	15195.11
797.862	15077.6
798.193	15092.06
798.525	15084.6
798.856	15111.5
799.188	14894.55
799.519	14983.59
799.85	14831.5
800.182	14867.43
800.513	14880.99
800.844	14735.91
801.175	14878.06
801.506	14781.33
801.837	14678.96
802.168	14656.82
802.499	14650.72
802.83	14562.36
803.161	14589.93
803.491	14606.65
803.822	14488.46
804.153	14369.59
804.483	14377.73
804.814	14315.81
805.145	14283.04
805.475	14293.89
805.805	14187.23
806.136	14270.61
806.466	14229.94
806.796	14185.87
807.126	14075.14
807.457	14069.04
807.787	14116.49
808.117	14053.44
808.447	13970.28
808.777	14003.28
809.107	13998.98
809.436	13883.51
809.766	13939.77
810.096	13828.14
810.426	13798.31
810.755	13876.73
811.085	13795.82
811.414	13783.62
811.744	13634.92
812.073	13656.84
812.403	13685.09
812.732	13596.05
813.061	13479.9
813.39	13466.34
813.719	13483.52
814.049	13551.08
814.378	13513.35
814.707	13414.14
815.036	13384.99
815.365	13376.17
815.693	13296.4
816.022	13276.97
816.351	13239.91
816.68	13118.55
817.008	13239
817.337	13119.91
817.665	13102.96
817.994	13111.55
818.322	13179.34
818.651	13042.85
818.979	12993.81
819.307	13106.12
819.636	13006.92
819.964	12940.48
820.292	12940.7
820.62	12996.07
820.948	12951.78
821.276	13032.45
821.604	12946.81
821.932	12950.2
822.259	12995.84
822.587	12937.09
822.915	12925.79
823.243	12999.23
823.57	12890.08
823.898	12910.88
824.225	12857.77
824.553	12900.03
824.88	12905
825.207	12954.49
825.535	12863.87
825.862	12931.89
826.189	12883.31
826.516	12953.13
826.843	12927.15
827.17	12958.56
827.497	12920.59
827.824	12894.38
828.151	13043.98
828.478	12832.01
828.805	13006.92
829.131	12909.07
829.458	12867.26
829.785	12758.11
830.111	12850.09
830.438	12961.04
830.764	12931.44
831.09	12953.59
831.417	12844.21
831.743	12956.75
832.069	12900.71
832.395	12886.24
832.722	12873.59
833.048	12923.98
833.374	12894.6
833.7	12815.06
834.026	12826.36
834.351	12886.02
834.677	12864.1
835.003	12824.55
835.329	12805.79
835.654	12724.44
835.98	12732.12
836.306	12772.12
836.631	12719.92
836.956	12807.38
837.282	12737.32
837.607	12663.2
837.932	12678.56
838.258	12668.85
838.583	12601.28
838.908	12567.61
839.233	12630.88
839.558	12566.25
839.883	12526.48
840.208	12507.27
840.533	12585.91
840.858	12523.54
841.182	12518.8
841.507	12501.17
841.832	12336.88
842.156	12343.88
842.481	12312.02
842.805	12332.13
843.13	12360.83
843.454	12331.91
843.778	12245.36
844.103	12192.7
844.427	12159.93
844.751	12269.54
845.075	12145.02
845.399	12088.3
845.723	12064.57
846.047	12016.89
846.371	11979.6
846.695	11902.54
847.019	11875.2
847.343	11852.37
847.666	11711.36
847.99	11659.38
848.313	11749.32
848.637	11619.16
848.96	11578.71
849.284	11545.26
849.607	11521.99
849.931	11479.05
850.254	11390.01
850.577	11331.48
850.9	11234.31
851.223	11215.33
851.546	11213.74
851.869	11105.72
852.192	11159.51
852.515	11071.38
852.838	11047.87
853.161	11010.81
853.483	10978.72
853.806	10932.17
854.129	10877.93
854.451	10908.67
854.774	10824.38
855.096	10802.46
855.419	10770.14
855.741	10740.76
856.063	10708
856.385	10671.84
856.708	10590.26
857.03	10584.16
857.352	10600.43
857.674	10605.4
857.996	10520.43
858.318	10510.94
858.64	10424.61
858.961	10451.73
859.283	10405.18
859.605	10344.84
859.926	10357.5
860.248	10398.62
860.57	10235.01
860.891	10284.28
861.212	10218.74
861.534	10237.73
861.855	10213.09
862.176	10180.33
862.498	10231.17
862.819	10188.46
863.14	10068.24
863.461	10129.48
863.782	10067.79
864.103	10000.9
864.424	10024.4
864.745	9988.47
865.065	9979.2
865.386	9935.81
865.707	9915.47
866.027	9943.04
866.348	9956.15
866.668	9933.78
866.989	9857.85
867.309	9845.19
867.63	9906.43
867.95	9868.02
868.27	9818.3
868.59	9793.9
868.91	9766.1
869.23	9827.79
869.55	9754.35
869.87	9772.88
870.19	9763.16
870.51	9774.01
870.83	9766.78
871.15	9625.31
871.469	9667.57
871.789	9713.22
872.109	9651.53
872.428	9609.95
872.748	9666.21
873.067	9562.04
873.386	9611.75
873.706	9597.06
874.025	9536.95
874.344	9542.83
874.663	9562.26
874.982	9495.82
875.301	9483.17
875.62	9455.37
875.939	9507.12
876.258	9413.34
876.577	9393.68
876.896	9371.76
877.214	9369.95
877.533	9346.22
877.852	9334.92
878.17	9423.28
878.489	9333.57
878.807	9349.84
879.125	9242.5
879.444	9345.77
879.762	9198.2
880.08	9275.94
880.398	9252.44
880.716	9269.62
881.034	9163.63
881.352	9231.88
881.67	9140.35
881.988	9201.82
882.306	9208.6
882.624	9127.47
882.941	9055.84
883.259	9123.86
883.577	9074.14
883.894	9060.58
884.212	8946.46
884.529	9035.5
884.846	8983.75
885.164	8915.73
885.481	8988.94
885.798	8907.14
886.115	8881.38
886.432	8896.29
886.75	8833.24
887.067	8927.03
887.383	8825.56
887.7	8811.32
888.017	8751.89
888.334	8741.49
888.651	8649.07
888.967	8657.43
889.284	8596.86
889.6	8654.26
889.917	8543.76
890.233	8567.49
890.55	8477.32
890.866	8555.74
891.182	8489.3
891.498	8476.64
891.815	8467.83
892.131	8434.38
892.447	8379.69
892.763	8409.75
893.079	8334.5
893.395	8334.5
893.71	8279.58
894.026	8263.54
894.342	8251.11
894.657	8220.83
894.973	8216.76
895.289	8212.92
895.604	8209.76
895.92	8106.71
896.235	8059.7
896.55	8075.3
896.865	8116.43
897.181	8018.12
897.496	7998.91
897.811	7946.03
898.126	8000.5
898.441	7889.54
898.756	7873.27
899.071	7870.1
899.386	7833.95
899.7	7809.09
900.015	7732.93
900.33	7719.37
900.644	7721.63
900.959	7650.67
901.273	7676.66
901.588	7624.91
901.902	7584.46
902.216	7607.06
902.531	7564.12
902.845	7513.95
903.159	7463.11
903.473	7411.81
903.787	7403.22
904.101	7374.52
904.415	7391.25
904.729	7324.36
905.042	7312.15
905.356	7278.25
905.67	7271.93
905.984	7190.35
906.297	7211.36
906.611	7151.7
906.924	7132.04
907.237	7108.09
907.551	7057.92
907.864	7073.06
908.177	7036.68
908.491	7024.7
908.804	6982.9
909.117	6944.25
909.43	6920.98
909.743	6913.07
910.056	6897.02
910.368	6897.7
910.681	6798.72
910.994	6819.06
911.307	6772.28
911.619	6732.05
911.932	6728.66
912.244	6652.73
912.557	6704.26
912.869	6610.93
913.181	6605.73
913.494	6577.71
913.806	6576.35
914.118	6560.76
914.43	6479.86
914.742	6530.93
915.054	6472.85
915.366	6443.25
915.678	6340.2
915.99	6381.78
916.302	6365.96
916.613	6309.47
916.925	6322.57
917.236	6231.73
917.548	6207.55
917.859	6240.32
918.171	6203.25
918.482	6154.44
918.794	6163.26
919.105	6078.96
919.416	6030.15
919.727	6078.06
920.038	6090.04
920.349	5995.58
920.66	6016.14
920.971	5975.46
921.282	5957.84
921.593	5901.79
921.903	5872.42
922.214	5824.28
922.525	5809.37
922.835	5799.65
923.146	5735.24
923.456	5760.1
923.767	5752.42
924.077	5773.66
924.387	5718.75
924.697	5715.36
925.008	5668.35
925.318	5632.42
925.628	5686.66
925.938	5640.33
926.248	5561.69
926.558	5542.03
926.867	5520.79
927.177	5483.27
927.487	5493.9
927.796	5398.3
928.106	5413.67
928.416	5409.38
928.725	5426.1
929.034	5348.14
929.344	5362.15
929.653	5337.97
929.962	5262.04
930.271	5284.64
930.581	5248.25
930.89	5217.29
931.199	5229.72
931.508	5196.95
931.817	5198.76
932.125	5170.29
932.434	5154.24
932.743	5116.5
933.051	5062.95
933.36	5069.05
933.669	5064.3
933.977	5061.14
934.286	5007.35
934.594	5009.84
934.902	4990.41
935.21	4933.46
935.519	4889.39
935.827	4937.07
936.135	4846.45
936.443	4871.09
936.751	4821.14
937.059	4833.8
937.367	4813.01
937.674	4812.33
937.982	4757.87
938.29	4750.64
938.597	4769.85
938.905	4710.41
939.213	4666.12
939.52	4676.29
939.827	4673.8
940.135	4633.58
940.442	4631.77
940.749	4572.34
941.056	4610.08
941.363	4530.53
941.67	4526.46
941.977	4463.19
942.284	4446.92
942.591	4518.1
942.898	4471.78
943.205	4435.17
943.511	4417.99
943.818	4360.37
944.125	4328.05
944.431	4343.42
944.738	4296.64
945.044	4314.72
945.35	4312.46
945.657	4274.94
945.963	4263.64
946.269	4259.13
946.575	4235.62
946.881	4204.44
947.187	4188.84
947.493	4152.24
947.799	4200.37
948.105	4161.05
948.41	4079.92
948.716	4103.65
949.022	4127.15
949.327	4074.95
949.633	4040.37
949.938	4058.9
950.244	3994.95
950.549	3981.84
950.854	3977.55
951.16	3968.96
951.465	3937.78
951.77	3885.12
952.075	3921.73
952.38	3894.84
952.685	3915.18
952.99	3864.11
953.294	3827.5
953.599	3810.78
953.904	3836.31
954.209	3810.55
954.513	3797.67
954.818	3741.85
955.122	3737.56
955.426	3751.12
955.731	3735.75
956.035	3666.15
956.339	3631.8
956.643	3650.78
956.948	3643.55
957.252	3671.34
957.556	3606.94
957.86	3613.94
958.163	3625.24
958.467	3581.85
958.771	3546.15
959.075	3568.07
959.378	3528.52
959.682	3521.74
959.985	3531.46
960.289	3461.41
960.592	3454.85
960.896	3430.45
961.199	3432.93
961.502	3425.25
961.805	3423.22
962.108	3376.44
962.411	3437.23
962.714	3390.45
963.017	3360.62
963.32	3357
963.623	3349.32
963.926	3340.51
964.228	3323.56
964.531	3300.73
964.833	3277.46
965.136	3254.63
965.438	3251.69
965.741	3231.58
966.043	3216.44
966.345	3194.29
966.648	3178.93
966.95	3185.48
967.252	3137.8
967.554	3186.39
967.856	3072.72
968.158	3123.11
968.46	3097.57
968.761	3097.57
969.063	3104.58
969.365	3087.86
969.666	3046.05
969.968	3015.99
970.269	3033.39
970.571	3014.64
970.872	3054.19
971.174	2980.74
971.475	2972.15
971.776	2967.63
972.077	2950.91
972.378	2956.79
972.679	2969.44
972.98	2918.6
973.281	2905.26
973.582	2922.44
973.883	2890.57
974.183	2872.72
974.484	2823
974.785	2838.82
975.085	2850.12
975.386	2841.31
975.686	2766.28
975.986	2779.16
976.287	2779.39
976.587	2774.42
976.887	2750.24
977.187	2733.52
977.487	2749.33
977.787	2734.87
978.087	2702.56
978.387	2699.62
978.687	2690.8
978.987	2645.61
979.286	2678.6
979.586	2665.72
979.885	2660.52
980.185	2637.47
980.484	2610.36
980.784	2605.84
981.083	2610.81
981.382	2573.52
981.682	2558.83
981.981	2566.29
982.28	2568.55
982.579	2543.92
982.878	2529
983.177	2539.85
983.475	2550.7
983.774	2470.02
984.073	2489.91
984.372	2476.57
984.67	2449.23
984.969	2456.69
985.267	2422.11
985.566	2425.5
985.864	2413.98
986.162	2438.38
986.461	2395.67
986.759	2400.19
987.057	2361.1
987.355	2374.88
987.653	2313.41
987.951	2345.28
988.249	2325.16
988.547	2343.02
988.844	2297.59
989.142	2311.15
989.44	2295.56
989.737	2261.66
990.035	2268.67
990.332	2269.35
990.63	2278.84
990.927	2255.11
991.224	2234.77
991.521	2195.22
991.819	2239.07
992.116	2197.94
992.413	2163.14
992.71	2170.59
993.006	2175.11
993.303	2163.59
993.6	2150.71
993.897	2115.45
994.193	2129.01
994.49	2133.08
994.787	2099.18
995.083	2092.18
995.379	2096.7
995.676	2072.06
995.972	2068.45
996.268	2070.48
996.565	2011.05
996.861	2062.57
997.157	2031.84
997.453	2043.14
997.749	2017.15
998.044	2036.36
998.34	1987.32
998.636	1964.27
998.932	1979.41
999.227	1967.89
999.523	1962.46
999.818	1944.16
1000.114	1902.58
1000.409	1911.16
1000.704	1897.38
1001	1884.95
1001.295	1855.12
1001.59	1849.02
1001.885	1858.51
1002.18	1876.36
1002.475	1839.08
1002.77	1856.93
1003.065	1826.19
1003.359	1823.48
1003.654	1814.22
1003.949	1818.96
1004.243	1787.55
1004.538	1780.55
1004.832	1768.12
1005.127	1795.01
1005.421	1743.03
1005.715	1768.34
1006.009	1748.91
1006.304	1712.75
1006.598	1706.2
1006.892	1736.03
1007.186	1694.9
1007.48	1705.52
1007.773	1677.95
1008.067	1706.88
1008.361	1690.38
1008.655	1666.65
1008.948	1635.47
1009.242	1647.44
1009.535	1664.39
1009.829	1603.6
1010.122	1623.94
1010.415	1616.03
1010.708	1596.37
1011.001	1573.77
1011.295	1576.03
1011.588	1574.68
1011.881	1527.45
1012.173	1561.57
1012.466	1554.11
1012.759	1562.25
1013.052	1524.06
1013.344	1488.8
1013.637	1515.47
1013.93	1482.48
1014.222	1470.27
1014.514	1471.18
1014.807	1452.19
1015.099	1455.58
1015.391	1451.52
1015.683	1419.88
1015.976	1434.34
1016.268	1454.45
1016.56	1443.38
1016.851	1418.97
1017.143	1408.13
1017.435	1411.74
1017.727	1384.85
1018.018	1375.59
1018.31	1393.89
1018.602	1356.15
1018.893	1366.32
1019.185	1339.43
1019.476	1342.14
1019.767	1324.74
1020.058	1347.79
1020.35	1309.6
1020.641	1282.48
1020.932	1302.37
1021.223	1301.46
1021.514	1247.91
1021.804	1269.15
1022.095	1266.89
1022.386	1241.35
1022.677	1257.85
1022.967	1228.24
1023.258	1234.12
1023.548	1223.95
1023.839	1223.27
1024.129	1200.45
1024.419	1211.07
1024.709	1212.65
1025	1200.45
1025.29	1159.77
1025.58	1167.91
1025.87	1137.4
1026.16	1155.03
1026.449	1148.47
1026.739	1158.64
1027.029	1126.78
1027.319	1135.37
1027.608	1114.8
1027.898	1103.73
1028.187	1098.76
1028.477	1107.8
1028.766	1085.2
1029.055	1061.47
1029.344	1080.68
1029.634	1075.93
1029.923	1054.69
1030.212	1075.48
1030.501	1046.33
1030.79	1040.9
1031.078	1035.03
1031.367	1032.09
1031.656	1009.27
1031.945	1032.54
1032.233	1023.73
1032.522	993
1032.81	1010.85
1033.099	1000.45
1033.387	973.11
1033.675	986.44
1033.963	987.35
1034.251	980.57
1034.54	974.69
1034.828	949.16
1035.116	949.83
1035.403	957.29
1035.691	948.48
1035.979	927.01
1036.267	935.82
1036.554	944.64
1036.842	927.46
1037.129	924.75
1037.417	894.02
1037.704	902.15
1037.992	890.17
1038.279	876.39
1038.566	905.32
1038.853	905.32
1039.14	905.32
