Data from hue_300_FLMS001491_00095.txt Node
Date: Tue Feb 07 15:51:28 GMT 2017
User: dcchb
Spectrometer: FLMS00149
Trigger mode: 0
Integration Time (sec): 2.000000E-2
Scans to average: 10
Electric dark correction enabled: true
Nonlinearity correction enabled: false
Boxcar width: 0
XAxis mode: Wavelengths
Number of Pixels in Spectrum: 2048
>>>>>Begin Spectral Data<<<<<
341.393	-18.01
341.776	-18.01
342.16	-18.01
342.543	-36.54
342.927	-72.24
343.31	-82.41
343.693	-59.36
344.077	-72.47
344.46	-57.33
344.843	-40.61
345.226	-35.41
345.61	-32.7
345.993	-35.86
346.376	-4.45
346.759	-6.26
347.142	31.48
347.525	41.65
347.908	65.83
348.291	72.84
348.674	98.83
349.057	116.23
349.44	119.62
349.823	132.5
350.206	174.53
350.588	195.09
350.971	181.31
351.354	208.43
351.737	225.15
352.119	224.47
352.502	242.1
352.884	265.15
353.267	266.5
353.65	278.93
354.032	279.16
354.414	279.16
354.797	296.33
355.179	306.28
355.562	319.61
355.944	305.15
356.326	307.18
356.709	339.27
357.091	334.75
357.473	319.84
357.855	315.77
358.238	349.21
358.62	332.27
359.002	332.27
359.384	357.58
359.766	319.61
360.148	330.23
360.53	324.36
360.912	325.26
361.294	337.91
361.676	318.71
362.057	325.26
362.439	319.61
362.821	325.49
363.203	303.11
363.584	348.08
363.966	319.84
364.348	315.77
364.729	320.51
365.111	313.51
365.493	299.05
365.874	302.44
366.256	295.66
366.637	319.61
367.019	305.83
367.4	303.11
367.781	300.4
368.163	293.85
368.544	323.9
368.925	298.59
369.306	325.26
369.688	309.22
370.069	294.98
370.45	299.72
370.831	318.48
371.212	305.15
371.593	316.9
371.974	308.76
372.355	326.62
372.736	318.71
373.117	323.23
373.498	315.54
373.879	298.37
374.26	308.31
374.641	318.48
375.021	280.97
375.402	320.29
375.783	309.44
376.163	309.89
376.544	318.93
376.925	304.7
377.305	323.68
377.686	315.77
378.066	333.85
378.447	322.32
378.827	327.07
379.208	332.94
379.588	330.68
379.968	315.09
380.349	308.54
380.729	319.38
381.109	327.29
381.489	323.23
381.87	328.88
382.25	318.25
382.63	339.5
383.01	332.94
383.39	333.85
383.77	327.07
384.15	323.23
384.53	344.47
384.91	334.07
385.29	339.72
385.67	333.85
386.049	330.91
386.429	343.79
386.809	342.66
387.189	325.94
387.568	339.5
387.948	338.37
388.328	344.69
388.707	356.67
389.087	350.8
389.466	338.14
389.846	365.94
390.225	365.71
390.605	347.63
390.984	360.29
391.363	352.15
391.743	360.97
392.122	357.35
392.501	363.22
392.881	359.61
393.26	379.95
393.639	399.38
394.018	374.52
394.397	361.64
394.776	376.11
395.155	357.35
395.534	373.39
395.913	367.74
396.292	384.92
396.671	404.81
397.05	381.53
397.429	383.56
397.808	379.5
398.186	363.68
398.565	392.83
398.944	359.38
399.323	373.17
399.701	398.7
400.08	397.12
400.458	406.16
400.837	409.33
401.215	418.14
401.594	413.62
401.972	405.94
402.351	397.8
402.729	413.85
403.107	407.52
403.486	418.59
403.864	407.74
404.242	426.05
404.62	425.37
404.999	442.32
405.377	418.36
405.755	424.92
406.133	446.16
406.511	470.79
406.889	431.02
407.267	454.07
407.645	461.53
408.023	469.66
408.401	471.7
408.779	468.31
409.156	481.64
409.534	478.02
409.912	474.86
410.29	487.06
410.667	497.68
411.045	521.86
411.422	519.6
411.8	527.06
412.178	494.75
412.555	540.62
412.933	551.47
413.31	555.76
413.687	558.7
414.065	559.6
414.442	560.28
414.819	560.51
415.197	586.95
415.574	584.69
415.951	605.03
416.328	614.07
416.705	618.81
417.082	612.48
417.46	628.08
417.837	642.77
418.214	661.97
418.591	655.87
418.967	656.1
419.344	669.43
419.721	697.45
420.098	693.39
420.475	703.78
420.852	695.87
421.228	735.42
421.605	725.93
421.982	744.01
422.358	723.22
422.735	758.02
423.111	740.39
423.488	751.01
423.864	765.25
424.241	791.24
424.617	787.85
424.994	801.63
425.37	803.89
425.746	810.9
426.123	803.21
426.499	816.55
426.875	832.82
427.251	856.77
427.627	859.94
428.003	854.74
428.379	863.55
428.756	900.39
429.132	893.83
429.507	897.67
429.883	899.93
430.259	927.73
430.635	933.38
431.011	929.31
431.387	976.32
431.763	967.05
432.138	965.02
432.514	972.47
432.89	1012.7
433.265	1041.17
433.641	1050.44
434.016	1026.03
434.392	1035.75
434.767	1050.89
435.143	1059.7
435.518	1076.88
435.894	1099.25
436.269	1101.28
436.644	1089.76
437.02	1127.05
437.395	1141.51
437.77	1139.25
438.145	1162.98
438.52	1133.6
438.895	1177.89
439.271	1165.24
439.646	1197.55
440.021	1189.42
440.395	1195.97
440.77	1199.81
441.145	1201.39
441.52	1262.18
441.895	1236.87
442.27	1207.5
442.645	1239.36
443.019	1264.22
443.394	1254.95
443.769	1271
444.143	1250.21
444.518	1300.83
444.892	1292.01
445.267	1278
445.641	1300.83
446.016	1289.3
446.39	1259.47
446.764	1283.43
447.139	1305.57
447.513	1296.31
447.887	1321.39
448.262	1326.36
448.636	1305.8
449.01	1359.13
449.384	1334.5
449.758	1337.66
450.132	1348.74
450.506	1330.88
450.88	1333.59
451.254	1375.18
451.628	1373.59
452.002	1390.32
452.376	1371.33
452.75	1391.45
453.123	1406.36
453.497	1409.53
453.871	1407.49
454.244	1462.63
454.618	1428.73
454.992	1456.08
455.365	1448.62
455.739	1479.13
456.112	1488.85
456.486	1496.53
456.859	1497.88
457.232	1526.58
457.606	1528.62
457.979	1532.01
458.352	1515.51
458.725	1561.61
459.099	1529.07
459.472	1541.05
459.845	1602.06
460.218	1630.08
460.591	1599.35
460.964	1623.76
461.337	1652.23
461.71	1663.08
462.083	1651.33
462.456	1668.5
462.829	1671.67
463.201	1673.47
463.574	1672.79
463.947	1693.81
464.32	1708.73
464.692	1734.26
465.065	1716.86
465.438	1759.35
465.81	1765
466.183	1789.63
466.555	1802.28
466.928	1783.98
467.3	1796.41
467.672	1812.23
468.045	1871.43
468.417	1869.17
468.789	1852.68
469.161	1875.28
469.534	1915.05
469.906	1938.1
470.278	1939.91
470.65	1914.14
471.022	1967.93
471.394	1987.81
471.766	1998.44
472.138	2022.62
472.51	2042.5
472.882	2070.52
473.253	2082.73
473.625	2089.96
473.997	2134.7
474.369	2127.02
474.74	2148.71
475.112	2147.36
475.484	2174.48
475.855	2192.1
476.227	2220.35
476.598	2273.46
476.97	2290.41
477.341	2266.45
477.713	2314.36
478.084	2323.17
478.455	2384.64
478.827	2374.7
479.198	2433.9
479.569	2390.97
479.94	2475.71
480.311	2523.39
480.682	2538.31
481.053	2561.13
481.424	2613.79
481.795	2583.51
482.166	2623.28
482.537	2668.48
482.908	2659.89
483.279	2700.11
483.65	2677.06
484.021	2758.42
484.391	2727
484.762	2776.49
485.133	2788.02
485.503	2836.15
485.874	2877.06
486.244	2858.53
486.615	2920.9
486.985	2953.44
487.356	2997.05
487.726	2977.17
488.097	3032.99
488.467	3025.53
488.837	3049.93
489.207	3085.19
489.578	3149.82
489.948	3130.84
490.318	3210.16
490.688	3199.99
491.058	3177.39
491.428	3228.01
491.798	3277.72
492.168	3275.46
492.538	3295.58
492.908	3332.86
493.278	3351.62
493.648	3356.59
494.017	3390.04
494.387	3425.52
494.757	3402.69
495.126	3454.9
495.496	3454.22
495.866	3505.29
496.235	3529.02
496.605	3496.93
496.974	3521.79
497.344	3540.99
497.713	3542.12
498.082	3593.2
498.452	3618.28
498.821	3622.12
499.19	3620.77
499.559	3603.82
499.928	3645.62
500.298	3678.17
500.667	3710.93
501.036	3703.48
501.405	3766.07
501.774	3741.89
502.143	3710.03
502.512	3760.65
502.88	3778.5
503.249	3804.49
503.618	3779.63
503.987	3811.04
504.356	3788.9
504.724	3810.37
505.093	3827.99
505.462	3806.3
505.83	3871.16
506.199	3845.85
506.567	3838.61
506.936	3873.42
507.304	3909.57
507.672	3937.59
508.041	3942.57
508.409	3956.58
508.777	3948.89
509.145	3971.04
509.514	3985.73
509.882	4008.78
510.25	3947.31
510.618	3986.41
510.986	4033.41
511.354	4036.57
511.722	4027.08
512.09	4052.39
512.458	4101.88
512.826	4103.01
513.193	4077.48
513.561	4107.76
513.929	4139.4
514.297	4182.79
514.664	4114.54
515.032	4171.71
515.4	4132.84
515.767	4186.63
516.135	4175.78
516.502	4126.06
516.869	4206.51
517.237	4224.59
517.604	4164.71
517.972	4222.56
518.339	4248.32
518.706	4217.59
519.073	4190.47
519.44	4184.14
519.808	4291.94
520.175	4292.39
520.542	4300.3
520.909	4286.51
521.276	4277.7
521.643	4307.3
522.009	4365.38
522.376	4390.92
522.743	4376
523.11	4418.71
523.477	4426.85
523.843	4437.24
524.21	4466.39
524.577	4493.06
524.943	4492.16
525.31	4536
525.676	4523.12
526.043	4585.03
526.409	4528.09
526.776	4567.18
527.142	4624.58
527.508	4603.34
527.874	4674.52
528.241	4683.56
528.607	4680.17
528.973	4722.66
529.339	4729.66
529.705	4770.34
530.071	4773.5
530.437	4839.94
530.803	4827.06
531.169	4846.5
531.535	4863.9
531.901	4814.18
532.267	4859.83
532.632	4918.59
532.998	4894.18
533.364	4954.52
533.73	4919.49
534.095	4981.86
534.461	4981.41
534.826	5028.41
535.192	5032.03
535.557	5063.21
535.923	5111.12
536.288	5079.94
536.653	5113.61
537.019	5065.02
537.384	5082.87
537.749	5132.82
538.114	5143.66
538.479	5233.83
538.845	5234.96
539.21	5209.65
539.575	5265.92
539.94	5252.14
540.305	5272.93
540.67	5268.63
541.034	5315.19
541.399	5374.62
541.764	5354.96
542.129	5385.24
542.494	5435.63
542.858	5443.54
543.223	5438.57
543.587	5482.86
543.952	5491
544.316	5488.74
544.681	5505.24
545.045	5542.07
545.41	5547.27
545.774	5573.03
546.138	5622.07
546.503	5649.19
546.867	5610.77
547.231	5699.81
547.595	5712.46
547.959	5718.79
548.324	5736.87
548.688	5712.91
549.052	5743.42
549.416	5764.89
549.779	5800.6
550.143	5802.4
550.507	5824.55
550.871	5839.47
551.235	5909.07
551.599	5952.68
551.962	5862.97
552.326	5965.56
552.689	5963.08
553.053	5931.67
553.417	5913.36
553.78	6034.26
554.143	5978.22
554.507	5978.9
554.87	6003.3
555.234	6144.99
555.597	6052.79
555.96	6132.34
556.323	6110.19
556.686	6080.36
557.05	6163.3
557.413	6162.62
557.776	6161.26
558.139	6149.29
558.502	6225.44
558.865	6210.08
559.228	6285.1
559.59	6269.51
559.953	6243.52
560.316	6325.78
560.679	6366
561.041	6289.62
561.404	6382.05
561.767	6431.77
562.129	6377.3
562.492	6435.61
562.854	6368.04
563.217	6460.92
563.579	6459.79
563.941	6488.71
564.304	6526
564.666	6542.27
565.028	6579.56
565.39	6536.4
565.753	6582.04
566.115	6616.85
566.477	6647.58
566.839	6653
567.201	6690.29
567.563	6685.32
567.925	6704.08
568.287	6692.78
568.648	6749.05
569.01	6745.66
569.372	6822.26
569.734	6799.21
570.095	6907.01
570.457	6891.87
570.819	6940.45
571.18	6958.98
571.542	7007.57
571.903	7051.18
572.265	7044.86
572.626	7083.05
572.987	7165.53
573.349	7244.17
573.71	7276.72
574.071	7276.49
574.432	7344.96
574.794	7471.96
575.155	7446.43
575.516	7538.63
575.877	7599.87
576.238	7582.47
576.599	7688.46
576.96	7777.49
577.32	7837.38
577.681	7904.5
578.042	7975.91
578.403	8084.38
578.763	8144.72
579.124	8210.02
579.485	8303.13
579.845	8404.37
580.206	8585.16
580.566	8640.75
580.927	8800.74
581.287	8903.79
581.648	9027.86
582.008	9200.05
582.368	9277.11
582.728	9420.39
583.089	9587.62
583.449	9759.14
583.809	9910.77
584.169	10129.97
584.529	10311.44
584.889	10607.25
585.249	10681.82
585.609	10795.72
585.969	11127.46
586.329	11276.84
586.688	11445.42
587.048	11636.83
587.408	11955.46
587.768	12155.91
588.127	12450.36
588.487	12627.99
588.846	12982.33
589.206	13059.16
589.565	13385.26
589.925	13649.2
590.284	13879.93
590.643	14225.91
591.003	14587.94
591.362	14849.62
591.721	15012.56
592.08	15319.44
592.44	15658.42
592.799	16007.33
593.158	16204.39
593.517	16528.68
593.876	16804.6
594.235	17178.6
594.593	17368.43
594.952	17713.05
595.311	17924.8
595.67	18347.16
596.029	18634.16
596.387	18974.49
596.746	19263.97
597.104	19476.62
597.463	19825.76
597.822	20211.74
598.18	20318.18
598.538	20676.59
598.897	21113.64
599.255	21217.82
599.613	21767.86
599.972	21841.08
600.33	22242.88
600.688	22420.27
601.046	22753.37
601.404	23157.65
601.762	23279.01
602.12	23629.05
602.478	24004.41
602.836	24226.78
603.194	24389.49
603.552	24629.71
603.91	24893.88
604.268	25294.09
604.625	25447.76
604.983	25690.69
605.341	25783.12
605.698	26166.61
606.056	26471.24
606.413	26560.5
606.771	26923.43
607.128	27227.6
607.485	27421.95
607.843	27575.62
608.2	27937.87
608.557	28202.49
608.914	28322.72
609.272	28569.26
609.629	28794.79
609.986	29107.78
610.343	29138.97
610.7	29608.33
611.057	29666.41
611.414	29903.69
611.771	30165.15
612.127	30320.86
612.484	30400.63
612.841	30600.85
613.198	30820.5
613.554	30925.13
613.911	31265.69
614.267	31443.31
614.624	31330.55
614.98	31721.5
615.337	32143.41
615.693	32137.98
616.05	32328.49
616.406	32501.81
616.762	32443.06
617.118	32580.46
617.475	32722.6
617.831	32972.31
618.187	33177.28
618.543	33236.71
618.899	33563.48
619.255	33480.77
619.611	33713.53
619.967	33892.06
620.323	34145.84
620.678	33980.65
621.034	34082.56
621.39	34345.61
621.746	34299.28
622.101	34617.47
622.457	34550.12
622.812	34666.96
623.168	34759.38
623.523	34901.98
623.879	35082.99
624.234	34964.12
624.589	35158.47
624.945	35295.19
625.3	35298.35
625.655	35303.55
626.01	35609.3
626.365	35546.48
626.72	35510.55
627.075	35488.63
627.43	35503.32
627.785	35465.35
628.14	35798.68
628.495	35898.34
628.85	35786.02
629.205	35810.2
629.559	35981.5
629.914	35893.14
630.269	35931.1
630.623	35913.93
630.978	36013.59
631.332	36070.31
631.687	36197.76
632.041	36074.15
632.396	36084.77
632.75	36190.08
633.104	36095.17
633.459	36044.77
633.813	36127.48
634.167	36152.34
634.521	36159.57
634.875	36335.39
635.229	36250.19
635.583	36118.44
635.937	36336.29
636.291	36157.31
636.645	36259.23
636.999	36218.1
637.352	36312.79
637.706	36283.41
638.06	36272.34
638.413	36186.01
638.767	36234.37
639.121	36151.44
639.474	36142.85
639.828	36140.14
640.181	36169.52
640.534	36213.81
640.888	36153.02
641.241	35976.3
641.594	36081.61
641.947	36092
642.301	35999.58
642.654	36076.41
643.007	36143.53
643.36	36185.79
643.713	35986.02
644.066	36266.46
644.419	35896.75
644.771	35899.01
645.124	35470.32
645.477	35348.97
645.83	35330.67
646.182	35189.88
646.535	35037.12
646.888	35156.43
647.24	34919.15
647.593	35135.19
647.945	35197.34
648.298	35051.8
648.65	35017.68
649.002	34930.9
649.355	35034.86
649.707	34949.21
650.059	35141.52
650.411	35640.49
650.763	35554.84
651.115	35913.25
651.467	35792.58
651.819	35757.77
652.171	35734.5
652.523	35685.69
652.875	35690.21
653.227	35619.92
653.578	35727.27
653.93	35813.59
654.282	35658.79
654.633	35419.48
654.985	35433.72
655.337	35728.4
655.688	35665.8
656.039	35689.3
656.391	35342.42
656.742	35418.12
657.094	35487.73
657.445	35636.87
657.796	35521.85
658.147	35585.12
658.498	35543.54
658.849	35538.35
659.2	35548.29
659.551	35425.13
659.902	35663.99
660.253	35518.91
660.604	35637.78
660.955	35447.95
661.306	35701.73
661.656	35485.24
662.007	35505.58
662.358	35589.64
662.708	35436.2
663.059	35494.73
663.409	35358.24
663.76	35426.26
664.11	35368.63
664.461	35548.06
664.811	35544.45
665.161	35481.85
665.511	35377.9
665.862	35424
666.212	35547.84
666.562	35530.66
666.912	35465.13
667.262	35456.31
667.612	35325.7
667.962	35435.98
668.312	35400.04
668.662	35500.61
669.011	35441.62
669.361	35314.17
669.711	35416.77
670.06	35307.62
670.41	35205.7
670.76	35205.47
671.109	35454.51
671.459	35294.96
671.808	35175.64
672.157	35295.41
672.507	35056.55
672.856	35009.09
673.205	35143.33
673.554	35430.33
673.904	35120.05
674.253	35292.25
674.602	35172.03
674.951	34680.06
675.3	34520.52
675.649	35121.18
675.998	35000.96
676.346	35048.64
676.695	35211.57
677.044	34865.14
677.393	35034.86
677.741	35075.53
678.09	34863.33
678.438	34803.9
678.787	34920.73
679.135	34811.13
679.484	34614.75
679.832	34824.01
680.181	34630.35
680.529	34878.48
680.877	34706.73
681.225	34443.01
681.573	34873.5
681.922	34627.18
682.27	34456.34
682.618	34457.7
682.966	34573.4
683.314	34433.29
683.661	34266.74
684.009	34169.79
684.357	34194.43
684.705	34092.51
685.053	34229.91
685.4	34095.45
685.748	33947.2
686.095	33822.46
686.443	33814.1
686.79	33736.36
687.138	33838.05
687.485	33836.92
687.832	33615.46
688.18	33632.41
688.527	33560.54
688.874	33425.86
689.221	33492.07
689.568	33324.84
689.915	33262.25
690.262	33250.27
690.609	33059.54
690.956	33020.22
691.303	33138.41
691.65	32864.29
691.997	32924.18
692.344	32708.14
692.69	32562.38
693.037	32789.72
693.383	32427.01
693.73	32573
694.077	32386.34
694.423	32303.63
694.769	32126.46
695.116	32217.3
695.462	32116.51
695.808	32011.43
696.155	31979.57
696.501	31765.79
696.847	31890.08
697.193	31649.18
697.539	31744.77
697.885	31514.72
698.231	31427.04
698.577	31510.88
698.923	31413.71
699.269	31229.98
699.614	31069.76
699.96	31109.31
700.306	31126.48
700.651	30935.53
700.997	30822.31
701.342	30753.39
701.688	30693.27
702.033	30600.85
702.379	30607.63
702.724	30557.91
703.069	30463.9
703.415	30199.73
703.76	30265.94
704.105	30371.25
704.45	30212.38
704.795	29896.23
705.14	29797.03
705.485	29892.84
705.83	29793.41
706.175	29773.98
706.52	29698.5
706.865	29708.22
707.209	29519.29
707.554	29438.17
707.899	29551.84
708.243	29425.29
708.588	29311.84
708.932	29166.54
709.277	29115.24
709.621	29211.96
709.966	28899.42
710.31	29011.06
710.654	28765.42
710.998	28788.69
711.342	28754.57
711.687	28731.52
712.031	28557.06
712.375	28548.02
712.719	28547.34
713.063	28409.72
713.407	28537.85
713.75	28458.98
714.094	28396.16
714.438	28130.18
714.782	28201.14
715.125	28153.91
715.469	28174.25
715.812	28054.47
716.156	27921.82
716.499	27877.08
716.843	27892.22
717.186	27823.97
717.53	27915.27
717.873	27916.85
718.216	27797.31
718.559	27653.58
718.902	27443.19
719.246	27630.08
719.589	27528.16
719.932	27386.02
720.275	27303.08
720.617	27357.54
720.96	27285
721.303	27345.11
721.646	27288.39
721.989	27003.65
722.331	27142.18
722.674	27117.1
723.016	27023.31
723.359	27011.11
723.701	27051.79
724.044	26806.82
724.386	26706.71
724.729	26940.15
725.071	26759.37
725.413	26783.77
725.755	26771.8
726.097	26685.92
726.439	26519.6
726.782	26449.54
727.124	26697.9
727.465	26496.78
727.807	26583.55
728.149	26415.87
728.491	26533.38
728.833	26523.22
729.175	26356.89
729.516	26192.6
729.858	26314.86
730.199	26211.36
730.541	26347.17
730.882	26125.49
731.224	26260.4
731.565	26062.21
731.906	26114.86
732.248	26070.35
732.589	25893.18
732.93	25899.28
733.271	25916.9
733.612	25958.03
733.953	25902.89
734.294	25879.16
734.635	25767.3
734.976	25796.68
735.317	25656.12
735.658	25689.79
735.999	25684.37
736.339	25617.25
736.68	25741.54
737.021	25500.87
737.361	25533.41
737.702	25690.69
738.042	25474.66
738.383	25456.12
738.723	25447.76
739.063	25479.4
739.404	25373.19
739.744	25327.09
740.084	25208
740.424	25289.8
740.764	25088.9
741.104	25264.27
741.444	25238.28
741.784	25031.95
742.124	25180.88
742.464	25126.19
742.804	25030.15
743.143	24984.5
743.483	24984.5
743.823	24886.65
744.162	24849.81
744.502	24915.57
744.841	24737.73
745.181	24942.92
745.52	24802.13
745.86	24822.92
746.199	24819.08
746.538	24714.22
746.877	24824.95
747.216	24700.89
747.556	24738.63
747.895	24656.37
748.234	24573.89
748.573	24478.75
748.911	24501.57
749.25	24562.14
749.589	24453.89
749.928	24358.3
750.267	24477.17
750.605	24345.42
750.944	24310.17
751.283	24348.13
751.621	24351.97
751.96	24231.52
752.298	24213.45
752.636	24213.22
752.975	24118.76
753.313	24101.36
753.651	24276.95
753.989	24040.79
754.327	24123.96
754.666	23816.62
755.004	23933.45
755.342	23905.88
755.679	23868.82
756.017	23826.79
756.355	23806.22
756.693	23649.17
757.031	23731.88
757.368	23674.02
757.706	23719.22
758.044	23554.25
758.381	23524.2
758.719	23510.19
759.056	23503.41
759.394	23388.83
759.731	23364.43
760.068	23306.12
760.405	23233.13
760.743	23129.41
761.08	23127.6
761.417	23060.93
761.754	23047.6
762.091	23143.64
762.428	22933.93
762.765	22850.77
763.102	22919.92
763.438	22744.78
763.775	22757.66
764.112	22749.75
764.449	22693.26
764.785	22697.1
765.122	22456.88
765.458	22429.76
765.795	22398.35
766.131	22342.76
766.467	22356.32
766.804	22154.74
767.14	22044.91
767.476	22127.17
767.812	22012.83
768.148	22002.2
768.485	21839.95
768.821	21748.2
769.157	21637.02
769.492	21720.4
769.828	21667.75
770.164	21359.28
770.5	21414.2
770.836	21312.28
771.171	21362.22
771.507	21314.09
771.842	21043.13
772.178	21043.59
772.513	21067.09
772.849	20903.48
773.184	20880.88
773.519	20845.4
773.855	20755.91
774.19	20639.98
774.525	20556.82
774.86	20696.48
775.195	20600.21
775.53	20525.86
775.865	20359.54
776.2	20225.75
776.535	20043.84
776.87	20153.89
777.205	20068.24
777.539	19909.83
777.874	19945.99
778.209	19811.75
778.543	19654.02
778.878	19628.71
779.212	19727.69
779.547	19601.82
779.881	19609.72
780.215	19481.59
780.55	19512.33
780.884	19291.54
781.218	19207.93
781.552	19307.59
781.886	19151.88
782.22	19084.54
782.554	18946.47
782.888	18808.39
783.222	18745.57
783.556	18629.86
783.889	18603.2
784.223	18556.87
784.557	18474.84
784.89	18527.27
785.224	18332.24
785.557	18271.91
785.891	18249.99
786.224	18247.27
786.558	18137.45
786.891	17990.33
787.224	17995.08
787.557	17967.73
787.891	17884.8
788.224	17907.4
788.557	17826.27
788.89	17754.18
789.223	17713.96
789.556	17556.22
789.888	17568.87
790.221	17426.96
790.554	17315.32
790.887	17406.39
791.219	17281.88
791.552	17228.77
791.884	17158.94
792.217	17093.86
792.549	16966.86
792.882	16855.22
793.214	16876.69
793.546	16905.84
793.879	16743.81
794.211	16737.48
794.543	16767.54
794.875	16678.28
795.207	16715.79
795.539	16646.86
795.871	16581.33
796.203	16377.04
796.535	16410.94
796.867	16312.18
797.198	16287.55
797.53	16242.81
797.862	16182.7
798.193	16235.8
798.525	16090.49
798.856	16135.01
799.188	15905.87
799.519	15747.91
799.85	15830.84
800.182	15756.04
800.513	15755.36
800.844	15628.13
801.175	15712.43
801.506	15704.06
801.837	15634.01
802.168	15574.35
802.499	15453.68
802.83	15395.82
803.161	15410.96
803.491	15440.34
803.822	15359.21
804.153	15222.95
804.483	15101.59
804.814	15159.45
805.145	15040.35
805.475	15053.46
805.805	14938.89
806.136	15033.57
806.466	14920.81
806.796	14960.58
807.126	14721.94
807.457	14804.43
807.787	14860.47
808.117	14694.15
808.447	14606.92
808.777	14670.65
809.107	14659.57
809.436	14594.26
809.766	14594.04
810.096	14443.98
810.426	14471.78
810.755	14425.23
811.085	14391.1
811.414	14392.46
811.744	14273.82
812.073	14223.88
812.403	14244.67
812.732	14181.17
813.061	14119.93
813.39	14113.6
813.719	14075.86
814.049	14078.34
814.378	13966.48
814.707	13976.43
815.036	13965.13
815.365	13902.76
815.693	13758.8
816.022	13778.24
816.351	13720.61
816.68	13641.29
817.008	13646.49
817.337	13675.64
817.665	13567.62
817.994	13562.88
818.322	13614.63
818.651	13438.59
818.979	13422.99
819.307	13499.38
819.636	13377.35
819.964	13347.97
820.292	13390
820.62	13434.29
820.948	13421.64
821.276	13447.4
821.604	13427.74
821.932	13399.49
822.259	13339.61
822.587	13330.79
822.915	13339.15
823.243	13314.75
823.57	13302.32
823.898	13366.05
824.225	13171.93
824.553	13224.36
824.88	13319.04
825.207	13278.82
825.535	13239.5
825.862	13342.77
826.189	13346.84
826.516	13350.23
826.843	13343.67
827.17	13252.6
827.497	13299.61
827.824	13269.33
828.151	13370.57
828.478	13199.27
828.805	13318.36
829.131	13221.42
829.458	13274.98
829.785	13204.02
830.111	13216.67
830.438	13273.39
830.764	13341.64
831.09	13310.23
831.417	13243.56
831.743	13257.8
832.069	13229.1
832.395	13100.07
832.722	13180.97
833.048	13091.03
833.374	13161.08
833.7	13066.85
834.026	13063.68
834.351	13177.35
834.677	13083.57
835.003	13119.95
835.329	13105.71
835.654	13025.26
835.98	12951.37
836.306	13061.87
836.631	13005.15
836.956	13063.68
837.282	13014.64
837.607	12884.93
837.932	12899.84
838.258	12912.73
838.583	12853.97
838.908	12825.27
839.233	12847.42
839.558	12813.52
839.883	12680.87
840.208	12673.86
840.533	12646.52
840.858	12705.05
841.182	12715.44
841.507	12688.55
841.832	12597.25
842.156	12627.76
842.481	12605.61
842.805	12538.95
843.13	12525.39
843.454	12503.7
843.778	12433.42
844.103	12413.08
844.427	12404.94
844.751	12390.25
845.075	12309.13
845.399	12362.01
845.723	12230.03
846.047	12238.84
846.371	12213.31
846.695	12213.31
847.019	12105.74
847.343	11998.4
847.666	11952.52
847.99	11939.42
848.313	11936.03
848.637	11761.12
848.96	11790.27
849.284	11826.2
849.607	11694.45
849.931	11655.81
850.254	11573.33
850.577	11584.62
850.9	11487
851.223	11400.22
851.546	11401.13
851.869	11313.45
852.192	11381.92
852.515	11174.92
852.838	11278.64
853.161	11158.87
853.483	11127.46
853.806	11078.65
854.129	11054.02
854.451	11056.73
854.774	11018.09
855.096	10962.95
855.419	10945.32
855.741	10932.44
856.063	10825.55
856.385	10744.65
856.708	10870.52
857.03	10713.69
857.352	10774.25
857.674	10670.98
857.996	10622.39
858.318	10554.37
858.64	10586.46
858.961	10553.92
859.283	10497.65
859.605	10457.42
859.926	10514.14
860.248	10520.25
860.57	10393.47
860.891	10412.23
861.212	10327.03
861.534	10304.21
861.855	10340.14
862.176	10292
862.498	10316.41
862.819	10276.18
863.14	10257.43
863.461	10300.82
863.782	10240.71
864.103	10243.64
864.424	10136.53
864.745	10185.34
865.065	10160.26
865.386	10111.22
865.707	10042.29
866.027	10089.52
866.348	10128.84
866.668	10098.11
866.989	9978.57
867.309	9977.21
867.63	9980.15
867.95	10017.21
868.27	9885.69
868.59	9941.73
868.91	9884.33
869.23	9951.67
869.55	9828.51
869.87	9887.49
870.19	9883.88
870.51	9857.21
870.83	9826.03
871.15	9773.15
871.469	9762.3
871.789	9751.45
872.109	9828.74
872.428	9750.77
872.748	9767.72
873.067	9684.56
873.386	9733.6
873.706	9722.98
874.025	9609.54
874.344	9599.14
874.663	9679.36
874.982	9587.39
875.301	9647.05
875.62	9507.62
875.939	9498.58
876.258	9555.53
876.577	9558.92
876.896	9558.24
877.214	9502.19
877.533	9520.05
877.852	9542.87
878.17	9549.2
878.489	9457
878.807	9426.26
879.125	9472.36
879.444	9360.5
879.762	9348.53
880.08	9365.25
880.398	9336.32
880.716	9382.42
881.034	9296.1
881.352	9306.27
881.67	9318.02
881.988	9291.58
882.306	9226.04
882.624	9201.18
882.941	9185.14
883.259	9136.78
883.577	9071.24
883.894	9141.98
884.212	9085.93
884.529	9120.28
884.846	9018.59
885.164	9092.71
885.481	8952.83
885.798	8986.95
886.115	8972.94
886.432	8965.03
886.75	8959.38
887.067	8918.25
887.383	8871.02
887.7	8920.51
888.017	8873.06
888.334	8820.4
888.651	8740.41
888.967	8803.91
889.284	8701.54
889.6	8770.24
889.917	8643.69
890.233	8705.6
890.55	8623.35
890.866	8687.07
891.182	8645.94
891.498	8579.05
891.815	8550.81
892.131	8511.94
892.447	8545.61
892.763	8477.14
893.079	8475.78
893.395	8494.76
893.71	8417.93
894.026	8342
894.342	8414.31
894.657	8346.52
894.973	8282.34
895.289	8297.25
895.604	8244.15
895.92	8215.45
896.235	8196.47
896.55	8200.98
896.865	8168.67
897.181	8154.88
897.496	8109.24
897.811	8055
898.126	8040.09
898.441	8048.22
898.756	7935.91
899.071	8004.15
899.386	7933.42
899.7	7863.37
900.015	7831.73
900.33	7824.27
900.644	7822.24
900.959	7795.12
901.273	7755.8
901.588	7723.26
901.902	7622.47
902.216	7660.43
902.531	7637.16
902.845	7620.66
903.159	7570.94
903.473	7528.23
903.787	7507.9
904.101	7478.74
904.415	7462.02
904.729	7448.69
905.042	7375.7
905.356	7371.18
905.67	7359.2
905.984	7344.74
906.297	7368.01
906.611	7307.22
906.924	7298.18
907.237	7252.54
907.551	7163.27
907.864	7184.51
908.177	7121.01
908.491	7211.18
908.804	7105.42
909.117	7114.01
909.43	7001.24
909.743	7012.32
910.056	6961.24
910.368	6956.27
910.681	6897.74
910.994	6902.94
911.307	6852.55
911.619	6855.48
911.932	6805.32
912.244	6716.73
912.557	6758.31
912.869	6694.36
913.181	6679.22
913.494	6652.1
913.806	6637.64
914.118	6617.07
914.43	6555.6
914.742	6523.51
915.054	6477.64
915.366	6530.52
915.678	6472.67
915.99	6457.53
916.302	6392.9
916.613	6381.82
916.925	6312.67
917.236	6375.27
917.548	6305.22
917.859	6278.78
918.171	6272.22
918.482	6237.42
918.794	6187.48
919.105	6183.64
919.416	6158.1
919.727	6169.17
920.038	6116.97
920.349	6052.34
920.66	6036.3
920.971	6065.67
921.282	6068.39
921.593	6000.59
921.903	5946.81
922.214	5954.94
922.525	5914.72
922.835	5884.44
923.146	5848.28
923.456	5868.84
923.767	5758.79
924.077	5745.46
924.387	5804.89
924.697	5753.59
925.008	5688.51
925.318	5665.01
925.628	5638.34
925.938	5631.56
926.248	5608.28
926.558	5583.88
926.867	5526.93
927.177	5552.92
927.487	5469.76
927.796	5473.6
928.106	5504.33
928.416	5453.94
928.725	5455.75
929.034	5366.71
929.344	5403.77
929.653	5388.86
929.962	5385.24
930.271	5313.6
930.581	5284
930.89	5267.95
931.199	5219.59
931.508	5245.36
931.817	5229.31
932.125	5169.43
932.434	5162.42
932.743	5099.6
933.051	5098.47
933.36	5101.63
933.669	5074.06
933.977	5025.25
934.286	5007.17
934.594	5012.37
934.902	4961.97
935.21	4948.64
935.519	4942.99
935.827	4921.3
936.135	4893.05
936.443	4868.19
936.751	4859.15
937.059	4844.46
937.367	4820.73
937.674	4805.59
937.982	4798.59
938.29	4739.61
938.597	4749.1
938.905	4706.39
939.213	4694.41
939.52	4662.09
939.827	4677.91
940.135	4633.85
940.442	4587.29
940.749	4616.45
941.056	4623.68
941.363	4565.15
941.67	4532.38
941.977	4475.21
942.284	4476.11
942.591	4473.17
942.898	4448.77
943.205	4420.07
943.511	4430.46
943.818	4409.22
944.125	4369.67
944.431	4361.31
944.738	4326.51
945.044	4324.7
945.35	4275.21
945.657	4268.43
945.963	4309.11
946.269	4260.07
946.575	4202.45
946.881	4193.86
947.187	4221.2
947.493	4175.33
947.799	4148.89
948.105	4150.92
948.41	4117.48
948.716	4121.77
949.022	4070.02
949.327	4060.53
949.633	4012.85
949.938	4028.89
950.244	4039.51
950.549	4001.55
950.854	3949.12
951.16	3946.18
951.465	3948.44
951.77	3947.31
952.075	3899.86
952.38	3877.26
952.685	3876.8
952.99	3838.84
953.294	3829.12
953.599	3833.64
953.904	3831.38
954.209	3801.1
954.513	3754.77
954.818	3721.78
955.122	3747.77
955.426	3750.93
955.731	3733.31
956.035	3673.19
956.339	3702.57
956.643	3676.36
956.948	3622.8
957.252	3609.92
957.556	3614.66
957.86	3603.82
958.163	3602.46
958.467	3578.28
958.771	3566.3
959.075	3552.29
959.378	3503.71
959.682	3530.37
959.985	3519.3
960.289	3481.34
960.592	3461.9
960.896	3444.05
961.199	3417.16
961.502	3402.69
961.805	3393.88
962.108	3382.35
962.411	3350.72
962.714	3355.91
963.017	3370.38
963.32	3367.67
963.623	3353.43
963.926	3317.95
964.228	3269.82
964.531	3236.6
964.833	3271.62
965.136	3262.13
965.438	3235.69
965.741	3174.22
966.043	3176.03
966.345	3218.74
966.648	3161.12
966.95	3175.35
967.252	3122.47
967.554	3118.41
967.856	3134
968.158	3096.03
968.46	3113.21
968.761	3070.27
969.063	3090.16
969.365	3069.37
969.666	3024.4
969.968	3012.65
970.269	3030.27
970.571	3020.1
970.872	2999.09
971.174	2974.23
971.475	2960.67
971.776	2977.62
972.077	2948.24
972.378	2967.9
972.679	2919.54
972.98	2903.72
973.281	2898.53
973.582	2856.27
973.883	2837.96
974.183	2852.2
974.484	2857.17
974.785	2813.33
975.085	2818.75
975.386	2792.31
975.686	2788.25
975.986	2785.53
976.287	2774.91
976.587	2736.95
976.887	2755.03
977.187	2745.08
977.487	2739.89
977.787	2679.77
978.087	2714.8
978.387	2661.47
978.687	2678.19
978.987	2641.36
979.286	2675.93
979.586	2628.93
979.885	2666.44
980.185	2612.43
980.484	2583.73
980.784	2569.27
981.083	2579.44
981.382	2562.49
981.682	2570.4
981.981	2527.24
982.28	2533.11
982.579	2522.72
982.878	2548.03
983.177	2503.28
983.475	2503.28
983.774	2456.5
984.073	2477.52
984.372	2482.94
984.67	2430.74
984.969	2411.08
985.267	2416.96
985.566	2408.82
985.864	2412.21
986.162	2406.34
986.461	2394.81
986.759	2400.69
987.057	2346.22
987.355	2347.58
987.653	2350.29
987.951	2320.91
988.249	2294.47
988.547	2339.67
988.844	2290.63
989.142	2317.07
989.44	2263.51
989.737	2262.16
990.035	2251.76
990.332	2240.24
990.63	2212.44
990.927	2231.42
991.224	2187.58
991.521	2199.33
991.819	2181.71
992.116	2162.05
992.413	2186.91
992.71	2168.83
993.006	2138.77
993.303	2139.45
993.6	2127.92
993.897	2113.24
994.193	2118.21
994.49	2122.05
994.787	2095.16
995.083	2065.78
995.379	2073.24
995.676	2070.52
995.972	2040.47
996.268	2044.76
996.565	2007.02
996.861	2014.71
997.157	2022.16
997.453	2005.44
997.749	1993.46
998.044	1971.09
998.34	1988.72
998.636	1964.99
998.932	1942.84
999.227	1932
999.523	1932.45
999.818	1909.62
1000.114	1924.31
1000.409	1913.47
1000.704	1914.6
1001	1908.72
1001.295	1852.23
1001.59	1895.16
1001.885	1870.3
1002.18	1874.6
1002.475	1836.86
1002.77	1833.24
1003.065	1788.72
1003.359	1786.69
1003.654	1824.66
1003.949	1770.19
1004.243	1795.73
1004.538	1778.55
1004.832	1757.31
1005.127	1731.1
1005.421	1744.88
1005.715	1731.32
1006.009	1737.43
1006.304	1707.37
1006.598	1699.01
1006.892	1686.81
1007.186	1677.77
1007.48	1681.61
1007.773	1668.95
1008.067	1660.59
1008.361	1628.95
1008.655	1604.32
1008.948	1621.72
1009.242	1605.9
1009.535	1578.33
1009.829	1623.08
1010.122	1587.37
1010.415	1614.04
1010.708	1598.67
1011.001	1539.01
1011.295	1543.76
1011.588	1570.2
1011.881	1512.12
1012.173	1534.27
1012.466	1529.07
1012.759	1514.61
1013.052	1522.97
1013.344	1493.36
1013.637	1499.47
1013.93	1457.43
1014.222	1473.7
1014.514	1434.61
1014.807	1445.23
1015.099	1465.79
1015.391	1426.02
1015.683	1408.4
1015.976	1406.36
1016.268	1450.88
1016.56	1422.86
1016.851	1412.01
1017.143	1366.81
1017.435	1405.23
1017.727	1356.19
1018.018	1354.16
1018.31	1350.32
1018.602	1344.22
1018.893	1331.11
1019.185	1311.9
1019.476	1316.65
1019.767	1308.96
1020.058	1319.13
1020.35	1302.18
1020.641	1305.57
1020.932	1271.68
1021.223	1293.14
1021.514	1291.11
1021.804	1227.16
1022.095	1233.71
1022.386	1239.13
1022.677	1249.3
1022.967	1228.96
1023.258	1204.33
1023.548	1194.16
1023.839	1191.45
1024.129	1199.81
1024.419	1195.52
1024.709	1171.79
1025	1189.42
1025.29	1153.03
1025.58	1161.17
1025.87	1140.38
1026.16	1149.87
1026.449	1139.93
1026.739	1126.82
1027.029	1099.02
1027.319	1127.72
1027.608	1086.6
1027.898	1096.09
1028.187	1091.79
1028.477	1079.59
1028.766	1066.26
1029.055	1078.01
1029.344	1058.35
1029.634	1044.11
1029.923	1045.92
1030.212	1049.53
1030.501	1028.29
1030.79	1025.13
1031.078	1029.87
1031.367	1023.77
1031.656	1014.28
1031.945	994.62
1032.233	990.55
1032.522	998.46
1032.81	984.45
1033.099	991.68
1033.387	963.44
1033.675	972.25
1033.963	962.76
1034.251	944.45
1034.54	949.42
1034.828	973.83
1035.116	916.66
1035.403	919.14
1035.691	927.96
1035.979	931.57
1036.267	958.24
1036.554	897.9
1036.842	879.6
1037.129	903.55
1037.417	880.73
1037.704	902.65
1037.992	885.02
1038.279	891.8
1038.566	896.09
1038.853	896.09
1039.14	896.09
