Data from hue_220_FLMS001491_00042.txt Node
Date: Tue Feb 07 16:39:30 GMT 2017
User: dcchb
Spectrometer: FLMS00149
Trigger mode: 0
Integration Time (sec): 2.000000E-2
Scans to average: 10
Electric dark correction enabled: true
Nonlinearity correction enabled: false
Boxcar width: 0
XAxis mode: Wavelengths
Number of Pixels in Spectrum: 2048
>>>>>Begin Spectral Data<<<<<
341.393	-7.25
341.776	-7.25
342.16	-7.25
342.543	-60.58
342.927	-52.22
343.31	-70.97
343.693	-57.87
344.077	-48.83
344.46	-49.96
344.843	-60.58
345.226	-51.54
345.61	-32.1
345.993	-19.45
346.376	0.21
346.759	5.64
347.142	30.72
347.525	22.13
347.908	53.09
348.291	68.23
348.674	103.71
349.057	107.55
349.44	125.86
349.823	153.88
350.206	172.18
350.588	187.55
350.971	195.69
351.354	228.45
351.737	224.39
352.119	233.65
352.502	246.99
352.884	262.8
353.267	268
353.65	290.6
354.032	276.81
354.414	310.94
354.797	300.32
355.179	308.9
355.562	312.29
355.944	316.14
356.326	322.69
356.709	322.69
357.091	344.61
357.473	342.8
357.855	331.5
358.238	338.06
358.62	330.37
359.002	334.67
359.384	328.79
359.766	355.46
360.148	333.31
360.53	325.85
360.912	360.2
361.294	314.55
361.676	348.45
362.057	330.6
362.439	318.62
362.821	329.47
363.203	304.84
363.584	313.2
363.966	329.47
364.348	310.94
364.729	328.34
365.111	330.37
365.493	314.55
365.874	324.27
366.256	304.38
366.637	296.7
367.019	310.71
367.4	314.55
367.781	308
368.163	314.78
368.544	319.07
368.925	306.19
369.306	319.3
369.688	322.01
370.069	313.2
370.45	303.93
370.831	338.51
371.212	307.32
371.593	306.87
371.974	319.07
372.355	317.27
372.736	310.26
373.117	316.14
373.498	298.74
373.879	315.91
374.26	316.36
374.641	301.22
375.021	329.24
375.402	336.7
375.783	318.85
376.163	335.34
376.544	335.8
376.925	311.84
377.305	323.59
377.686	330.82
378.066	315.23
378.447	312.97
378.827	303.71
379.208	329.24
379.588	321.79
379.968	325.63
380.349	336.25
380.729	369.69
381.109	296.7
381.489	326.98
381.87	323.59
382.25	338.73
382.63	326.53
383.01	338.73
383.39	329.69
383.77	335.34
384.15	341.22
384.53	359.52
384.91	351.16
385.29	355.91
385.67	345.29
386.049	343.48
386.429	350.03
386.809	340.54
387.189	360.65
387.568	343.48
387.948	358.62
388.328	369.02
388.707	355.46
389.087	353.87
389.466	369.69
389.846	367.21
390.225	348.9
390.605	356.59
390.984	353.42
391.363	375.8
391.743	363.82
392.122	362.69
392.501	350.49
392.881	379.64
393.26	371.05
393.639	397.94
394.018	365.4
394.397	372.41
394.776	389.58
395.155	404.27
395.534	395.91
395.913	360.43
396.292	387.32
396.671	382.57
397.05	402.91
397.429	393.42
397.808	405.17
398.186	414.89
398.565	417.6
398.944	424.83
399.323	404.27
399.701	407.43
400.08	404.04
400.458	419.64
400.837	416.7
401.215	421.22
401.594	435
401.972	428.9
402.351	416.92
402.729	444.72
403.107	430.03
403.486	425.29
403.864	441.1
404.242	443.59
404.62	437.26
404.999	440.43
405.377	466.87
405.755	440.88
406.133	476.36
406.511	486.98
406.889	459.86
407.267	488.79
407.645	461.22
408.023	511.84
408.401	511.61
408.779	497.15
409.156	512.74
409.534	510.25
409.912	496.7
410.29	543.7
410.667	541.21
411.045	541.21
411.422	546.19
411.8	577.82
412.178	570.37
412.555	580.76
412.933	584.15
413.31	613.53
413.687	601.78
414.065	592.06
414.442	626.64
414.819	621.21
415.197	624.15
415.574	631.61
415.951	638.61
416.328	660.31
416.705	683.58
417.082	678.16
417.46	660.76
417.837	689.23
418.214	708.22
418.591	713.41
418.967	714.32
419.344	706.18
419.721	740.98
420.098	734.43
420.475	776.24
420.852	764.49
421.228	776.91
421.605	806.52
421.982	800.64
422.358	799.74
422.735	821.66
423.111	842.45
423.488	874.09
423.864	861.88
424.241	891.94
424.617	890.81
424.994	911.6
425.37	896.01
425.746	914.31
426.123	940.3
426.499	957.02
426.875	954.31
427.251	966.51
427.627	990.02
428.003	1037.7
428.379	1032.5
428.756	1033.63
429.132	1048.55
429.507	1074.76
429.883	1058.94
430.259	1079.73
430.635	1082.22
431.011	1118.83
431.387	1124.7
431.763	1131.93
432.138	1154.31
432.514	1189.79
432.89	1168.77
433.265	1222.1
433.641	1248.77
434.016	1265.49
434.392	1271.59
434.767	1309.33
435.143	1347.07
435.518	1351.36
435.894	1371.7
436.269	1357.92
436.644	1395.66
437.02	1407.63
437.395	1434.52
437.77	1468.65
438.145	1503.22
438.52	1509.1
438.895	1535.09
439.271	1567.18
439.646	1575.76
440.021	1613.95
440.395	1635.42
440.77	1640.17
441.145	1659.38
441.52	1708.87
441.895	1702.31
442.27	1716.1
442.645	1727.17
443.019	1724.69
443.394	1736.66
443.769	1796.77
444.143	1749.09
444.518	1801.97
444.892	1817.34
445.267	1830.67
445.641	1847.85
446.016	1869.54
446.39	1888.98
446.764	1915.42
447.139	1886.49
447.513	1906.6
447.887	1928.75
448.262	1943.66
448.636	1983.21
449.01	1983.44
449.384	1964.45
449.758	2017.33
450.132	2010.55
450.506	2042.19
450.88	2036.77
451.254	2081.51
451.628	2118.57
452.002	2083.55
452.376	2155.41
452.75	2188.63
453.123	2133.49
453.497	2191.34
453.871	2217.1
454.244	2260.04
454.618	2264.79
454.992	2326.03
455.365	2258.23
455.739	2342.52
456.112	2368.96
456.486	2361.73
456.859	2402.86
457.232	2441.5
457.606	2442.41
457.979	2461.62
458.352	2542.29
458.725	2543.65
459.099	2529.18
459.472	2595.17
459.845	2633.59
460.218	2598.11
460.591	2666.36
460.964	2683.31
461.337	2730.54
461.71	2720.14
462.083	2817.54
462.456	2793.58
462.829	2829.52
463.201	2861.38
463.574	2878.55
463.947	2903.41
464.32	2948.16
464.692	2970.76
465.065	3022.96
465.438	2998.1
465.81	3055.95
466.183	3111.32
466.555	3158.77
466.928	3195.83
467.3	3206
467.672	3212.1
468.045	3335.49
468.417	3306.79
468.789	3363.29
469.161	3359.45
469.534	3412.33
469.906	3493.68
470.278	3522.61
470.65	3527.8
471.022	3613.9
471.394	3636.95
471.766	3691.19
472.138	3708.14
472.51	3808.7
472.882	3902.26
473.253	3840.11
473.625	3954.91
473.997	4028.13
474.369	4053.44
474.74	4100.89
475.112	4127.11
475.484	4214.34
475.855	4275.13
476.227	4279.65
476.598	4401.23
476.97	4480.55
477.341	4486.65
477.713	4543.37
478.084	4566.42
478.455	4629.47
478.827	4733.19
479.198	4840.54
479.569	4820.2
479.94	4922.12
480.311	5008.89
480.682	5101.77
481.053	5193.07
481.424	5230.13
481.795	5307.64
482.166	5367.3
482.537	5380.64
482.908	5523.46
483.279	5612.04
483.65	5644.13
484.021	5718.93
484.391	5779.49
484.762	5808.42
485.133	5881.64
485.503	5987.17
485.874	6051.58
486.244	6093.84
486.615	6190.11
486.985	6225.81
487.356	6358.91
487.726	6359.59
488.097	6543.54
488.467	6527.5
488.837	6663.31
489.207	6668.06
489.578	6808.17
489.948	6812.24
490.318	6929.3
490.688	6974.72
491.058	7070.31
491.428	7115.96
491.798	7091.78
492.168	7268.72
492.538	7253.35
492.908	7330.64
493.278	7429.4
493.648	7483.4
494.017	7540.58
494.387	7532.67
494.757	7575.83
495.126	7692.21
495.496	7684.53
495.866	7737.64
496.235	7820.35
496.605	7844.75
496.974	7881.36
497.344	7962.04
497.713	8009.72
498.082	8023.5
498.452	8063.05
498.821	8128.36
499.19	8108.25
499.559	8190.96
499.928	8244.29
500.298	8284.97
500.667	8295.36
501.036	8298.3
501.405	8371.52
501.774	8411.97
502.143	8495.81
502.512	8365.64
502.88	8472.76
503.249	8466.88
503.618	8537.61
503.987	8514.56
504.356	8524.28
504.724	8555.47
505.093	8552.08
505.462	8669.81
505.83	8683.6
506.199	8711.85
506.567	8826.65
506.936	8790.04
507.304	8864.16
507.672	8836.82
508.041	8879.07
508.409	8952.07
508.777	8962.91
509.145	9037.71
509.514	8973.08
509.882	8968.79
510.25	9020.77
510.618	9030.26
510.986	9035
511.354	9020.77
511.722	9171.5
512.09	9203.59
512.458	9099.86
512.826	9213.53
513.193	9160.87
513.561	9180.31
513.929	9257.37
514.297	9328.33
514.664	9369.68
515.032	9339.18
515.4	9368.78
515.767	9385.28
516.135	9448.33
516.502	9264.15
516.869	9382.79
517.237	9329.91
517.604	9345.05
517.972	9372.39
518.339	9424.6
518.706	9402.45
519.073	9392.51
519.44	9440.19
519.808	9497.36
520.175	9469.57
520.542	9549.11
520.909	9585.72
521.276	9620.3
521.643	9633.18
522.009	9627.76
522.376	9576.46
522.743	9595.67
523.11	9682.9
523.477	9699.39
523.843	9689.45
524.21	9689.45
524.577	9789.33
524.943	9811.93
525.31	9793.17
525.676	9813.06
526.043	9874.08
526.409	9839.95
526.776	9914.75
527.142	9830.01
527.508	9902.78
527.874	9962.21
528.241	9896
528.607	9911.59
528.973	9993.17
529.339	9936.67
529.705	9939.61
530.071	10011.02
530.437	9995.2
530.803	10039.04
531.169	9980.74
531.535	9900.74
531.901	9950.23
532.267	9969.67
532.632	9972.15
532.998	9943.23
533.364	9953.85
533.73	9899.61
534.095	9985.49
534.461	9970.57
534.826	9873.17
535.192	9948.88
535.557	9960.85
535.923	10038.14
536.288	9838.82
536.653	9957.01
537.019	9854.42
537.384	9912.95
537.749	9852.83
538.114	9848.09
538.479	9841.76
538.845	9884.02
539.21	9832.95
539.575	9773.74
539.94	9738.71
540.305	9816
540.67	9718.15
541.034	9720.18
541.399	9728.54
541.764	9735.55
542.129	9669.11
542.494	9653.97
542.858	9687.64
543.223	9661.65
543.587	9674.08
543.952	9613.29
544.316	9644.25
544.681	9592.73
545.045	9645.61
545.41	9613.29
545.774	9566.06
546.138	9507.53
546.503	9528.1
546.867	9496.23
547.231	9563.8
547.595	9427.31
547.959	9444.03
548.324	9468.89
548.688	9387.76
549.052	9323.13
549.416	9380.76
549.779	9338.27
550.143	9317.26
550.507	9380.08
550.871	9352.06
551.235	9306.63
551.599	9358.61
551.962	9296.69
552.326	9305.28
552.689	9325.84
553.053	9226.64
553.417	9210.82
553.78	9323.58
554.143	9276.8
554.507	9220.31
554.87	9164.26
555.234	9234.32
555.597	9138.28
555.96	9151.61
556.323	9101.67
556.686	9144.83
557.05	9192.74
557.413	9139.18
557.776	9174.66
558.139	9176.69
558.502	9115
558.865	9190.48
559.228	9191.83
559.59	9178.28
559.953	9186.41
560.316	9235.9
560.679	9234.32
561.041	9183.02
561.404	9158.62
561.767	9227.31
562.129	9180.31
562.492	9219.18
562.854	9194.55
563.217	9213.3
563.579	9199.07
563.941	9215.11
564.304	9252.4
564.666	9288.1
565.028	9253.53
565.39	9244.94
565.753	9315.45
566.115	9268.22
566.477	9360.42
566.839	9284.26
567.201	9324.26
567.563	9371.49
567.925	9379.17
568.287	9347.31
568.648	9390.93
569.01	9486.52
569.372	9493.07
569.734	9448.55
570.095	9548.66
570.457	9460.98
570.819	9500.08
571.18	9458.72
571.542	9577.81
571.903	9451.71
572.265	9563.8
572.626	9565.84
572.987	9570.36
573.349	9580.07
573.71	9647.87
574.071	9695.78
574.432	9700.3
574.794	9728.09
575.155	9776
575.516	9724.25
575.877	9792.72
576.238	9743.01
576.599	9801.76
576.96	9838.6
577.32	9790.69
577.681	9843.57
578.042	9880.63
578.403	9904.81
578.763	9939.16
579.124	9915.21
579.485	9920.85
579.845	9950.01
580.206	9993.62
580.566	9954.75
580.927	9994.98
581.287	9997.46
581.648	10042.89
582.008	10031.59
582.368	10063
582.728	10083.56
583.089	10063.22
583.449	10122.21
583.809	10099.61
584.169	10142.09
584.529	10140.96
584.889	10183.45
585.249	10089.89
585.609	10206.05
585.969	10227.51
586.329	10161.75
586.688	10211.92
587.048	10305.03
587.408	10242.2
587.768	10218.47
588.127	10189.32
588.487	10224.35
588.846	10291.92
589.206	10279.72
589.565	10293.5
589.925	10308.42
590.284	10334.18
590.643	10388.87
591.003	10341.41
591.362	10403.33
591.721	10425.7
592.08	10405.81
592.44	10437
592.799	10339.38
593.158	10393.16
593.517	10448.52
593.876	10476.32
594.235	10477
594.593	10425.02
594.952	10455.98
595.311	10477
595.67	10474.96
596.029	10561.06
596.387	10463.67
596.746	10554.51
597.104	10536.21
597.463	10500.5
597.822	10581.63
598.18	10536.88
598.538	10517.22
598.897	10563.78
599.255	10541.18
599.613	10664.34
599.972	10594.28
600.33	10573.49
600.688	10603.1
601.046	10559.71
601.404	10691.91
601.762	10566.04
602.12	10653.49
602.478	10725.13
602.836	10661.4
603.194	10580.5
603.552	10658.91
603.91	10620.95
604.268	10619.14
604.625	10632.93
604.983	10709.31
605.341	10644.45
605.698	10656.43
606.056	10770.1
606.413	10712.92
606.771	10708.63
607.128	10733.94
607.485	10778.69
607.843	10751.57
608.2	10832.47
608.557	10742.98
608.914	10742.08
609.272	10861.17
609.629	10814.16
609.986	10881.28
610.343	10756.09
610.7	10876.99
611.057	10857.78
611.414	10916.99
611.771	10835.18
612.127	10894.39
612.484	10842.86
612.841	10958.12
613.198	10902.75
613.554	10935.74
613.911	10965.35
614.267	10970.77
614.624	10989.75
614.98	10923.54
615.337	11044.89
615.693	10952.92
616.05	10955.18
616.406	11053.71
616.762	10938.46
617.118	10953.14
617.475	10980.26
617.831	11022.07
618.187	11018.68
618.543	11062.29
618.899	11134.16
619.255	11075.4
619.611	11067.49
619.967	11073.14
620.323	11107.04
620.678	11093.48
621.034	11062.52
621.39	11086.93
621.746	11024.78
622.101	11183.19
622.457	11031.79
622.812	11128.96
623.168	11124.21
623.523	11140.26
623.879	11250.76
624.234	11049.41
624.589	11071.33
624.945	11073.82
625.3	11083.31
625.655	11119.69
626.01	11109.3
626.365	11145.23
626.72	11046.02
627.075	11094.61
627.43	11118.11
627.785	11042.41
628.14	11073.59
628.495	11110.43
628.85	11020.49
629.205	11010.54
629.559	11135.51
629.914	11048.28
630.269	10968.74
630.623	11018.68
630.978	10989.75
631.332	11039.24
631.687	11064.78
632.041	10977.55
632.396	11032.24
632.75	10917.89
633.104	10951.11
633.459	10924.44
633.813	10931.45
634.167	10899.59
634.521	10892.35
634.875	10860.49
635.229	10897.33
635.583	10854.39
635.937	10818.91
636.291	10870.66
636.645	10849.64
636.999	10770.1
637.352	10789.08
637.706	10694.62
638.06	10794.5
638.413	10809.87
638.767	10755.18
639.121	10760.38
639.474	10641.97
639.828	10707.05
640.181	10736.2
640.534	10701.17
640.888	10668.86
641.241	10658.01
641.594	10610.33
641.947	10697.56
642.301	10613.94
642.654	10640.61
643.007	10672.7
643.36	10682.64
643.713	10578.24
644.066	10604.9
644.419	10619.14
644.771	10512.25
645.124	10484
645.477	10502.31
645.83	10390.67
646.182	10398.81
646.535	10299.83
646.888	10269.77
647.24	10248.98
647.593	10291.01
647.945	10203.33
648.298	10173.73
648.65	10140.51
649.002	10233.84
649.355	10223.45
649.707	10248.08
650.059	10260.28
650.411	10372.59
650.763	10368.07
651.115	10571.46
651.467	10524
651.819	10500.05
652.171	10477.22
652.523	10429.54
652.875	10493.5
653.227	10415.31
653.578	10478.81
653.93	10505.25
654.282	10435.42
654.633	10406.72
654.985	10474.51
655.337	10463.21
655.688	10452.59
656.039	10520.61
656.391	10372.14
656.742	10454.17
657.094	10473.38
657.445	10533.49
657.796	10466.83
658.147	10469.32
658.498	10460.05
658.849	10450.11
659.2	10423.67
659.551	10495.98
659.902	10547.28
660.253	10523.55
660.604	10530.56
660.955	10508.18
661.306	10518.58
661.656	10529.43
662.007	10502.08
662.358	10511.12
662.708	10472.03
663.059	10532.36
663.409	10442.42
663.76	10524
664.11	10493.04
664.461	10492.59
664.811	10487.62
665.161	10508.64
665.511	10447.17
665.862	10552.93
666.212	10562.65
666.562	10500.95
666.912	10447.62
667.262	10466.83
667.612	10394.74
667.962	10534.4
668.312	10495.76
668.662	10552.7
669.011	10475.64
669.361	10492.14
669.711	10454.17
670.06	10495.3
670.41	10439.03
670.76	10492.37
671.109	10452.59
671.459	10519.94
671.808	10496.43
672.157	10493.72
672.507	10365.59
672.856	10263.9
673.205	10355.65
673.554	10465.02
673.904	10378.24
674.253	10415.53
674.602	10409.66
674.951	10255.54
675.3	10195.42
675.649	10321.52
675.998	10306.61
676.346	10279.72
676.695	10299.38
677.044	10217.57
677.393	10301.64
677.741	10331.24
678.09	10234.07
678.438	10249.89
678.787	10245.37
679.135	10271.81
679.484	10199.94
679.832	10224.35
680.181	10158.59
680.529	10215.08
680.877	10175.31
681.225	10136.22
681.573	10175.54
681.922	10056.44
682.27	10065.94
682.618	10065.48
682.966	10099.61
683.314	10090.12
683.661	10063.45
684.009	9923.11
684.357	9962.66
684.705	9939.16
685.053	9952.04
685.4	9910.46
685.748	9853.51
686.095	9896
686.443	9807.64
686.79	9837.24
687.138	9865.26
687.485	9791.59
687.832	9787.53
688.18	9804.7
688.527	9692.61
688.874	9657.36
689.221	9638.38
689.568	9558.15
689.915	9598.6
690.262	9584.59
690.609	9560.64
690.956	9519.51
691.303	9514.99
691.65	9434.09
691.997	9444.26
692.344	9404.03
692.69	9278.39
693.037	9374.88
693.383	9290.82
693.73	9315
694.077	9269.12
694.423	9265.28
694.769	9266.63
695.116	9207.2
695.462	9173.98
695.808	9120.2
696.155	9125.17
696.501	9043.36
696.847	9077.71
697.193	8976.25
697.539	9036.58
697.885	8953.87
698.231	8832.52
698.577	8910.49
698.923	8835.01
699.269	8821
699.614	8764.73
699.96	8741.68
700.306	8760.66
700.651	8705.52
700.997	8634.11
701.342	8620.78
701.688	8610.38
702.033	8529.25
702.379	8528.12
702.724	8492.87
703.069	8537.16
703.415	8486.09
703.76	8416.26
704.105	8460.33
704.45	8389.82
704.795	8341.69
705.14	8328.35
705.485	8326.09
705.83	8304.85
706.175	8235.25
706.52	8312.54
706.865	8241.8
707.209	8166.32
707.554	8152.77
707.899	8136.95
708.243	8101.02
708.588	8105.54
708.932	8075.48
709.277	7995.93
709.621	8049.94
709.966	7978.08
710.31	8003.39
710.654	7950.29
710.998	7863.73
711.342	7941.7
711.687	7956.39
712.031	7875.94
712.375	7767.92
712.719	7818.99
713.063	7821.25
713.407	7811.98
713.75	7763.4
714.094	7753.91
714.438	7757.75
714.782	7674.59
715.125	7705.32
715.469	7763.85
715.812	7636.17
716.156	7641.14
716.499	7630.97
716.843	7694.02
717.186	7630.52
717.53	7637.98
717.873	7667.81
718.216	7642.95
718.559	7595.27
718.902	7522.27
719.246	7572.89
719.589	7522.95
719.932	7493.8
720.275	7563.18
720.617	7479.11
720.96	7518.66
721.303	7497.64
721.646	7536.51
721.989	7445.21
722.331	7496.06
722.674	7457.19
723.016	7431.88
723.359	7471.88
723.701	7422.16
724.044	7372.9
724.386	7355.72
724.729	7461.26
725.071	7397.08
725.413	7426.68
725.755	7346.46
726.097	7322.05
726.439	7359.34
726.782	7314.14
727.124	7371.54
727.465	7348.49
727.807	7342.84
728.149	7353.92
728.491	7283.86
728.833	7342.17
729.175	7340.81
729.516	7303.97
729.858	7267.37
730.199	7312.11
730.541	7313.01
730.882	7312.11
731.224	7295.84
731.565	7302.17
731.906	7287.93
732.248	7339.68
732.589	7291.77
732.93	7270.76
733.271	7258.55
733.612	7298.78
733.953	7265.78
734.294	7284.54
734.635	7273.69
734.976	7337.19
735.317	7328.83
735.658	7361.15
735.999	7328.61
736.339	7281.38
736.68	7346.23
737.021	7338.32
737.361	7269.17
737.702	7316.63
738.042	7281.15
738.383	7304.65
738.723	7340.36
739.063	7355.27
739.404	7410.19
739.744	7351.66
740.084	7367.02
740.424	7367.48
740.764	7435.04
741.104	7450.86
741.444	7395.05
741.784	7400.7
742.124	7480.69
742.464	7376.52
742.804	7466.46
743.143	7451.77
743.483	7419.9
743.823	7457.42
744.162	7475.04
744.502	7598.2
744.841	7550.07
745.181	7634.36
745.52	7623.97
745.86	7656.06
746.199	7725.66
746.538	7701.48
746.877	7826.45
747.216	7848.37
747.556	7851.53
747.895	7905.09
748.234	7967.01
748.573	7969.72
748.911	8018.76
749.25	8128.13
749.589	8118.64
749.928	8226.21
750.267	8345.76
750.605	8294.91
750.944	8416.49
751.283	8502.36
751.621	8506.2
751.96	8606.54
752.298	8737.84
752.636	8827.1
752.975	8860.77
753.313	8998.85
753.651	9124.72
753.989	9209.46
754.327	9249.46
754.666	9378.04
755.004	9472.28
755.342	9691.03
755.679	9785.72
756.017	9880.63
756.355	9984.13
756.693	10099.83
757.031	10281.98
757.368	10373.5
757.706	10530.1
758.044	10582.31
758.381	10864.78
758.719	10962.18
759.056	11185
759.394	11320.59
759.731	11386.81
760.068	11544.54
760.405	11731.43
760.743	11874.7
761.08	12028.82
761.417	12244.41
761.754	12362.37
762.091	12635.36
762.428	12710.84
762.765	12921.23
763.102	13154.44
763.438	13240.99
763.775	13401.89
764.112	13603.7
764.449	13779.06
764.785	13979.51
765.122	14095.89
765.458	14214.53
765.795	14399.61
766.131	14586.27
766.467	14757.34
766.804	14839.14
767.14	14939.93
767.476	15195.74
767.812	15250.21
768.148	15514.38
768.485	15613.36
768.821	15656.07
769.157	15859
769.492	15940.81
769.828	16117.98
770.164	16139
770.5	16222.16
770.836	16468.71
771.171	16511.42
771.507	16645.88
771.842	16663.28
772.178	16783.27
772.513	16919.77
772.849	17029.82
773.184	17054.23
773.519	17218.52
773.855	17338.74
774.19	17367.44
774.525	17405.86
774.86	17575.57
775.195	17628.67
775.53	17708.45
775.865	17690.37
776.2	17693.53
776.535	17676.58
776.87	17812.62
777.205	17853.53
777.539	17842.45
777.874	18010.59
778.209	17924.94
778.543	17980.53
778.878	17974.88
779.212	18092.39
779.547	18102.79
779.881	18194.76
780.215	18164.48
780.55	18221.65
780.884	18229.56
781.218	18233.4
781.552	18305.95
781.886	18262.33
782.22	18272.5
782.554	18159.51
782.888	18138.49
783.222	18214.65
783.556	18191.82
783.889	18120.87
784.223	18091.94
784.557	18171.71
784.89	18216
785.224	18188.43
785.557	18065.95
785.891	18116.8
786.224	18082.22
786.558	18203.58
786.891	18013.75
787.224	18027.76
787.557	17998.38
787.891	18045.16
788.224	18036.57
788.557	18187.3
788.89	18009.23
789.223	18052.17
789.556	17958.16
789.888	17987.76
790.221	17981.89
790.554	17806.98
790.887	17858.27
791.219	17832.74
791.552	17787.31
791.884	17699.18
792.217	17743.02
792.549	17677.94
792.882	17712.51
793.214	17637.26
793.546	17666.41
793.879	17636.36
794.211	17511.84
794.543	17635.45
794.875	17471.16
795.207	17576.7
795.539	17513.42
795.871	17466.19
796.203	17378.74
796.535	17286.09
796.867	17284.05
797.198	17286.54
797.53	17234.11
797.862	17232.75
798.193	17257.16
798.525	17168.8
798.856	17126.09
799.188	16914.34
799.519	16984.62
799.85	16854.23
800.182	16895.13
800.513	16896.26
800.844	16769.04
801.175	16825.08
801.506	16878.41
801.837	16802.48
802.168	16774.46
802.499	16602.71
802.83	16633.67
803.161	16499.44
803.491	16511.19
803.822	16647.68
804.153	16447.01
804.483	16348.93
804.814	16397.29
805.145	16351.87
805.475	16313.68
805.805	16230.29
806.136	16373.79
806.466	16332.89
806.796	16239.33
807.126	16085.66
807.457	16071.65
807.787	16137.19
808.117	16054.93
808.447	15979.23
808.777	16083.4
809.107	15906.01
809.436	15896.97
809.766	15900.13
810.096	15894.94
810.426	15826.24
810.755	15856.52
811.085	15710.31
811.414	15775.39
811.744	15722.51
812.073	15595.51
812.403	15628.28
812.732	15604.1
813.061	15578.56
813.39	15524.78
813.719	15413.14
814.049	15561.61
814.378	15490.88
814.707	15382.63
815.036	15431.9
815.365	15308.96
815.693	15182.64
816.022	15209.08
816.351	15166.82
816.68	15117.33
817.008	15271.67
817.337	15130.66
817.665	14961.63
817.994	15071.91
818.322	15072.81
818.651	14926.83
818.979	14928.18
819.307	15092.47
819.636	14949.88
819.964	14852.48
820.292	15012.25
820.62	15009.76
820.948	14933.15
821.276	15016.77
821.604	14926.6
821.932	14908.75
822.259	14928.86
822.587	14881.18
822.915	14868.97
823.243	14917.11
823.57	14806.6
823.898	14862.65
824.225	14817.45
824.553	14811.8
824.88	14908.75
825.207	14950.55
825.535	14884.11
825.862	14903.1
826.189	14911.68
826.516	14926.37
826.843	14974.96
827.17	14951.23
827.497	14953.94
827.824	14915.53
828.151	14881.63
828.478	14900.84
828.805	14891.35
829.131	14928.86
829.458	14857.67
829.785	14922.76
830.111	14953.27
830.438	14970.89
830.764	14974.96
831.09	15032.36
831.417	14877.11
831.743	14932.25
832.069	14931.12
832.395	14773.16
832.722	14898.13
833.048	14877.11
833.374	14880.95
833.7	14693.16
834.026	14848.86
834.351	14815.19
834.677	14817.22
835.003	14869.88
835.329	14767.96
835.654	14747.85
835.98	14730.67
836.306	14740.16
836.631	14687.28
836.956	14864
837.282	14738.58
837.607	14685.93
837.932	14614.97
838.258	14626.49
838.583	14641.18
838.908	14586.95
839.233	14565.48
839.558	14477.8
839.883	14485.25
840.208	14423.79
840.533	14430.11
840.858	14465.37
841.182	14439.61
841.507	14445.93
841.832	14328.87
842.156	14315.77
842.481	14247.07
842.805	14350.12
843.13	14325.03
843.454	14209.1
843.778	14143.34
844.103	14187.64
844.427	14038.71
844.751	14150.57
845.075	14019.96
845.399	14052.95
845.723	13857.25
846.047	14026.74
846.371	13885.27
846.695	13849.34
847.019	13786.74
847.343	13739.51
847.666	13613.41
847.99	13526.41
848.313	13575.67
848.637	13437.37
848.96	13448.67
849.284	13420.65
849.607	13279.18
849.931	13244.84
850.254	13208
850.577	13098.4
850.9	13047.55
851.223	13150.37
851.546	12922.58
851.869	12911.74
852.192	13022.92
852.515	12798.97
852.838	12720.56
853.161	12778.86
853.483	12716.04
853.806	12664.74
854.129	12631.07
854.451	12616.83
854.774	12603.95
855.096	12485.53
855.419	12465.42
855.741	12417.06
856.063	12366.21
856.385	12410.96
856.708	12292.54
857.03	12300.68
857.352	12238.53
857.674	12203.05
857.996	12164.86
858.318	12060.46
858.64	12114.02
858.961	12021.59
859.283	12025.88
859.605	11915.83
859.926	11953.57
860.248	11928.71
860.57	11881.48
860.891	11953.8
861.212	11834.7
861.534	11756.29
861.855	11764.42
862.176	11762.39
862.498	11757.87
862.819	11762.61
863.14	11688.27
863.461	11656.85
863.782	11653.24
864.103	11657.53
864.424	11630.64
864.745	11575.73
865.065	11542.51
865.386	11604.2
865.707	11502.06
866.027	11541.83
866.348	11462.96
866.668	11480.14
866.989	11535.28
867.309	11379.12
867.63	11422.51
867.95	11393.81
868.27	11398.1
868.59	11396.3
868.91	11318.11
869.23	11283.31
869.55	11294.38
869.87	11360.14
870.19	11277.43
870.51	11241.5
870.83	11315.39
871.15	11198.34
871.469	11200.14
871.789	11200.82
872.109	11195.4
872.428	11093.25
872.748	11139.58
873.067	11094.16
873.386	11135.74
873.706	11029.07
874.025	11028.62
874.344	11024.1
874.663	10940.94
874.982	10926.7
875.301	10968.29
875.62	10973.71
875.939	10923.77
876.258	11003.99
876.577	10814.84
876.896	10868.85
877.214	10896.42
877.533	10817.33
877.852	10760.38
878.17	10792.92
878.489	10817.1
878.807	10836.54
879.125	10791.79
879.444	10745.69
879.762	10681.06
880.08	10684
880.398	10673.6
880.716	10675.19
881.034	10622.53
881.352	10621.63
881.67	10592.7
881.988	10633.6
882.306	10584.34
882.624	10554.51
882.941	10434.74
883.259	10470.67
883.577	10366.04
883.894	10412.59
884.212	10415.98
884.529	10395.42
884.846	10361.75
885.164	10391.58
885.481	10207.85
885.798	10222.77
886.115	10216.44
886.432	10217.12
886.75	10246.95
887.067	10168.08
887.383	10140.51
887.7	10168.31
888.017	10090.12
888.334	10122.66
888.651	10107.52
888.967	10014.86
889.284	9924.92
889.6	10001.3
889.917	9918.82
890.233	9940.74
890.55	9864.13
890.866	9795.43
891.182	9860.07
891.498	9790.01
891.815	9807.41
892.131	9765.15
892.447	9716.79
892.763	9663.69
893.079	9709.34
893.395	9626.17
893.71	9625.72
894.026	9576.68
894.342	9511.37
894.657	9456.46
894.973	9463.47
895.289	9475.67
895.604	9433.18
895.92	9352.73
896.235	9304.37
896.55	9324.49
896.865	9328.33
897.181	9282.45
897.496	9242.45
897.811	9218.27
898.126	9116.81
898.441	9115.23
898.756	9115.9
899.071	9115.23
899.386	9073.19
899.7	9005.85
900.015	8908.9
900.33	8910.71
900.644	8943.48
900.959	8925.17
901.273	8859.87
901.588	8809.02
901.902	8741.68
902.216	8728.34
902.531	8698.29
902.845	8708.91
903.159	8665.52
903.473	8589.82
903.787	8541.68
904.101	8531.96
904.415	8479.99
904.729	8450.16
905.042	8408.13
905.356	8390.05
905.67	8377.84
905.984	8380.56
906.297	8327.45
906.611	8272.54
906.924	8262.14
907.237	8240
907.551	8171.07
907.864	8164.29
908.177	8099.89
908.491	8127.91
908.804	8045.42
909.117	7968.59
909.43	7974.92
909.743	7925.43
910.056	7920.23
910.368	7934.24
910.681	7879.1
910.994	7849.5
911.307	7840.68
911.619	7691.31
911.932	7759.33
912.244	7667.58
912.557	7630.07
912.869	7620.12
913.181	7564.76
913.494	7566.79
913.806	7516.17
914.118	7480.24
914.43	7461.26
914.742	7495.16
915.054	7459.22
915.366	7448.15
915.678	7388.72
915.99	7334.26
916.302	7267.82
916.613	7307.14
916.925	7240.47
917.236	7259.46
917.548	7175.62
917.859	7175.16
918.171	7130.65
918.482	7074.83
918.794	7035.96
919.105	7065.56
919.416	7002.06
919.727	6959.35
920.038	6922.97
920.349	6941.27
920.66	6900.14
920.971	6907.83
921.282	6842.97
921.593	6828.96
921.903	6789.19
922.214	6728.4
922.525	6680.26
922.835	6698.79
923.146	6661.51
923.456	6622.41
923.767	6565.01
924.077	6572.24
924.387	6539.47
924.697	6511.68
925.008	6506.93
925.318	6435.97
925.628	6469.42
925.938	6445.47
926.248	6349.65
926.558	6360.27
926.867	6424
927.177	6329.99
927.487	6326.15
927.796	6240.05
928.106	6245.47
928.416	6202.53
928.725	6228.3
929.034	6196.21
929.344	6151.24
929.653	6112.82
929.962	6067.17
930.271	6054.06
930.581	6031.92
930.89	6001.41
931.199	6004.57
931.508	6029.21
931.817	5926.38
932.125	5956.44
932.434	5885.25
932.743	5891.36
933.051	5855.2
933.36	5805.71
933.669	5815.2
933.977	5802.09
934.286	5826.05
934.594	5741.76
934.902	5684.81
935.21	5668.76
935.519	5661.76
935.827	5678.93
936.135	5650.23
936.443	5577.92
936.751	5571.14
937.059	5549.22
937.367	5501.31
937.674	5499.73
937.982	5478.94
938.29	5456.11
938.597	5447.53
938.905	5377.7
939.213	5310.81
939.52	5337.02
939.827	5398.26
940.135	5338.6
940.442	5337.02
940.749	5253.41
941.056	5262.22
941.363	5227.65
941.67	5193.3
941.977	5124.37
942.284	5148.33
942.591	5109.91
942.898	5127.99
943.205	5144.48
943.511	5014.77
943.818	5095.22
944.125	4989.01
944.431	5027.65
944.738	4956.01
945.044	4941.78
945.35	4931.61
945.657	4901.55
945.963	4877.37
946.269	4849.35
946.575	4842.12
946.881	4819.07
947.187	4820.65
947.493	4799.18
947.799	4783.59
948.105	4769.58
948.41	4740.2
948.716	4698.17
949.022	4672.18
949.327	4704.72
949.633	4600.99
949.938	4642.8
950.244	4664.5
950.549	4577.27
950.854	4560.77
951.16	4551.96
951.465	4473.99
951.77	4513.99
952.075	4482.81
952.38	4497.27
952.685	4439.42
952.99	4414.33
953.294	4407.78
953.599	4404.39
953.904	4374.33
954.209	4334.79
954.513	4398.74
954.818	4340.66
955.122	4305.64
955.426	4268.35
955.731	4265.41
956.035	4260.89
956.339	4228.58
956.643	4196.94
956.948	4199.2
957.252	4198.52
957.556	4184.96
957.86	4145.41
958.163	4148.35
958.467	4137.96
958.771	4096.15
959.075	4060.22
959.378	4029.26
959.682	4051.18
959.985	4045.08
960.289	4021.35
960.592	4001.46
960.896	3966.21
961.199	3968.47
961.502	3911.97
961.805	3918.3
962.108	3896.61
962.411	3880.79
962.714	3873.33
963.017	3856.16
963.32	3848.25
963.623	3775.48
963.926	3817.96
964.228	3836.95
964.531	3767.12
964.833	3806.44
965.136	3734.58
965.438	3709.72
965.741	3719.66
966.043	3664.3
966.345	3692.77
966.648	3620
966.95	3651.64
967.252	3595.37
967.554	3583.85
967.856	3561.02
968.158	3548.37
968.46	3587.69
968.761	3522.15
969.063	3554.69
969.365	3535.94
969.666	3503.85
969.968	3463.85
970.269	3501.14
970.571	3447.35
970.872	3467.47
971.174	3442.38
971.475	3400.8
971.776	3427.47
972.077	3385.66
972.378	3383.85
972.679	3377.3
972.98	3318.99
973.281	3293.68
973.582	3351.76
973.883	3298.2
974.183	3297.53
974.484	3278.32
974.785	3248.26
975.085	3255.72
975.386	3236.06
975.686	3199.45
975.986	3224.99
976.287	3178.43
976.587	3146.12
976.887	3141.15
977.187	3159.22
977.487	3142.95
977.787	3099.57
978.087	3115.38
978.387	3084.42
978.687	3048.72
978.987	3006.69
979.286	2982.96
979.586	3006.69
979.885	3039.23
980.185	2981.38
980.484	2978.44
980.784	2971.43
981.083	2994.94
981.382	2936.18
981.682	2908.16
981.981	2922.17
982.28	2908.84
982.579	2912
982.878	2896.86
983.177	2853.7
983.475	2886.46
983.774	2816.41
984.073	2870.87
984.372	2764.66
984.67	2811.66
984.969	2806.92
985.267	2794.26
985.566	2746.81
985.864	2731.89
986.162	2734.83
986.461	2703.64
986.759	2726.47
987.057	2700.25
987.355	2690.54
987.653	2699.12
987.951	2633.36
988.249	2667.49
988.547	2633.59
988.844	2604.44
989.142	2613.93
989.44	2637.2
989.737	2564.89
990.035	2585.91
990.332	2544.1
990.63	2544.1
990.927	2531.22
991.224	2518.11
991.521	2528.96
991.819	2504.55
992.116	2532.57
992.413	2470.88
992.71	2500.03
993.006	2495.06
993.303	2459.13
993.6	2446.25
993.897	2455.97
994.193	2411
994.49	2429.3
994.787	2431.56
995.083	2382.75
995.379	2376.42
995.676	2365.8
995.972	2333.94
996.268	2363.99
996.565	2323.54
996.861	2333.94
997.157	2293.71
997.453	2291.9
997.749	2280.83
998.044	2245.58
998.34	2261.17
998.636	2253.94
998.932	2237.89
999.227	2231.34
999.523	2201.51
999.818	2181.62
1000.114	2166.26
1000.409	2151.57
1000.704	2164.22
1001	2172.81
1001.295	2114.73
1001.59	2142.98
1001.885	2159.93
1002.18	2082.42
1002.475	2078.58
1002.77	2062.08
1003.065	2088.29
1003.359	2069.54
1003.654	2060.72
1003.949	2048.75
1004.243	2031.8
1004.538	2001.52
1004.832	2004.9
1005.127	2008.75
1005.421	1937.11
1005.715	1960.61
1006.009	1934.85
1006.304	1951.8
1006.598	1936.66
1006.892	1895.76
1007.186	1894.85
1007.48	1893.95
1007.773	1875.87
1008.067	1877.45
1008.361	1861.41
1008.655	1856.43
1008.948	1854.17
1009.242	1852.82
1009.535	1856.21
1009.829	1833.61
1010.122	1822.31
1010.415	1830.22
1010.708	1793.61
1011.001	1755.42
1011.295	1771.24
1011.588	1775.31
1011.881	1708.64
1012.173	1735.99
1012.466	1732.6
1012.759	1713.61
1013.052	1744.12
1013.344	1714.07
1013.637	1688.08
1013.93	1695.53
1014.222	1662.32
1014.514	1658.93
1014.807	1670.45
1015.099	1661.41
1015.391	1651.69
1015.683	1602.2
1015.976	1646.27
1016.268	1602.43
1016.56	1564.46
1016.851	1590.23
1017.143	1580.28
1017.435	1555.65
1017.727	1563.56
1018.018	1504.81
1018.31	1544.13
1018.602	1524.01
1018.893	1546.39
1019.185	1495.09
1019.476	1493.73
1019.767	1510.91
1020.058	1460.06
1020.35	1470.91
1020.641	1434.3
1020.932	1444.24
1021.223	1441.08
1021.514	1436.78
1021.804	1395.66
1022.095	1408.31
1022.386	1398.59
1022.677	1400.63
1022.967	1378.25
1023.258	1374.86
1023.548	1352.27
1023.839	1371.02
1024.129	1351.36
1024.419	1336.45
1024.709	1317.69
1025	1311.36
1025.29	1308.88
1025.58	1292.38
1025.87	1296.67
1026.16	1294.64
1026.449	1276.11
1026.739	1258.03
1027.029	1269.78
1027.319	1226.17
1027.608	1246.05
1027.898	1230.01
1028.187	1222.33
1028.477	1209.22
1028.766	1210.12
1029.055	1185.94
1029.344	1196.56
1029.634	1188.88
1029.923	1170.58
1030.212	1146.17
1030.501	1166.06
1030.79	1131.26
1031.078	1138.94
1031.367	1133.74
1031.656	1134.42
1031.945	1142.1
1032.233	1138.71
1032.522	1103.01
1032.81	1088.32
1033.099	1111.14
1033.387	1084.7
1033.675	1073.18
1033.963	1070.47
1034.251	1074.76
1034.54	1065.95
1034.828	1046.96
1035.116	1059.39
1035.403	1033.86
1035.691	1052.61
1035.979	1019.62
1036.267	1030.92
1036.554	1012.16
1036.842	1023.46
1037.129	985.72
1037.417	1003.8
1037.704	1013.97
1037.992	981.2
1038.279	995.67
1038.566	960.86
1038.853	960.86
1039.14	960.86
