Data from hue_22_FLMS001491_00053.txt Node
Date: Tue Feb 07 17:10:19 GMT 2017
User: dcchb
Spectrometer: FLMS00149
Trigger mode: 0
Integration Time (sec): 2.000000E-2
Scans to average: 10
Electric dark correction enabled: true
Nonlinearity correction enabled: false
Boxcar width: 0
XAxis mode: Wavelengths
Number of Pixels in Spectrum: 2048
>>>>>Begin Spectral Data<<<<<
341.393	-6.02
341.776	-6.02
342.16	-6.02
342.543	-55.28
342.927	-48.28
343.31	-71.55
343.693	-63.87
344.077	-69.07
344.46	-57.31
344.843	-51.21
345.226	-51.21
345.61	-28.62
345.993	-40.14
346.376	-3.53
346.759	26.98
347.142	28.78
347.525	27.2
347.908	68.11
348.291	75.34
348.674	85.73
349.057	124.38
349.44	122.57
349.823	140.65
350.206	157.59
350.588	183.58
350.971	216.58
351.354	239.63
351.737	237.82
352.119	255.45
352.502	261.77
352.884	270.13
353.267	299.29
353.65	287.76
354.032	294.54
354.414	306.74
354.797	329.79
355.179	319.17
355.562	323.47
355.944	321.88
356.326	339.51
356.709	325.95
357.091	335.67
357.473	358.27
357.855	336.12
358.238	331.15
358.62	347.42
359.002	339.51
359.384	339.06
359.766	342.45
360.148	322.79
360.53	349.45
360.912	337.7
361.294	330.7
361.676	334.54
362.057	340.19
362.439	311.04
362.821	330.25
363.203	334.09
363.584	322.11
363.966	334.99
364.348	327.08
364.729	314.65
365.111	318.95
365.493	324.82
365.874	324.37
366.256	310.36
366.637	321.43
367.019	349.45
367.4	327.99
367.781	318.95
368.163	325.95
368.544	339.06
368.925	315.56
369.306	319.4
369.688	331.15
370.069	327.31
370.45	324.82
370.831	310.36
371.212	332.51
371.593	309
371.974	314.43
372.355	333.41
372.736	325.27
373.117	314.88
373.498	339.28
373.879	311.94
374.26	320.75
374.641	314.65
375.021	324.37
375.402	335.67
375.783	334.54
376.163	341.54
376.544	321.88
376.925	343.35
377.305	354.2
377.686	345.16
378.066	345.16
378.447	340.41
378.827	356.23
379.208	343.13
379.588	342.45
379.968	334.09
380.349	334.09
380.729	337.7
381.109	315.1
381.489	335.44
381.87	340.41
382.25	335.22
382.63	344.48
383.01	352.39
383.39	342
383.77	357.59
384.15	366.18
384.53	355.78
384.91	358.27
385.29	351.94
385.67	332.28
386.049	349.68
386.429	352.62
386.809	353.75
387.189	378.15
387.568	374.09
387.948	369.57
388.328	355.78
388.707	347.65
389.087	362.79
389.466	369.79
389.846	356.23
390.225	368.44
390.605	374.09
390.984	374.76
391.363	369.11
391.743	358.95
392.122	382.9
392.501	372.28
392.881	371.83
393.26	378.15
393.639	392.16
394.018	371.15
394.397	386.97
394.776	382.67
395.155	391.26
395.534	385.16
395.913	366.4
396.292	367.98
396.671	379.51
397.05	400.75
397.429	401.88
397.808	383.8
398.186	396.01
398.565	427.42
398.944	383.13
399.323	381.54
399.701	377.7
400.08	427.87
400.458	405.95
400.837	416.8
401.215	393.97
401.594	399.4
401.972	411.83
402.351	436.01
402.729	419.28
403.107	422.67
403.486	412.5
403.864	416.34
404.242	410.47
404.62	415.67
404.999	417.47
405.377	421.77
405.755	409.57
406.133	425.16
406.511	446.4
406.889	428.32
407.267	445.04
407.645	431.71
408.023	452.05
408.401	445.72
408.779	459.28
409.156	443.69
409.534	444.37
409.912	453.18
410.29	453.86
410.667	460.64
411.045	465.61
411.422	470.13
411.8	449.79
412.178	445.5
412.555	472.84
412.933	478.26
413.31	477.59
413.687	473.74
414.065	480.3
414.442	494.54
414.819	485.27
415.197	504.25
415.574	514.42
415.951	507.42
416.328	492.05
416.705	484.82
417.082	495.44
417.46	518.72
417.837	502.22
418.214	501.99
418.591	526.85
418.967	508.09
419.344	512.39
419.721	521.65
420.098	529.79
420.475	520.07
420.852	534.31
421.228	523.91
421.605	532.5
421.982	532.5
422.358	529.56
422.735	560.3
423.111	534.99
423.488	558.26
423.864	567.75
424.241	559.17
424.617	561.88
424.994	573.85
425.37	572.5
425.746	578.6
426.123	573.85
426.499	580.18
426.875	585.83
427.251	597.13
427.627	600.29
428.003	605.49
428.379	586.28
428.756	610.69
429.132	622.89
429.507	625.15
429.883	628.54
430.259	639.16
430.635	624.02
431.011	639.84
431.387	627.64
431.763	659.73
432.138	642.55
432.514	633.97
432.89	678.94
433.265	679.61
433.641	662.89
434.016	683
434.392	662.21
434.767	690.69
435.143	664.93
435.518	673.29
435.894	704.92
436.269	710.8
436.644	714.19
437.02	707.41
437.395	708.54
437.77	723.68
438.145	701.76
438.52	742.66
438.895	755.55
439.271	724.59
439.646	746.51
440.021	766.62
440.395	768.43
440.77	765.71
441.145	756.9
441.52	788.76
441.895	769.78
442.27	796.45
442.645	787.63
443.019	800.29
443.394	803.23
443.769	790.8
444.143	801.19
444.518	807.07
444.892	782.21
445.267	822.44
445.641	808.2
446.016	833.06
446.39	823.79
446.764	840.06
447.139	817.01
447.513	837.8
447.887	836.45
448.262	859.5
448.636	832.15
449.01	862.21
449.384	841.87
449.758	885.94
450.132	892.26
450.506	890.23
450.88	866.73
451.254	895.2
451.628	887.75
452.002	879.16
452.376	874.19
452.75	910.12
453.123	920.29
453.497	915.77
453.871	924.13
454.244	933.62
454.618	936.11
454.992	964.81
455.365	957.12
455.739	986.27
456.112	1015.65
456.486	1003
456.859	991.47
457.232	1001.64
457.606	1032.37
457.979	1029.21
458.352	1045.26
458.725	1064.01
459.099	1072.82
459.472	1064.69
459.845	1074.63
460.218	1109.89
460.591	1119.38
460.964	1122.99
461.337	1154.4
461.71	1116.44
462.083	1160.28
462.456	1170.9
462.829	1169.32
463.201	1189.66
463.574	1194.18
463.947	1185.14
464.32	1226.95
464.692	1239.6
465.065	1261.75
465.438	1270.11
465.81	1242.99
466.183	1296.55
466.555	1358.47
466.928	1286.38
467.3	1327.28
467.672	1350.56
468.045	1365.7
468.417	1388.97
468.789	1387.62
469.161	1394.4
469.534	1419.03
469.906	1436.21
470.278	1471.46
470.65	1472.81
471.022	1494.28
471.394	1553.04
471.766	1555.98
472.138	1565.24
472.51	1605.69
472.882	1612.92
473.253	1645.01
473.625	1627.84
473.997	1702.41
474.369	1695.41
474.74	1715.07
475.112	1763.65
475.484	1794.39
475.855	1816.31
476.227	1870.54
476.598	1901.28
476.97	1872.58
477.341	1945.57
477.713	1970.88
478.084	1987.6
478.455	2027.38
478.827	2087.26
479.198	2134.94
479.569	2156.19
479.94	2212
480.311	2235.96
480.682	2270.08
481.053	2330.87
481.424	2407.93
481.795	2411.32
482.166	2442.96
482.537	2493.8
482.908	2558.21
483.279	2595.5
483.65	2624.65
484.021	2706
484.391	2722.95
484.762	2741.93
485.133	2764.98
485.503	2809.5
485.874	2898.99
486.244	2908.71
486.615	2975.83
486.985	3024.41
487.356	3093.79
487.726	3117.29
488.097	3193.67
488.467	3220.57
488.837	3294.91
489.207	3306.21
489.578	3374.23
489.948	3458.3
490.318	3473.89
490.688	3466.66
491.058	3557.96
491.428	3626.43
491.798	3634.11
492.168	3742.36
492.538	3725.18
492.908	3825.75
493.278	3837.95
493.648	3883.15
494.017	3947.78
494.387	3934.44
494.757	4000.88
495.126	4041.79
495.496	4072.07
495.866	4126.08
496.235	4188.68
496.605	4198.17
496.974	4241.33
497.344	4306.41
497.713	4305.06
498.082	4338.28
498.452	4384.15
498.821	4387.99
499.19	4422.34
499.559	4435.45
499.928	4473.41
500.298	4512.96
500.667	4563.35
501.036	4570.36
501.405	4643.35
501.774	4612.62
502.143	4696.91
502.512	4730.58
502.88	4749.11
503.249	4783.69
503.618	4779.39
503.987	4815.78
504.356	4836.12
504.724	4898.04
505.093	4920.63
505.462	4916.34
505.83	4977.81
506.199	4985.49
506.567	5021.87
506.936	5013.96
507.304	5102.32
507.672	5118.37
508.041	5129.44
508.409	5198.82
508.777	5158.82
509.145	5235.88
509.514	5265.26
509.882	5237.01
510.25	5301.64
510.618	5278.59
510.986	5294.86
511.354	5393.39
511.722	5464.35
512.09	5461.41
512.458	5449.43
512.826	5453.27
513.193	5499.6
513.561	5495.31
513.929	5526.95
514.297	5607.85
514.664	5633.61
515.032	5649.2
515.4	5666.15
515.767	5674.29
516.135	5695.98
516.502	5667.96
516.869	5744.34
517.237	5752.93
517.604	5735.98
517.972	5824.56
518.339	5843.32
518.706	5856.43
519.073	5883.77
519.44	5881.96
519.808	5965.58
520.175	5945.47
520.542	6011.68
520.909	6029.98
521.276	6066.59
521.643	6077.89
522.009	6130.55
522.376	6127.61
522.743	6129.19
523.11	6213.03
523.477	6212.35
523.843	6268.39
524.21	6330.09
524.577	6391.33
524.943	6372.35
525.31	6408.05
525.676	6472
526.043	6522.63
526.409	6479.91
526.776	6582.74
527.142	6607.37
527.508	6603.07
527.874	6694.37
528.241	6703.86
528.607	6728.5
528.973	6780.25
529.339	6766.91
529.705	6861.15
530.071	6900.02
530.437	6879
530.803	6926.23
531.169	7007.13
531.535	6942.5
531.901	7042.16
532.267	7027.24
532.632	7124.42
532.998	7136.62
533.364	7152.21
533.73	7222.27
534.095	7234.92
534.461	7271.76
534.826	7296.16
535.192	7286.9
535.557	7382.26
535.923	7403.73
536.288	7408.03
536.653	7473.11
537.019	7444.86
537.384	7455.93
537.749	7460
538.114	7530.73
538.479	7554.69
538.845	7602.6
539.21	7651.86
539.575	7663.39
539.94	7725.76
540.305	7777.73
540.67	7760.56
541.034	7777.51
541.399	7816.15
541.764	7841.01
542.129	7843.72
542.494	7901.57
542.858	7965.75
543.223	7947.45
543.587	8067.44
543.952	8049.14
544.316	8046.43
544.681	8108.8
545.045	8137.27
545.41	8164.39
545.774	8212.75
546.138	8178.85
546.503	8209.81
546.867	8293.88
547.231	8330.71
547.595	8339.53
547.959	8357.61
548.324	8350.37
548.688	8398.96
549.052	8417.72
549.416	8562.12
549.779	8427.43
550.143	8560.09
550.507	8544.49
550.871	8625.39
551.235	8563.7
551.599	8647.09
551.962	8686.18
552.326	8695
552.689	8756.24
553.053	8717.14
553.417	8745.17
553.78	8815.67
554.143	8875.78
554.507	8865.16
554.87	8861.55
555.234	8946.29
555.597	8980.64
555.96	8969.79
556.323	8990.36
556.686	8991.26
557.05	9092.73
557.413	9146.74
557.776	9136.12
558.139	9174.98
558.502	9212.05
558.865	9184.93
559.228	9241.42
559.59	9300.63
559.953	9313.51
560.316	9460.4
560.679	9438.71
561.041	9419.27
561.404	9428.54
561.767	9574.75
562.129	9535.2
562.492	9699.49
562.854	9632.6
563.217	9668.53
563.579	9604.58
563.941	9690
564.304	9750.56
564.666	9736.55
565.028	9868.75
565.39	9884.12
565.753	9877.11
566.115	9918.92
566.477	10014.96
566.839	9999.37
567.201	10030.56
567.563	10037.79
567.925	10087.28
568.287	10165.92
568.648	10184.9
569.01	10125.02
569.372	10239.14
569.734	10273.71
570.095	10321.4
570.457	10393.71
570.819	10366.37
571.18	10498.79
571.542	10459.47
571.903	10595.51
572.265	10626.92
572.626	10626.7
572.987	10723.64
573.349	10768.84
573.71	10766.36
574.071	10812
574.432	10940.59
574.794	11032.34
575.155	11001.38
575.516	11122.28
575.877	11106.46
576.238	11118.21
576.599	11319.34
576.96	11351.88
577.32	11475.94
577.681	11542.15
578.042	11574.24
578.403	11682.04
578.763	11742.15
579.124	11835.03
579.485	12001.8
579.845	12134
580.206	12187.11
580.566	12241.57
580.927	12400.44
581.287	12543.48
581.648	12590.49
582.008	12880.88
582.368	13002.68
582.728	13105.5
583.089	13214.2
583.449	13394.99
583.809	13592.04
584.169	13755.88
584.529	13899.38
584.889	14147.51
585.249	14234.06
585.609	14397.45
585.969	14725.57
586.329	14914.04
586.688	15173.7
587.048	15414.82
587.408	15539.79
587.768	15829.27
588.127	16060.68
588.487	16195.59
588.846	16623.15
589.206	16723.94
589.565	16961.9
589.925	17316.24
590.284	17565.72
590.643	17842.55
591.003	18210
591.362	18487.28
591.721	18754.62
592.08	18962.98
592.44	19252.91
592.799	19643.41
593.158	19816.51
593.517	20118.88
593.876	20550.96
594.235	20790.72
594.593	21003.6
594.952	21412.86
595.311	21625.96
595.67	21950.92
596.029	22489.89
596.387	22752.93
596.746	23192.92
597.104	23332.58
597.463	23621.84
597.822	24027.7
598.18	24327.35
598.538	24550.63
598.897	25016.6
599.255	25001.46
599.613	25696.58
599.972	25777.49
600.33	26230.81
600.688	26487.75
601.046	26849.32
601.404	27165.92
601.762	27508.51
602.12	27887.04
602.478	28208.38
602.836	28465.32
603.194	28663.29
603.552	28900.57
603.91	29144.63
604.268	29639.31
604.625	29660.32
604.983	30091.27
605.341	30124.72
605.698	30597.25
606.056	31062.32
606.413	31218.25
606.771	31535.98
607.128	31862.98
607.485	31859.81
607.843	32297.31
608.2	32686.23
608.557	32889.84
608.914	33021.82
609.272	33420.67
609.629	33639.2
609.986	34077.83
610.343	34113.76
610.7	34528.89
611.057	34520.53
611.414	34773.18
611.771	34944.25
612.127	35367.52
612.484	35416.1
612.841	35837.56
613.198	35696.32
613.554	35952.13
613.911	36409.3
614.267	36501.95
614.624	36606.58
614.98	36883.86
615.337	37206.11
615.693	37324.98
616.05	37443.85
616.406	37770.84
616.762	37787.57
617.118	37881.57
617.475	38135.13
617.831	38379.87
618.187	38702.57
618.543	38683.14
618.899	39005.84
619.255	39076.57
619.611	39102.33
619.967	39550.68
620.323	39505.71
620.678	39585.71
621.034	39638.59
621.39	39556.11
621.746	39786.61
622.101	40220.27
622.457	40077.68
622.812	40335.75
623.168	40401.28
623.523	40501.84
623.879	40753.36
624.234	40453.94
624.589	40830.42
624.945	40796.98
625.3	41181.83
625.655	41041.04
626.01	41137.76
626.365	41196.52
626.72	41222.05
627.075	41204.2
627.43	41384.08
627.785	41319.45
628.14	41566.68
628.495	41589.73
628.85	41581.59
629.205	41738.42
629.559	41789.49
629.914	41744.98
630.269	41892.77
630.623	41863.84
630.978	41853.67
631.332	42033.56
631.687	42158.52
632.041	42054.8
632.396	42176.6
632.75	41956.27
633.104	42083.27
633.459	41986.33
633.813	42084.4
634.167	42096.38
634.521	42205.3
634.875	42281.46
635.229	42162.14
635.583	42124.4
635.937	42177.51
636.291	42087.57
636.645	42182.93
636.999	42156.72
637.352	42396.26
637.706	41924.18
638.06	42267.22
638.413	42189.48
638.767	42033.1
639.121	42164.63
639.474	41910.4
639.828	42087.57
640.181	42099.99
640.534	42161.01
640.888	42039.66
641.241	41856.16
641.594	42054.35
641.947	42019.32
642.301	42049.37
642.654	42055.02
643.007	42122.14
643.36	42004.86
643.713	41982.71
644.066	42166.66
644.419	41866.33
644.771	41697.97
645.124	41283.52
645.477	41141.38
645.83	41002.62
646.182	40875.17
646.535	40867.26
646.888	40897.99
647.24	40685.79
647.593	40986.35
647.945	40823.42
648.298	40779.35
648.65	40641.73
649.002	40624.78
649.355	40747.04
649.707	40686.47
650.059	41030.19
650.411	41336.17
650.763	41437.87
651.115	41847.8
651.467	41681.7
651.819	41712.66
652.171	41446.45
652.523	41548.37
652.875	41603.96
653.227	41516.28
653.578	41759.21
653.93	41594.25
654.282	41407.13
654.633	41323.52
654.985	41500.91
655.337	41403.06
655.688	41506.79
656.039	41683.96
656.391	41342.05
656.742	41314.03
657.094	41359.22
657.445	41589.5
657.796	41564.19
658.147	41336.62
658.498	41310.41
658.849	41429.05
659.2	41316.74
659.551	41309.73
659.902	41390.63
660.253	41250.53
660.604	41309.06
660.955	41158.55
661.306	41389.96
661.656	41257.53
662.007	41361.03
662.358	41284.42
662.708	41330.3
663.059	41298.89
663.409	41041.49
663.76	41337.75
664.11	41233.8
664.461	41267.47
664.811	41362.84
665.161	41301.37
665.511	41043.3
665.862	41168.27
666.212	41212.79
666.562	41323.29
666.912	41067.03
667.262	41087.14
667.612	41101.38
667.962	41159.91
668.312	41055.5
668.662	41258.43
669.011	41079
669.361	41072.45
669.711	41060.7
670.06	41062.73
670.41	40989.29
670.76	40993.13
671.109	41152.22
671.459	40980.02
671.808	41072.9
672.157	41085.56
672.507	40829.52
672.856	40962.4
673.205	41098.21
673.554	41093.92
673.904	40751.56
674.253	41135.05
674.602	40941.83
674.951	40373.26
675.3	40287.84
675.649	40902.74
675.998	40862.74
676.346	40908.61
676.695	40775.06
677.044	40542.52
677.393	40702.07
677.741	40705
678.09	40665.68
678.438	40620.26
678.787	40606.02
679.135	40619.36
679.484	40482.86
679.832	40523.54
680.181	40392.24
680.529	40391.11
680.877	40286.48
681.225	40407.61
681.573	40520.83
681.922	40236.09
682.27	40146.15
682.618	40241.74
682.966	40211.68
683.314	40166.94
683.661	40143.66
684.009	39801.3
684.357	39881.3
684.705	39798.13
685.053	39831.81
685.4	39785.25
685.748	39587.07
686.095	39509.1
686.443	39448.54
686.79	39263.01
687.138	39533.51
687.485	39367.41
687.832	39308.66
688.18	39342.33
688.527	39075.89
688.874	39099.17
689.221	39028.21
689.568	38972.39
689.915	38756.35
690.262	38822.79
690.609	38786.86
690.956	38605.62
691.303	38680.65
691.65	38372.86
691.997	38421.22
692.344	38249.7
692.69	38232.07
693.037	38199.98
693.383	37900.56
693.73	38121.12
694.077	37873.89
694.423	37835.93
694.769	37671.86
695.116	37610.17
695.462	37552.54
695.808	37434.13
696.155	37545.31
696.501	37158.66
696.847	37281.82
697.193	36911.2
697.539	37104.42
697.885	36934.03
698.231	36770.42
698.577	36738.33
698.923	36778.1
699.269	36616.07
699.614	36356.64
699.96	36308.51
700.306	36414.72
700.651	36214.05
700.997	36124.56
701.342	36082.07
701.688	36007.5
702.033	35826.49
702.379	35805.24
702.724	35677.56
703.069	35823.32
703.415	35440.96
703.76	35406.39
704.105	35377.46
704.45	35256.56
704.795	35193.74
705.14	35027.86
705.485	35017.7
705.83	34935.44
706.175	34894.99
706.52	34814.99
706.865	34665.16
707.209	34679.62
707.554	34436.24
707.899	34600.53
708.243	34342.46
708.588	34336.36
708.932	34226.98
709.277	34225.63
709.621	34139.98
709.966	33935.24
710.31	34167.77
710.654	33766.43
710.998	33937.72
711.342	33696.37
711.687	33726.43
712.031	33668.8
712.375	33408.25
712.719	33630.61
713.063	33406.44
713.407	33693.89
713.75	33276.95
714.094	33283.96
714.438	33155.82
714.782	33266.33
715.125	33058.65
715.469	33208.7
715.812	32914.93
716.156	32937.07
716.499	32947.24
716.843	32827.02
717.186	32697.76
717.53	32846.9
717.873	32763.07
718.216	32761.48
718.559	32490.76
718.902	32407.82
719.246	32471.77
719.589	32378.44
719.932	32152.69
720.275	32236.98
720.617	32103.87
720.96	32037.21
721.303	31972.35
721.646	31987.04
721.989	31752.24
722.331	31924.9
722.674	31873.82
723.016	31911.56
723.359	31815.97
723.701	31791.34
724.044	31565.13
724.386	31491.91
724.729	31650.55
725.071	31457.79
725.413	31479.71
725.755	31430.22
726.097	31319.04
726.439	31167.63
726.782	31146.84
727.124	31198.59
727.465	31134.86
727.807	31072.94
728.149	31018.7
728.491	30943.23
728.833	31078.36
729.175	30948.65
729.516	30800.86
729.858	30807.41
730.199	30905.26
730.541	30638.6
730.882	30578.26
731.224	30757.92
731.565	30528.32
731.906	30559.28
732.248	30547.76
732.589	30279.74
732.93	30293.98
733.271	30310.02
733.612	30465.72
733.953	30452.39
734.294	30325.16
734.635	30225.5
734.976	30263.92
735.317	30042.91
735.658	30037.71
735.999	30058.05
736.339	30124.04
736.68	30073.87
737.021	30043.14
737.361	29753.2
737.702	30133.53
738.042	29835.68
738.383	29729.92
738.723	29908.9
739.063	29655.8
739.404	29673.43
739.744	29717.27
740.084	29555.92
740.424	29645.41
740.764	29525.18
741.104	29628.46
741.444	29403.83
741.784	29500.55
742.124	29457.62
742.464	29409.93
742.804	29242.48
743.143	29240.67
743.483	29195.02
743.823	29178.3
744.162	29106.66
744.502	29160.9
744.841	29024.18
745.181	29242.71
745.52	29048.36
745.86	29018.76
746.199	29009.49
746.538	28909.16
746.877	29007.68
747.216	29018.98
747.556	28879.78
747.895	28871.64
748.234	28751.42
748.573	28695.15
748.911	28647.69
749.25	28658.99
749.589	28548.94
749.928	28706.45
750.267	28518.2
750.605	28452.67
750.944	28363.86
751.283	28270.98
751.621	28466
751.96	28231.88
752.298	28227.59
752.636	28206.8
752.975	28171.1
753.313	28122.28
753.651	28042.74
753.989	27877.32
754.327	27964.32
754.666	27571.34
755.004	27767.49
755.342	27782.41
755.679	27680.71
756.017	27716.64
756.355	27675.97
756.693	27563.43
757.031	27606.36
757.368	27320.04
757.706	27381.29
758.044	27241.85
758.381	27378.35
758.719	27220.16
759.056	27199.14
759.394	27160.05
759.731	26958.92
760.068	26981.3
760.405	26825.37
760.743	26810.23
761.08	26917.34
761.417	26641.64
761.754	26712.38
762.091	26571.14
762.428	26521.42
762.765	26258.6
763.102	26391.71
763.438	26372.5
763.775	26238.26
764.112	26192.62
764.449	26179.74
764.785	26054.77
765.122	25799.18
765.458	25854.55
765.795	25860.2
766.131	25780.88
766.467	25657.49
766.804	25581.78
767.14	25406.87
767.476	25514.89
767.812	25291.4
768.148	25391.96
768.485	25186.99
768.821	25025.19
769.157	24909.03
769.492	24976.15
769.828	24905.64
770.164	24720.79
770.5	24620.45
770.836	24770.28
771.171	24441.48
771.507	24426.34
771.842	24222.05
772.178	24351.53
772.513	24114.03
772.849	24150.18
773.184	23950.87
773.519	24001.04
773.855	23870.64
774.19	23732.79
774.525	23742.96
774.86	23739.8
775.195	23627.71
775.53	23371.67
775.865	23303.2
776.2	23218.01
776.535	23193.83
776.87	23082.64
777.205	22919.93
777.539	22902.76
777.874	22910.22
778.209	22690.34
778.543	22685.59
778.878	22592.71
779.212	22531.47
779.547	22328.99
779.881	22430.68
780.215	22264.81
780.55	22367.63
780.884	22269.78
781.218	22050.35
781.552	22104.59
781.886	22035.66
782.22	21813.07
782.554	21743.92
782.888	21589.8
783.222	21516.81
783.556	21510.71
783.889	21447.88
784.223	21345.06
784.557	21269.81
784.89	21345.06
785.224	21071.85
785.557	21011.96
785.891	20947.56
786.224	20946.2
786.558	20940.33
786.891	20686.55
787.224	20645.64
787.557	20640.45
787.891	20603.61
788.224	20485.87
788.557	20536.72
788.89	20398.19
789.223	20301.02
789.556	20242.72
789.888	20218.76
790.221	20061.25
790.554	19957.3
790.887	20024.87
791.219	19880.69
791.552	19825.55
791.884	19633.01
792.217	19688.83
792.549	19621.49
792.882	19536.07
793.214	19389.18
793.546	19575.16
793.879	19343.98
794.211	19205.68
794.543	19232.57
794.875	19146.02
795.207	19167.26
795.539	19101.73
795.871	19000.49
796.203	18887.05
796.535	18844.34
796.867	18828.74
797.198	18734.51
797.53	18729.31
797.862	18679.59
798.193	18554.17
798.525	18450
798.856	18482.99
799.188	18221.98
799.519	18244.35
799.85	18110.57
800.182	18109.67
800.513	18144.69
800.844	17960.06
801.175	18073.28
801.506	18005.04
801.837	17986.96
802.168	17852.27
802.499	17831.93
802.83	17759.84
803.161	17769.56
803.491	17616.34
803.822	17638.72
804.153	17505.16
804.483	17375.22
804.814	17403.24
805.145	17351.04
805.475	17360.08
805.805	17255.68
806.136	17263.81
806.466	17254.32
806.796	17192.4
807.126	17057.72
807.457	17028.11
807.787	16965.29
808.117	16963.25
808.447	16897.04
808.777	16881
809.107	16769.14
809.436	16767.1
809.766	16775.24
810.096	16698.63
810.426	16594
810.755	16660.44
811.085	16537.5
811.414	16400.11
811.744	16445.08
812.073	16436.71
812.403	16261.8
812.732	16278.3
813.061	16236.27
813.39	16194.01
813.719	16137.06
814.049	16161.92
814.378	16101.81
814.707	15970.06
815.036	16096.61
815.365	15967.57
815.693	15878.54
816.022	15887.8
816.351	15749.05
816.68	15736.85
817.008	15670.63
817.337	15633.57
817.665	15582.5
817.994	15664.76
818.322	15613.46
818.651	15534.59
818.979	15464.31
819.307	15466.8
819.636	15463.18
819.964	15377.31
820.292	15450.75
820.62	15389.06
820.948	15359.45
821.276	15342.73
821.604	15373.24
821.932	15384.76
822.259	15384.31
822.587	15356.07
822.915	15178.67
823.243	15350.64
823.57	15278.55
823.898	15293.47
824.225	15267.25
824.553	15222.51
824.88	15237.88
825.207	15302.73
825.535	15178.67
825.862	15313.13
826.189	15222.06
826.516	15311.09
826.843	15283.75
827.17	15371.66
827.497	15269.97
827.824	15178.89
828.151	15281.72
828.478	15209.18
828.805	15303.64
829.131	15251.21
829.458	15205.56
829.785	15101.61
830.111	15131.89
830.438	15274.49
830.764	15120.82
831.09	15144.09
831.417	15123.53
831.743	15197.88
832.069	15096.64
832.395	15137.09
832.722	15187.48
833.048	15096.86
833.374	15083.3
833.7	15033.81
834.026	15063.64
834.351	15060.48
834.677	15108.84
835.003	15034.72
835.329	15060.93
835.654	14915.17
835.98	14980.93
836.306	15011.89
836.631	14847.15
836.956	15007.6
837.282	14912.24
837.607	14885.8
837.932	14833.37
838.258	14858.45
838.583	14773.93
838.908	14705.46
839.233	14766.25
839.558	14608.97
839.883	14598.57
840.208	14613.71
840.533	14572.81
840.858	14599.02
841.182	14623.2
841.507	14636.76
841.832	14495.52
842.156	14517.22
842.481	14385.24
842.805	14514.28
843.13	14421.4
843.454	14380.5
843.778	14417.56
844.103	14221.63
844.427	14232.25
844.751	14291.91
845.075	14154.51
845.399	14149.77
845.723	14048.75
846.047	14029.55
846.371	13966.72
846.695	13982.54
847.019	13853.05
847.343	13866.61
847.666	13741.19
847.99	13708.2
848.313	13704.58
848.637	13640.63
848.96	13542.33
849.284	13543.01
849.607	13366.74
849.931	13344.59
850.254	13350.24
850.577	13217.59
850.9	13143.69
851.223	13162.22
851.546	13064.15
851.869	13054.66
852.192	13052.62
852.515	12927.43
852.838	12891.95
853.161	12881.33
853.483	12808.79
853.806	12790.03
854.129	12738.96
854.451	12720.88
854.774	12645.63
855.096	12566.76
855.419	12561.34
855.741	12579.87
856.063	12419.65
856.385	12445.18
856.708	12365.41
857.03	12315.92
857.352	12335.81
857.674	12340.55
857.996	12274.79
858.318	12149.37
858.64	12149.6
858.961	12094.68
859.283	12102.14
859.605	12006.77
859.926	12082.03
860.248	11989.37
860.57	11994.12
860.891	11976.04
861.212	11864.63
861.534	11873.44
861.855	11811.53
862.176	11826.67
862.498	11755.71
862.819	11790.74
863.14	11684.98
863.461	11790.06
863.782	11691.3
864.103	11712.55
864.424	11796.38
864.745	11677.52
865.065	11590.74
865.386	11522.27
865.707	11613.56
866.027	11562.94
866.348	11545.77
866.668	11492.21
866.989	11527.01
867.309	11458.54
867.63	11417.64
867.95	11383.06
868.27	11390.07
868.59	11439.78
868.91	11338.09
869.23	11360.69
869.55	11249.28
869.87	11380.12
870.19	11376.28
870.51	11420.8
870.83	11331.31
871.15	11218.77
871.469	11307.81
871.789	11307.58
872.109	11195.04
872.428	11134.93
872.748	11162.05
873.067	11190.98
873.386	11127.48
873.706	11093.35
874.025	11041.83
874.344	11020.36
874.663	11108.95
874.982	10979.01
875.301	11064.88
875.62	10996.41
875.939	10934.71
876.258	10972
876.577	10908.5
876.896	10907.37
877.214	10804.09
877.533	10877.76
877.852	10908.27
878.17	10835.28
878.489	10859.01
878.807	10840.25
879.125	10829.86
879.444	10798.22
879.762	10739.69
880.08	10771.33
880.398	10749.86
880.716	10741.05
881.034	10725.23
881.352	10749.63
881.67	10624.21
881.988	10656.98
882.306	10605.68
882.624	10581.5
882.941	10562.52
883.259	10491.79
883.577	10474.61
883.894	10452.47
884.212	10443.43
884.529	10404.78
884.846	10409.75
885.164	10416.99
885.481	10367.95
885.798	10364.33
886.115	10136.77
886.432	10283.88
886.75	10293.37
887.067	10295.63
887.383	10126.37
887.7	10214.05
888.017	10158.01
888.334	10154.17
888.651	10114.4
888.967	10078.92
889.284	9984.68
889.6	10071.46
889.917	9977.22
890.233	9992.59
890.55	9901.52
890.866	9887.51
891.182	9850.22
891.498	9884.8
891.815	9776.78
892.131	9832.37
892.447	9743.33
892.763	9732.03
893.079	9682.99
893.395	9668.98
893.71	9668.98
894.026	9643.9
894.342	9588.76
894.657	9560.29
894.973	9541.3
895.289	9430.57
895.604	9530.91
895.92	9428.54
896.235	9375.66
896.55	9365.71
896.865	9412.27
897.181	9318.48
897.496	9344.02
897.811	9266.06
898.126	9250.01
898.441	9156.45
898.756	9169.11
899.071	9086.63
899.386	9151.03
899.7	9065.61
900.015	9045.95
900.33	8894.09
900.644	8937.02
900.959	8899.06
901.273	8932.05
901.588	8821.77
901.902	8805.28
902.216	8827.88
902.531	8774.54
902.845	8789.23
903.159	8697.03
903.473	8620.2
903.787	8640.76
904.101	8606.64
904.415	8534.1
904.729	8575.45
905.042	8498.62
905.356	8497.49
905.67	8451.16
905.984	8433.54
906.297	8443.25
906.611	8331.62
906.924	8389.47
907.237	8284.84
907.551	8284.39
907.864	8227.21
908.177	8201.9
908.491	8216.37
908.804	8170.49
909.117	8042.59
909.43	8028.12
909.743	7964.4
910.056	8010.95
910.368	7941.8
910.681	7942.7
910.994	7937.5
911.307	7873.1
911.619	7834.68
911.932	7827.22
912.244	7749.49
912.557	7787.45
912.869	7713.78
913.181	7709.26
913.494	7633.1
913.806	7624.07
914.118	7590.17
914.43	7552.65
914.742	7484.18
915.054	7507.46
915.366	7503.39
915.678	7478.98
915.99	7403.96
916.302	7357.86
916.613	7401.47
916.925	7327.8
917.236	7260.01
917.548	7254.13
917.859	7227.24
918.171	7235.15
918.482	7139.33
918.794	7186.79
919.105	7177.52
919.416	7027.92
919.727	7083.29
920.038	7051.65
920.349	6969.62
920.66	6968.26
920.971	6959.68
921.282	6910.19
921.593	6845.78
921.903	6864.09
922.214	6801.26
922.525	6801.49
922.835	6763.3
923.146	6681.49
923.456	6723.3
923.767	6708.83
924.077	6618.89
924.387	6625.45
924.697	6523.53
925.008	6534.6
925.318	6563.08
925.628	6492.34
925.938	6472
926.248	6428.62
926.558	6408.5
926.867	6407.83
927.177	6369.18
927.487	6270.43
927.796	6252.35
928.106	6235.63
928.416	6276.08
928.725	6266.81
929.034	6206.93
929.344	6221.39
929.653	6160.83
929.962	6155.4
930.271	6100.72
930.581	6020.04
930.89	6055.29
931.199	6023.66
931.508	6013.49
931.817	6023.66
932.125	5962.41
932.434	5894.17
932.743	5854.62
933.051	5852.81
933.36	5837.9
933.669	5832.25
933.977	5803.1
934.286	5826.15
934.594	5726.04
934.902	5683.78
935.21	5639.03
935.519	5686.26
935.827	5624.12
936.135	5604.46
936.443	5565.81
936.751	5561.97
937.059	5569.2
937.367	5489.43
937.674	5456.89
937.982	5488.08
938.29	5459.15
938.597	5428.64
938.905	5382.77
939.213	5340.06
939.52	5332.83
939.827	5388.64
940.135	5385.48
940.442	5284.24
940.749	5261.87
941.056	5287.63
941.363	5241.98
941.67	5195.88
941.977	5156.11
942.284	5129.44
942.591	5097.8
942.898	5107.52
943.205	5068.65
943.511	5013.96
943.818	5062.55
944.125	5013.74
944.431	4997.24
944.738	4972.84
945.044	5002.89
945.35	4925.83
945.657	4898.04
945.963	4909.56
946.269	4853.29
946.575	4872.72
946.881	4843.12
947.187	4810.13
947.493	4815.1
947.799	4782.56
948.105	4736.46
948.41	4731.26
948.716	4762.9
949.022	4660.3
949.327	4674.76
949.633	4650.58
949.938	4628.44
950.244	4646.97
950.549	4616.23
950.854	4557.93
951.16	4527.42
951.465	4573.3
951.77	4512.51
952.075	4467.31
952.38	4474.32
952.685	4439.52
952.99	4365.39
953.294	4438.84
953.599	4349.35
953.904	4378.95
954.209	4359.07
954.513	4314.1
954.818	4308.22
955.122	4259.18
955.426	4269.58
955.731	4246.53
956.035	4230.93
956.339	4213.08
956.643	4248.33
956.948	4204.95
957.252	4184.38
957.556	4130.15
957.86	4100.09
958.163	4097.15
958.467	4089.69
958.771	4046.08
959.075	4051.05
959.378	3986.65
959.682	4000.66
959.985	4018.74
960.289	3964.05
960.592	3999.98
960.896	3933.31
961.199	3946.65
961.502	3946.87
961.805	3890.15
962.108	3857.84
962.411	3828.01
962.714	3840.21
963.017	3806.54
963.32	3824.16
963.623	3778.74
963.926	3795.01
964.228	3757.5
964.531	3765.41
964.833	3754.56
965.136	3730.83
965.438	3722.25
965.741	3683.6
966.043	3691.74
966.345	3662.14
966.648	3635.47
966.95	3632.53
967.252	3606.54
967.554	3576.94
967.856	3567.22
968.158	3573.55
968.46	3549.6
968.761	3526.55
969.063	3514.57
969.365	3528.81
969.666	3489.94
969.968	3457.85
970.269	3463.95
970.571	3430.73
970.872	3447.45
971.174	3398.19
971.475	3406.32
971.776	3385.76
972.077	3352.99
972.378	3359.54
972.679	3340.34
972.98	3319.77
973.281	3302.82
973.582	3319.77
973.883	3291.75
974.183	3305.99
974.484	3230.51
974.785	3213.56
975.085	3251.75
975.386	3253.33
975.686	3169.04
975.986	3157.97
976.287	3206.33
976.587	3164.52
976.887	3136.95
977.187	3153.45
977.487	3122.71
977.787	3103.51
978.087	3112.32
978.387	3058.76
978.687	3043.17
978.987	3030.29
979.286	3050.63
979.586	2991.87
979.885	2997.75
980.185	3006.79
980.484	2972.66
980.784	2959.1
981.083	2958.43
981.382	2955.04
981.682	2909.84
981.981	2931.76
982.28	2900.12
982.579	2861.25
982.878	2891.76
983.177	2855.6
983.475	2837.3
983.774	2832.55
984.073	2821.03
984.372	2801.82
984.67	2830.29
984.969	2811.08
985.267	2760.46
985.566	2729.28
985.864	2788.26
986.162	2755.04
986.461	2707.81
986.759	2730.86
987.057	2667.36
987.355	2656.51
987.653	2674.36
987.951	2668.94
988.249	2661.71
988.547	2613.8
988.844	2599.11
989.142	2643.41
989.44	2573.8
989.737	2596.85
990.035	2564.99
990.332	2579
990.63	2557.08
990.927	2526.8
991.224	2508.95
991.521	2558.21
991.819	2517.31
992.116	2496.06
992.413	2492.45
992.71	2452.9
993.006	2473.47
993.303	2447.48
993.6	2457.42
993.897	2424.65
994.193	2403.19
994.49	2411.09
994.787	2405.22
995.083	2378.33
995.379	2320.25
995.676	2368.16
995.972	2340.14
996.268	2301.95
996.565	2328.39
996.861	2328.84
997.157	2297.43
997.453	2279.57
997.749	2289.29
998.044	2243.42
998.34	2260.36
998.636	2268.73
998.932	2243.42
999.227	2219.91
999.523	2240.03
999.818	2201.83
1000.114	2193.47
1000.409	2181.27
1000.704	2149.63
1001	2164.32
1001.295	2153.25
1001.59	2141.05
1001.885	2129.29
1002.18	2113.02
1002.475	2094.27
1002.77	2073.93
1003.065	2075.06
1003.359	2060.6
1003.654	2067.38
1003.949	2033.03
1004.243	2058.11
1004.538	2006.59
1004.832	2016.08
1005.127	1980.37
1005.421	1972.01
1005.715	1988.06
1006.009	1979.92
1006.304	1938.56
1006.598	1934.27
1006.892	1947.6
1007.186	1902.18
1007.48	1918
1007.773	1907.83
1008.067	1897.89
1008.361	1866.02
1008.655	1886.59
1008.948	1878.23
1009.242	1830.77
1009.535	1827.38
1009.829	1821.28
1010.122	1839.36
1010.415	1813.82
1010.708	1798.23
1011.001	1781.96
1011.295	1759.36
1011.588	1750.55
1011.881	1761.17
1012.173	1760.94
1012.466	1764.11
1012.759	1746.03
1013.052	1743.77
1013.344	1710.1
1013.637	1691.11
1013.93	1678.68
1014.222	1644.79
1014.514	1676.2
1014.807	1682.75
1015.099	1641.62
1015.391	1640.95
1015.683	1623.09
1015.976	1628.06
1016.268	1606.82
1016.56	1577.44
1016.851	1564.79
1017.143	1600.04
1017.435	1583.32
1017.727	1561.85
1018.018	1543.32
1018.31	1524.11
1018.602	1532.93
1018.893	1525.02
1019.185	1507.16
1019.476	1474.85
1019.767	1455.19
1020.058	1458.8
1020.35	1460.84
1020.641	1453.38
1020.932	1454.06
1021.223	1468.97
1021.514	1429.65
1021.804	1440.05
1022.095	1406.6
1022.386	1404.34
1022.677	1424.45
1022.967	1411.57
1023.258	1372.25
1023.548	1378.58
1023.839	1363.66
1024.129	1403.21
1024.419	1352.59
1024.709	1327.06
1025	1343.78
1025.29	1316.43
1025.58	1283.44
1025.87	1308.75
1026.16	1301.97
1026.449	1278.24
1026.739	1267.85
1027.029	1272.82
1027.319	1264.01
1027.608	1252.48
1027.898	1202.99
1028.187	1233.5
1028.477	1199.6
1028.766	1199.6
1029.055	1209.32
1029.344	1214.97
1029.634	1179.71
1029.923	1182.2
1030.212	1217.23
1030.501	1167.29
1030.79	1151.92
1031.078	1160.73
1031.367	1127.06
1031.656	1148.98
1031.945	1134.29
1032.233	1133.84
1032.522	1107.4
1032.81	1119.83
1033.099	1101.75
1033.387	1107.63
1033.675	1098.59
1033.963	1078.47
1034.251	1073.73
1034.54	1083.22
1034.828	1063.11
1035.116	1046.61
1035.403	1056.1
1035.691	1031.47
1035.979	1022.43
1036.267	1020.17
1036.554	1011.58
1036.842	1025.37
1037.129	1021.07
1037.417	1008.87
1037.704	995.31
1037.992	1003.22
1038.279	992.83
1038.566	977.69
1038.853	977.69
1039.14	977.69
