Data from hue_110_FLMS001491_00019.txt Node
Date: Tue Feb 07 17:00:58 GMT 2017
User: dcchb
Spectrometer: FLMS00149
Trigger mode: 0
Integration Time (sec): 2.000000E-2
Scans to average: 10
Electric dark correction enabled: true
Nonlinearity correction enabled: false
Boxcar width: 0
XAxis mode: Wavelengths
Number of Pixels in Spectrum: 2048
>>>>>Begin Spectral Data<<<<<
341.393	-21.07
341.776	-21.07
342.16	-21.07
342.543	-68.98
342.927	-87.74
343.31	-66.27
343.693	-61.3
344.077	-59.94
344.46	-72.82
344.843	-52.26
345.226	-41.41
345.61	-26.04
345.993	-9.32
346.376	-26.04
346.759	7.63
347.142	22.99
347.525	43.78
347.908	50.79
348.291	65.03
348.674	100.28
349.057	124.91
349.44	121.3
349.823	127.17
350.206	159.26
350.588	183.44
350.971	232.03
351.354	236.1
351.737	245.81
352.119	246.04
352.502	223.21
352.884	271.12
353.267	279.03
353.65	296.21
354.032	287.85
354.414	286.72
354.797	300.73
355.179	296.88
355.562	307.28
355.944	313.16
356.326	334.85
356.709	337.34
357.091	336.43
357.473	346.83
357.855	324.91
358.238	337.56
358.62	351.8
359.002	326.71
359.384	320.61
359.766	330.56
360.148	334.62
360.53	337.34
360.912	334.85
361.294	319.26
361.676	347.73
362.057	338.47
362.439	330.56
362.821	324.68
363.203	313.38
363.584	314.74
363.966	325.36
364.348	324.45
364.729	319.71
365.111	313.16
365.493	301.86
365.874	291.46
366.256	306.38
366.637	313.16
367.019	310.67
367.4	327.39
367.781	296.88
368.163	291.24
368.544	327.62
368.925	313.38
369.306	287.85
369.688	286.26
370.069	303.89
370.45	310.22
370.831	298.47
371.212	298.01
371.593	321.74
371.974	331.46
372.355	307.73
372.736	314.51
373.117	329.2
373.498	318.81
373.879	310.22
374.26	315.42
374.641	319.26
375.021	313.38
375.402	324
375.783	309.99
376.163	307.05
376.544	317.45
376.925	324.45
377.305	317.22
377.686	313.16
378.066	333.04
378.447	319.26
378.827	319.94
379.208	318.81
379.588	316.55
379.968	318.13
380.349	328.75
380.729	329.88
381.109	336.43
381.489	329.65
381.87	343.44
382.25	326.71
382.63	329.43
383.01	337.79
383.39	348.63
383.77	340.5
384.15	341.63
384.53	321.07
384.91	341.63
385.29	330.1
385.67	328.97
386.049	357
386.429	344.57
386.809	353.38
387.189	343.66
387.568	348.86
387.948	358.58
388.328	353.61
388.707	362.65
389.087	345.7
389.466	370.56
389.846	370.78
390.225	378.01
390.605	347.96
390.984	357.9
391.363	358.8
391.743	369.65
392.122	383.66
392.501	369.65
392.881	366.71
393.26	379.59
393.639	366.04
394.018	361.97
394.397	377.56
394.776	387.96
395.155	380.72
395.534	366.04
395.913	397.22
396.292	380.5
396.671	388.86
397.05	399.48
397.429	362.87
397.808	366.94
398.186	382.98
398.565	378.69
398.944	364.45
399.323	373.27
399.701	410.78
400.08	390.67
400.458	392.48
400.837	393.38
401.215	417.11
401.594	391.12
401.972	408.75
402.351	399.93
402.729	394.96
403.107	399.48
403.486	414.85
403.864	411.23
404.242	390.44
404.62	400.84
404.999	416.2
405.377	419.59
405.755	433.15
406.133	401.74
406.511	412.14
406.889	437.22
407.267	419.37
407.645	423.44
408.023	428.18
408.401	435.41
408.779	450.55
409.156	466.82
409.534	455.07
409.912	437.22
410.29	453.94
410.667	459.82
411.045	465.02
411.422	450.55
411.8	474.73
412.178	434.06
412.555	462.98
412.933	478.8
413.31	459.82
413.687	472.25
414.065	478.12
414.442	486.94
414.819	479.48
415.197	488.29
415.574	469.76
415.951	504.11
416.328	501.4
416.705	508.86
417.082	491.91
417.46	538.23
417.837	501.63
418.214	509.76
418.591	515.64
418.967	516.99
419.344	535.97
419.721	533.71
420.098	538.01
420.475	528.74
420.852	518.35
421.228	516.31
421.605	541.17
421.982	534.17
422.358	508.4
422.735	536.2
423.111	561.06
423.488	533.71
423.864	538.91
424.241	561.74
424.617	546.14
424.994	548.18
425.37	568.29
425.746	575.75
426.123	559.7
426.499	572.13
426.875	582.3
427.251	598.57
427.627	598.57
428.003	594.96
428.379	606.93
428.756	595.86
429.132	598.57
429.507	620.27
429.883	623.2
430.259	617.1
430.635	637.67
431.011	634.73
431.387	643.09
431.763	660.94
432.138	659.14
432.514	658.91
432.89	660.27
433.265	652.13
433.641	679.25
434.016	665.24
434.392	691.9
434.767	691.45
435.143	689.19
435.518	715.18
435.894	702.75
436.269	712.92
436.644	727.16
437.02	729.19
437.395	746.36
437.77	735.29
438.145	747.95
438.52	728.29
438.895	769.19
439.271	715.86
439.646	742.52
440.021	774.61
440.395	791.11
440.77	775.74
441.145	803.54
441.52	815.29
441.895	779.36
442.27	783.43
442.645	805.57
443.019	804.22
443.394	820.49
443.769	827.94
444.143	808.28
444.518	827.94
444.892	830.2
445.267	845.57
445.641	832.24
446.016	848.96
446.39	856.42
446.764	845.35
447.139	860.71
447.513	864.78
447.887	873.59
448.262	886.47
448.636	874.5
449.01	879.47
449.384	902.29
449.758	881.28
450.132	909.07
450.506	906.59
450.88	902.07
451.254	913.59
451.628	919.92
452.002	974.38
452.376	949.3
452.75	968.96
453.123	943.87
453.497	978.45
453.871	974.38
454.244	990.2
454.618	1000.37
454.992	1007.15
455.365	1004.89
455.739	1043.98
456.112	1068.39
456.486	1041.05
456.859	1075.62
457.232	1088.05
457.606	1057.32
457.979	1081.27
458.352	1123.53
458.725	1122.17
459.099	1142.29
459.472	1140.93
459.845	1150.2
460.218	1202.4
460.591	1208.27
460.964	1189.06
461.337	1208.05
461.71	1221.61
462.083	1231.32
462.456	1259.57
462.829	1274.49
463.201	1274.49
463.574	1312
463.947	1318.33
464.32	1332.79
464.692	1363.3
465.065	1389.06
465.438	1385.22
465.81	1417.99
466.183	1430.87
466.555	1477.87
466.928	1437.19
467.3	1463.63
467.672	1499.57
468.045	1545.89
468.417	1584.76
468.789	1577.53
469.161	1597.42
469.534	1613.46
469.906	1665.44
470.278	1683.97
470.65	1724.87
471.022	1758.77
471.394	1792.89
471.766	1821.59
472.138	1850.52
472.51	1882.15
472.882	1950.63
473.253	1957.86
473.625	2016.84
473.997	2030.4
474.369	2083.96
474.74	2076.05
475.112	2178.87
475.484	2215.93
475.855	2281.69
476.227	2300.9
476.598	2387.9
476.97	2408.02
477.341	2465.64
477.713	2538.18
478.084	2587.9
478.455	2696.37
478.827	2750.15
479.198	2802.58
479.569	2854.33
479.94	3003.48
480.311	3030.6
480.682	3130.26
481.053	3244.15
481.424	3292.96
481.795	3407.54
482.166	3470.59
482.537	3549
482.908	3689.56
483.279	3727.76
483.65	3828.32
484.021	3979.73
484.391	4061.08
484.762	4182.88
485.133	4282.32
485.503	4394.4
485.874	4520.5
486.244	4627.39
486.615	4736.09
486.985	4826.26
487.356	5001.17
487.726	5068.28
488.097	5212.46
488.467	5326.81
488.837	5502.17
489.207	5601.6
489.578	5727.25
489.948	5814.93
490.318	6042.04
490.688	6108.71
491.058	6338.53
491.428	6338.53
491.798	6545.08
492.168	6704.63
492.538	6790.27
492.908	6929.93
493.278	7115.69
493.648	7155.91
494.017	7305.29
494.387	7542.34
494.757	7599.97
495.126	7787.76
495.496	7828.21
495.866	7965.16
496.235	8139.39
496.605	8233.85
496.974	8407.18
497.344	8499.38
497.713	8625.03
498.082	8748.87
498.452	8920.84
498.821	8974.4
499.19	8960.16
499.559	9135.75
499.928	9323.99
500.298	9304.78
500.667	9502.52
501.036	9521.05
501.405	9695.06
501.774	9739.12
502.143	9794.94
502.512	9944.31
502.88	10024.99
503.249	10101.37
503.618	10195.83
503.987	10333.01
504.356	10366.45
504.724	10445.32
505.093	10562.6
505.462	10529.84
505.83	10677.18
506.199	10775.93
506.567	10949.71
506.936	10969.37
507.304	11121.01
507.672	11133.66
508.041	11216.82
508.409	11308.12
508.777	11382.24
509.145	11497.72
509.514	11495.23
509.882	11478.96
510.25	11656.81
510.618	11713.99
510.986	11726.64
511.354	11795.11
511.722	11949.01
512.09	12030.36
512.458	11941.78
512.826	12147.65
513.193	12052.73
513.561	12091.38
513.929	12161.66
514.297	12353.74
514.664	12335.21
515.032	12438.03
515.4	12431.26
515.767	12552.61
516.135	12586.73
516.502	12442.78
516.869	12632.61
517.237	12676.67
517.604	12664.24
517.972	12699.95
518.339	12780.4
518.706	12774.52
519.073	12898.81
519.44	12982.88
519.808	13051.58
520.175	12993.27
520.542	13095.64
520.909	13155.76
521.276	13112.82
521.643	13184
522.009	13189.43
522.376	13222.42
522.743	13282.31
523.11	13436.43
523.477	13487.05
523.843	13416.31
524.21	13515.75
524.577	13548.06
524.943	13589.42
525.31	13652.69
525.676	13718.68
526.043	13765.23
526.409	13740.6
526.776	13808.17
527.142	13824.89
527.508	13847.49
527.874	13864.21
528.241	13931.1
528.607	13943.08
528.973	14041.16
529.339	13943.08
529.705	13969.75
530.071	13977.88
530.437	14038.44
530.803	14073.7
531.169	14082.74
531.535	14032.12
531.901	13981.95
532.267	14045.22
532.632	13978.56
532.998	14078.9
533.364	14160.7
533.73	13989.63
534.095	14108.27
534.461	14111.66
534.826	14108.27
535.192	13985.79
535.557	13993.7
535.923	14024.66
536.288	13910.31
536.653	14021.27
537.019	14030.31
537.384	14010.42
537.749	14003.42
538.114	13970.88
538.479	13831.67
538.845	13897.21
539.21	13822.18
539.575	13838.45
539.94	13758.45
540.305	13870.99
540.67	13702.63
541.034	13761.39
541.399	13789.41
541.764	13725.68
542.129	13687.04
542.494	13692.24
542.858	13658.79
543.223	13583.54
543.587	13651.34
543.952	13552.81
544.316	13547.38
544.681	13554.16
545.045	13477.1
545.41	13531.79
545.774	13506.48
546.138	13399.82
546.503	13373.6
546.867	13356.2
547.231	13463.77
547.595	13294.74
547.959	13339.03
548.324	13284.79
548.688	13205.47
549.052	13241.18
549.416	13200.95
549.779	13239.14
550.143	13168.41
550.507	13225.13
550.871	13138.36
551.235	13148.3
551.599	13123.67
551.962	13112.37
552.326	13089.99
552.689	13100.84
553.053	12965.03
553.417	12965.03
553.78	13123.67
554.143	12985.59
554.507	13070.56
554.87	13051.35
555.234	13039.15
555.597	12857.01
555.96	12881.64
556.323	12962.54
556.686	12871.02
557.05	12892.71
557.413	12879.15
557.776	12859.27
558.139	12931.35
558.502	12880.51
558.865	12876.22
559.228	12918.47
559.59	12965.48
559.953	12823.11
560.316	12972.94
560.679	12896.78
561.041	12991.92
561.404	13022.43
561.767	12960.51
562.129	12891.81
562.492	13030.56
562.854	12947.17
563.217	12969.55
563.579	12841.64
563.941	13043.22
564.304	13013.84
564.666	12997.34
565.028	13034.18
565.39	13065.36
565.753	13044.35
566.115	13120.5
566.477	13122.99
566.839	13123.21
567.201	13178.35
567.563	13189.43
567.925	13199.6
568.287	13224.45
568.648	13153.27
569.01	13163.44
569.372	13264.68
569.734	13185.36
570.095	13271.46
570.457	13244.57
570.819	13313.94
571.18	13237.34
571.542	13356.65
571.903	13303.55
572.265	13263.55
572.626	13382.64
572.987	13333.15
573.349	13315.98
573.71	13330.89
574.071	13415.86
574.432	13408.4
574.794	13515.07
575.155	13414.51
575.516	13328.63
575.877	13433.49
576.238	13475.07
576.599	13491.34
576.96	13437.56
577.32	13478.23
577.681	13435.3
578.042	13515.29
578.403	13420.61
578.763	13476.65
579.124	13476.65
579.485	13557.78
579.845	13537.44
580.206	13498.12
580.566	13535.86
580.927	13519.59
581.287	13573.6
581.648	13535.86
582.008	13570.43
582.368	13452.25
582.728	13535.41
583.089	13528.85
583.449	13443.21
583.809	13529.08
584.169	13465.58
584.529	13487.72
584.889	13517.1
585.249	13345.36
585.609	13308.75
585.969	13447.95
586.329	13417.44
586.688	13390.33
587.048	13361.4
587.408	13367.73
587.768	13320.27
588.127	13424.68
588.487	13410.66
588.846	13377.67
589.206	13372.93
589.565	13321.85
589.925	13407.95
590.284	13349.65
590.643	13353.04
591.003	13335.86
591.362	13361.63
591.721	13325.02
592.08	13298.8
592.44	13325.24
592.799	13360.5
593.158	13243.21
593.517	13237.79
593.876	13284.79
594.235	13228.07
594.593	13309.42
594.952	13302.19
595.311	13240.05
595.67	13214.29
596.029	13352.59
596.387	13328.18
596.746	13315.98
597.104	13150.78
597.463	13191.01
597.822	13344.9
598.18	13215.87
598.538	13155.53
598.897	13201.86
599.255	13127.73
599.613	13362.08
599.972	13222.87
600.33	13252.48
600.688	13232.14
601.046	13216.09
601.404	13219.03
601.762	13288.63
602.12	13330.21
602.478	13313.04
602.836	13248.41
603.194	13168.86
603.552	13204.57
603.91	13171.12
604.268	13219.71
604.625	13190.78
604.983	13219.93
605.341	13128.19
605.698	13279.37
606.056	13226.49
606.413	13262.42
606.771	13382.64
607.128	13275.3
607.485	13198.92
607.843	13130.45
608.2	13273.04
608.557	13336.09
608.914	13279.37
609.272	13278.92
609.629	13350.78
609.986	13459.48
610.343	13331.34
610.7	13441.17
611.057	13360.27
611.414	13322.76
611.771	13356.2
612.127	13455.41
612.484	13475.3
612.841	13417.67
613.198	13408.4
613.554	13399.14
613.911	13459.93
614.267	13476.88
614.624	13457.22
614.98	13522.53
615.337	13568.4
615.693	13552.81
616.05	13518.46
616.406	13622.18
616.762	13467.61
617.118	13540.6
617.475	13501.06
617.831	13538.57
618.187	13607.04
618.543	13589.42
618.899	13663.31
619.255	13664.44
619.611	13573.15
619.967	13648.4
620.323	13614.5
620.678	13609.3
621.034	13614.27
621.39	13576.08
621.746	13539.93
622.101	13834.16
622.457	13586.48
622.812	13696.76
623.168	13721.16
623.523	13654.27
623.879	13684.78
624.234	13578.57
624.589	13599.13
624.945	13686.14
625.3	13599.36
625.655	13666.7
626.01	13601.17
626.365	13612.69
626.72	13718.68
627.075	13595.29
627.43	13534.28
627.785	13583.54
628.14	13601.85
628.495	13594.39
628.85	13649.3
629.205	13562.3
629.559	13554.39
629.914	13545.35
630.269	13593.94
630.623	13526.14
630.978	13478.69
631.332	13491.79
631.687	13558.01
632.041	13457.67
632.396	13579.93
632.75	13462.87
633.104	13531.11
633.459	13398.01
633.813	13446.6
634.167	13480.72
634.521	13423.09
634.875	13433.04
635.229	13451.79
635.583	13340.38
635.937	13422.42
636.291	13311.91
636.645	13309.88
636.999	13339.71
637.352	13263.32
637.706	13187.62
638.06	13280.72
638.413	13294.06
638.767	13280.95
639.121	13268.52
639.474	13229.43
639.828	13226.26
640.181	13285.7
640.534	13198.24
640.888	13064.91
641.241	13154.4
641.594	13115.76
641.947	13145.36
642.301	13090.67
642.654	13119.37
643.007	13083.67
643.36	13103.1
643.713	13145.81
644.066	13120.95
644.419	13062.2
644.771	12979.26
645.124	12887.74
645.477	12869.66
645.83	12740.85
646.182	12685.49
646.535	12647.75
646.888	12683.68
647.24	12597.35
647.593	12753.28
647.945	12671.47
648.298	12586.96
648.65	12578.37
649.002	12602.55
649.355	12664.02
649.707	12577.92
650.059	12722.09
650.411	12793.05
650.763	12763
651.115	12984.91
651.467	12948.76
651.819	12890.45
652.171	12893.62
652.523	12883.67
652.875	12917.8
653.227	12824.24
653.578	12936.1
653.93	12919.38
654.282	12892.94
654.633	12844.8
654.985	12893.84
655.337	12937.46
655.688	12906.04
656.039	12917.8
656.391	12857.68
656.742	12937.46
657.094	12884.58
657.445	12899.72
657.796	12923.45
658.147	12866.05
658.498	12866.95
658.849	12922.54
659.2	12899.49
659.551	12772.26
659.902	12940.85
660.253	12904.24
660.604	12918.02
660.955	12840.28
661.306	12868.53
661.656	12894.52
662.007	12880.28
662.358	12942.2
662.708	12932.03
663.059	12967.29
663.409	12846.61
663.76	12979.26
664.11	12984.01
664.461	13022.88
664.811	12969.09
665.161	12965.7
665.511	12923.22
665.862	12911.92
666.212	13036.89
666.562	12962.99
666.912	12909.21
667.262	12920.73
667.612	12976.33
667.962	12960.51
668.312	12947.85
668.662	13076.66
669.011	12944.01
669.361	12941.3
669.711	12927.97
670.06	12901.53
670.41	12962.09
670.76	12871.02
671.109	12882.32
671.459	12894.07
671.808	12877.12
672.157	12862.66
672.507	12794.64
672.856	12833.05
673.205	12907.63
673.554	12820.85
673.904	12801.87
674.253	12877.12
674.602	12775.88
674.951	12633.96
675.3	12590.35
675.649	12761.19
675.998	12803.9
676.346	12736.56
676.695	12800.96
677.044	12700.17
677.393	12685.03
677.741	12680.06
678.09	12663.79
678.438	12618.59
678.787	12677.12
679.135	12611.14
679.484	12578.6
679.832	12655.43
680.181	12588.31
680.529	12580.4
680.877	12531.14
681.225	12560.74
681.573	12618.59
681.922	12499.95
682.27	12387.87
682.618	12390.13
682.966	12413.18
683.314	12460.18
683.661	12380.86
684.009	12248.66
684.357	12296.8
684.705	12342.22
685.053	12283.24
685.4	12234.65
685.748	12176.35
686.095	12192.39
686.443	12139.29
686.79	12110.81
687.138	12118.04
687.485	12179.74
687.832	12059.74
688.18	12132.73
688.527	12061.77
688.874	12051.83
689.221	11968.44
689.568	11919.4
689.915	11904.72
690.262	11936.35
690.609	11893.19
690.956	11723.25
691.303	11765.51
691.65	11690.71
691.997	11732.97
692.344	11659.3
692.69	11592.41
693.037	11650.26
693.383	11426.76
693.73	11514.44
694.077	11445.74
694.423	11413.65
694.769	11398.97
695.116	11379.08
695.462	11394.22
695.808	11335.24
696.155	11280.78
696.501	11241.68
696.847	11216.37
697.193	11165.53
697.539	11196.94
697.885	11025.42
698.231	11020.9
698.577	10974.12
698.923	10975.7
699.269	10944.06
699.614	10860.22
699.96	10867.23
700.306	10882.37
700.651	10816.16
700.997	10752.66
701.342	10651.41
701.688	10639.21
702.033	10652.09
702.379	10559.67
702.724	10551.53
703.069	10566.67
703.415	10455.49
703.76	10433.57
704.105	10443.96
704.45	10377.75
704.795	10377.3
705.14	10291.42
705.485	10252.78
705.83	10255.27
706.175	10228.15
706.52	10171.2
706.865	10154.48
707.209	10141.82
707.554	10073.12
707.899	10162.39
708.243	10034.93
708.588	10004.2
708.932	9942.05
709.277	9941.83
709.621	9988.38
709.966	9846.24
710.31	9885.11
710.654	9834.04
710.998	9806.24
711.342	9796.52
711.687	9794.94
712.031	9655.96
712.375	9634.04
712.719	9776.41
713.063	9747.94
713.407	9709.29
713.75	9658.22
714.094	9642.18
714.438	9606.7
714.782	9556.08
715.125	9552.46
715.469	9566.25
715.812	9564.89
716.156	9495.74
716.499	9562.63
716.843	9434.95
717.186	9399.24
717.53	9497.32
717.873	9503.42
718.216	9475.85
718.559	9430.66
718.902	9353.14
719.246	9399.92
719.589	9352.01
719.932	9333.03
720.275	9311.56
720.617	9343.88
720.96	9322.64
721.303	9352.01
721.646	9291.22
721.989	9280.38
722.331	9301.62
722.674	9239.93
723.016	9229.53
723.359	9202.41
723.701	9259.36
724.044	9210.32
724.386	9187.05
724.729	9262.52
725.071	9228.18
725.413	9256.2
725.755	9179.82
726.097	9119.7
726.439	9121.06
726.782	9106.37
727.124	9148.4
727.465	9099.37
727.807	9107.05
728.149	9098.24
728.491	9020.5
728.833	9043.32
729.175	9085.81
729.516	9117.9
729.858	9070.44
730.199	9079.03
730.541	8956.54
730.882	9014.4
731.224	9021.4
731.565	9061.85
731.906	9092.36
732.248	8996.09
732.589	8991.8
732.93	8956.32
733.271	8967.62
733.612	9060.72
733.953	9098.69
734.294	9046.03
734.635	8948.86
734.976	9011.46
735.317	9092.59
735.658	9018.24
735.999	9009.42
736.339	9038.58
736.68	9103.88
737.021	9089.87
737.361	8950.89
737.702	9029.08
738.042	8978.46
738.383	9053.04
738.723	9093.04
739.063	9035.41
739.404	9040.61
739.744	9091
740.084	9119.93
740.424	9138.01
740.764	9113.15
741.104	9158.12
741.444	9138.46
741.784	9039.71
742.124	9184.33
742.464	9141.62
742.804	9178.69
743.143	9240.38
743.483	9191.57
743.823	9238.12
744.162	9247.61
744.502	9293.03
744.841	9237.89
745.181	9295.07
745.52	9280.15
745.86	9363.54
746.199	9432.46
746.538	9443.54
746.877	9523.76
747.216	9568.51
747.556	9588.17
747.895	9592.91
748.234	9664.55
748.573	9741.16
748.911	9679.91
749.25	9815.73
749.589	9825.45
749.928	9984.99
750.267	10087.81
750.605	10079.45
750.944	10059.34
751.283	10210.3
751.621	10265.21
751.96	10351.31
752.298	10402.83
752.636	10587.46
752.975	10627.01
753.313	10727.57
753.651	10865.87
753.989	10952.42
754.327	10979.99
754.666	11071.97
755.004	11218.41
755.342	11394.67
755.679	11426.54
756.017	11557.61
756.355	11726.19
756.693	11812.97
757.031	12012.28
757.368	12134.54
757.706	12214.09
758.044	12366.4
758.381	12569.1
758.719	12610.01
759.056	12842.77
759.394	12940.39
759.731	13026.72
760.068	13199.37
760.405	13297.45
760.743	13447.27
761.08	13611.11
761.417	13690.66
761.754	13853.59
762.091	14054.49
762.428	14136.07
762.765	14280.25
763.102	14549.62
763.438	14554.14
763.775	14743.06
764.112	14945.31
764.449	15091.75
764.785	15227.57
765.122	15336.49
765.458	15469.37
765.795	15591.4
766.131	15785.52
766.467	15813.99
766.804	16026.19
767.14	16106.41
767.476	16197.71
767.812	16233.87
768.148	16560.41
768.485	16501.43
768.821	16636.57
769.157	16747.3
769.492	16932.15
769.828	16922.89
770.164	16924.47
770.5	17105.03
770.836	17205.59
771.171	17207.85
771.507	17364.46
771.842	17390.67
772.178	17502.99
772.513	17501.86
772.849	17693.04
773.184	17717.22
773.519	17707.05
773.855	17749.53
774.19	17801.28
774.525	17838.34
774.86	17953.14
775.195	18037.44
775.53	18028.85
775.865	17999.7
776.2	18004.22
776.535	18001.28
776.87	18067.49
777.205	18138.22
777.539	18067.04
777.874	18155.4
778.209	18143.65
778.543	18133.48
778.878	18148.39
779.212	18257.99
779.547	18187.71
779.881	18268.16
780.215	18252.34
780.55	18331.89
780.884	18239.24
781.218	18277.2
781.552	18266.81
781.886	18221.39
782.22	18196.98
782.554	18198.34
782.888	18045.57
783.222	18110.88
783.556	18133.25
783.889	18090.99
784.223	18053.03
784.557	17934.39
784.89	18128.73
785.224	17984.1
785.557	17904.78
785.891	17913.37
786.224	17918.12
786.558	17945.01
786.891	17772.81
787.224	17759.7
787.557	17767.61
787.891	17802.64
788.224	17805.8
788.557	17727.16
788.89	17752.02
789.223	17872.47
789.556	17684.45
789.888	17726.48
790.221	17581.18
790.554	17482.42
790.887	17554.96
791.219	17578.24
791.552	17405.36
791.884	17452.37
792.217	17433.61
792.549	17364.46
792.882	17339.6
793.214	17307.96
793.546	17394.06
793.879	17149.55
794.211	17233.61
794.543	17143.45
794.875	17140.28
795.207	17185.25
795.539	17173.5
795.871	17106.39
796.203	16938.48
796.535	16835.21
796.867	16857.81
797.198	16823
797.53	16874.08
797.862	16694.42
798.193	16813.06
798.525	16559.51
798.856	16678.38
799.188	16580.07
799.519	16485.16
799.85	16430.25
800.182	16524.71
800.513	16504.59
800.844	16305.5
801.175	16449.68
801.506	16408.1
801.837	16296.46
802.168	16243.58
802.499	16191.38
802.83	16160.87
803.161	16147.09
803.491	16122.23
803.822	16065.51
804.153	16071.16
804.483	15833.2
804.814	15896.25
805.145	15939.86
805.475	15890.83
805.805	15798.62
806.136	15733.77
806.466	15779.87
806.796	15749.59
807.126	15654.45
807.457	15637.05
807.787	15641.79
808.117	15494
808.447	15453.77
808.777	15486.54
809.107	15368.35
809.436	15383.27
809.766	15346.88
810.096	15299.2
810.426	15300.78
810.755	15333.55
811.085	15284.74
811.414	15238.19
811.744	15201.8
812.073	15184.18
812.403	15223.5
812.732	15011.07
813.061	14954.35
813.39	15027.57
813.719	14965.43
814.049	14894.47
814.378	14909.38
814.707	14829.61
815.036	14909.38
815.365	14836.39
815.693	14728.14
816.022	14734.02
816.351	14713.45
816.68	14587.81
817.008	14693.12
817.337	14511.88
817.665	14489.96
817.994	14575.38
818.322	14534.48
818.651	14463.29
818.979	14428.94
819.307	14512.56
819.636	14418.1
819.964	14438.66
820.292	14428.94
820.62	14382.84
820.948	14335.16
821.276	14381.03
821.604	14418.1
821.932	14369.28
822.259	14371.32
822.587	14384.2
822.915	14350.75
823.243	14380.36
823.57	14315.27
823.898	14312.34
824.225	14244.09
824.553	14261.04
824.88	14266.24
825.207	14306.46
825.535	14391.66
825.862	14389.4
826.189	14316.18
826.516	14400.92
826.843	14317.53
827.17	14393.24
827.497	14354.14
827.824	14379.45
828.151	14305.78
828.478	14403.86
828.805	14402.5
829.131	14303.3
829.458	14356.18
829.785	14248.38
830.111	14355.5
830.438	14386.68
830.764	14442.95
831.09	14362.73
831.417	14323.63
831.743	14309.4
832.069	14303.97
832.395	14175.62
832.722	14295.39
833.048	14172.23
833.374	14266.24
833.7	14235.5
834.026	14247.03
834.351	14262.17
834.677	14269.85
835.003	14279.57
835.329	14178.1
835.654	14184.2
835.98	14155.73
836.306	14144.2
836.631	14097.2
836.956	14142.17
837.282	14183.53
837.607	14125.67
837.932	14100.82
838.258	14052.23
838.583	13994.15
838.908	14012.68
839.233	14001.16
839.558	13911.89
839.883	13872.35
840.208	13869.41
840.533	13835.51
840.858	13787.15
841.182	13781.73
841.507	13872.8
841.832	13696.08
842.156	13698.79
842.481	13752.58
842.805	13675.97
843.13	13599.36
843.454	13643.2
843.778	13654.27
844.103	13548.74
844.427	13561.85
844.751	13560.94
845.075	13421.06
845.399	13396.2
845.723	13287.96
846.047	13335.41
846.371	13164.12
846.695	13236.88
847.019	13191.91
847.343	13116.43
847.666	12961.64
847.99	12964.12
848.313	12990.56
848.637	12924.8
848.96	12857.01
849.284	12801.87
849.607	12697.24
849.931	12712.83
850.254	12620.85
850.577	12563
850.9	12552.16
851.223	12537.24
851.546	12495.66
851.869	12280.75
852.192	12456.11
852.515	12269.9
852.838	12215.44
853.161	12270.81
853.483	12144.71
853.806	12149.45
854.129	12149.68
854.451	12039.4
854.774	12027.42
855.096	11962.34
855.419	11885.73
855.741	11877.15
856.063	11847.99
856.385	11852.74
856.708	11803.93
857.03	11778.84
857.352	11778.62
857.674	11666.76
857.996	11650.26
858.318	11562.8
858.64	11545.18
858.961	11543.14
859.283	11540.43
859.605	11441.9
859.926	11456.37
860.248	11420.89
860.57	11378.4
860.891	11393.32
861.212	11325.07
861.534	11269.03
861.855	11241.46
862.176	11307.22
862.498	11291.62
862.819	11254.34
863.14	11224.28
863.461	11189.03
863.782	11130.27
864.103	11193.1
864.424	11117.17
864.745	11009.82
865.065	11086.21
865.386	11013.44
865.707	11051.63
866.027	11050.27
866.348	10932.54
866.668	10984.51
866.989	10973.44
867.309	10889.6
867.63	10916.27
867.95	10938.86
868.27	10784.07
868.59	10815.25
868.91	10800.79
869.23	10831.75
869.55	10778.19
869.87	10785.65
870.19	10774.35
870.51	10762.82
870.83	10760.79
871.15	10672.88
871.469	10638.08
871.789	10788.36
872.109	10730.06
872.428	10645.54
872.748	10609.38
873.067	10610.29
873.386	10558.08
873.706	10639.21
874.025	10553.11
874.344	10479.89
874.663	10567.58
874.982	10484.64
875.301	10522.15
875.62	10531.64
875.939	10442.15
876.258	10483.28
876.577	10352.44
876.896	10431.76
877.214	10369.16
877.533	10356.06
877.852	10345.21
878.17	10395.15
878.489	10320.8
878.807	10344.3
879.125	10319.22
879.444	10324.19
879.762	10304.08
880.08	10250.75
880.398	10217.53
880.716	10176.63
881.034	10163.74
881.352	10161.26
881.67	10130.3
881.988	10165.1
882.306	10059.34
882.624	10039.45
882.941	10000.81
883.259	10055.5
883.577	10041.26
883.894	10031.09
884.212	10041.71
884.529	9997.19
884.846	9893.47
885.164	9933.69
885.481	9882.4
885.798	9840.81
886.115	9817.31
886.432	9789.97
886.75	9789.74
887.067	9780.48
887.383	9735.96
887.7	9794.26
888.017	9710.42
888.334	9720.37
888.651	9651.22
888.967	9690.76
889.284	9573.03
889.6	9570.99
889.917	9483.54
890.233	9483.99
890.55	9493.25
890.866	9443.09
891.182	9411.67
891.498	9434.72
891.815	9398.11
892.131	9303.43
892.447	9334.16
892.763	9251.68
893.079	9272.02
893.395	9204.22
893.71	9187.72
894.026	9216.42
894.342	9104.34
894.657	9107.73
894.973	9082.42
895.289	9080.83
895.604	9033.38
895.92	8990.89
896.235	9006.03
896.55	8913.61
896.865	8900.5
897.181	8855.53
897.496	8854.63
897.811	8832.71
898.126	8780.5
898.441	8756.78
898.756	8721.52
899.071	8731.01
899.386	8728.75
899.7	8574.86
900.015	8600.4
900.33	8543.45
900.644	8510.45
900.959	8535.54
901.273	8472.26
901.588	8468.2
901.902	8416.9
902.216	8352.94
902.531	8412.38
902.845	8270.46
903.159	8297.58
903.473	8304.58
903.787	8302.32
904.101	8182.55
904.415	8163.8
904.729	8114.31
905.042	8072.73
905.356	8016
905.67	8044.25
905.984	8023.69
906.297	8017.59
906.611	7907.98
906.924	7910.47
907.237	7886.52
907.551	7841.55
907.864	7821.66
908.177	7866.4
908.491	7743.47
908.804	7731.72
909.117	7681.32
909.43	7641.32
909.743	7624.83
910.056	7687.88
910.368	7553.64
910.681	7495.79
910.994	7461.44
911.307	7492.18
911.619	7430.93
911.932	7393.87
912.244	7408.34
912.557	7317.49
912.869	7358.85
913.181	7286.53
913.494	7244.95
913.806	7253.99
914.118	7189.58
914.43	7139.87
914.742	7177.61
915.054	7095.35
915.366	7096.48
915.678	7086.99
915.99	7001.34
916.302	7016.03
916.613	7023.49
916.925	6936.71
917.236	6912.53
917.548	6825.07
917.859	6907.56
918.171	6845.19
918.482	6822.81
918.794	6762.25
919.105	6717.51
919.416	6723.61
919.727	6692.65
920.038	6612.2
920.349	6679.54
920.66	6637.74
920.971	6614.46
921.282	6587.34
921.593	6557.74
921.903	6502.37
922.214	6443.84
922.525	6478.42
922.835	6425.31
923.146	6399.55
923.456	6362.71
923.767	6346.67
924.077	6339.89
924.387	6274.35
924.697	6280.46
925.008	6279.78
925.318	6202.04
925.628	6280.46
925.938	6174.7
926.248	6146.22
926.558	6092.66
926.867	6083.17
927.177	6105.09
927.487	6030.52
927.796	5961.59
928.106	6004.08
928.416	5995.04
928.725	5958.88
929.034	5915.72
929.344	5899
929.653	5914.36
929.962	5889.73
930.271	5817.42
930.581	5801.6
930.89	5803.41
931.199	5796.85
931.508	5707.82
931.817	5703.07
932.125	5683.64
932.434	5703.07
932.743	5609.29
933.051	5609.74
933.36	5605.67
933.669	5554.15
933.977	5547.14
934.286	5542.4
934.594	5519.57
934.902	5458.78
935.21	5440.25
935.519	5458.11
935.827	5421.72
936.135	5404.1
936.443	5339.01
936.751	5340.82
937.059	5289.75
937.367	5329.07
937.674	5280.93
937.982	5242.74
938.29	5254.49
938.597	5266.92
938.905	5156.87
939.213	5140.15
939.52	5094.5
939.827	5103.99
940.135	5091.79
940.442	5045.91
940.749	5040.26
941.056	5063.09
941.363	5006.82
941.67	4977.44
941.977	4914.84
942.284	4937.44
942.591	4907.16
942.898	4905.8
943.205	4893.37
943.511	4860.61
943.818	4855.18
944.125	4780.16
944.431	4814.28
944.738	4777.9
945.044	4761.63
945.35	4736.32
945.657	4735.86
945.963	4659.48
946.269	4629.88
946.575	4634.62
946.881	4608.41
947.187	4586.49
947.493	4604.79
947.799	4605.92
948.105	4582.87
948.41	4489.54
948.716	4508.53
949.022	4480.73
949.327	4510.11
949.633	4449.32
949.938	4419.26
950.244	4433.95
950.549	4430.79
950.854	4404.35
951.16	4339.72
951.465	4346.27
951.77	4333.16
952.075	4291.36
952.38	4237.8
952.685	4323.22
952.99	4217.69
953.294	4226.5
953.599	4161.87
953.904	4172.26
954.209	4148.76
954.513	4149.89
954.818	4132.04
955.122	4143.79
955.426	4093.85
955.731	4109.89
956.035	4058.59
956.339	4005.94
956.643	4073.73
956.948	4036.45
957.252	3997.8
957.556	3980.63
957.86	3971.82
958.163	3924.59
958.467	3945.15
958.771	3897.02
959.075	3935.89
959.378	3889.78
959.682	3878.49
959.985	3863.12
960.289	3845.49
960.592	3807.75
960.896	3825.61
961.199	3848.88
961.502	3815.66
961.805	3821.99
962.108	3736.12
962.411	3743.35
962.714	3733.63
963.017	3718.72
963.32	3684.14
963.623	3709.45
963.926	3708.09
964.228	3635.33
964.531	3621.77
964.833	3606.4
965.136	3607.08
965.438	3571.38
965.741	3533.18
966.043	3519.85
966.345	3512.85
966.648	3519.62
966.95	3524.6
967.252	3478.72
967.554	3447.31
967.856	3459.74
968.158	3385.62
968.46	3394.43
968.761	3407.31
969.063	3435.56
969.365	3397.82
969.666	3329.12
969.968	3360.08
970.269	3321.44
970.571	3296.58
970.872	3329.8
971.174	3273.3
971.475	3259.29
971.776	3246.41
972.077	3207.09
972.378	3215.9
972.679	3169.8
972.98	3207.54
973.281	3183.36
973.582	3194.89
973.883	3167.77
974.183	3129.13
974.484	3154.66
974.785	3095.68
975.085	3144.49
975.386	3086.64
975.686	3066.08
975.986	3026.76
976.287	3036.93
976.587	3012.52
976.887	3004.38
977.187	2999.86
977.487	3000.32
977.787	2965.74
978.087	2964.39
978.387	2952.18
978.687	2946.76
978.987	2927.55
979.286	2902.47
979.586	2883.26
979.885	2905.4
980.185	2879.87
980.484	2849.81
980.784	2856.14
981.083	2843.03
981.382	2842.81
981.682	2831.73
981.981	2825.63
982.28	2758.29
982.579	2786.76
982.878	2754.9
983.177	2729.82
983.475	2742.92
983.774	2725.07
984.073	2713.77
984.372	2712.64
984.67	2664.28
984.969	2689.14
985.267	2680.78
985.566	2673.77
985.864	2672.64
986.162	2629.48
986.461	2621.57
986.759	2611.17
987.057	2608.46
987.355	2585.86
987.653	2592.42
987.951	2563.04
988.249	2558.29
988.547	2553.1
988.844	2539.31
989.142	2537.73
989.44	2500.67
989.737	2516.26
990.035	2478.75
990.332	2484.17
990.63	2482.14
990.927	2440.78
991.224	2444.17
991.521	2418.86
991.819	2392.65
992.116	2401.46
992.413	2363.72
992.71	2381.35
993.006	2347
993.303	2366.66
993.6	2340.22
993.897	2354.01
994.193	2348.81
994.49	2317.62
994.787	2280.34
995.083	2287.12
995.379	2273.78
995.676	2274.69
995.972	2231.98
996.268	2241.01
996.565	2226.78
996.861	2213.22
997.157	2205.99
997.453	2211.64
997.749	2216.83
998.044	2163.73
998.34	2120.57
998.636	2158.08
998.932	2142.49
999.227	2104.97
999.523	2118.76
999.818	2104.75
1000.114	2106.78
1000.409	2088.48
1000.704	2097.97
1001	2078.31
1001.295	2070.17
1001.59	2073.11
1001.885	2029.49
1002.18	2049.16
1002.475	2049.83
1002.77	2013.9
1003.065	1984.75
1003.359	1960.57
1003.654	1954.69
1003.949	1961.02
1004.243	1927.8
1004.538	1930.74
1004.832	1923.51
1005.127	1941.81
1005.421	1904.75
1005.715	1884.64
1006.009	1893.45
1006.304	1856.17
1006.598	1877.18
1006.892	1835.15
1007.186	1823.85
1007.48	1841.48
1007.773	1813.68
1008.067	1806.68
1008.361	1801.25
1008.655	1784.3
1008.948	1785.21
1009.242	1784.76
1009.535	1759.45
1009.829	1762.61
1010.122	1756.51
1010.415	1740.46
1010.708	1730.52
1011.001	1761.03
1011.295	1715.38
1011.588	1686.9
1011.881	1683.52
1012.173	1647.58
1012.466	1641.26
1012.759	1659.56
1013.052	1657.3
1013.344	1645.32
1013.637	1641.03
1013.93	1631.31
1014.222	1616.17
1014.514	1603.29
1014.807	1582.5
1015.099	1578.89
1015.391	1566.91
1015.683	1581.82
1015.976	1558.09
1016.268	1530.52
1016.56	1531.65
1016.851	1529.17
1017.143	1533.24
1017.435	1521.94
1017.727	1499.11
1018.018	1481.94
1018.31	1486.91
1018.602	1465.89
1018.893	1452.33
1019.185	1459.11
1019.476	1436.74
1019.767	1426.57
1020.058	1418.44
1020.35	1402.39
1020.641	1419.12
1020.932	1386.12
1021.223	1374.14
1021.514	1387.93
1021.804	1354.48
1022.095	1339.57
1022.386	1363.3
1022.677	1355.84
1022.967	1372.34
1023.258	1342.06
1023.548	1300.47
1023.839	1304.32
1024.129	1301.15
1024.419	1280.36
1024.709	1303.86
1025	1252.79
1025.29	1290.76
1025.58	1247.82
1025.87	1246.92
1026.16	1243.53
1026.449	1220.02
1026.739	1208.27
1027.029	1240.59
1027.319	1216.63
1027.608	1194.49
1027.898	1205.11
1028.187	1204.66
1028.477	1175.51
1028.766	1179.57
1029.055	1168.5
1029.344	1171.44
1029.634	1136.41
1029.923	1115.85
1030.212	1146.58
1030.501	1122.63
1030.79	1126.24
1031.078	1125.56
1031.367	1105.23
1031.656	1099.8
1031.945	1078.56
1032.233	1089.86
1032.522	1076.53
1032.81	1095.96
1033.099	1067.03
1033.387	1059.8
1033.675	1053.93
1033.963	1048.5
1034.251	1057.09
1034.54	1042.63
1034.828	1032.91
1035.116	990.2
1035.403	1015.74
1035.691	985.91
1035.979	1009.63
1036.267	1015.51
1036.554	972.8
1036.842	978
1037.129	971.44
1037.417	963.99
1037.704	971.22
1037.992	939.58
1038.279	953.82
1038.566	938.45
1038.853	938.45
1039.14	938.45
