Data from hue_330_FLMS001491_84.txt Node
Date: Mon Feb 06 15:46:02 GMT 2017
User: dcchb
Spectrometer: FLMS00149
Trigger mode: 0
Integration Time (sec): 2.000000E-2
Scans to average: 10
Electric dark correction enabled: true
Nonlinearity correction enabled: false
Boxcar width: 0
XAxis mode: Wavelengths
Number of Pixels in Spectrum: 2048
>>>>>Begin Spectral Data<<<<<
341.393	-6.23
341.776	-6.23
342.16	-6.23
342.543	-62.72
342.927	-60.69
343.31	-52.56
343.693	-90.75
344.077	-50.75
344.46	-67.7
344.843	-50.75
345.226	-58.66
345.61	-38.54
345.993	-18.88
346.376	-17.53
346.759	13.43
347.142	22.47
347.525	46.2
347.908	68.8
348.291	63.6
348.674	121.45
349.057	110.15
349.44	138.17
349.823	165.52
350.206	161.9
350.588	190.6
350.971	222.47
351.354	230.15
351.737	232.86
352.119	274.89
352.502	280.77
352.884	274.67
353.267	266.08
353.65	263.37
354.032	295.46
354.414	328.9
354.797	315.57
355.179	308.34
355.562	323.03
355.944	320.54
356.326	329.81
356.709	339.98
357.091	356.02
357.473	354.21
357.855	320.99
358.238	330.26
358.62	333.88
359.002	337.72
359.384	362.12
359.766	347.66
360.148	345.17
360.53	331.84
360.912	337.27
361.294	334.78
361.676	336.59
362.057	340.2
362.439	341.33
362.821	334.1
363.203	337.94
363.584	321.22
363.966	303.82
364.348	321.45
364.729	308.11
365.111	323.48
365.493	338.85
365.874	316.02
366.256	312.41
366.637	313.31
367.019	318.73
367.4	328.23
367.781	303.59
368.163	319.41
368.544	313.08
368.925	314.21
369.306	323.71
369.688	296.14
370.069	304.5
370.45	316.7
370.831	295.46
371.212	301.33
371.593	322.8
371.974	309.02
372.355	306.98
372.736	305.4
373.117	314.21
373.498	313.08
373.879	320.77
374.26	331.62
374.641	309.02
375.021	306.31
375.402	302.92
375.783	328.68
376.163	332.52
376.544	296.81
376.925	337.04
377.305	322.58
377.686	326.64
378.066	323.93
378.447	328
378.827	356.93
379.208	318.51
379.588	310.6
379.968	341.56
380.349	343.59
380.729	313.54
381.109	332.07
381.489	325.29
381.87	334.78
382.25	339.98
382.63	328
383.01	361.22
383.39	337.27
383.77	341.56
384.15	338.85
384.53	359.41
384.91	341.56
385.29	351.95
385.67	344.5
386.049	349.92
386.429	346.76
386.809	369.35
387.189	364.84
387.568	370.26
387.948	347.89
388.328	360.32
388.707	358.28
389.087	339.3
389.466	356.7
389.846	360.99
390.225	374.78
390.605	374.1
390.984	356.25
391.363	374.1
391.743	371.16
392.122	381.11
392.501	375.46
392.881	386.98
393.26	356.7
393.639	375.23
394.018	369.35
394.397	371.39
394.776	379.07
395.155	377.49
395.534	384.27
395.913	376.59
396.292	393.53
396.671	389.24
397.05	380.88
397.429	390.15
397.808	395.12
398.186	382.91
398.565	380.43
398.944	395.79
399.323	402.57
399.701	412.07
400.08	403.48
400.458	396.92
400.837	408.68
401.215	425.4
401.594	424.95
401.972	411.16
402.351	419.52
402.729	413.87
403.107	409.35
403.486	413.2
403.864	424.27
404.242	440.09
404.62	422.01
404.999	436.25
405.377	452.29
405.755	440.09
406.133	431.27
406.511	440.99
406.889	441.44
407.267	456.36
407.645	469.01
408.023	459.3
408.401	466.98
408.779	462.23
409.156	463.14
409.534	469.47
409.912	467.88
410.29	488.9
410.667	478.73
411.045	488.45
411.422	494.55
411.8	506.3
412.178	505.4
412.555	540.65
412.933	510.14
413.31	508.79
413.687	532.51
414.065	540.65
414.442	556.47
414.819	553.76
415.197	557.82
415.574	541.78
415.951	559.63
416.328	574.77
416.705	582
417.082	584.94
417.46	583.81
417.837	603.7
418.214	586.98
418.591	622
418.967	598.28
419.344	618.16
419.721	621.33
420.098	640.08
420.475	625.85
420.852	644.6
421.228	654.32
421.605	633.08
421.982	664.49
422.358	662.45
422.735	658.84
423.111	684.37
423.488	703.81
423.864	679.63
424.241	705.17
424.617	719.4
424.994	718.72
425.37	716.92
425.746	744.03
426.123	707.42
426.499	725.73
426.875	739.74
427.251	750.36
427.627	772.06
428.003	751.04
428.379	774.99
428.756	774.77
429.132	772.28
429.507	798.5
429.883	807.31
430.259	810.47
430.635	816.35
431.011	824.03
431.387	822.68
431.763	856.8
432.138	831.26
432.514	863.35
432.89	837.36
433.265	902
433.641	878.27
434.016	911.49
434.392	896.35
434.767	916.46
435.143	920.53
435.518	941.09
435.894	933.63
436.269	942
436.644	963.92
437.02	987.64
437.395	967.76
437.77	1011.15
438.145	996.68
438.52	977.93
438.895	1017.25
439.271	1025.61
439.646	1028.77
440.021	1061.99
440.395	1042.78
440.77	1028.32
441.145	1035.55
441.52	1064.25
441.895	1047.3
442.27	1086.17
442.645	1066.06
443.019	1105.83
443.394	1083.01
443.769	1109.22
444.143	1117.36
444.518	1116.23
444.892	1110.35
445.267	1118.49
445.641	1113.29
446.016	1112.16
446.39	1126.4
446.764	1123.46
447.139	1114.87
447.513	1135.89
447.887	1165.49
448.262	1179.28
448.636	1161.2
449.01	1158.03
449.384	1158.71
449.758	1175.44
450.132	1227.19
450.506	1183.8
450.88	1188.32
451.254	1212.95
451.628	1196.9
452.002	1207.07
452.376	1241.42
452.75	1235.55
453.123	1245.04
453.497	1280.29
453.871	1255.43
454.244	1270.12
454.618	1302.44
454.992	1306.96
455.365	1308.54
455.739	1327.52
456.112	1322.55
456.486	1302.89
456.859	1325.26
457.232	1311.93
457.606	1380.18
457.979	1353.06
458.352	1380.4
458.725	1386.5
459.099	1427.18
459.472	1397.35
459.845	1425.6
460.218	1417.24
460.591	1429.67
460.964	1459.27
461.337	1481.64
461.71	1508.31
462.083	1497.01
462.456	1505.82
462.829	1504.69
463.201	1553.5
463.574	1534.07
463.947	1575.42
464.32	1618.36
464.692	1593.96
465.065	1640.28
465.438	1614.75
465.81	1650.22
466.183	1631.02
466.555	1678.92
466.928	1652.94
467.3	1671.02
467.672	1709.21
468.045	1754.85
468.417	1709.88
468.789	1753.5
469.161	1774.74
469.534	1802.31
469.906	1837.34
470.278	1826.72
470.65	1827.17
471.022	1857.23
471.394	1910.11
471.766	1897.68
472.138	1915.3
472.51	1969.09
472.882	1963.66
473.253	1996.2
473.625	2006.83
473.997	2072.59
474.369	2073.04
474.74	2112.13
475.112	2104.45
475.484	2144
475.855	2157.78
476.227	2148.06
476.598	2208.85
476.97	2273.49
477.341	2284.78
477.713	2314.39
478.084	2350.55
478.455	2355.74
478.827	2408.17
479.198	2440.71
479.569	2435.52
479.94	2497.21
480.311	2514.16
480.682	2557.55
481.053	2611.1
481.424	2668.5
481.795	2652.01
482.166	2708.73
482.537	2747.15
482.908	2774.26
483.279	2785.79
483.65	2825.34
484.021	2895.84
484.391	2931.32
484.762	2902.4
485.133	2949.63
485.503	2989.17
485.874	3066.01
486.244	3066.46
486.615	3077.98
486.985	3119.79
487.356	3200.69
487.726	3194.82
488.097	3288.6
488.467	3290.63
488.837	3355.04
489.207	3356.85
489.578	3397.3
489.948	3437.3
490.318	3462.61
490.688	3440.91
491.058	3531.53
491.428	3549.61
491.798	3599.55
492.168	3694.47
492.538	3671.41
492.908	3683.39
493.278	3746.44
493.648	3723.84
494.017	3783.05
494.387	3840.22
494.757	3841.58
495.126	3857.17
495.496	3925.87
495.866	3871.86
496.235	3931.07
496.605	3983.72
496.974	3993.44
497.344	3986.89
497.713	4033.44
498.082	4046.09
498.452	4082.7
498.821	4100.56
499.19	4129.48
499.559	4199.08
499.928	4167.67
500.298	4186.43
500.667	4239.76
501.036	4210.38
501.405	4262.59
501.774	4273.43
502.143	4299.42
502.512	4302.58
502.88	4345.52
503.249	4352.07
503.618	4371.74
503.987	4402.24
504.356	4381.23
504.724	4428.46
505.093	4432.52
505.462	4462.13
505.83	4493.09
506.199	4512.3
506.567	4519.75
506.936	4502.81
507.304	4593.65
507.672	4596.36
508.041	4611.28
508.409	4616.02
508.777	4653.08
509.145	4675.46
509.514	4694.44
509.882	4694.89
510.25	4697.38
510.618	4746.41
510.986	4754.55
511.354	4780.76
511.722	4795
512.09	4801.55
512.458	4836.36
512.826	4873.42
513.193	4887.2
513.561	4891.72
513.929	4952.29
514.297	4999.06
514.664	4957.03
515.032	4961.55
515.4	5027.76
515.767	4984.15
516.135	5061.21
516.502	4999.97
516.869	5070.02
517.237	5073.41
517.604	5027.09
517.972	5084.03
518.339	5099.4
518.706	5071.6
519.073	5136.24
519.44	5134.2
519.808	5178.04
520.175	5149.79
520.542	5237.93
520.909	5213.75
521.276	5226.4
521.643	5303.24
522.009	5334.87
522.376	5343.01
522.743	5352.95
523.11	5345.27
523.477	5428.43
523.843	5459.84
524.21	5512.5
524.577	5520.63
524.943	5495.1
525.31	5589.56
525.676	5634.3
526.043	5599.95
526.409	5608.76
526.776	5710.46
527.142	5676.11
527.508	5717.46
527.874	5740.74
528.241	5787.07
528.607	5759.27
528.973	5821.87
529.339	5837.01
529.705	5907.97
530.071	5960.17
530.437	5963.33
530.803	6002.2
531.169	6023.9
531.535	6007.17
531.901	6026.38
532.267	6108.41
532.632	6119.26
532.998	6149.54
533.364	6156.1
533.73	6167.85
534.095	6190.22
534.461	6233.38
534.826	6281.74
535.192	6276.32
535.557	6336.43
535.923	6344.34
536.288	6312.48
536.653	6413.26
537.019	6342.76
537.384	6423.66
537.749	6440.61
538.114	6434.73
538.479	6509.53
538.845	6589.08
539.21	6521.06
539.575	6553.15
539.94	6585.91
540.305	6625.91
540.67	6633.14
541.034	6669.53
541.399	6666.36
541.764	6701.17
542.129	6773.71
542.494	6765.12
542.858	6790.43
543.223	6854.83
543.587	6914.72
543.952	6876.98
544.316	6888.51
544.681	6889.41
545.045	6967.37
545.41	6959.92
545.774	6983.19
546.138	7068.61
546.503	7047.15
546.867	7067.26
547.231	7128.05
547.595	7129.63
547.959	7089.18
548.324	7175.05
548.688	7211.66
549.052	7192.23
549.416	7253.92
549.779	7286.46
550.143	7281.04
550.507	7298.21
550.871	7318.55
551.235	7363.3
551.599	7399.23
551.962	7458.66
552.326	7404.42
552.689	7519.9
553.053	7370.75
553.417	7516.74
553.78	7521.03
554.143	7538.43
554.507	7536.17
554.87	7671.76
555.234	7674.7
555.597	7623.63
555.96	7658.43
556.323	7678.99
556.686	7718.54
557.05	7761.7
557.413	7785.43
557.776	7798.09
558.139	7843.28
558.502	7843.96
558.865	7861.59
559.228	7904.98
559.59	7933.68
559.953	7978.65
560.316	8062.71
560.679	8027.46
561.041	8094.12
561.404	8084.63
561.767	8178.19
562.129	8062.71
562.492	8224.06
562.854	8186.78
563.217	8207.57
563.579	8191.75
563.941	8288.47
564.304	8320.11
564.666	8365.08
565.028	8362.14
565.39	8336.83
565.753	8383.61
566.115	8424.51
566.477	8461.57
566.839	8448.01
567.201	8550.61
567.563	8593.09
567.925	8549.93
568.287	8652.98
568.648	8663.6
569.01	8661.79
569.372	8769.81
569.734	8683.03
570.095	8755.8
570.457	8812.75
570.819	8882.13
571.18	8840.32
571.542	8923.03
571.903	8972.52
572.265	8941.78
572.626	8998.96
572.987	9080.99
573.349	9126.64
573.71	9193.98
574.071	9197.15
574.432	9298.39
574.794	9393.07
575.155	9390.13
575.516	9387.87
575.877	9534.54
576.238	9633.07
576.599	9663.12
576.96	9742.44
577.32	9787.19
577.681	9888.2
578.042	9983.57
578.403	10035.99
578.763	10084.13
579.124	10225.82
579.485	10361.86
579.845	10479.37
580.206	10522.99
580.566	10607.73
580.927	10781.74
581.287	10888.85
581.648	10958.68
582.008	11116.19
582.368	11263.53
582.728	11433.24
583.089	11567.7
583.449	11673.01
583.809	11860.58
584.169	12065.09
584.529	12169.72
584.889	12450.39
585.249	12543.5
585.609	12745.98
585.969	12958.63
586.329	13208.11
586.688	13433.19
587.048	13664.37
587.408	13757.93
587.768	14064.14
588.127	14222.78
588.487	14493.28
588.846	14808.3
589.206	14961.74
589.565	15190.43
589.925	15498.45
590.284	15745.22
590.643	15978.44
591.003	16257.3
591.362	16547.01
591.721	16759.66
592.08	17048.92
592.44	17398.06
592.799	17573.42
593.158	17763.93
593.517	18170.47
593.876	18513.28
594.235	18690.45
594.593	18983.33
594.952	19316.43
595.311	19564.1
595.67	19818.79
596.029	20277.31
596.387	20525.66
596.746	20751.87
597.104	21093.78
597.463	21283.38
597.822	21604.05
598.18	21837.04
598.538	22328.33
598.897	22571.71
599.255	22691.03
599.613	23289.2
599.972	23429.77
600.33	23705.69
600.688	23839.25
601.046	24306.8
601.404	24653.01
601.762	24783.4
602.12	25227.01
602.478	25467.68
602.836	25708.35
603.194	25870.61
603.552	26110.82
603.91	26363.25
604.268	26683.92
604.625	26909
604.983	27111.48
605.341	27294.97
605.698	27691.35
606.056	27948.06
606.413	28307.6
606.771	28469.41
607.128	28715.05
607.485	28682.28
607.843	29015.61
608.2	29414.92
608.557	29703.72
608.914	29824.63
609.272	30051.29
609.629	30455.8
609.986	30633.42
610.343	30657.6
610.7	31086.51
611.057	31214.19
611.414	31376.9
611.771	31685.59
612.127	31851.24
612.484	31946.38
612.841	32327.16
613.198	32245.13
613.554	32581.39
613.911	32792.46
614.267	32988.84
614.624	33133.01
614.98	33413.01
615.337	33640.34
615.693	33695.26
616.05	33712.88
616.406	34052.54
616.762	34088.69
617.118	34126.66
617.475	34274.45
617.831	34620.43
618.187	34740.2
618.543	34903.36
618.899	35299.51
619.255	35144.26
619.611	35361.65
619.967	35549.67
620.323	35617.69
620.678	35559.16
621.034	35788.31
621.39	35883.45
621.746	35946.95
622.101	36353.72
622.457	36224.01
622.812	36116.21
623.168	36482.08
623.523	36517.1
623.879	36694.05
624.234	36546.03
624.589	36730.21
624.945	36836.87
625.3	36960.93
625.655	37063.31
626.01	37166.35
626.365	37225.56
626.72	37192.12
627.075	37259.68
627.43	37345.56
627.785	37389.62
628.14	37420.81
628.495	37475.72
628.85	37525.44
629.205	37468.49
629.559	37794.81
629.914	37661.48
630.269	37723.63
630.623	37737.19
630.978	37680.46
631.332	37805.43
631.687	37985.77
632.041	37792.78
632.396	37948.71
632.75	37762.72
633.104	37925.43
633.459	37897.86
633.813	37904.19
634.167	37994.35
634.521	38050.17
634.875	38021.92
635.229	38051.75
635.583	37957.52
635.937	37858.76
636.291	38014.01
636.645	37938.76
636.999	37886.33
637.352	38029.83
637.706	37819.67
638.06	38096.5
638.413	38113.22
638.767	37893.79
639.121	37980.12
639.474	37854.92
639.828	37852.89
640.181	37962.49
640.534	37993.45
640.888	37928.82
641.241	37729.95
641.594	37872.55
641.947	37886.79
642.301	37736.96
642.654	37884.07
643.007	37899.22
643.36	37887.92
643.713	37727.47
644.066	37974.92
644.419	37721.37
644.771	37579.68
645.124	37227.14
645.477	37299.68
645.83	36837.55
646.182	36975.62
646.535	36889.52
646.888	36847.27
647.24	36685.46
647.593	36882.07
647.945	36738.12
648.298	36653.37
648.65	36593.94
649.002	36427.39
649.355	36659.25
649.707	36504.45
650.059	36619.47
650.411	37090.88
650.763	37176.75
651.115	37682.72
651.467	37476.85
651.819	37484.09
652.171	37409.51
652.523	37395.73
652.875	37416.29
653.227	37219.01
653.578	37447.7
653.93	37343.98
654.282	37193.02
654.633	37139.69
654.985	37150.76
655.337	37144.66
655.688	37270.76
656.039	37397.99
656.391	37068.73
656.742	37175.84
657.094	37206.35
657.445	37444.09
657.796	37139.01
658.147	37119.57
658.498	37146.01
658.849	37202.51
659.2	37187.37
659.551	37071.21
659.902	37315.5
660.253	37187.14
660.604	37181.04
660.955	37059.24
661.306	37217.2
661.656	37070.76
662.007	37027.15
662.358	37067.37
662.708	37080.48
663.059	37130.42
663.409	36882.74
663.76	37159.8
664.11	37059.01
664.461	37068.5
664.811	37038.22
665.161	37004.55
665.511	37006.81
665.862	37111.89
666.212	37139.24
666.562	37117.54
666.912	36955.96
667.262	36915.96
667.612	36847.49
667.962	36958
668.312	36901.28
668.662	37017.88
669.011	36816.98
669.361	36886.36
669.711	36877.77
670.06	36811.11
670.41	36777.66
670.76	36816.08
671.109	37014.94
671.459	36895.17
671.808	36861.5
672.157	36920.71
672.507	36766.59
672.856	36686.82
673.205	36718.46
673.554	36782.41
673.904	36739.92
674.253	36863.76
674.602	36642.75
674.951	36302.87
675.3	36041.41
675.649	36594.62
675.998	36633.49
676.346	36645.91
676.695	36682.07
677.044	36440.27
677.393	36525.69
677.741	36639.59
678.09	36459.48
678.438	36541.28
678.787	36463.77
679.135	36481.85
679.484	36286.38
679.832	36423.77
680.181	36112.82
680.529	36285.02
680.877	36272.37
681.225	36325.02
681.573	36388.07
681.922	36057.23
682.27	35974.75
682.618	36028.53
682.966	35894.07
683.314	36020.62
683.661	35877.35
684.009	35766.62
684.357	35720.06
684.705	35731.81
685.053	35578.37
685.4	35566.62
685.748	35396.46
686.095	35448.43
686.443	35448.21
686.79	35330.47
687.138	35409.34
687.485	35309.23
687.832	35225.16
688.18	35165.73
688.527	35011.16
688.874	35078.72
689.221	34965.06
689.568	34978.61
689.915	34892.29
690.262	34781.33
690.609	34735.46
690.956	34552.18
691.303	34730.71
691.65	34504.5
691.997	34526.65
692.344	34247.79
692.69	34237.62
693.037	34183.83
693.383	33982.03
693.73	34168.01
694.077	33894.8
694.423	33824.75
694.769	33806.89
695.116	33776.61
695.462	33761.02
695.808	33514.25
696.155	33702.94
696.501	33369.62
696.847	33376.85
697.193	33220.92
697.539	33220.24
697.885	33076.97
698.231	32876.07
698.577	33033.13
698.923	32914.04
699.269	32642.4
699.614	32583.87
699.96	32527.38
700.306	32502.97
700.651	32426.14
700.997	32406.93
701.342	32285.8
701.688	32229.99
702.033	32113.15
702.379	31983.89
702.724	32061.85
703.069	32100.05
703.415	31558.37
703.76	31686.5
704.105	31774.18
704.45	31551.36
704.795	31550.68
705.14	31397.92
705.485	31368.54
705.83	31323.57
706.175	31334.87
706.52	31209.45
706.865	31159.51
707.209	31078.15
707.554	30791.83
707.899	31062.56
708.243	30715.68
708.588	30773.75
708.932	30507.09
709.277	30526.75
709.621	30625.28
709.966	30405.63
710.31	30474.78
710.654	30264.61
710.998	30281.56
711.342	30333.09
711.687	30148.46
712.031	30004.06
712.375	29922.7
712.719	29939.88
713.063	29902.36
713.407	30018.97
713.75	29826.89
714.094	29823.95
714.438	29659.88
714.782	29646.78
715.125	29567.23
715.469	29607.68
715.812	29378.76
716.156	29143.29
716.499	29239.1
716.843	29219.22
717.186	29176.51
717.53	29368.59
717.873	29346.67
718.216	29131.54
718.559	29106
718.902	29005.21
719.246	28981.48
719.589	28864.42
719.932	28675.5
720.275	28759.34
720.617	28777.2
720.96	28699.01
721.303	28748.27
721.646	28628.27
721.989	28411.33
722.331	28665.33
722.674	28523.64
723.016	28423.08
723.359	28380.82
723.701	28445.9
724.044	28190.32
724.386	28229.41
724.729	28191.22
725.071	28199.81
725.413	28121.85
725.755	28094.05
726.097	28072.58
726.439	27805.24
726.782	27926.14
727.124	27954.84
727.465	27803.89
727.807	27679.6
728.149	27821.29
728.491	27600.73
728.833	27680.05
729.175	27544.46
729.516	27494.74
729.858	27436.44
730.199	27469.89
730.541	27513.05
730.882	27305.37
731.224	27537
731.565	27210.23
731.906	27306.5
732.248	27196.9
732.589	27191.25
732.93	27064.7
733.271	27033.96
733.612	27066.28
733.953	27157.58
734.294	26923.91
734.635	26916.23
734.976	27011.82
735.317	26765.27
735.658	26767.53
735.999	26861.54
736.339	26708.1
736.68	26824.03
737.021	26670.81
737.361	26539.97
737.702	26737.93
738.042	26588.1
738.383	26585.16
738.723	26546.07
739.063	26548.55
739.404	26449.35
739.744	26440.76
740.084	26372.74
740.424	26478.95
740.764	26346.75
741.104	26416.81
741.444	26168.22
741.784	26123.48
742.124	26180.65
742.464	26183.14
742.804	26016.59
743.143	25979.98
743.483	26028.12
743.823	25911.96
744.162	25844.84
744.502	25958.74
744.841	25804.62
745.181	26035.35
745.52	25734.11
745.86	25858.85
746.199	25719.87
746.538	25704.06
746.877	25679.2
747.216	25787.44
747.556	25622.48
747.895	25540.9
748.234	25415.02
748.573	25380.45
748.911	25457.28
749.25	25306.55
749.589	25239.89
749.928	25330.05
750.267	25273.78
750.605	25131.64
750.944	25169.15
751.283	25087.12
751.621	25107.24
751.96	25026.11
752.298	25008.48
752.636	25014.81
752.975	24820.69
753.313	24736.62
753.651	24953.12
753.989	24721.03
754.327	24638.77
754.666	24565.55
755.004	24562.84
755.342	24625.89
755.679	24469.51
756.017	24377.99
756.355	24450.98
756.693	24342.06
757.031	24414.82
757.368	24222.96
757.706	24240.14
758.044	24144.32
758.381	24089.41
758.719	23996.3
759.056	24087.6
759.394	23898.91
759.731	23815.07
760.068	23720.83
760.405	23657.56
760.743	23624.11
761.08	23643.54
761.417	23551.8
761.754	23367.39
762.091	23498.46
762.428	23410.56
762.765	23217.79
763.102	23315.42
763.438	23170.11
763.775	22975.77
764.112	22953.62
764.449	22931.7
764.785	22905.03
765.122	22816
765.458	22760.86
765.795	22635.66
766.131	22656
766.467	22538.49
766.804	22390.7
767.14	22249.91
767.476	22307.08
767.812	22131.49
768.148	22171.04
768.485	22166.3
768.821	21983.7
769.157	21941.67
769.492	21857.15
769.828	21852.86
770.164	21671.85
770.5	21602.24
770.836	21669.13
771.171	21455.13
771.507	21372.87
771.842	21265.75
772.178	21244.06
772.513	21218.3
772.849	21148.92
773.184	21000.68
773.519	21011.52
773.855	20966.78
774.19	20788.7
774.525	20766.78
774.86	20821.25
775.195	20739.67
775.53	20585.55
775.865	20503.29
776.2	20302.84
776.535	20200.02
776.87	20338.1
777.205	20186.01
777.539	20070.53
777.874	20077.31
778.209	20032.79
778.543	19927.94
778.878	19819.46
779.212	19823.08
779.547	19673.25
779.881	19706.7
780.215	19506.25
780.55	19583.99
780.884	19432.58
781.218	19334.28
781.552	19424.67
781.886	19270.78
782.22	19097
782.554	19118.92
782.888	18953.27
783.222	18817.01
783.556	18810.23
783.889	18835.76
784.223	18635.32
784.557	18590.12
784.89	18562.1
785.224	18476.9
785.557	18344.48
785.891	18377.24
786.224	18311.71
786.558	18282.56
786.891	18121.43
787.224	18002.56
787.557	17982.9
787.891	17916.24
788.224	17981.77
788.557	17883.24
788.89	17812.29
789.223	17851.38
789.556	17572.52
789.888	17586.76
790.221	17636.02
790.554	17423.14
790.887	17448.23
791.219	17414.78
791.552	17324.84
791.884	17288.23
792.217	17228.35
792.549	17263.15
792.882	17012.76
793.214	16872.42
793.546	17048.01
793.879	16883.72
794.211	16771.64
794.543	16857.51
794.875	16781.13
795.207	16780.67
795.539	16595.82
795.871	16633.56
796.203	16419.55
796.535	16447.35
796.867	16386.79
797.198	16362.15
797.53	16395.37
797.862	16294.13
798.193	16231.76
798.525	16140.92
798.856	16134.59
799.188	15936.85
799.519	15991.32
799.85	15805.56
800.182	15900.47
800.513	15772.57
800.844	15772.34
801.175	15742.28
801.506	15765.11
801.837	15649.18
802.168	15620.93
802.499	15484.44
802.83	15435.63
803.161	15463.87
803.491	15432.91
803.822	15318.79
804.153	15313.14
804.483	15202.41
804.814	15199.25
805.145	15162.19
805.475	15053.04
805.805	15037.44
806.136	15061.4
806.466	15014.62
806.796	14999.03
807.126	14883.32
807.457	14834.74
807.787	14786.6
808.117	14770.56
808.447	14695.31
808.777	14749.32
809.107	14614.63
809.436	14649.88
809.766	14651.01
810.096	14462.77
810.426	14510.23
810.755	14498.25
811.085	14547.74
811.414	14480.4
811.744	14343.68
812.073	14379.61
812.403	14311.59
812.732	14203.34
813.061	14250.57
813.39	14130.8
813.719	14054.87
814.049	14151.14
814.378	14109.56
814.707	14027.75
815.036	14005.15
815.365	13948.88
815.693	13813.29
816.022	13807.87
816.351	13852.39
816.68	13726.97
817.008	13808.32
817.337	13666.18
817.665	13657.14
817.994	13606.97
818.322	13569.46
818.651	13518.39
818.979	13520.65
819.307	13554.09
819.636	13497.82
819.964	13380.76
820.292	13515.45
820.62	13413.53
820.948	13366.3
821.276	13487.65
821.604	13328.11
821.932	13416.24
822.259	13427.99
822.587	13332.4
822.915	13324.72
823.243	13408.79
823.57	13312.52
823.898	13442.46
824.225	13291.5
824.553	13286.98
824.88	13319.3
825.207	13345.51
825.535	13307.32
825.862	13308.22
826.189	13292.86
826.516	13282.91
826.843	13353.19
827.17	13310.71
827.497	13385.28
827.824	13276.36
828.151	13350.26
828.478	13383.02
828.805	13324.04
829.131	13196.81
829.458	13331.27
829.785	13155.69
830.111	13275
830.438	13299.86
830.764	13227.77
831.09	13284.5
831.417	13138.96
831.743	13224.38
832.069	13251.95
832.395	13164.27
832.722	13245.4
833.048	13216.7
833.374	13140.32
833.7	13131.05
834.026	13208.57
834.351	13136.7
834.677	13157.94
835.003	13138.28
835.329	13132.63
835.654	13103.03
835.98	13039.08
836.306	13037.72
836.631	12996.59
836.956	13077.5
837.282	13046.54
837.607	12923.37
837.932	12953.66
838.258	12979.64
838.583	12917.27
838.908	12857.39
839.233	12927.22
839.558	12917.27
839.883	12891.29
840.208	12762.25
840.533	12785.3
840.858	12721.12
841.182	12781.23
841.507	12722.48
841.832	12658.98
842.156	12626.43
842.481	12646.55
842.805	12644.96
843.13	12533.78
843.454	12512.31
843.778	12515.25
844.103	12538.98
844.427	12470.51
844.751	12487
845.075	12385.31
845.399	12388.93
845.723	12310.51
846.047	12277.29
846.371	12176.5
846.695	12186.9
847.019	12028.71
847.343	12081.14
847.666	11951.88
847.99	12004.98
848.313	12018.31
848.637	11898.09
848.96	11871.65
849.284	11802.95
849.607	11705.55
849.931	11738.1
850.254	11570.42
850.577	11522.51
850.9	11503.07
851.223	11514.15
851.546	11409.29
851.869	11355.96
852.192	11341.27
852.515	11326.58
852.838	11249.75
853.161	11204.32
853.483	11217.43
853.806	11097.43
854.129	11146.92
854.451	11021.28
854.774	11019.47
855.096	11030.54
855.419	10943.09
855.741	10977.44
856.063	10889.3
856.385	10879.13
856.708	10749.65
857.03	10791
857.352	10773.37
857.674	10765.92
857.996	10770.44
858.318	10656.32
858.64	10663.1
858.961	10657.22
859.283	10589.42
859.605	10424.23
859.926	10553.95
860.248	10534.96
860.57	10449.32
860.891	10485.7
861.212	10400.73
861.534	10358.7
861.855	10376.1
862.176	10333.61
862.498	10392.14
862.819	10322.99
863.14	10240.51
863.461	10256.33
863.782	10259.26
864.103	10235.99
864.424	10210.9
864.745	10226.72
865.065	10077.8
865.386	10095.2
865.707	10083.68
866.027	10130.23
866.348	10043.22
866.668	10056.56
866.989	10068.76
867.309	10025.82
867.63	9941.31
867.95	9982.66
868.27	9913.51
868.59	9963.45
868.91	9963
869.23	9952.61
869.55	9845.72
869.87	9862.66
870.19	9852.95
870.51	9944.47
870.83	9862.89
871.15	9828.54
871.469	9821.54
871.789	9887.75
872.109	9866.51
872.428	9808.2
872.748	9806.17
873.067	9804.13
873.386	9763.01
873.706	9759.84
874.025	9720.97
874.344	9665.61
874.663	9660.41
874.982	9658.38
875.301	9663.35
875.62	9645.95
875.939	9557.59
876.258	9564.82
876.577	9592.39
876.896	9608.89
877.214	9555.33
877.533	9490.24
877.852	9560.75
878.17	9505.39
878.489	9522.56
878.807	9474.2
879.125	9498.61
879.444	9387.65
879.762	9426.52
880.08	9419.96
880.398	9397.82
880.716	9394.88
881.034	9367.99
881.352	9328.89
881.67	9324.15
881.988	9298.16
882.306	9259.52
882.624	9306.07
882.941	9185.39
883.259	9128.45
883.577	9075.79
883.894	9123.25
884.212	9065.62
884.529	9149.69
884.846	9089.35
885.164	9051.39
885.481	9050.03
885.798	9051.84
886.115	8944.95
886.432	8934.33
886.75	8985.4
887.067	8954.89
887.383	8927.1
887.7	8901.56
888.017	8911.95
888.334	8845.29
888.651	8753.99
888.967	8826.31
889.284	8746.31
889.6	8683.26
889.917	8664.96
890.233	8724.39
890.55	8612.53
890.866	8687.55
891.182	8648.01
891.498	8562.81
891.815	8529.59
892.131	8528.01
892.447	8564.17
892.763	8463.15
893.079	8561.46
893.395	8469.03
893.71	8454.11
894.026	8404.4
894.342	8417.05
894.657	8417.28
894.973	8314.91
895.289	8306.77
895.604	8327.34
895.92	8247.34
896.235	8201.92
896.55	8242.82
896.865	8158.08
897.181	8140.22
897.496	8156.95
897.811	8067.68
898.126	8079.43
898.441	8072.2
898.756	8056.16
899.071	8016.39
899.386	7959.66
899.7	7932.55
900.015	7864.3
900.33	7896.16
900.644	7820.91
900.959	7829.27
901.273	7789.72
901.588	7776.39
901.902	7723.74
902.216	7693.91
902.531	7650.97
902.845	7624.98
903.159	7559.67
903.473	7536.17
903.787	7553.57
904.101	7486.23
904.415	7483.74
904.729	7472.9
905.042	7454.14
905.356	7369.17
905.67	7419.79
905.984	7420.24
906.297	7318.78
906.611	7264.31
906.924	7274.26
907.237	7206.46
907.551	7260.92
907.864	7172.57
908.177	7156.75
908.491	7166.69
908.804	7164.43
909.117	7071.1
909.43	7026.58
909.743	6969.63
910.056	7022.74
910.368	7015.96
910.681	6941.39
910.994	6988.62
911.307	6890.77
911.619	6847.15
911.932	6856.87
912.244	6776.64
912.557	6807.83
912.869	6748.4
913.181	6732.35
913.494	6700.94
913.806	6734.84
914.118	6657.78
914.43	6622.98
914.742	6623.2
915.054	6545.46
915.366	6530.32
915.678	6565.35
915.99	6454.39
916.302	6474.96
916.613	6401.74
916.925	6409.87
917.236	6425.01
917.548	6376.65
917.859	6403.77
918.171	6278.35
918.482	6276.77
918.794	6270.44
919.105	6266.83
919.416	6176.66
919.727	6190.67
920.038	6205.59
920.349	6157.45
920.66	6120.62
920.971	6062.31
921.282	6039.94
921.593	6001.3
921.903	5958.13
922.214	5957.91
922.525	5957.46
922.835	5940.06
923.146	5925.14
923.456	5896.44
923.767	5824.35
924.077	5851.92
924.387	5817.12
924.697	5774.64
925.008	5799.04
925.318	5738.71
925.628	5759.5
925.938	5668.42
926.248	5649.89
926.558	5601.99
926.867	5622.32
927.177	5596.56
927.487	5523.12
927.796	5518.15
928.106	5523.12
928.416	5442.67
928.725	5536
929.034	5487.64
929.344	5417.81
929.653	5421.88
929.962	5340.3
930.271	5313.86
930.581	5293.97
930.89	5326.51
931.199	5245.84
931.508	5280.86
931.817	5227.53
932.125	5220.07
932.434	5208.32
932.743	5164.26
933.051	5175.78
933.36	5185.73
933.669	5053.07
933.977	5057.14
934.286	5029.8
934.594	5044.71
934.902	5050.14
935.21	4987.54
935.519	4948.44
935.827	5006.29
936.135	4917.94
936.443	4918.16
936.751	4893.98
937.059	4828.45
937.367	4826.19
937.674	4842.23
937.982	4844.94
938.29	4768.79
938.597	4767.43
938.905	4710.94
939.213	4732.86
939.52	4698.28
939.827	4694.66
940.135	4658.06
940.442	4629.13
940.749	4611.73
941.056	4585.29
941.363	4589.13
941.67	4567.44
941.977	4512.75
942.284	4501.22
942.591	4528.34
942.898	4447.44
943.205	4476.82
943.511	4477.5
943.818	4445.18
944.125	4401.11
944.431	4408.8
944.738	4398.85
945.044	4369.25
945.35	4337.39
945.657	4293.55
945.963	4271.4
946.269	4291.06
946.575	4280.66
946.881	4228.91
947.187	4256.71
947.493	4203.15
947.799	4237.73
948.105	4201.8
948.41	4160.89
948.716	4162.02
949.022	4106.43
949.327	4102.82
949.633	4083.38
949.938	4061.01
950.244	4080.22
950.549	4022.59
950.854	4033.21
951.16	3978.75
951.465	3990.73
951.77	3968.58
952.075	3915.93
952.38	3944.85
952.685	3920.22
952.99	3862.37
953.294	3903.95
953.599	3895.14
953.904	3857.62
954.209	3828.02
954.513	3827.57
954.818	3828.92
955.122	3796.84
955.426	3796.38
955.731	3760
956.035	3747.12
956.339	3739.66
956.643	3714.13
956.948	3678.19
957.252	3646.78
957.556	3666.67
957.86	3602.49
958.163	3625.99
958.467	3599.55
958.771	3605.88
959.075	3603.85
959.378	3553.9
959.682	3568.59
959.985	3525.66
960.289	3513.9
960.592	3509.84
960.896	3468.48
961.199	3483.62
961.502	3489.95
961.805	3468.03
962.108	3392.55
962.411	3418.09
962.714	3378.99
963.017	3396.85
963.32	3367.02
963.623	3381.48
963.926	3357.07
964.228	3348.71
964.531	3320.92
964.833	3321.59
965.136	3283.4
965.438	3270.3
965.741	3259.22
966.043	3249.28
966.345	3233.69
966.648	3203.63
966.95	3206.57
967.252	3199.56
967.554	3126.57
967.856	3140.36
968.158	3123.18
968.46	3130.41
968.761	3111.2
969.063	3125.89
969.365	3063.07
969.666	3085.89
969.968	3081.6
970.269	3042.96
970.571	3022.39
970.872	3055.16
971.174	2996.63
971.475	3005.44
971.776	3024.88
972.077	2960.92
972.378	2973.58
972.679	2976.97
972.98	2921.15
973.281	2921.15
973.582	2920.93
973.883	2905.11
974.183	2875.28
974.484	2879.35
974.785	2861.04
975.085	2861.27
975.386	2836.41
975.686	2813.13
975.986	2814.49
976.287	2782.85
976.587	2769.29
976.887	2760.48
977.187	2774.04
977.487	2755.51
977.787	2731.1
978.087	2758.67
978.387	2704.21
978.687	2711.89
978.987	2711.21
979.286	2694.27
979.586	2676.64
979.885	2657.2
980.185	2656.3
980.484	2631.67
980.784	2623.53
981.083	2667.6
981.382	2606.81
981.682	2576.75
981.981	2545.12
982.28	2571.33
982.579	2551.22
982.878	2552.12
983.177	2531.11
983.475	2506.02
983.774	2525
984.073	2483.88
984.372	2482.29
984.67	2493.14
984.969	2480.71
985.267	2482.97
985.566	2451.56
985.864	2440.26
986.162	2405.91
986.461	2388.06
986.759	2390.54
987.057	2397.1
987.355	2378.12
987.653	2347.61
987.951	2374.73
988.249	2370.43
988.547	2353.94
988.844	2303.99
989.142	2352.81
989.44	2329.76
989.737	2308.74
990.035	2295.18
990.332	2251.79
990.63	2238.46
990.927	2283.2
991.224	2212.24
991.521	2230.55
991.819	2227.16
992.116	2238.68
992.413	2182.41
992.71	2203.66
993.006	2197.33
993.303	2184.9
993.6	2142.64
993.897	2155.52
994.193	2153.71
994.49	2145.81
994.787	2108.52
995.083	2095.41
995.379	2101.06
995.676	2106.71
995.972	2091.12
996.268	2081.17
996.565	2027.39
996.861	2062.64
997.157	2074.85
997.453	2035.98
997.749	2040.95
998.044	2011.57
998.34	2031.68
998.636	1998.01
998.932	2002.53
999.227	1998.24
999.523	1960.05
999.818	1962.76
1000.114	1954.85
1000.409	1925.7
1000.704	1923.21
1001	1917.79
1001.295	1886.15
1001.59	1894.74
1001.885	1912.82
1002.18	1867.17
1002.475	1825.36
1002.77	1857.23
1003.065	1852.03
1003.359	1838.69
1003.654	1845.02
1003.949	1788.53
1004.243	1815.64
1004.538	1796.21
1004.832	1765.7
1005.127	1768.19
1005.421	1760.5
1005.715	1752.82
1006.009	1737.45
1006.304	1743.33
1006.598	1742.43
1006.892	1699.04
1007.186	1741.3
1007.48	1722.99
1007.773	1676.66
1008.067	1701.3
1008.361	1685.48
1008.655	1675.08
1008.948	1693.39
1009.242	1644.35
1009.535	1640.06
1009.829	1629.66
1010.122	1614.97
1010.415	1597.57
1010.708	1605.48
1011.001	1570.23
1011.295	1601.19
1011.588	1537.69
1011.881	1584.24
1012.173	1552.37
1012.466	1570.23
1012.759	1540.85
1013.052	1530.91
1013.344	1510.57
1013.637	1537.46
1013.93	1536.33
1014.222	1471.92
1014.514	1503.56
1014.807	1487.97
1015.099	1479.16
1015.391	1484.13
1015.683	1482.09
1015.976	1451.13
1016.268	1473.05
1016.56	1443.22
1016.851	1427.41
1017.143	1433.06
1017.435	1415.2
1017.727	1427.86
1018.018	1393.96
1018.31	1409.33
1018.602	1357.8
1018.893	1328.88
1019.185	1364.13
1019.476	1355.32
1019.767	1337.92
1020.058	1346.73
1020.35	1319.39
1020.641	1304.25
1020.932	1307.64
1021.223	1284.58
1021.514	1283.68
1021.804	1255.21
1022.095	1271.93
1022.386	1272.83
1022.677	1268.54
1022.967	1267.86
1023.258	1252.72
1023.548	1235.55
1023.839	1209.11
1024.129	1191.48
1024.419	1231.48
1024.709	1182.89
1025	1216.79
1025.29	1176.11
1025.58	1172.95
1025.87	1170.46
1026.16	1145.38
1026.449	1150.13
1026.739	1149.22
1027.029	1156.9
1027.319	1156.45
1027.608	1141.31
1027.898	1115.32
1028.187	1110.13
1028.477	1102.44
1028.766	1101.54
1029.055	1103.57
1029.344	1092.05
1029.634	1104.02
1029.923	1056.79
1030.212	1085.27
1030.501	1102.67
1030.79	1028.77
1031.078	1042.78
1031.367	1037.36
1031.656	1050.24
1031.945	1021.99
1032.233	1020.86
1032.522	1000.75
1032.81	1025.38
1033.099	1012.05
1033.387	982.45
1033.675	979.51
1033.963	1005.95
1034.251	973.18
1034.54	978.83
1034.828	961.88
1035.116	943.12
1035.403	963.46
1035.691	953.29
1035.979	951.71
1036.267	966.63
1036.554	931.15
1036.842	930.7
1037.129	904.48
1037.417	890.92
1037.704	925.5
1037.992	916.46
1038.279	893.63
1038.566	882.11
1038.853	882.11
1039.14	882.11
