Data from hue_20_FLMS001491_47.txt Node
Date: Mon Feb 06 15:34:11 GMT 2017
User: dcchb
Spectrometer: FLMS00149
Trigger mode: 0
Integration Time (sec): 2.000000E-2
Scans to average: 10
Electric dark correction enabled: true
Nonlinearity correction enabled: false
Boxcar width: 0
XAxis mode: Wavelengths
Number of Pixels in Spectrum: 2048
>>>>>Begin Spectral Data<<<<<
341.393	-2.23
341.776	-2.23
342.16	-2.23
342.543	-52.85
342.927	-66.86
343.31	-75.45
343.693	-61.44
344.077	-57.37
344.46	-67.54
344.843	-46.07
345.226	-37.03
345.61	-39.29
345.993	3.87
346.376	5.68
346.759	23.98
347.142	29.63
347.525	12.01
347.908	65.11
348.291	46.58
348.674	78.9
349.057	118.44
349.44	136.07
349.823	135.39
350.206	181.94
350.588	193.7
350.971	204.09
351.354	218.33
351.737	249.06
352.119	251.55
352.502	266.01
352.884	275.28
353.267	294.03
353.65	322.05
354.032	302.39
354.414	280.25
354.797	320.47
355.179	335.61
355.562	326.12
355.944	322.51
356.326	337.42
356.709	329.96
357.091	348.72
357.473	345.56
357.855	364.09
358.238	345.56
358.62	355.73
359.002	357.08
359.384	355.05
359.766	347.59
360.148	365.22
360.53	356.86
360.912	370.19
361.294	327.93
361.676	341.49
362.057	338.78
362.439	335.61
362.821	349.4
363.203	330.87
363.584	345.33
363.966	342.17
364.348	343.07
364.729	327.03
365.111	332.67
365.493	334.71
365.874	328.38
366.256	322.73
366.637	323.86
367.019	334.03
367.4	324.99
367.781	329.74
368.163	328.83
368.544	329.29
368.925	324.31
369.306	315.73
369.688	307.36
370.069	322.96
370.45	327.7
370.831	329.74
371.212	319.12
371.593	325.9
371.974	325.9
372.355	343.75
372.736	330.64
373.117	323.64
373.498	318.44
373.879	320.92
374.26	299.91
374.641	299
375.021	335.61
375.402	324.54
375.783	320.25
376.163	332
376.544	333.58
376.925	339.45
377.305	339.68
377.686	323.86
378.066	336.74
378.447	342.84
378.827	326.35
379.208	344.43
379.588	339.45
379.968	337.42
380.349	347.59
380.729	351.21
381.109	324.09
381.489	349.62
381.87	324.31
382.25	364.76
382.63	350.75
383.01	362.73
383.39	362.96
383.77	349.4
384.15	364.54
384.53	370.87
384.91	366.35
385.29	366.12
385.67	340.58
386.049	368.83
386.429	363.63
386.809	359.11
387.189	361.15
387.568	369.51
387.948	363.41
388.328	365.22
388.707	369.51
389.087	376.29
389.466	396.85
389.846	389.17
390.225	378.78
390.605	346.01
390.984	357.53
391.363	395.72
391.743	386.68
392.122	369.06
392.501	384.42
392.881	388.27
393.26	375.16
393.639	399.11
394.018	382.17
394.397	386.46
394.776	382.84
395.155	395.72
395.534	388.94
395.913	392.56
396.292	390.98
396.671	381.26
397.05	386.23
397.429	385.55
397.808	414.71
398.186	400.92
398.565	428.49
398.944	426.23
399.323	428.27
399.701	411.77
400.08	416.06
400.458	420.81
400.837	419.68
401.215	417.64
401.594	417.64
401.972	410.41
402.351	427.14
402.729	414.25
403.107	439.56
403.486	433.69
403.864	421.71
404.242	430.3
404.62	440.69
404.999	452.67
405.377	427.36
405.755	447.7
406.133	432.79
406.511	458.77
406.889	467.13
407.267	460.13
407.645	439.79
408.023	472.56
408.401	454.25
408.779	449.73
409.156	475.95
409.534	463.74
409.912	489.28
410.29	483.63
410.667	468.94
411.045	470.98
411.422	490.41
411.8	496.29
412.178	501.71
412.555	504.87
412.933	506.68
413.31	500.81
413.687	480.92
414.065	527.92
414.442	525.44
414.819	514.82
415.197	501.03
415.574	517.98
415.951	547.13
416.328	524.53
416.705	501.03
417.082	529.05
417.46	522.5
417.837	544.42
418.214	542.84
418.591	556.62
418.967	554.14
419.344	522.95
419.721	545.32
420.098	571.76
420.475	571.09
420.852	541.71
421.228	548.94
421.605	550.3
421.982	554.36
422.358	567.47
422.735	586.23
423.111	588.71
423.488	598.43
423.864	576.74
424.241	602.05
424.617	595.49
424.994	602.05
425.37	594.14
425.746	610.18
426.123	609.05
426.499	611.09
426.875	630.52
427.251	631.42
427.627	629.84
428.003	630.75
428.379	628.94
428.756	640.46
429.132	660.12
429.507	676.17
429.883	657.41
430.259	666.9
430.635	662.38
431.011	693.8
431.387	690.41
431.763	706
432.138	709.84
432.514	693.8
432.89	703.74
433.265	707.58
433.641	733.57
434.016	706.45
434.392	748.94
434.767	769.27
435.143	757.3
435.518	756.17
435.894	760.69
436.269	760.23
436.644	770.18
437.02	787.8
437.395	791.19
437.77	762.04
438.145	785.54
438.52	835.03
438.895	789.61
439.271	817.18
439.646	829.16
440.021	842.49
440.395	832.55
440.77	805.88
441.145	800.23
441.52	848.14
441.895	841.36
442.27	835.03
442.645	842.04
443.019	873.45
443.394	859.67
443.769	849.95
444.143	854.02
444.518	879.55
444.892	886.56
445.267	888.82
445.641	888.59
446.016	895.15
446.39	914.13
446.764	891.53
447.139	890.17
447.513	938.08
447.887	917.74
448.262	896.5
448.636	896.05
449.01	946.44
449.384	935.6
449.758	936.5
450.132	942.38
450.506	938.53
450.88	953.68
451.254	962.94
451.628	990.28
452.002	989.83
452.376	985.09
452.75	985.54
453.123	1005.88
453.497	1031.19
453.871	1029.83
454.244	1042.94
454.618	1030.74
454.992	1066.67
455.365	1070.06
455.739	1067.34
456.112	1086.33
456.486	1103.5
456.859	1111.64
457.232	1105.99
457.606	1115.48
457.979	1125.87
458.352	1157.74
458.725	1155.25
459.099	1177.17
459.472	1165.2
459.845	1195.93
460.218	1203.39
460.591	1221.92
460.964	1222.14
461.337	1231.18
461.71	1260.79
462.083	1308.24
462.456	1263.05
462.829	1298.3
463.201	1294.46
463.574	1294.68
463.947	1298.75
464.32	1336.49
464.692	1354.34
465.065	1381.91
465.438	1413.78
465.81	1379.43
466.183	1415.58
466.555	1443.15
466.928	1462.36
467.3	1463.94
467.672	1496.49
468.045	1517.5
468.417	1531.97
468.789	1529.48
469.161	1543.26
469.534	1587.33
469.906	1616.48
470.278	1618.52
470.65	1653.32
471.022	1673.43
471.394	1710.27
471.766	1732.19
472.138	1732.19
472.51	1775.57
472.882	1781.45
473.253	1800.88
473.625	1818.96
473.997	1905.51
474.369	1908.23
474.74	1900.77
475.112	1948
475.484	1970.37
475.855	2007.43
476.227	2029.13
476.598	2099.41
476.97	2128.56
477.341	2138.5
477.713	2191.16
478.084	2192.06
478.455	2233.19
478.827	2273.19
479.198	2313.87
479.569	2371.72
479.94	2410.36
480.311	2449.46
480.682	2517.48
481.053	2572.39
481.424	2632.95
481.795	2662.78
482.166	2704.59
482.537	2716.34
482.908	2773.97
483.279	2811.03
483.65	2881.31
484.021	2941.19
484.391	2972.15
484.762	2986.62
485.133	3018.48
485.503	3102.09
485.874	3160.85
486.244	3187.74
486.615	3245.59
486.985	3260.51
487.356	3352.71
487.726	3390.67
488.097	3462.08
488.467	3476.32
488.837	3549.77
489.207	3581.85
489.578	3670.21
489.948	3708.41
490.318	3763.55
490.688	3785.69
491.058	3867.72
491.428	3915.41
491.798	3957.66
492.168	4051.67
492.538	4037.89
492.908	4101.84
493.278	4165.12
493.648	4168.51
494.017	4248.05
494.387	4268.84
494.757	4262.97
495.126	4363.76
495.496	4385.68
495.866	4421.83
496.235	4475.16
496.605	4533.24
496.974	4546.12
497.344	4607.14
497.713	4640.58
498.082	4633.8
498.452	4732.33
498.821	4721.71
499.19	4801.26
499.559	4765.33
499.928	4823.4
500.298	4853.91
500.667	4943.4
501.036	4900.01
501.405	4951.08
501.774	4958.32
502.143	5048.94
502.512	5054.36
502.88	5106.56
503.249	5136.39
503.618	5151.53
503.987	5195.37
504.356	5203.96
504.724	5230.63
505.093	5223.62
505.462	5274.69
505.83	5274.47
506.199	5337.97
506.567	5441.47
506.936	5397.85
507.304	5455.25
507.672	5459.09
508.041	5511.07
508.409	5503.61
508.777	5561.24
509.145	5606.21
509.514	5573.89
509.882	5650.73
510.25	5631.97
510.618	5663.16
510.986	5723.04
511.354	5751.74
511.722	5777.73
512.09	5836.71
512.458	5878.74
512.826	5884.39
513.193	5885.07
513.561	5943.37
513.929	5999.19
514.297	6042.58
514.664	6113.99
515.032	6050.26
515.4	6097.5
515.767	6105.4
516.135	6134.1
516.502	6088.23
516.869	6205.74
517.237	6153.09
517.604	6199.64
517.972	6244.16
518.339	6287.09
518.706	6348.34
519.073	6410.93
519.44	6377.04
519.808	6435.57
520.175	6414.32
520.542	6517.6
520.909	6574.09
521.276	6542.46
521.643	6616.13
522.009	6573.64
522.376	6642.11
522.743	6711.72
523.11	6734.54
523.477	6794.43
523.843	6842.11
524.21	6921.43
524.577	6909.68
524.943	6954.2
525.31	7018.83
525.676	7038.94
526.043	7116.45
526.409	7091.82
526.776	7164.81
527.142	7214.08
527.508	7261.08
527.874	7301.76
528.241	7322.32
528.607	7355.99
528.973	7364.35
529.339	7364.81
529.705	7510.11
530.071	7518.7
530.437	7568.64
530.803	7656.78
531.169	7625.36
531.535	7625.82
531.901	7675.76
532.267	7743.55
532.632	7810.67
532.998	7787.17
533.364	7857
533.73	7886.15
534.095	7929.99
534.461	7958.24
534.826	7943.32
535.192	8089.08
535.557	8036.43
535.923	8096.31
536.288	8063.55
536.653	8122.07
537.019	8109.19
537.384	8156.88
537.749	8208.85
538.114	8267.83
538.479	8281.62
538.845	8305.8
539.21	8280.71
539.575	8315.74
539.94	8390.99
540.305	8442.74
540.67	8462.86
541.034	8453.59
541.399	8546.02
541.764	8501.27
542.129	8666.24
542.494	8630.08
542.858	8685.9
543.223	8727.26
543.587	8762.51
543.952	8807.48
544.316	8764.54
544.681	8834.6
545.045	8859.46
545.41	8902.85
545.774	8918.44
546.138	8959.57
546.503	8949.62
546.867	8995.95
547.231	9089.51
547.595	9079.11
547.959	9155.49
548.324	9217.41
548.688	9194.81
549.052	9240.92
549.416	9232.33
549.779	9257.86
550.143	9332.21
550.507	9315.26
550.871	9422.15
551.235	9368.6
551.599	9469.84
551.962	9442.72
552.326	9470.51
552.689	9611.53
553.053	9505.99
553.417	9592.32
553.78	9631.41
554.143	9595.71
554.507	9671.19
554.87	9650.85
555.234	9829.83
555.597	9730.39
555.96	9795.7
556.323	9912.76
556.686	9801.58
557.05	9967.9
557.413	9941.69
557.776	9988.01
558.139	10025.75
558.502	10085.64
558.865	10040.89
559.228	10168.8
559.59	10196.6
559.953	10227.56
560.316	10312.07
560.679	10275.46
561.041	10349.81
561.404	10457.15
561.767	10481.33
562.129	10385.74
562.492	10532.18
562.854	10471.39
563.217	10518.85
563.579	10564.95
563.941	10627.09
564.304	10620.77
564.666	10664.61
565.028	10694.21
565.39	10746.19
565.753	10784.83
566.115	10823.02
566.477	10890.59
566.839	10856.92
567.201	10946.63
567.563	11003.13
567.925	11045.84
568.287	11087.42
568.648	11049.23
569.01	11178.94
569.372	11160.19
569.734	11266.17
570.095	11403.57
570.457	11363.57
570.819	11449.9
571.18	11370.58
571.542	11515.66
571.903	11461.87
572.265	11614.64
572.626	11638.59
572.987	11646.28
573.349	11652.6
573.71	11835.42
574.071	11834.07
574.432	11917.46
574.794	11994.74
575.155	12012.82
575.516	12027.06
575.877	12071.35
576.238	12168.3
576.599	12254.4
576.96	12281.74
577.32	12436.09
577.681	12550.43
578.042	12584.78
578.403	12634.5
578.763	12670.43
579.124	12770.99
579.485	12911.33
579.845	13027.93
580.206	13095.96
580.566	13222.05
580.927	13330.98
581.287	13500.92
581.648	13549.05
582.008	13721.7
582.368	13854.81
582.728	13998.3
583.089	14127.57
583.449	14266.77
583.809	14444.39
584.169	14601.9
584.529	14708.57
584.889	14996.24
585.249	15073.53
585.609	15191.72
585.969	15459.96
586.329	15688.88
586.688	15863.11
587.048	16118.25
587.408	16284.8
587.768	16426.94
588.127	16733.83
588.487	16948.28
588.846	17256.52
589.206	17470.98
589.565	17680.02
589.925	17991.87
590.284	18152.55
590.643	18592.31
591.003	18750.95
591.362	19161.56
591.721	19409.01
592.08	19647.87
592.44	19966.96
592.799	20284.01
593.158	20508.42
593.517	20830.89
593.876	21107.5
594.235	21373.93
594.593	21788.38
594.952	22024.31
595.311	22261.14
595.67	22610.96
596.029	23081.68
596.387	23381.33
596.746	23568.22
597.104	23815.22
597.463	24184.93
597.822	24678.93
598.18	24815.42
598.538	25120.27
598.897	25523.42
599.255	25676.64
599.613	26328.6
599.972	26440.01
600.33	26889.49
600.688	27034.57
601.046	27514.11
601.404	27848.34
601.762	28140.53
602.12	28503.91
602.478	28888.31
602.836	29130.56
603.194	29288.07
603.552	29419.14
603.91	29753.37
604.268	30160.59
604.625	30319.46
604.983	30748.37
605.341	30860.01
605.698	31230.39
606.056	31629.71
606.413	31856.37
606.771	32318.27
607.128	32520.76
607.485	32522.56
607.843	32920.52
608.2	33266.95
608.557	33634.17
608.914	33802.08
609.272	34073.26
609.629	34513.25
609.986	34781.71
610.343	34754.59
610.7	35286.78
611.057	35444.75
611.414	35532.2
611.771	35823.49
612.127	36057.39
612.484	36366.3
612.841	36566.75
613.198	36742.11
613.554	36909.34
613.911	37313.62
614.267	37567.85
614.624	37633.61
614.98	37780.28
615.337	38048.52
615.693	38281.51
616.05	38270.89
616.406	38619.13
616.762	38752.46
617.118	38914.49
617.475	39014.82
617.831	39348.6
618.187	39617.97
618.543	39763.95
618.899	40047.56
619.255	40099.31
619.611	40107.9
619.967	40401.23
620.323	40692.74
620.678	40561.67
621.034	40489.13
621.39	40781.33
621.746	40710.37
622.101	41384.02
622.457	41138.38
622.812	41268.1
623.168	41434.87
623.523	41512.16
623.879	41765.71
624.234	41577.69
624.589	41756.9
624.945	41802.09
625.3	42111.01
625.655	42164.12
626.01	42197.79
626.365	42407.95
626.72	42299.93
627.075	42513.03
627.43	42395.52
627.785	42525.46
628.14	42552.81
628.495	42755.29
628.85	42714.39
629.205	42726.81
629.559	43131.78
629.914	42859.69
630.269	42900.37
630.623	42834.83
630.978	43060.59
631.332	43073.47
631.687	43226.24
632.041	43070.76
632.396	43324.99
632.75	43092.23
633.104	43286.35
633.459	42998.9
633.813	43053.36
634.167	43188.27
634.521	43144.66
634.875	43167.71
635.229	43201.15
635.583	43032.34
635.937	43127.71
636.291	43157.09
636.645	43167.93
636.999	43155.28
637.352	43372.67
637.706	43115.28
638.06	43397.08
638.413	43121.83
638.767	43122.06
639.121	43392.11
639.474	43042.74
639.828	43208.84
640.181	43188.95
640.534	43291.55
640.888	43163.41
641.241	42944.89
641.594	43194.15
641.947	43170.19
642.301	43029.86
642.654	43193.24
643.007	43132.45
643.36	43181.72
643.713	43014.49
644.066	43188.5
644.419	42959.58
644.771	42700.15
645.124	42291.57
645.477	42399.37
645.83	42092.71
646.182	41915.08
646.535	41826.05
646.888	41866.27
647.24	41647.52
647.593	41990.56
647.945	41788.76
648.298	41662.21
648.65	41634.19
649.002	41628.99
649.355	41771.13
649.707	41758.25
650.059	41949.89
650.411	42417.67
650.763	42589.19
651.115	42899.01
651.467	42610.89
651.819	42661.28
652.171	42573.37
652.523	42606.37
652.875	42609.53
653.227	42446.82
653.578	42722.75
653.93	42586.71
654.282	42397.11
654.633	42408.63
654.985	42488.63
655.337	42463.32
655.688	42430.1
656.039	42599.59
656.391	42205.47
656.742	42228.52
657.094	42333.6
657.445	42533.6
657.796	42311.91
658.147	42277.33
658.498	42369.99
658.849	42312.36
659.2	42249.31
659.551	42162.99
659.902	42309.42
660.253	42312.36
660.604	42343.32
660.955	42019.94
661.306	42315.75
661.656	42313.49
662.007	42180.84
662.358	42184.46
662.708	42209.31
663.059	42336.54
663.409	41965.48
663.76	42287.73
664.11	42240.73
664.461	42108.53
664.811	42167.06
665.161	42106.27
665.511	41970
665.862	42161.63
666.212	42259.48
666.562	42182.65
666.912	42083.22
667.262	42016.32
667.612	41954.63
667.962	41979.49
668.312	42016.78
668.662	42207.28
669.011	42096.55
669.361	41983.78
669.711	41859.49
670.06	41765.71
670.41	41783.79
670.76	41897.23
671.109	41943.33
671.459	42035.08
671.808	41823.79
672.157	42040.05
672.507	41823.79
672.856	41850.68
673.205	41897.23
673.554	41930.45
673.904	41817.91
674.253	42219.03
674.602	41797.35
674.951	41234.88
675.3	41242.33
675.649	41754.41
675.998	41719.38
676.346	41816.56
676.695	41708.54
677.044	41494.76
677.393	41560.97
677.741	41644.81
678.09	41449.79
678.438	41422.22
678.787	41497.47
679.135	41570.69
679.484	41219.74
679.832	41302.67
680.181	41181.77
680.529	41346.74
680.877	41309.45
681.225	41204.14
681.573	41349.9
681.922	41145.84
682.27	40978.84
682.618	41113.3
682.966	40786.53
683.314	40996.69
683.661	40775.68
684.009	40714.89
684.357	40557.15
684.705	40554.22
685.053	40711.27
685.4	40743.59
685.748	40369.14
686.095	40415.01
686.443	40330.95
686.79	40196.94
687.138	40374.33
687.485	40250.04
687.832	40074.45
688.18	40167.33
688.527	39917.85
688.874	39949.71
689.221	39810.28
689.568	39751.53
689.915	39721.92
690.262	39665.88
690.609	39450.06
690.956	39372.1
691.303	39353.34
691.65	39122.16
691.997	39335.04
692.344	38952.45
692.69	38985.9
693.037	39058.89
693.383	38610.99
693.73	38855.5
694.077	38516.76
694.423	38689.86
694.769	38438.57
695.116	38403.31
695.462	38365.35
695.808	38189.08
696.155	38213.49
696.501	37943.66
696.847	38028.63
697.193	37674.74
697.539	37856.89
697.885	37685.82
698.231	37523.34
698.577	37506.61
698.923	37468.42
699.269	37393.85
699.614	37064.14
699.96	36987.3
700.306	37126.28
700.651	36906.4
700.997	36875.44
701.342	36751.6
701.688	36777.37
702.033	36670.7
702.379	36631.83
702.724	36454.44
703.069	36523.14
703.415	36082.47
703.76	36286.31
704.105	36176.03
704.45	36152.07
704.795	35819.43
705.14	35793.66
705.485	35742.37
705.83	35573.1
706.175	35677.06
706.52	35442.03
706.865	35369.95
707.209	35383.73
707.554	35330.62
707.899	35334.01
708.243	35163.17
708.588	35179.22
708.932	34821.94
709.277	34913.01
709.621	34961.14
709.966	34662.85
710.31	34663.52
710.654	34397.32
710.998	34571.77
711.342	34555.28
711.687	34360.48
712.031	34280.03
712.375	34137.21
712.719	34144.44
713.063	34073.26
713.407	34275.06
713.75	33988.97
714.094	33973.82
714.438	33807.95
714.782	33929.31
715.125	33710.33
715.469	33648.86
715.812	33540.16
716.156	33289.32
716.499	33512.14
716.843	33403.9
717.186	33390.79
717.53	33427.17
717.873	33315.99
718.216	33344.24
718.559	33061.76
718.902	32938.82
719.246	32960.52
719.589	32867.86
719.932	32960.29
720.275	32850.01
720.617	32711.94
720.96	32711.71
721.303	32659.28
721.646	32676.01
721.989	32399.63
722.331	32568.44
722.674	32499.74
723.016	32547.65
723.359	32484.82
723.701	32420.87
724.044	32124.83
724.386	32095.91
724.729	32234.21
725.071	32063.14
725.413	32014.1
725.755	32140.43
726.097	31891.17
726.439	31799.42
726.782	31693.43
727.124	31889.13
727.465	31693.21
727.807	31709.03
728.149	31661.34
728.491	31521.23
728.833	31657.73
729.175	31523.27
729.516	31415.25
729.858	31263.61
730.199	31480.56
730.541	31291.86
730.882	31258.64
731.224	31330.28
731.565	31124.63
731.906	31163.05
732.248	31287.12
732.589	30974.58
732.93	30904.3
733.271	30851.65
733.612	31049.16
733.953	31020.46
734.294	30771.87
734.635	30696.17
734.976	30864.08
735.317	30473.35
735.658	30630.86
735.999	30626.12
736.339	30577.76
736.68	30663.18
737.021	30434.93
737.361	30336.18
737.702	30543.41
738.042	30445.56
738.383	30308.61
738.723	30253.7
739.063	30156.3
739.404	30246.01
739.744	30100.03
740.084	30165.79
740.424	30028.62
740.764	30063.42
741.104	30051.89
741.444	30019.8
741.784	29723.99
742.124	29832.24
742.464	29695.74
742.804	29707.72
743.143	29700.94
743.483	29772.35
743.823	29517.67
744.162	29638.57
744.502	29591.34
744.841	29518.8
745.181	29462.08
745.52	29455.07
745.86	29506.37
746.199	29337.34
746.538	29387.96
746.877	29394.96
747.216	29268.64
747.556	29260.05
747.895	29237
748.234	29099.15
748.573	29045.82
748.911	29096.66
749.25	29105.93
749.589	28881.3
749.928	28934.18
750.267	28914.3
750.605	28769.44
750.944	28850.34
751.283	28619.39
751.621	28728.09
751.96	28599.5
752.298	28616.68
752.636	28529.9
752.975	28449.45
753.313	28330.13
753.651	28505.27
753.989	28294.43
754.327	28318.83
754.666	28197.93
755.004	28135.56
755.342	28177.82
755.679	28050.59
756.017	27979.63
756.355	28067.99
756.693	27952.06
757.031	28020.31
757.368	27748
757.706	27772.63
758.044	27684.27
758.381	27737.6
758.719	27663.93
759.056	27594.33
759.394	27342.36
759.731	27385.3
760.068	27283.38
760.405	27149.82
760.743	27178.75
761.08	27186.21
761.417	26990.73
761.754	26950.96
762.091	26897.63
762.428	26801.13
762.765	26637.29
763.102	26654.02
763.438	26662.6
763.775	26435.27
764.112	26351.2
764.449	26442.04
764.785	26274.37
765.122	26136.06
765.458	26024.2
765.795	26093.13
766.131	26058.1
766.467	25912.34
766.804	25710.99
767.14	25698.79
767.476	25650.2
767.812	25568.4
768.148	25581.95
768.485	25424.67
768.821	25256.54
769.157	25261.06
769.492	25116.2
769.828	25255.41
770.164	24948.3
770.5	24871.92
770.836	24942.2
771.171	24726.84
771.507	24691.58
771.842	24487.75
772.178	24472.83
772.513	24363
772.849	24346.05
773.184	24179.05
773.519	24204.14
773.855	24146.29
774.19	24035.55
774.525	23926.4
774.86	23911.94
775.195	23807.76
775.53	23687.99
775.865	23596.47
776.2	23481.22
776.535	23300.43
776.87	23423.59
777.205	23227.44
777.539	23167.55
777.874	23205.29
778.209	22945.64
778.543	22903.61
778.878	22815.47
779.212	22754.68
779.547	22633.78
779.881	22680.79
780.215	22439.21
780.55	22556.5
780.884	22315.83
781.218	22307.46
781.552	22374.13
781.886	22251.65
782.22	22068.15
782.554	21960.81
782.888	21822.73
783.222	21817.99
783.556	21717.42
783.889	21673.58
784.223	21474.72
784.557	21340.48
784.89	21428.39
785.224	21372.35
785.557	21248.28
785.891	21150.88
786.224	21044.9
786.558	21143.88
786.891	20866.6
787.224	20819.59
787.557	20806.49
787.891	20741.4
788.224	20657.11
788.557	20628.64
788.89	20617.34
789.223	20514.07
789.556	20296.9
789.888	20391.36
790.221	20291.7
790.554	20079.05
790.887	20145.04
791.219	20131.7
791.552	19919.5
791.884	19814.42
792.217	19848.09
792.549	19680.87
792.882	19669.79
793.214	19535.56
793.546	19587.76
793.879	19463.25
794.211	19352.51
794.543	19423.25
794.875	19260.99
795.207	19330.37
795.539	19241.56
795.871	19230.26
796.203	19066.19
796.535	18955.01
796.867	18992.75
797.198	18803.38
797.53	18822.81
797.862	18687.22
798.193	18707.11
798.525	18612.19
798.856	18596.83
799.188	18462.37
799.519	18359.32
799.85	18308.47
800.182	18360.9
800.513	18246.33
800.844	18109.16
801.175	18213.11
801.506	18180.12
801.837	18004.3
802.168	18050.18
802.499	17950.52
802.83	17870.07
803.161	17776.06
803.491	17755.49
803.822	17715.95
804.153	17582.84
804.483	17466.24
804.814	17516.86
805.145	17442.06
805.475	17490.42
805.805	17361.61
806.136	17409.97
806.466	17348.27
806.796	17259.24
807.126	17138.33
807.457	17043.65
807.787	17109.86
808.117	17067.38
808.447	16975.18
808.777	16985.8
809.107	17019.47
809.436	16868.29
809.766	16726.59
810.096	16807.95
810.426	16729.53
810.755	16748.51
811.085	16660.61
811.414	16657.67
811.744	16546.71
812.073	16491.8
812.403	16506.26
812.732	16409.09
813.061	16392.37
813.39	16304.46
813.719	16141.98
814.049	16379.26
814.378	16293.16
814.707	16177.46
815.036	16159.6
815.365	16092.49
815.693	15921.42
816.022	15975.65
816.351	15853.4
816.68	15906.95
817.008	15834.64
817.337	15791.48
817.665	15677.58
817.994	15732.5
818.322	15720.97
818.651	15671.71
818.979	15576.57
819.307	15659.28
819.636	15545.61
819.964	15404.82
820.292	15540.18
820.62	15471.26
820.948	15411.37
821.276	15532.95
821.604	15368.89
821.932	15479.4
822.259	15442.11
822.587	15409.57
822.915	15365.95
823.243	15435.78
823.57	15333.18
823.898	15411.83
824.225	15410.92
824.553	15393.3
824.88	15386.29
825.207	15431.71
825.535	15315.56
825.862	15401.88
826.189	15308.33
826.516	15318.95
826.843	15363.92
827.17	15455.22
827.497	15412.05
827.824	15342.9
828.151	15372.73
828.478	15386.06
828.805	15365.95
829.131	15290.02
829.458	15225.62
829.785	15186.75
830.111	15269.46
830.438	15281.21
830.764	15250.02
831.09	15348.33
831.417	15203.47
831.743	15284.37
832.069	15342
832.395	15235.11
832.722	15176.8
833.048	15196.46
833.374	15204.83
833.7	15171.61
834.026	15216.13
834.351	15230.14
834.677	15122.57
835.003	15148.56
835.329	15129.57
835.654	15203.7
835.98	15024.04
836.306	15004.61
836.631	14959.86
836.956	15030.59
837.282	15029.24
837.607	14975.68
837.932	14824.27
838.258	14928.45
838.583	14841.45
838.908	14893.87
839.233	14820.66
839.558	14751.05
839.883	14780.43
840.208	14682.35
840.533	14655.69
840.858	14704.27
841.182	14679.87
841.507	14667.89
841.832	14568.68
842.156	14642.81
842.481	14581.34
842.805	14529.82
843.13	14488.23
843.454	14426.32
843.778	14438.97
844.103	14380.67
844.427	14290.73
844.751	14365.53
845.075	14260.44
845.399	14345.19
845.723	14200.56
846.047	14210.95
846.371	13989.26
846.695	14093.44
847.019	13944.75
847.343	13849.83
847.666	13834.01
847.99	13715.37
848.313	13780.46
848.637	13691.19
848.96	13693
849.284	13611.2
849.607	13505.66
849.931	13496.4
850.254	13326.46
850.577	13312.9
850.9	13183.18
851.223	13192.68
851.546	13184.09
851.869	13053.24
852.192	13155.61
852.515	12948.39
852.838	12956.75
853.161	13017.09
853.483	12867.49
853.806	12851.44
854.129	12814.83
854.451	12794.27
854.774	12717.66
855.096	12672.24
855.419	12668.62
855.741	12625.46
856.063	12545.69
856.385	12525.35
856.708	12467.5
857.03	12527.38
857.352	12431.57
857.674	12387.95
857.996	12287.84
858.318	12286.03
858.64	12362.87
858.961	12237.9
859.283	12139.6
859.605	12116.32
859.926	12120.39
860.248	12120.84
860.57	11998.13
860.891	12062.76
861.212	11960.39
861.534	11864.35
861.855	11912.26
862.176	11921.07
862.498	11870.68
862.819	11938.47
863.14	11825.48
863.461	11793.84
863.782	11775.09
864.103	11753.39
864.424	11730.79
864.745	11810.57
865.065	11705.71
865.386	11680.85
865.707	11601.98
866.027	11662.55
866.348	11617.58
866.668	11556.33
866.989	11585.03
867.309	11483.12
867.63	11517.47
867.95	11470.91
868.27	11412.84
868.59	11486.96
868.91	11426.39
869.23	11404.25
869.55	11418.26
869.87	11375.32
870.19	11392.27
870.51	11367.64
870.83	11369.22
871.15	11258.94
871.469	11288.77
871.789	11337.13
872.109	11244.48
872.428	11187.98
872.748	11180.3
873.067	11154.99
873.386	11232.95
873.706	11189.11
874.025	11187.08
874.344	11092.62
874.663	11155.67
874.982	11107.53
875.301	11112.05
875.62	11083.58
875.939	11032.96
876.258	10990.7
876.577	10965.84
876.896	11013.3
877.214	10959.74
877.533	10987.54
877.852	10942.11
878.17	10966.29
878.489	10886.07
878.807	10961.77
879.125	10833.87
879.444	10808.56
879.762	10752.51
880.08	10800.42
880.398	10839.07
880.716	10769.46
881.034	10735.79
881.352	10759.52
881.67	10680.2
881.988	10699.18
882.306	10696.02
882.624	10626.19
882.941	10573.54
883.259	10594.55
883.577	10486.08
883.894	10565.17
884.212	10487.44
884.529	10450.6
884.846	10418.74
885.164	10495.57
885.481	10370.38
885.798	10436.82
886.115	10323.15
886.432	10286.31
886.75	10245.86
887.067	10335.35
887.383	10254.22
887.7	10275.92
888.017	10160.44
888.334	10305.07
888.651	10096.03
888.967	10126.54
889.284	10128.58
889.6	10028.69
889.917	10011.29
890.233	9989.82
890.55	9952.53
890.866	9971.74
891.182	9937.17
891.498	9949.6
891.815	9920.9
892.131	9729.26
892.447	9843.84
892.763	9726.55
893.079	9764.74
893.395	9704.41
893.71	9721.81
894.026	9738.76
894.342	9667.8
894.657	9646.78
894.973	9573.79
895.289	9537.4
895.604	9508.7
895.92	9483.39
896.235	9409.95
896.55	9423.28
896.865	9429.16
897.181	9341.48
897.496	9321.82
897.811	9268.03
898.126	9227.36
898.441	9303.29
898.756	9204.31
899.071	9091.99
899.386	9157.08
899.7	9083.86
900.015	9033.92
900.33	8940.36
900.644	8989.62
900.959	8994.59
901.273	8963.18
901.588	8919.79
901.902	8838.44
902.216	8876.63
902.531	8809.29
902.845	8799.12
903.159	8749.85
903.473	8672.12
903.787	8700.14
904.101	8619.46
904.415	8654.72
904.729	8628.05
905.042	8588.73
905.356	8545.11
905.67	8536.07
905.984	8533.59
906.297	8509.18
906.611	8434.16
906.924	8362.29
907.237	8316.19
907.551	8374.5
907.864	8310.09
908.177	8243.43
908.491	8238
908.804	8183.32
909.117	8155.75
909.43	8068.97
909.743	8079.59
910.056	8039.59
910.368	8049.99
910.681	7967.5
910.994	7932.02
911.307	7932.93
911.619	7872.36
911.932	7855.87
912.244	7852.48
912.557	7733.61
912.869	7739.71
913.181	7688.87
913.494	7701.52
913.806	7618.58
914.118	7586.04
914.43	7605.48
914.742	7475.54
915.054	7567.96
915.366	7534.52
915.678	7462.43
915.99	7390.34
916.302	7452.71
916.613	7313.28
916.925	7377.24
917.236	7343.79
917.548	7329.33
917.859	7282.77
918.171	7186.05
918.482	7181.31
918.794	7122.55
919.105	7177.01
919.416	7056.79
919.727	7094.76
920.038	7065.38
920.349	6996.68
920.66	6994.42
920.971	6990.13
921.282	6982.9
921.593	6910.58
921.903	6836.68
922.214	6868.77
922.525	6814.99
922.835	6833.97
923.146	6704.26
923.456	6715.56
923.767	6740.42
924.077	6720.98
924.387	6636.69
924.697	6607.09
925.008	6644.6
925.318	6558.95
925.628	6531.38
925.938	6526.18
926.248	6470.37
926.558	6417.03
926.867	6418.62
927.177	6413.64
927.487	6351.27
927.796	6338.84
928.106	6311.73
928.416	6286.42
928.725	6243.48
929.034	6182.01
929.344	6247.55
929.653	6264.5
929.962	6170.94
930.271	6082.35
930.581	6117.61
930.89	6133.88
931.199	6064.05
931.508	6033.54
931.817	6023.15
932.125	6023.15
932.434	5917.16
932.743	5858.63
933.051	5814.34
933.36	5831.51
933.669	5826.09
933.977	5782.93
934.286	5726.88
934.594	5769.37
934.902	5726.88
935.21	5739.54
935.519	5717.62
935.827	5667
936.135	5615.02
936.443	5596.72
936.751	5573.22
937.059	5600.33
937.367	5524.63
937.674	5464.52
937.982	5509.04
938.29	5468.59
938.597	5462.26
938.905	5410.51
939.213	5363.96
939.52	5385.42
939.827	5348.36
940.135	5326.89
940.442	5294.13
940.749	5325.99
941.056	5283.96
941.363	5240.12
941.67	5274.69
941.977	5239.44
942.284	5198.99
942.591	5118.99
942.898	5114.92
943.205	5108.14
943.511	5139.33
943.818	5104.53
944.125	5066.56
944.431	5009.16
944.738	5046.9
945.044	4992.67
945.35	5006.22
945.657	4914.93
945.963	4901.14
946.269	4863.4
946.575	4897.53
946.881	4885.55
947.187	4855.27
947.493	4792.67
947.799	4769.85
948.105	4773.69
948.41	4773.24
948.716	4727.59
949.022	4709.28
949.327	4697.31
949.633	4643.07
949.938	4645.56
950.244	4673.13
950.549	4577.76
950.854	4573.24
951.16	4530.3
951.465	4536.41
951.77	4541.83
952.075	4539.57
952.38	4476.97
952.685	4482.17
952.99	4446.24
953.294	4431.1
953.599	4412.12
953.904	4396.52
954.209	4356.3
954.513	4339.58
954.818	4356.52
955.122	4331.44
955.426	4314.94
955.731	4273.36
956.035	4256.41
956.339	4227.49
956.643	4228.39
956.948	4211.89
957.252	4192.46
957.556	4121.28
957.86	4108.62
958.163	4165.79
958.467	4119.69
958.771	4099.36
959.075	4056.42
959.378	4010.09
959.682	4061.39
959.985	4039.7
960.289	3994.73
960.592	3992.01
960.896	3965.57
961.199	3938.91
961.502	4004.89
961.805	3927.83
962.108	3890.55
962.411	3881.28
962.714	3870.43
963.017	3823.66
963.32	3832.7
963.623	3797.89
963.926	3842.64
964.228	3749.76
964.531	3769.42
964.833	3776.88
965.136	3754.51
965.438	3749.53
965.741	3708.18
966.043	3665.02
966.345	3676.54
966.648	3678.35
966.95	3676.54
967.252	3629.76
967.554	3629.54
967.856	3635.64
968.158	3575.08
968.46	3556.09
968.761	3570.78
969.063	3578.69
969.365	3485.81
969.666	3496.66
969.968	3479.26
970.269	3489.2
970.571	3446.49
970.872	3430.9
971.174	3407.17
971.475	3402.88
971.776	3359.04
972.077	3387.28
972.378	3404.46
972.679	3325.82
972.98	3308.87
973.281	3335.76
973.582	3350
973.883	3303.9
974.183	3328.08
974.484	3256.89
974.785	3247.63
975.085	3245.14
975.386	3219.83
975.686	3168.98
975.986	3205.82
976.287	3185.26
976.587	3165.37
976.887	3121.3
977.187	3124.69
977.487	3117.91
977.787	3116.78
978.087	3104.13
978.387	3072.26
978.687	3037.01
978.987	3061.64
979.286	3053.96
979.586	3072.94
979.885	3040.17
980.185	2980.74
980.484	2967.41
980.784	2955.66
981.083	2973.74
981.382	2979.84
981.682	2944.58
981.981	2941.65
982.28	2930.35
982.579	2845.38
982.878	2869.56
983.177	2866.17
983.475	2857.13
983.774	2814.19
984.073	2820.52
984.372	2815.55
984.67	2811.25
984.969	2793.4
985.267	2790.46
985.566	2764.48
985.864	2761.99
986.162	2711.82
986.461	2710.01
986.759	2734.19
987.057	2678.38
987.355	2685.83
987.653	2649.9
987.951	2672.95
988.249	2650.35
988.547	2651.03
988.844	2632.28
989.142	2606.97
989.44	2618.26
989.737	2619.85
990.035	2585.5
990.332	2562.67
990.63	2549.79
990.927	2548.44
991.224	2528.78
991.521	2544.37
991.819	2522
992.116	2483.13
992.413	2481.32
992.71	2497.36
993.006	2468.66
993.303	2465.5
993.6	2448.1
993.897	2416.24
994.193	2428.44
994.49	2415.11
994.787	2396.35
995.083	2391.83
995.379	2367.65
995.676	2402
995.972	2343.02
996.268	2337.14
996.565	2342.11
996.861	2292.17
997.157	2310.7
997.453	2319.74
997.749	2264.15
998.044	2254.66
998.34	2302.79
998.636	2261.89
998.932	2237.71
999.227	2190.25
999.523	2196.35
999.818	2197.71
1000.114	2184.6
1000.409	2183.7
1000.704	2188.67
1001	2139.86
1001.295	2151.16
1001.59	2156.58
1001.885	2136.24
1002.18	2119.75
1002.475	2091.95
1002.77	2104.38
1003.065	2086.75
1003.359	2080.43
1003.654	2062.8
1003.949	2027.55
1004.243	2021.9
1004.538	1997.94
1004.832	2019.86
1005.127	1998.85
1005.421	1979.64
1005.715	1986.19
1006.009	1969.92
1006.304	1938.51
1006.598	1973.31
1006.892	1937.38
1007.186	1944.61
1007.48	1925.18
1007.773	1931.5
1008.067	1903.93
1008.361	1853.31
1008.655	1866.19
1008.948	1875.91
1009.242	1861.22
1009.535	1829.36
1009.829	1808.79
1010.122	1818.96
1010.415	1790.94
1010.708	1807.89
1011.001	1759.53
1011.295	1747.55
1011.588	1773.77
1011.881	1788.91
1012.173	1745.52
1012.466	1735.35
1012.759	1715.01
1013.052	1734.22
1013.344	1695.58
1013.637	1704.39
1013.93	1688.12
1014.222	1670.72
1014.514	1686.54
1014.807	1662.58
1015.099	1619.42
1015.391	1635.47
1015.683	1644.73
1015.976	1616.26
1016.268	1600.89
1016.56	1615.35
1016.851	1604.73
1017.143	1580.78
1017.435	1561.12
1017.727	1543.72
1018.018	1544.39
1018.31	1552.3
1018.602	1534.45
1018.893	1545.98
1019.185	1548.46
1019.476	1516.6
1019.767	1533.77
1020.058	1481.57
1020.35	1483.15
1020.641	1489.48
1020.932	1483.83
1021.223	1454.45
1021.514	1446.77
1021.804	1417.17
1022.095	1424.17
1022.386	1406.77
1022.677	1387.56
1022.967	1408.58
1023.258	1370.84
1023.548	1380.78
1023.839	1381.01
1024.129	1342.14
1024.419	1345.98
1024.709	1352.76
1025	1350.95
1025.29	1347.34
1025.58	1322.48
1025.87	1321.12
1026.16	1319.54
1026.449	1294.23
1026.739	1271.18
1027.029	1248.13
1027.319	1259.88
1027.608	1251.97
1027.898	1243.39
1028.187	1228.47
1028.477	1243.61
1028.766	1229.37
1029.055	1217.17
1029.344	1193.22
1029.634	1195.93
1029.923	1176.72
1030.212	1177.62
1030.501	1177.4
1030.79	1153.67
1031.078	1151.18
1031.367	1134.46
1031.656	1145.53
1031.945	1146.44
1032.233	1148.7
1032.522	1133.56
1032.81	1100.56
1033.099	1106.44
1033.387	1104.86
1033.675	1078.19
1033.963	1083.84
1034.251	1105.54
1034.54	1055.82
1034.828	1054.46
1035.116	1068.7
1035.403	1057.85
1035.691	1049.94
1035.979	1053.79
1036.267	1014.69
1036.554	1021.92
1036.842	1028.48
1037.129	994.13
1037.417	1024.63
1037.704	1001.81
1037.992	996.39
1038.279	980.34
1038.566	993
1038.853	993
1039.14	993
