Data from hue_80_FLMS001491_62.txt Node
Date: Mon Feb 06 15:23:22 GMT 2017
User: dcchb
Spectrometer: FLMS00149
Trigger mode: 0
Integration Time (sec): 2.000000E-2
Scans to average: 10
Electric dark correction enabled: true
Nonlinearity correction enabled: false
Boxcar width: 0
XAxis mode: Wavelengths
Number of Pixels in Spectrum: 2048
>>>>>Begin Spectral Data<<<<<
341.393	-21.07
341.776	-21.07
342.16	-21.07
342.543	-50
342.927	-54.29
343.31	-93.16
343.693	-66.04
344.077	-74.18
344.46	-47.06
344.843	-51.58
345.226	-57
345.61	-16.55
345.993	-12.26
346.376	-5.48
346.759	15.08
347.142	20.96
347.525	43.56
347.908	62.54
348.291	72.48
348.674	106.16
349.057	102.54
349.44	120.17
349.823	138.92
350.206	184.35
350.588	212.37
350.971	216.66
351.354	222.76
351.737	254.4
352.119	271.57
352.502	240.16
352.884	269.09
353.267	273.16
353.65	284
354.032	286.04
354.414	306.15
354.797	321.97
355.179	333.72
355.562	328.52
355.944	325.81
356.326	360.39
356.709	329.2
357.091	324
357.473	357
357.855	365.13
358.238	331.69
358.62	335.98
359.002	344.57
359.384	337.34
359.766	340.05
360.148	337.34
360.53	336.66
360.912	349.76
361.294	331.69
361.676	335.75
362.057	326.49
362.439	354.28
362.821	339.14
363.203	359.48
363.584	336.66
363.966	353.83
364.348	324.45
364.729	330.56
365.111	351.57
365.493	329.2
365.874	334.85
366.256	308.64
366.637	320.61
367.019	314.06
367.4	309.54
367.781	317.22
368.163	322.87
368.544	304.34
368.925	317.68
369.306	315.87
369.688	326.71
370.069	310.67
370.45	305.02
370.831	334.62
371.212	300.05
371.593	322.42
371.974	328.75
372.355	309.54
372.736	311.8
373.117	333.95
373.498	318.35
373.879	326.26
374.26	300.05
374.641	314.29
375.021	312.48
375.402	340.95
375.783	335.98
376.163	312.7
376.544	339.37
376.925	314.51
377.305	317.9
377.686	328.52
378.066	299.6
378.447	336.66
378.827	320.16
379.208	314.06
379.588	321.74
379.968	322.19
380.349	350.89
380.729	315.64
381.109	321.29
381.489	341.18
381.87	345.7
382.25	336.88
382.63	357.22
383.01	349.99
383.39	345.25
383.77	330.78
384.15	345.47
384.53	349.31
384.91	343.44
385.29	333.49
385.67	334.4
386.049	329.65
386.429	357.67
386.809	358.8
387.189	343.89
387.568	352.25
387.948	345.02
388.328	352.48
388.707	364.68
389.087	356.54
389.466	365.81
389.846	338.47
390.225	339.82
390.605	353.38
390.984	347.05
391.363	359.71
391.743	350.22
392.122	356.09
392.501	366.26
392.881	376.66
393.26	374.4
393.639	370.56
394.018	363.1
394.397	367.39
394.776	333.49
395.155	367.62
395.534	384.11
395.913	379.37
396.292	367.39
396.671	371.69
397.05	353.38
397.429	369.65
397.808	394.96
398.186	395.19
398.565	394.74
398.944	377.79
399.323	381.63
399.701	383.44
400.08	372.59
400.458	384.79
400.837	374.62
401.215	404.45
401.594	407.16
401.972	392.7
402.351	378.46
402.729	394.51
403.107	410.55
403.486	413.27
403.864	387.5
404.242	408.97
404.62	394.06
404.999	419.37
405.377	398.58
405.755	420.5
406.133	394.06
406.511	413.04
406.889	426.6
407.267	434.06
407.645	410.55
408.023	410.1
408.401	417.11
408.779	434.06
409.156	435.19
409.534	408.07
409.912	428.41
410.29	449.88
410.667	451.46
411.045	425.47
411.422	450.1
411.8	453.94
412.178	441.51
412.555	468.18
412.933	442.42
413.31	453.72
413.687	440.38
414.065	444.68
414.442	447.16
414.819	462.98
415.197	474.96
415.574	465.02
415.951	467.73
416.328	469.99
416.705	471.8
417.082	499.14
417.46	488.97
417.837	475.19
418.214	495.75
418.591	484.45
418.967	484.68
419.344	493.49
419.721	490.33
420.098	493.94
420.475	481.74
420.852	496.43
421.228	482.19
421.605	515.41
421.982	516.54
422.358	507.27
422.735	500.72
423.111	529.42
423.488	529.42
423.864	509.31
424.241	550.44
424.617	547.5
424.994	529.87
425.37	520.16
425.746	530.78
426.123	540.04
426.499	524.68
426.875	540.27
427.251	557.44
427.627	558.8
428.003	574.17
428.379	547.73
428.756	589.08
429.132	600.15
429.507	586.37
429.883	598.35
430.259	608.74
430.635	593.37
431.011	584.79
431.387	615.52
431.763	589.08
432.138	601.28
432.514	607.39
432.89	622.53
433.265	616.88
433.641	648.74
434.016	660.94
434.392	640.38
434.767	656.42
435.143	639.7
435.518	664.78
435.894	644.9
436.269	671.79
436.644	673.37
437.02	676.31
437.395	669.76
437.77	681.51
438.145	673.82
438.52	685.8
438.895	702.75
439.271	682.19
439.646	699.81
440.021	734.39
440.395	716.76
440.77	727.83
441.145	716.08
441.52	735.74
441.895	741.62
442.27	747.27
442.645	728.29
443.019	746.36
443.394	747.72
443.769	748.17
444.143	745.23
444.518	754.5
444.892	762.18
445.267	746.59
445.641	766.03
446.016	784.78
446.39	796.76
446.764	778.68
447.139	783.43
447.513	789.98
447.887	772.58
448.262	811.45
448.636	799.92
449.01	798.34
449.384	842.86
449.758	801.5
450.132	811.22
450.506	858.9
450.88	825.23
451.254	827.94
451.628	877.89
452.002	870.66
452.376	869.53
452.75	868.85
453.123	861.16
453.497	880.6
453.871	895.29
454.244	901.39
454.618	941.61
454.992	904.55
455.365	915.85
455.739	956.53
456.112	926.02
456.486	931.22
456.859	973.7
457.232	999.92
457.606	996.98
457.979	988.84
458.352	997.88
458.725	1019.13
459.099	1016.87
459.472	1039.69
459.845	1051.89
460.218	1057.54
460.591	1042.4
460.964	1052.35
461.337	1083.53
461.71	1109.97
462.083	1129.41
462.456	1128.28
462.829	1152.68
463.201	1138.44
463.574	1154.94
463.947	1193.81
464.32	1212.12
464.692	1219.57
465.065	1239.01
465.438	1232.91
465.81	1263.64
466.183	1279.01
466.555	1291.66
466.928	1325.78
467.3	1337.54
467.672	1350.87
468.045	1344.54
468.417	1394.94
468.789	1413.92
469.161	1431.54
469.534	1422.28
469.906	1490.98
470.278	1481.49
470.65	1530.98
471.022	1571.88
471.394	1585.66
471.766	1595.16
472.138	1603.29
472.51	1667.47
472.882	1730.75
473.253	1765.09
473.625	1784.98
473.997	1835.83
474.369	1866.11
474.74	1874.92
475.112	1914.92
475.484	2003.05
475.855	2005.09
476.227	2045.09
476.598	2099.1
476.97	2159.89
477.341	2263.84
477.713	2307.23
478.084	2323.05
478.455	2445.98
478.827	2497.05
479.198	2553.32
479.569	2601.91
479.94	2712.87
480.311	2727.1
480.682	2820.89
481.053	2861.56
481.424	3003.48
481.795	3054.1
482.166	3151.95
482.537	3222.91
482.908	3326.18
483.279	3424.26
483.65	3552.17
484.021	3661.99
484.391	3690.92
484.762	3877.81
485.133	3920.74
485.503	4024.02
485.874	4163.9
486.244	4245.48
486.615	4391.01
486.985	4487.74
487.356	4616.77
487.726	4712.81
488.097	4876.65
488.467	4996.87
488.837	5106.25
489.207	5261.05
489.578	5364.32
489.948	5532.68
490.318	5677.08
490.688	5800.02
491.058	5921.82
491.428	6043.17
491.798	6201.36
492.168	6342.15
492.538	6463.73
492.908	6549.38
493.278	6809.71
493.648	6897.16
494.017	7003.83
494.387	7148.23
494.757	7292.18
495.126	7473.65
495.496	7568.56
495.866	7680.42
496.235	7820.3
496.605	7966.06
496.974	8093.29
497.344	8308.43
497.713	8393.62
498.082	8478.36
498.452	8673.16
498.821	8746.61
499.19	8874.96
499.559	8978.92
499.928	9080.16
500.298	9270.43
500.667	9390.88
501.036	9505.91
501.405	9635.4
501.774	9673.14
502.143	9801.72
502.512	9908.16
502.88	9995.84
503.249	10183.18
503.618	10233.12
503.987	10405.77
504.356	10493.9
504.724	10577.74
505.093	10666.33
505.462	10732.99
505.83	10814.8
506.199	11020.9
506.567	11125.75
506.936	11194.45
507.304	11331.62
507.672	11474.9
508.041	11513.09
508.409	11576.36
508.777	11718.05
509.145	11835.79
509.514	11844.6
509.882	12005.96
510.25	11975.67
510.618	12091.38
510.986	12203.69
511.354	12352.39
511.722	12438.71
512.09	12493.4
512.458	12543.79
512.826	12579.95
513.193	12734.07
513.561	12787.63
513.929	12872.83
514.297	12955.54
514.664	13148.3
515.032	13163.21
515.4	13207.73
515.767	13246.6
516.135	13342.19
516.502	13332.93
516.869	13607.04
517.237	13604.78
517.604	13505.58
517.972	13622.41
518.339	13845
518.706	13776.53
519.073	13882.97
519.44	13994.6
519.808	14072.34
520.175	14054.04
520.542	14159.12
520.909	14303.3
521.276	14150.08
521.643	14400.92
522.009	14526.34
522.376	14501.48
522.743	14581.93
523.11	14626.9
523.477	14849.5
523.843	14826.67
524.21	15019.44
524.577	15018.08
524.943	15126.78
525.31	15088.13
525.676	15241.8
526.043	15285.19
526.409	15402.93
526.776	15456.71
527.142	15438.63
527.508	15495.36
527.874	15581.91
528.241	15658.74
528.607	15620.1
528.973	15821.22
529.339	15720.66
529.705	15793.2
530.071	15975.57
530.437	15929.92
530.803	15955.23
531.169	16082.68
531.535	15987.09
531.901	16056.47
532.267	16070.48
532.632	16113.19
532.998	16157.94
533.364	16154.77
533.73	16172.85
534.095	16286.07
534.461	16243.13
534.826	16294.2
535.192	16277.48
535.557	16402.68
535.923	16359.06
536.288	16281.78
536.653	16373.07
537.019	16239.52
537.384	16390.25
537.749	16407.87
538.114	16482.67
538.479	16371.26
538.845	16451.04
539.21	16303.02
539.575	16414.88
539.94	16374.43
540.305	16405.61
540.67	16371.26
541.034	16456.46
541.399	16462.34
541.764	16474.31
542.129	16494.43
542.494	16459.62
542.858	16491.71
543.223	16373.98
543.587	16411.94
543.952	16330.36
544.316	16398.16
544.681	16314.09
545.045	16447.42
545.41	16406.52
545.774	16417.36
546.138	16316.58
546.503	16437.7
546.867	16325.39
547.231	16465.05
547.595	16431.6
547.959	16399.51
548.324	16407.42
548.688	16368.33
549.052	16438.38
549.416	16271.61
549.779	16361.77
550.143	16249.23
550.507	16427.76
550.871	16439.74
551.235	16375.11
551.599	16388.21
551.962	16448.1
552.326	16439.29
552.689	16421.66
553.053	16339.63
553.417	16392.28
553.78	16578.94
554.143	16426.18
554.507	16361.32
554.87	16410.81
555.234	16496.68
555.597	16403.13
555.96	16402.45
556.323	16380.98
556.686	16404.71
557.05	16531.71
557.413	16413.52
557.776	16432.51
558.139	16507.98
558.502	16566.29
558.865	16509.34
559.228	16639.96
559.59	16653.97
559.953	16642.22
560.316	16778.49
560.679	16739.16
561.041	16733.29
561.404	16779.84
561.767	16843.12
562.129	16850.12
562.492	16970.34
562.854	16830.91
563.217	16894.64
563.579	16908.43
563.941	16863.23
564.304	17033.39
564.666	17051.7
565.028	17001.3
565.39	17056.9
565.753	17189.1
566.115	17117.69
566.477	17201.53
566.839	17213.28
567.201	17218.25
567.563	17133.28
567.925	17320.39
568.287	17266.38
568.648	17258.25
569.01	17451.24
569.372	17436.1
569.734	17373.72
570.095	17507.73
570.457	17424.12
570.819	17536.43
571.18	17474.74
571.542	17609.2
571.903	17649.65
572.265	17627.28
572.626	17652.59
572.987	17776.2
573.349	17723.55
573.71	17828.4
574.071	17815.07
574.432	17850.55
574.794	17941.17
575.155	17871.56
575.516	17864.56
575.877	17935.52
576.238	17860.72
576.599	17905.91
576.96	17996.76
577.32	17926.7
577.681	18034.72
578.042	17976.19
578.403	18076.3
578.763	18062.97
579.124	18028.17
579.485	18112.46
579.845	18063.2
580.206	18037.44
580.566	18106.81
580.927	17949.08
581.287	18227.49
581.648	17936.42
582.008	18181.84
582.368	17980.71
582.728	18074.04
583.089	17957.66
583.449	17883.09
583.809	18044.67
584.169	18080.15
584.529	18001.73
584.889	18060.03
585.249	18075.17
585.609	17987.49
585.969	18152.23
586.329	17963.09
586.688	18038.34
587.048	17970.32
587.408	18035.85
587.768	17985.91
588.127	17976.87
588.487	17994.95
588.846	18143.2
589.206	18010.32
589.565	17893.94
589.925	18053.48
590.284	17945.01
590.643	18009.87
591.003	17982.97
591.362	18040.37
591.721	17918.34
592.08	17957.66
592.44	17963.31
592.799	18072.46
593.158	18017.77
593.517	18035.18
593.876	17993.37
594.235	17932.81
594.593	17898.23
594.952	18001.28
595.311	17973.03
595.67	17973.48
596.029	17956.53
596.387	17936.65
596.746	17932.81
597.104	17927.38
597.463	17867.5
597.822	17898.68
598.18	17860.72
598.538	17853.94
598.897	18044.44
599.255	17869.98
599.613	18031.56
599.972	17959.02
600.33	17990.88
600.688	17893.03
601.046	17963.54
601.404	18059.81
601.762	17935.97
602.12	17992.01
602.478	18042.18
602.836	18030.66
603.194	17978.91
603.552	17988.17
603.91	17851.45
604.268	18002.18
604.625	17944.56
604.983	18131.44
605.341	17895.74
605.698	18025.23
606.056	18009.41
606.413	17993.37
606.771	18104.33
607.128	18152.23
607.485	17959.92
607.843	18075.63
608.2	18102.07
608.557	18156.3
608.914	18109.52
609.272	18177.54
609.629	18222.06
609.986	18242.4
610.343	18072.46
610.7	18322.63
611.057	18252.34
611.414	18320.82
611.771	18249.86
612.127	18387.26
612.484	18314.94
612.841	18364.66
613.198	18366.47
613.554	18408.95
613.911	18414.15
614.267	18384.77
614.624	18368.5
614.98	18500.47
615.337	18578.66
615.693	18542.73
616.05	18474.26
616.406	18596.97
616.762	18392
617.118	18475.16
617.475	18544.54
617.831	18467.93
618.187	18555.39
618.543	18652.56
618.899	18715.61
619.255	18620.02
619.611	18667.25
619.967	18616.4
620.323	18859.33
620.678	18667.7
621.034	18716.97
621.39	18560.13
621.746	18642.17
622.101	18803.52
622.457	18753.35
622.812	18703.41
623.168	18797.87
623.523	18766.91
623.879	18785.21
624.234	18685.55
624.589	18762.39
624.945	18805.1
625.3	18853.91
625.655	18800.13
626.01	18775.95
626.365	18779.34
626.72	18755.83
627.075	18738.66
627.43	18868.15
627.785	18705.89
628.14	18756.51
628.495	18843.52
628.85	18755.16
629.205	18728.26
629.559	18853.23
629.914	18703.18
630.269	18661.15
630.623	18625.44
630.978	18615.05
631.332	18741.82
631.687	18716.97
632.041	18637.19
632.396	18684.88
632.75	18593.13
633.104	18618.66
633.459	18541.38
633.813	18518.33
634.167	18498.21
634.521	18489.63
634.875	18535.05
635.229	18523.75
635.583	18314.04
635.937	18387.71
636.291	18275.62
636.645	18431.32
636.999	18348.39
637.352	18236.3
637.706	18201.27
638.06	18302.29
638.413	18241.05
638.767	18314.72
639.121	18327.15
639.474	18284.21
639.828	18161.5
640.181	18364.88
640.534	18222.06
640.888	18276.3
641.241	18080.37
641.594	18163.53
641.947	18281.5
642.301	18120.6
642.654	18142.07
643.007	18123.31
643.36	18153.14
643.713	18144.78
644.066	18139.35
644.419	17978.23
644.771	17807.61
645.124	17772.81
645.477	17744.79
645.83	17606.49
646.182	17510.44
646.535	17524.68
646.888	17514.74
647.24	17398.81
647.593	17503.89
647.945	17509.54
648.298	17373.05
648.65	17424.8
649.002	17370.79
649.355	17378.47
649.707	17456.21
650.059	17501.63
650.411	17679.93
650.763	17678.35
651.115	17908.85
651.467	17855.97
651.819	17823.66
652.171	17852.36
652.523	17761.96
652.875	17785.92
653.227	17853.49
653.578	17810.77
653.93	17794.73
654.282	17798.57
654.633	17750.66
654.985	17827.5
655.337	17763.32
655.688	17715.64
656.039	17779.59
656.391	17592.93
656.742	17814.84
657.094	17742.53
657.445	17894.16
657.796	17823.2
658.147	17705.01
658.498	17721.51
658.849	17845.12
659.2	17863.88
659.551	17790.66
659.902	17897.55
660.253	17769.65
660.604	17829.98
660.955	17768.52
661.306	17856.88
661.656	17781.17
662.007	17979.58
662.358	17991.56
662.708	17825.01
663.059	17835.18
663.409	17735.97
663.76	17877.21
664.11	17834.73
664.461	17985.91
664.811	17796.76
665.161	17899.59
665.511	17807.38
665.862	17811.68
666.212	17895.29
666.562	17779.36
666.912	17804.67
667.262	17857.78
667.612	17874.5
667.962	17809.19
668.312	17763.32
668.662	17825.92
669.011	17817.1
669.361	17799.93
669.711	17757.89
670.06	17811.23
670.41	17760.61
670.76	17821.85
671.109	17798.35
671.459	17790.66
671.808	17716.31
672.157	17861.85
672.507	17721.74
672.856	17777.56
673.205	17761.06
673.554	17804
673.904	17646.03
674.253	17777.33
674.602	17723.77
674.951	17508.86
675.3	17388.86
675.649	17734.39
675.998	17691.91
676.346	17638.8
676.695	17645.13
677.044	17485.36
677.393	17543.89
677.741	17608.29
678.09	17554.51
678.438	17478.35
678.787	17501.4
679.135	17458.92
679.484	17488.3
679.832	17449.88
680.181	17341.86
680.529	17379.37
680.877	17314.97
681.225	17288.3
681.573	17385.93
681.922	17171.24
682.27	17185.48
682.618	17165.14
682.966	17175.99
683.314	17198.14
683.661	17141.41
684.009	17065.48
684.357	17036.33
684.705	17029.78
685.053	16992.72
685.4	16991.14
685.748	16916.33
686.095	16922.21
686.443	16907.97
686.79	16874.98
687.138	16965.6
687.485	16907.3
687.832	16770.35
688.18	16776.68
688.527	16607.87
688.874	16551.82
689.221	16606.06
689.568	16566.06
689.915	16471.37
690.262	16539.17
690.609	16397.25
690.956	16381.21
691.303	16327.65
691.65	16247.65
691.997	16215.79
692.344	16149.8
692.69	16094.66
693.037	16082.01
693.383	15964.95
693.73	16075.23
694.077	15842.46
694.423	15833.2
694.769	15898.51
695.116	15802.92
695.462	15790.26
695.808	15770.15
696.155	15745.52
696.501	15559.76
696.847	15603.6
697.193	15327.9
697.539	15483.6
697.885	15352.53
698.231	15291.74
698.577	15311.63
698.923	15322.7
699.269	15193.89
699.614	15136.49
699.96	15011.53
700.306	15006.55
700.651	14941.7
700.997	14913.22
701.342	14790.29
701.688	14858.08
702.033	14773.34
702.379	14746.9
702.724	14721.82
703.069	14659.22
703.415	14501.94
703.76	14567.92
704.105	14495.16
704.45	14483.18
704.795	14429.62
705.14	14327.7
705.485	14351.2
705.83	14236.63
706.175	14261.26
706.52	14212.68
706.865	14164.99
707.209	14140.14
707.554	14099.91
707.899	14115.28
708.243	13998.45
708.588	13914.61
708.932	13894.72
709.277	13760.71
709.621	13834.16
709.966	13717.77
710.31	13803.42
710.654	13652.92
710.998	13666.7
711.342	13645.69
711.687	13598
712.031	13522.3
712.375	13551.45
712.719	13482.98
713.063	13426.71
713.407	13502.64
713.75	13466.93
714.094	13469.42
714.438	13375.86
714.782	13449.76
715.125	13322.53
715.469	13337.22
715.812	13244.79
716.156	13229.2
716.499	13121.18
716.843	13194.85
717.186	13174.51
717.53	13148.98
717.873	13143.55
718.216	13069.66
718.559	13139.71
718.902	13033.95
719.246	13061.75
719.589	13037.34
719.932	12937
720.275	12948.76
720.617	12897.68
720.96	12905.59
721.303	12895.42
721.646	12985.36
721.989	12833.05
722.331	12864.01
722.674	12849.55
723.016	12899.04
723.359	12727.29
723.701	12836.67
724.044	12726.61
724.386	12668.99
724.729	12773.17
725.071	12719.16
725.413	12773.39
725.755	12730.68
726.097	12701.98
726.439	12565.94
726.782	12589.44
727.124	12618.37
727.465	12580.86
727.807	12664.7
728.149	12598.26
728.491	12574.08
728.833	12565.26
729.175	12557.13
729.516	12592.15
729.858	12578.14
730.199	12574.08
730.541	12575.66
730.882	12589.44
731.224	12568.2
731.565	12520.74
731.906	12431.93
732.248	12555.09
732.589	12440.75
732.93	12460.86
733.271	12464.47
733.612	12506.51
733.953	12547.64
734.294	12451.59
734.635	12537.69
734.976	12511.93
735.317	12404.59
735.658	12380.63
735.999	12554.87
736.339	12491.14
736.68	12434.19
737.021	12454.08
737.361	12415.44
737.702	12472.84
738.042	12516.22
738.383	12482.1
738.723	12456.34
739.063	12455.21
739.404	12460.63
739.744	12528.65
740.084	12464.93
740.424	12586.51
740.764	12449.79
741.104	12544.7
741.444	12507.86
741.784	12502.67
742.124	12578.82
742.464	12551.7
742.804	12501.08
743.143	12519.39
743.483	12587.41
743.823	12601.19
744.162	12644.13
744.502	12646.62
744.841	12614.75
745.181	12789.21
745.52	12752.6
745.86	12685.71
746.199	12814.97
746.538	12824.24
746.877	12794.18
747.216	12931.81
747.556	12906.72
747.895	12979.94
748.234	12981.3
748.573	13052.26
748.911	13069.2
749.25	13163.21
749.589	13265.13
749.928	13284.34
750.267	13394.85
750.605	13453.15
750.944	13386.94
751.283	13463.09
751.621	13567.27
751.96	13606.59
752.298	13699.7
752.636	13900.82
752.975	13874.38
753.313	13872.35
753.651	14082.51
753.989	14128.84
754.327	14234.82
754.666	14250.87
755.004	14476.85
755.342	14576.51
755.679	14715.49
756.017	14802.94
756.355	14856.95
756.693	14924.3
757.031	15030.28
757.368	15107.12
757.706	15306.21
758.044	15282.48
758.381	15501.23
758.719	15542.36
759.056	15722.02
759.394	15896.7
759.731	15929.47
760.068	16010.6
760.405	16096.24
760.743	16101.44
761.08	16250.14
761.417	16361.32
761.754	16485.61
762.091	16609.68
762.428	16725.61
762.765	16612.61
763.102	16874.3
763.438	16873.62
763.775	17017.35
764.112	17144.13
764.449	17251.69
764.785	17333.73
765.122	17350.22
765.458	17358.36
765.795	17490.33
766.131	17544.34
766.467	17636.99
766.804	17694.62
767.14	17698.01
767.476	17771.23
767.812	17787.95
768.148	18017.55
768.485	17867.27
768.821	17938.45
769.157	18140.26
769.492	18140.94
769.828	18145.68
770.164	18056.19
770.5	18048.28
770.836	18201.95
771.171	18235.85
771.507	18242.4
771.842	18260.25
772.178	18297.99
772.513	18320.14
772.849	18346.81
773.184	18294.6
773.519	18450.08
773.855	18380.93
774.19	18333.7
774.525	18390.19
774.86	18423.64
775.195	18402.17
775.53	18396.52
775.865	18241.27
776.2	18233.36
776.535	18128.28
776.87	18185.23
777.205	18260.25
777.539	18130.77
777.874	18260.03
778.209	18167.15
778.543	18201.95
778.878	18118.34
779.212	18087.83
779.547	18050.09
779.881	18101.39
780.215	18003.54
780.55	18068.17
780.884	17935.29
781.218	17966.48
781.552	17989.98
781.886	17881.51
782.22	17891.45
782.554	17795.18
782.888	17660.72
783.222	17610.33
783.556	17645.13
783.889	17657.78
784.223	17540.5
784.557	17444.91
784.89	17574.62
785.224	17394.29
785.557	17445.59
785.891	17359.04
786.224	17317
786.558	17369.43
786.891	17167.18
787.224	17173.73
787.557	17185.48
787.891	17090.79
788.224	17097.35
788.557	17140.51
788.89	17051.92
789.223	17019.83
789.556	16890.12
789.888	16921.76
790.221	16886.73
790.554	16795.66
790.887	16702.56
791.219	16714.08
791.552	16627.3
791.884	16621.2
792.217	16636.12
792.549	16594.76
792.882	16404.03
793.214	16439.06
793.546	16403.35
793.879	16307.76
794.211	16198.84
794.543	16293.07
794.875	16225.28
795.207	16235.22
795.539	16083.81
795.871	16176.69
796.203	15981.22
796.535	15974.66
796.867	15867.32
797.198	15868.68
797.53	15787.55
797.862	15769.7
798.193	15903.48
798.525	15707.33
798.856	15737.38
799.188	15584.84
799.519	15476.6
799.85	15502.13
800.182	15508.24
800.513	15463.27
800.844	15352.31
801.175	15453.32
801.506	15400.22
801.837	15299.65
802.168	15261.46
802.499	15209.04
802.83	15153.67
803.161	15053.56
803.491	15039.77
803.822	15086.55
804.153	14988.48
804.483	14888.82
804.814	14823.73
805.145	14796.62
805.475	14882.49
805.805	14729.5
806.136	14821.7
806.466	14773.11
806.796	14698.31
807.126	14647.24
807.457	14573.57
807.787	14517.53
808.117	14503.06
808.447	14470.98
808.777	14602.05
809.107	14402.28
809.436	14354.82
809.766	14393.92
810.096	14330.64
810.426	14273.69
810.755	14275.27
811.085	14194.37
811.414	14204.09
811.744	14068.05
812.073	14108.95
812.403	14091.78
812.732	13968.16
813.061	13976.07
813.39	13878.9
813.719	13988.5
814.049	13891.78
814.378	13853.36
814.707	13803.87
815.036	13811.78
815.365	13756.64
815.693	13645.46
816.022	13732.69
816.351	13702.41
816.68	13530.21
817.008	13683.2
817.337	13522.3
817.665	13401.63
817.994	13575.63
818.322	13507.38
818.651	13380.61
818.979	13364.11
819.307	13427.16
819.636	13388.52
819.964	13314.17
820.292	13364.79
820.62	13378.8
820.948	13277.11
821.276	13266.94
821.604	13244.34
821.932	13252.93
822.259	13214.29
822.587	13297.45
822.915	13232.59
823.243	13302.87
823.57	13126.6
823.898	13254.96
824.225	13128.64
824.553	13190.11
824.88	13190.56
825.207	13323.66
825.535	13195.3
825.862	13282.76
826.189	13134.74
826.516	13258.35
826.843	13223.1
827.17	13274.62
827.497	13198.92
827.824	13249.76
828.151	13212.03
828.478	13129.99
828.805	13285.02
829.131	13228.52
829.458	13185.13
829.785	13184.68
830.111	13190.33
830.438	13221.06
830.764	13242.76
831.09	13195.53
831.417	13156.66
831.743	13139.49
832.069	13209.09
832.395	13069.88
832.722	13177.9
833.048	13124.34
833.374	13134.74
833.7	13065.36
834.026	13089.09
834.351	13138.13
834.677	13071.69
835.003	13076.44
835.329	13065.81
835.654	13101.52
835.98	13028.98
836.306	12987.17
836.631	12873.5
836.956	13038.92
837.282	13089.32
837.607	12982.2
837.932	12865.14
838.258	12874.18
838.583	12929.32
838.908	12833.05
839.233	12889.77
839.558	12787.18
839.883	12761.87
840.208	12706.05
840.533	12758.93
840.858	12698.14
841.182	12700.4
841.507	12687.07
841.832	12650.23
842.156	12612.27
842.481	12643
842.805	12574.3
843.13	12493.85
843.454	12515.55
843.778	12441.2
844.103	12503.34
844.427	12420.18
844.751	12472.38
845.075	12323.24
845.399	12363.23
845.723	12258.83
846.047	12280.52
846.371	12170.47
846.695	12206.18
847.019	12116.24
847.343	12055.22
847.666	11964.37
847.99	11875.56
848.313	11912.85
848.637	11876.47
848.96	11829.01
849.284	11837.6
849.607	11759.63
849.931	11702.91
850.254	11576.81
850.577	11520.32
850.9	11467.66
851.223	11480.55
851.546	11410.04
851.869	11330.95
852.192	11396.25
852.515	11368.91
852.838	11249.82
853.161	11236.71
853.483	11234
853.806	11097.05
854.129	11182.93
854.451	11030.84
854.774	11044.85
855.096	10957.85
855.419	10961.69
855.741	10928.02
856.063	10880.34
856.385	10888.24
856.708	10797.85
857.03	10792.65
857.352	10754.24
857.674	10715.59
857.996	10712.88
858.318	10614.58
858.64	10692.32
858.961	10627.01
859.283	10571.87
859.605	10555.37
859.926	10509.95
860.248	10557.63
860.57	10446.22
860.891	10469.95
861.212	10436.05
861.534	10436.73
861.855	10362.16
862.176	10371.87
862.498	10338.43
862.819	10306.57
863.14	10252.33
863.461	10203.52
863.782	10263.4
864.103	10219.11
864.424	10147.93
864.745	10229.51
865.065	10111.32
865.386	10162.16
865.707	10058.44
866.027	10094.37
866.348	10086.91
866.668	10020.7
866.989	10039.23
867.309	9949.51
867.63	9979.79
867.95	10018.66
868.27	9955.61
868.59	9962.39
868.91	9996.06
869.23	9926.69
869.55	9926.46
869.87	10009.85
870.19	9890.3
870.51	9854.15
870.83	9881.72
871.15	9865.9
871.469	9764.43
871.789	9906.8
872.109	9866.8
872.428	9804.88
872.748	9842.4
873.067	9757.88
873.386	9798.56
873.706	9766.01
874.025	9700.71
874.344	9642.85
874.663	9719.01
874.982	9639.01
875.301	9640.82
875.62	9625.45
875.939	9615.74
876.258	9586.81
876.577	9536.42
876.896	9596.08
877.214	9414.39
877.533	9527.6
877.852	9510.65
878.17	9534.83
878.489	9451.45
878.807	9465.91
879.125	9454.38
879.444	9429.3
879.762	9413.48
880.08	9421.39
880.398	9350.88
880.716	9346.82
881.034	9330.77
881.352	9360.6
881.67	9194.5
881.988	9348.4
882.306	9318.12
882.624	9278.57
882.941	9236.76
883.259	9181.62
883.577	9220.27
883.894	9132.81
884.212	9131.45
884.529	9086.71
884.846	9152.92
885.164	9094.85
885.481	9073.6
885.798	9072.47
886.115	8952.7
886.432	9027.28
886.75	8927.39
887.067	8996.54
887.383	8948.86
887.7	8915.42
888.017	8912.25
888.334	8869.31
888.651	8866.83
888.967	8852.37
889.284	8757.91
889.6	8763.78
889.917	8730.79
890.233	8708.19
890.55	8697.34
890.866	8695.99
891.182	8618.25
891.498	8604.01
891.815	8632.03
892.131	8562.66
892.447	8526.95
892.763	8491.7
893.079	8471.13
893.395	8454.86
893.71	8443.34
894.026	8426.16
894.342	8403.34
894.657	8359.95
894.973	8356.79
895.289	8316.79
895.604	8279.05
895.92	8224.36
896.235	8226.17
896.55	8191.14
896.865	8248.09
897.181	8145.94
897.496	8170.8
897.811	8072.73
898.126	8079.96
898.441	8061.65
898.756	7984.82
899.071	7967.42
899.386	7938.72
899.7	7843.35
900.015	7892.62
900.33	7825.73
900.644	7803.35
900.959	7784.6
901.273	7770.81
901.588	7708.22
901.902	7730.36
902.216	7668.89
902.531	7664.15
902.845	7623.92
903.159	7590.7
903.473	7553.64
903.787	7569.01
904.101	7472.29
904.415	7493.31
904.729	7418.28
905.042	7410.14
905.356	7384.16
905.67	7378.28
905.984	7321.56
906.297	7397.04
906.611	7279.98
906.924	7304.16
907.237	7270.03
907.551	7238.17
907.864	7193.2
908.177	7204.73
908.491	7099.42
908.804	7105.97
909.117	7060.1
909.43	7067.33
909.743	7036.14
910.056	7013.32
910.368	6964.28
910.681	6904.17
910.994	6905.3
911.307	6897.39
911.619	6836.37
911.932	6851.29
912.244	6752.31
912.557	6775.81
912.869	6711.41
913.181	6668.24
913.494	6643.38
913.806	6651.07
914.118	6635.02
914.43	6600.9
914.742	6587.34
915.054	6578.3
915.366	6529.72
915.678	6518.42
915.99	6474.12
916.302	6407.23
916.613	6408.81
916.925	6400.23
917.236	6405.42
917.548	6321.36
917.859	6347.12
918.171	6272.09
918.482	6271.19
918.794	6256.95
919.105	6238.2
919.416	6202.94
919.727	6144.87
920.038	6193.9
920.349	6114.81
920.66	6053.57
920.971	6110.97
921.282	6091.31
921.593	6046.11
921.903	5979
922.214	5974.93
922.525	5964.98
922.835	5936.51
923.146	5901.94
923.456	5828.49
923.767	5876.85
924.077	5785.33
924.387	5780.13
924.697	5795.05
925.008	5778.55
925.318	5718.44
925.628	5709.17
925.938	5696.74
926.248	5634.37
926.558	5595.05
926.867	5642.96
927.177	5577.88
927.487	5523.19
927.796	5527.93
928.106	5497.88
928.416	5467.82
928.725	5519.57
929.034	5405.9
929.344	5416.75
929.653	5406.13
929.962	5318.67
930.271	5371.78
930.581	5366.36
930.89	5270.99
931.199	5242.97
931.508	5258.79
931.817	5276.87
932.125	5223.76
932.434	5192.8
932.743	5151.67
933.051	5109.19
933.36	5122.52
933.669	5090.66
933.977	5100.6
934.286	5110.09
934.594	5052.92
934.902	5028.74
935.21	4975.63
935.519	4981.06
935.827	4939.93
936.135	4962.75
936.443	4917.55
936.751	4887.27
937.059	4881.17
937.367	4845.24
937.674	4876.2
937.982	4851.12
938.29	4862.41
938.597	4776.54
938.905	4753.26
939.213	4707.84
939.52	4678.92
939.827	4673.72
940.135	4678.69
940.442	4718.69
940.749	4635.08
941.056	4654.28
941.363	4568.41
941.67	4605.7
941.977	4568.86
942.284	4485.48
942.591	4525.02
942.898	4509.2
943.205	4525.47
943.511	4447.74
943.818	4472.14
944.125	4432.6
944.431	4426.49
944.738	4356.44
945.044	4384.24
945.35	4348.3
945.657	4282.77
945.963	4342.65
946.269	4264.92
946.575	4292.49
946.881	4226.73
947.187	4269.44
947.493	4203.22
947.799	4242.32
948.105	4183.79
948.41	4197.57
948.716	4191.25
949.022	4158.93
949.327	4109.21
949.633	4107.18
949.938	4070.34
950.244	4061.98
950.549	4007.75
950.854	4040.52
951.16	3981.53
951.465	4020.85
951.77	3989.67
952.075	3964.36
952.38	3980.63
952.685	3943.12
952.99	3927.98
953.294	3909.45
953.599	3835.32
953.904	3863.12
954.209	3817.7
954.513	3810.46
954.818	3800.97
955.122	3814.08
955.426	3766.85
955.731	3754.65
956.035	3738.15
956.339	3768.21
956.643	3760.52
956.948	3716.91
957.252	3704.03
957.556	3666.97
957.86	3688.21
958.163	3602.33
958.467	3644.59
958.771	3602.33
959.075	3600.07
959.378	3542.22
959.682	3563.69
959.985	3550.13
960.289	3546.52
960.592	3509
960.896	3524.14
961.199	3475.33
961.502	3487.76
961.805	3459.97
962.108	3431.27
962.411	3447.54
962.714	3396.69
963.017	3368.67
963.32	3383.58
963.623	3351.95
963.926	3304.04
964.228	3288.67
964.531	3338.61
964.833	3321.66
965.136	3277.6
965.438	3257.48
965.741	3258.39
966.043	3233.76
966.345	3236.92
966.648	3234.66
966.95	3231.04
967.252	3153.08
967.554	3170.93
967.856	3171.84
968.158	3162.57
968.46	3150.82
968.761	3146.08
969.063	3105.17
969.365	3089.81
969.666	3094.1
969.968	3086.87
970.269	3094.33
970.571	3076.25
970.872	3003.93
971.174	3003.71
971.475	2964.61
971.776	2960.77
972.077	2969.81
972.378	2987.21
972.679	2962.35
972.98	2954.89
973.281	2904.27
973.582	2931.62
973.883	2914.22
974.183	2897.72
974.484	2863.82
974.785	2868.34
975.085	2876.7
975.386	2887.78
975.686	2856.14
975.986	2813.2
976.287	2812.3
976.587	2784.96
976.887	2772.53
977.187	2744.73
977.487	2727.1
977.787	2742.92
978.087	2719.19
978.387	2742.47
978.687	2765.75
978.987	2692.53
979.286	2659.76
979.586	2705.18
979.885	2674.68
980.185	2648.69
980.484	2635.13
980.784	2649.82
981.083	2628.8
981.382	2617.73
981.682	2613.66
981.981	2580.89
982.28	2582.7
982.579	2568.01
982.878	2547.9
983.177	2536.83
983.475	2560.1
983.774	2538.18
984.073	2470.61
984.372	2472.19
984.67	2480.33
984.969	2503.61
985.267	2444.17
985.566	2456.15
985.864	2401.46
986.162	2444.4
986.461	2400.78
986.759	2408.92
987.057	2396.49
987.355	2410.5
987.653	2368.02
987.951	2405.76
988.249	2335.48
988.547	2374.34
988.844	2342.48
989.142	2335.93
989.44	2330.5
989.737	2283.27
990.035	2289.15
990.332	2304.97
990.63	2266.55
990.927	2240.34
991.224	2266.78
991.521	2244.63
991.819	2238.3
992.116	2233.11
992.413	2212.99
992.71	2197.4
993.006	2234.01
993.303	2210.05
993.6	2208.47
993.897	2193.33
994.193	2142.26
994.49	2107.01
994.787	2121.24
995.083	2147.46
995.379	2106.78
995.676	2103.17
995.972	2081.02
996.268	2118.08
996.565	2086.67
996.861	2081.24
997.157	2043.51
997.453	2051.19
997.749	2030.17
998.044	2027.91
998.34	2017.52
998.636	1992.21
998.932	2007.35
999.227	1992.21
999.523	1968.03
999.818	1984.98
1000.114	1978.2
1000.409	1939.55
1000.704	1917.41
1001	1930.29
1001.295	1918.99
1001.59	1909.05
1001.885	1907.69
1002.18	1869.05
1002.475	1893.45
1002.77	1858.2
1003.065	1842.15
1003.359	1867.92
1003.654	1821.14
1003.949	1827.24
1004.243	1837.86
1004.538	1815.49
1004.832	1809.61
1005.127	1808.94
1005.421	1749.95
1005.715	1782.72
1006.009	1772.55
1006.304	1770.29
1006.598	1739.78
1006.892	1719.45
1007.186	1708.37
1007.48	1697.3
1007.773	1712.89
1008.067	1696.17
1008.361	1678.77
1008.655	1644.19
1008.948	1676.74
1009.242	1636.06
1009.535	1630.64
1009.829	1613.91
1010.122	1628.15
1010.415	1608.71
1010.708	1594.93
1011.001	1618.43
1011.295	1544.08
1011.588	1582.5
1011.881	1563.97
1012.173	1587.25
1012.466	1570.98
1012.759	1554.48
1013.052	1544.54
1013.344	1528.04
1013.637	1524.2
1013.93	1521.03
1014.222	1500.02
1014.514	1513.8
1014.807	1472.22
1015.099	1479
1015.391	1480.81
1015.683	1470.19
1015.976	1466.35
1016.268	1455.05
1016.56	1453.92
1016.851	1427.7
1017.143	1421.15
1017.435	1403.3
1017.727	1420.7
1018.018	1391.55
1018.31	1415.5
1018.602	1359.46
1018.893	1400.13
1019.185	1365.56
1019.476	1359
1019.767	1361.04
1020.058	1347.93
1020.35	1329.4
1020.641	1319.91
1020.932	1318.1
1021.223	1304.09
1021.514	1265.9
1021.804	1281.49
1022.095	1300.7
1022.386	1271.1
1022.677	1267.03
1022.967	1265.22
1023.258	1247.82
1023.548	1267.93
1023.839	1243.07
1024.129	1238.33
1024.419	1223.41
1024.709	1209.18
1025	1199.46
1025.29	1185.68
1025.58	1188.16
1025.87	1181.16
1026.16	1171.44
1026.449	1174.38
1026.739	1147.94
1027.029	1160.82
1027.319	1143.19
1027.608	1126.47
1027.898	1135.73
1028.187	1128.73
1028.477	1123.53
1028.766	1109.52
1029.055	1114.26
1029.344	1091.89
1029.634	1091.44
1029.923	1045.11
1030.212	1079.92
1030.501	1051.44
1030.79	1086.92
1031.078	1070.42
1031.367	1051.44
1031.656	1052.12
1031.945	1039.92
1032.233	1039.01
1032.522	1010.54
1032.81	1011.44
1033.099	997.88
1033.387	1003.31
1033.675	1002.18
1033.963	989.75
1034.251	992.46
1034.54	1006.24
1034.828	971.22
1035.116	964.66
1035.403	947.94
1035.691	942.52
1035.979	932.12
1036.267	942.07
1036.554	942.29
1036.842	940.94
1037.129	894.84
1037.417	923.54
1037.704	917.21
1037.992	928.96
1038.279	903.87
1038.566	901.16
1038.853	901.16
1039.14	901.16
