Data from hue_70_FLMS001491_40.txt Node
Date: Mon Feb 06 15:20:47 GMT 2017
User: dcchb
Spectrometer: FLMS00149
Trigger mode: 0
Integration Time (sec): 2.000000E-2
Scans to average: 10
Electric dark correction enabled: true
Nonlinearity correction enabled: false
Boxcar width: 0
XAxis mode: Wavelengths
Number of Pixels in Spectrum: 2048
>>>>>Begin Spectral Data<<<<<
341.393	-22.46
341.776	-22.46
342.16	-22.46
342.543	-58.16
342.927	-70.14
343.31	-69.24
343.693	-83.25
344.077	-56.35
344.46	-58.39
344.843	-38.95
345.226	-52.51
345.61	-50.7
345.993	-10.71
346.376	-5.06
346.759	-6.41
347.142	40.14
347.525	61.61
347.908	56.86
348.291	78.11
348.674	91.21
349.057	103.64
349.44	123.08
349.823	135.05
350.206	154.04
350.588	186.35
350.971	228.16
351.354	234.03
351.737	231.55
352.119	233.36
352.502	238.78
352.884	257.54
353.267	268.38
353.65	283.07
354.032	277.42
354.414	305.22
354.797	294.14
355.179	324.88
355.562	338.21
355.944	312.45
356.326	331.21
356.709	319.45
357.091	330.08
357.473	333.24
357.855	326.91
358.238	331.66
358.62	323.3
359.002	340.25
359.384	359.23
359.766	335.73
360.148	348.83
360.53	329.62
360.912	347.7
361.294	344.09
361.676	344.99
362.057	319
362.439	327.14
362.821	313.81
363.203	334.6
363.584	305.44
363.966	306.35
364.348	315.16
364.729	319.91
365.111	331.88
365.493	311.77
365.874	315.61
366.256	334.14
366.637	321.49
367.019	281.94
367.4	320.58
367.781	313.58
368.163	312
368.544	308.16
368.925	312.45
369.306	329.17
369.688	293.01
370.069	324.43
370.45	307.93
370.831	321.94
371.212	317.2
371.593	296.63
371.974	282.85
372.355	306.12
372.736	295.05
373.117	310.42
373.498	320.13
373.879	308.83
374.26	324.65
374.641	310.42
375.021	306.57
375.402	317.87
375.783	322.17
376.163	301.6
376.544	310.19
376.925	323.75
377.305	325.1
377.686	310.87
378.066	308.38
378.447	330.98
378.827	310.87
379.208	326.69
379.588	327.59
379.968	322.17
380.349	325.1
380.729	333.24
381.109	328.72
381.489	332.11
381.87	326.69
382.25	320.13
382.63	326.91
383.01	324.2
383.39	329.4
383.77	343.86
384.15	316.74
384.53	346.12
384.91	348.38
385.29	333.69
385.67	338.44
386.049	368.95
386.429	328.95
386.809	322.17
387.189	354.71
387.568	348.15
387.948	333.69
388.328	336.18
388.707	343.18
389.087	343.64
389.466	343.18
389.846	342.73
390.225	364.88
390.605	359.23
390.984	351.77
391.363	350.87
391.743	345.89
392.122	351.32
392.501	341.83
392.881	358.78
393.26	359.68
393.639	373.01
394.018	353.35
394.397	351.77
394.776	362.62
395.155	397.64
395.534	368.49
395.913	388.83
396.292	374.37
396.671	362.84
397.05	366.01
397.429	373.24
397.808	368.95
398.186	383.63
398.565	380.02
398.944	372.56
399.323	370.98
399.701	378.21
400.08	363.52
400.458	359.68
400.837	397.64
401.215	387.93
401.594	385.67
401.972	375.95
402.351	372.33
402.729	366.69
403.107	368.27
403.486	384.09
403.864	413.46
404.242	392.67
404.62	415.05
404.999	396.51
405.377	396.97
405.755	376.63
406.133	389.74
406.511	389.51
406.889	404.88
407.267	397.64
407.645	419.34
408.023	414.37
408.401	427.47
408.779	401.26
409.156	412.11
409.534	439.68
409.912	431.32
410.29	441.49
410.667	424.08
411.045	440.13
411.422	434.71
411.8	422.05
412.178	432.67
412.555	444.65
412.933	444.42
413.31	424.54
413.687	453.46
414.065	426.57
414.442	471.77
414.819	448.04
415.197	447.14
415.574	448.49
415.951	470.41
416.328	467.25
416.705	451.88
417.082	456.4
417.46	460.92
417.837	482.16
418.214	480.13
418.591	492.56
418.967	472.45
419.344	470.64
419.721	488.94
420.098	477.87
420.475	502.73
420.852	485.33
421.228	482.39
421.605	481.26
421.982	480.58
422.358	498.66
422.735	500.47
423.111	517.42
423.488	509.51
423.864	528.94
424.241	532.56
424.617	522.61
424.994	537.53
425.37	521.03
425.746	512.9
426.123	514.25
426.499	535.72
426.875	538.66
427.251	567.36
427.627	532.78
428.003	555.38
428.379	546.79
428.756	563.06
429.132	568.49
429.507	556.74
429.883	571.88
430.259	612.1
430.635	564.42
431.011	567.81
431.387	589.05
431.763	593.35
432.138	601.03
432.514	585.89
432.89	589.73
433.265	584.31
433.641	604.42
434.016	641.48
434.392	605.32
434.767	613.01
435.143	613.23
435.518	623.4
435.894	628.37
436.269	629.05
436.644	638.32
437.02	630.41
437.395	646.23
437.77	663.4
438.145	664.98
438.52	680.8
438.895	681.93
439.271	681.93
439.646	686
440.021	707.24
440.395	687.13
440.77	674.25
441.145	690.07
441.52	713.12
441.895	708.15
442.27	710.63
442.645	719.67
443.019	732.55
443.394	725.09
443.769	726.68
444.143	721.25
444.518	737.07
444.892	718.09
445.267	717.86
445.641	721.25
446.016	743.62
446.39	744.53
446.764	724.64
447.139	771.42
447.513	749.5
447.887	758.54
448.262	759.67
448.636	780.23
449.01	802.61
449.384	775.04
449.758	796.96
450.132	784.53
450.506	789.27
450.88	806
451.254	787.69
451.628	822.04
452.002	813.68
452.376	817.52
452.75	816.84
453.123	834.7
453.497	834.02
453.871	851.87
454.244	875.15
454.618	854.13
454.992	883.73
455.365	877.41
455.739	905.2
456.112	903.39
456.486	911.98
456.859	911.08
457.232	927.57
457.606	920.12
457.979	949.04
458.352	961.25
458.725	945.65
459.099	959.44
459.472	984.3
459.845	978.19
460.218	981.58
460.591	1021.36
460.964	1018.42
461.337	1028.36
461.71	1037.4
462.083	1073.56
462.456	1063.16
462.829	1071.75
463.201	1076.72
463.574	1118.98
463.947	1095.93
464.32	1115.14
464.692	1135.48
465.065	1170.51
465.438	1182.48
465.81	1182.71
466.183	1228.81
466.555	1229.49
466.928	1229.04
467.3	1247.79
467.672	1272.2
468.045	1309.71
468.417	1316.49
468.789	1322.37
469.161	1327.79
469.534	1344.74
469.906	1395.36
470.278	1374.34
470.65	1448.46
471.022	1455.7
471.394	1489.59
471.766	1536.37
472.138	1528.24
472.51	1561
472.882	1633.54
473.253	1636.93
473.625	1677.16
473.997	1720.77
474.369	1723.71
474.74	1754.45
475.112	1823.37
475.484	1864.72
475.855	1901.56
476.227	1941.79
476.598	2010.26
476.97	2018.85
477.341	2077.15
477.713	2143.36
478.084	2156.92
478.455	2218.61
478.827	2313.3
479.198	2391.04
479.569	2417.03
479.94	2487.31
480.311	2531.6
480.682	2640.75
481.053	2756
481.424	2791.48
481.795	2864.92
482.166	2946.28
482.537	3032.6
482.908	3098.59
483.279	3220.62
483.65	3317.79
484.021	3384.01
484.391	3507.62
484.762	3543.32
485.133	3693.15
485.503	3765.01
485.874	3855.86
486.244	3961.62
486.615	4120.48
486.985	4256.53
487.356	4362.74
487.726	4440.48
488.097	4570.19
488.467	4674.14
488.837	4831.43
489.207	4986.68
489.578	5098.54
489.948	5180.8
490.318	5358.87
490.688	5425.54
491.058	5600.67
491.428	5735.36
491.798	5833.89
492.168	6069.13
492.538	6092.86
492.908	6212.63
493.278	6439.52
493.648	6472.29
494.017	6719.06
494.387	6810.13
494.757	6955.44
495.126	7080.63
495.496	7176.9
495.866	7338.93
496.235	7471.36
496.605	7611.92
496.974	7716.77
497.344	7865.25
497.713	8048.52
498.082	8181.4
498.452	8299.13
498.821	8441.95
499.19	8536.19
499.559	8658.22
499.928	8820.25
500.298	8934.6
500.667	9053.69
501.036	9160.35
501.405	9298.88
501.774	9336.39
502.143	9492.32
502.512	9664.75
502.88	9785.87
503.249	9876.27
503.618	10011.63
503.987	10141.34
504.356	10227.22
504.724	10366.42
505.093	10464.27
505.462	10551.28
505.83	10699.29
506.199	10756.24
506.567	10997.59
506.936	11022.68
507.304	11158.04
507.672	11249.11
508.041	11423.34
508.409	11497.69
508.777	11650.23
509.145	11746.73
509.514	11801.64
509.882	11984.46
510.25	11996.66
510.618	12125.02
510.986	12205.02
511.354	12304
511.722	12500.6
512.09	12588.28
512.458	12682.75
512.826	12825.79
513.193	12942.63
513.561	12963.64
513.929	13013.13
514.297	13193.24
514.664	13227.36
515.032	13405.44
515.4	13487.92
515.767	13607.02
516.135	13631.42
516.502	13567.24
516.869	13866.44
517.237	13864.64
517.604	13849.72
517.972	14075.25
518.339	14173.55
518.706	14208.58
519.073	14307.34
519.44	14342.59
519.808	14570.83
520.175	14522.92
520.542	14702.35
520.909	14886.98
521.276	14855.12
521.643	15021.67
522.009	15140.53
522.376	15173.53
522.743	15293.3
523.11	15407.87
523.477	15579.62
523.843	15582.33
524.21	15843.11
524.577	15932.83
524.943	15860.29
525.31	15988.2
525.676	16196.55
526.043	16217.79
526.409	16328.75
526.776	16457.34
527.142	16420.05
527.508	16507.5
527.874	16745.01
528.241	16785.91
528.607	16762.86
528.973	16865.23
529.339	16837.44
529.705	17059.58
530.071	17165.57
530.437	17195.62
530.803	17260.48
531.169	17296.41
531.535	17291.44
531.901	17399.91
532.267	17493.69
532.632	17516.97
532.998	17504.09
533.364	17631.09
533.73	17708.15
534.095	17762.16
534.461	17797.19
534.826	17925.77
535.192	18039.89
535.557	17988.37
535.923	17999.22
536.288	18059.78
536.653	18116.5
537.019	17932.1
537.384	18157.18
537.749	18254.12
538.114	18147.46
538.479	18253.67
538.845	18209.38
539.21	18337.74
539.575	18370.05
539.94	18335.48
540.305	18471.97
540.67	18358.75
541.034	18420.45
541.399	18443.27
541.764	18459.99
542.129	18523.72
542.494	18564.62
542.858	18624.28
543.223	18488.69
543.587	18696.82
543.952	18589.93
544.316	18633.55
544.681	18649.14
545.045	18726.43
545.41	18845.75
545.774	18784.73
546.138	18771.17
546.503	18788.8
546.867	18804.39
547.231	18969.81
547.595	18917.16
547.959	18951.73
548.324	19029.02
548.688	18909.7
549.052	18881.68
549.416	18933.43
549.779	18938.63
550.143	18953.32
550.507	19125.97
550.871	19045.97
551.235	19061.33
551.599	19198.73
551.962	19190.37
552.326	19253.42
552.689	19318.96
553.053	19230.6
553.417	19336.13
553.78	19465.17
554.143	19386.98
554.507	19384.72
554.87	19430.59
555.234	19505.62
555.597	19504.49
555.96	19475.11
556.323	19672.62
556.686	19590.13
557.05	19751.26
557.413	19721.66
557.776	19780.64
558.139	19781.77
558.502	19812.28
558.865	19779.06
559.228	19932.5
559.59	20001.65
559.953	19921.43
560.316	20123.68
560.679	20122.32
561.041	20253.85
561.404	20323.9
561.767	20433.95
562.129	20308.08
562.492	20515.76
562.854	20469.21
563.217	20488.64
563.579	20595.08
563.941	20735.42
564.304	20737.22
564.666	20842.98
565.028	20826.94
565.39	20895.86
565.753	21005.24
566.115	21023.32
566.477	21105.12
566.839	21146.25
567.201	21224.44
567.563	21198.91
567.925	21392.8
568.287	21301.95
568.648	21400.03
569.01	21358.22
569.372	21659.01
569.734	21504.21
570.095	21689.29
570.457	21639.8
570.819	21754.82
571.18	21642.06
571.542	21904.2
571.903	21809.06
572.265	22011.09
572.626	21976.96
572.987	22048.83
573.349	22124.53
573.71	22126.79
574.071	22188.48
574.432	22177.86
574.794	22402.04
575.155	22254.7
575.516	22309.16
575.877	22358.42
576.238	22422.6
576.599	22512.77
576.96	22413.56
577.32	22491.08
577.681	22646.33
578.042	22576.72
578.403	22630.51
578.763	22638.64
579.124	22683.84
579.485	22705.31
579.845	22707.57
580.206	22764.74
580.566	22745.53
580.927	22773.78
581.287	22792.99
581.648	22650.85
582.008	22850.84
582.368	22742.37
582.728	22842.25
583.089	22887.22
583.449	22768.36
583.809	22708.24
584.169	22881.35
584.529	22770.62
584.889	23047.44
585.249	22720
585.609	22821.24
585.969	22998.63
586.329	22828.02
586.688	22777.62
587.048	22839.99
587.408	22902.59
587.768	22839.31
588.127	22869.82
588.487	22833.67
588.846	23085.18
589.206	22846.09
589.565	22828.47
589.925	22849.71
590.284	22881.57
590.643	22865.53
591.003	22883.16
591.362	23049.03
591.721	22843.83
592.08	22984.62
592.44	22890.16
592.799	23028.24
593.158	22992.31
593.517	22850.84
593.876	22787.56
594.235	22853.55
594.593	22864.62
594.952	22954.79
595.311	22879.31
595.67	22908.47
596.029	23069.14
596.387	23055.81
596.746	23004.51
597.104	22880.44
597.463	22897.17
597.822	23018.52
598.18	22836.15
598.538	22821.46
598.897	23010.84
599.255	22841.12
599.613	23192.07
599.972	22975.36
600.33	23028.69
600.688	22939.43
601.046	23069.14
601.404	23187.1
601.762	23116.82
602.12	23198.4
602.478	23122.7
602.836	23164.96
603.194	23105.3
603.552	23150.04
603.91	23227.33
604.268	23193.2
604.625	23129.02
604.983	23257.38
605.341	23193.88
605.698	23222.81
606.056	23357.04
606.413	23437.27
606.771	23310.49
607.128	23482.69
607.485	23286.53
607.843	23364.5
608.2	23486.76
608.557	23537.38
608.914	23533.53
609.272	23507.32
609.629	23648.33
609.986	23636.81
610.343	23666.86
610.7	23765.84
611.057	23804.04
611.414	23757.26
611.771	23681.55
612.127	23886.52
612.484	23830.02
612.841	23798.84
613.198	23883.81
613.554	23896.01
613.911	23934.43
614.267	23970.13
614.624	23831.15
614.98	23927.87
615.337	24060.53
615.693	23952.05
616.05	23962.22
616.406	24071.15
616.762	24035.89
617.118	24094.42
617.475	24094.42
617.831	24236.34
618.187	24138.49
618.543	24214.42
618.899	24385.71
619.255	24328.77
619.611	24338.03
619.967	24371.93
620.323	24492.38
620.678	24231.37
621.034	24345.49
621.39	24281.76
621.746	24326.96
622.101	24519.95
622.457	24484.92
622.812	24402.66
623.168	24476.56
623.523	24559.95
623.879	24688.98
624.234	24385.94
624.589	24580.29
624.945	24556.78
625.3	24498.03
625.655	24550
626.01	24494.86
626.365	24694.18
626.72	24460.52
627.075	24610.79
627.43	24507.52
627.785	24479.95
628.14	24609.89
628.495	24571.47
628.85	24588.87
629.205	24509.1
629.559	24625.93
629.914	24491.47
630.269	24567.18
630.623	24426.62
630.978	24338.26
631.332	24618.03
631.687	24531.93
632.041	24411.25
632.396	24469.33
632.75	24355.66
633.104	24363.57
633.459	24399.73
633.813	24241.99
634.167	24342.33
634.521	24316.56
634.875	24474.53
635.229	24332.83
635.583	24339.61
635.937	24206.28
636.291	24237.7
636.645	24227.53
636.999	24184.14
637.352	24170.35
637.706	24071.82
638.06	24154.08
638.413	24113.18
638.767	24062.56
639.121	24105.72
639.474	23957.25
639.828	23935.78
640.181	24039.96
640.534	24036.35
640.888	23994.54
641.241	23869.57
641.594	23884.71
641.947	24073.86
642.301	23841.1
642.654	23941.21
643.007	23956.35
643.36	23929.68
643.713	23790.25
644.066	23953.41
644.419	23794.09
644.771	23658.95
645.124	23431.16
645.477	23197.72
645.83	23302.13
646.182	23234.33
646.535	23029.14
646.888	23037.95
647.24	23036.15
647.593	23146.65
647.945	23099.19
648.298	22999.08
648.65	23094.9
649.002	22857.17
649.355	23075.24
649.707	23020.55
650.059	22951.18
650.411	23247.21
650.763	23251.28
651.115	23541.9
651.467	23427.55
651.819	23423.25
652.171	23326.76
652.523	23356.82
652.875	23398.4
653.227	23353.65
653.578	23416.47
653.93	23434.1
654.282	23339.41
654.633	23321.56
654.985	23416.93
655.337	23381
655.688	23341.9
656.039	23492.63
656.391	23427.77
656.742	23353.2
657.094	23379.41
657.445	23348.68
657.796	23323.6
658.147	23267.78
658.498	23331.05
658.849	23327.21
659.2	23357.04
659.551	23229.81
659.902	23346.19
660.253	23336.93
660.604	23310.94
660.955	23247.89
661.306	23286.53
661.656	23396.36
662.007	23174.67
662.358	23258.06
662.708	23399.53
663.059	23327.21
663.409	23202.92
663.76	23267.78
664.11	23322.92
664.461	23350.71
664.811	23449.47
665.161	23273.88
665.511	23184.16
665.862	23279.3
666.212	23418.51
666.562	23328.57
666.912	23244.73
667.262	23366.98
667.612	23331.73
667.962	23342.8
668.312	23185.07
668.662	23332.41
669.011	23328.79
669.361	23281.11
669.711	23245.41
670.06	23130.15
670.41	23249.47
670.76	23083.83
671.109	23216.93
671.459	23196.37
671.808	23182.81
672.157	23201.57
672.507	23067.33
672.856	23045.41
673.205	23048.57
673.554	23152.53
673.904	23124.28
674.253	23149.82
674.602	23078.4
674.951	22700.79
675.3	22631.18
675.649	22955.7
675.998	22918.86
676.346	23008.35
676.695	22999.08
677.044	22794.57
677.393	23007.9
677.741	22879.99
678.09	22864.85
678.438	22753.44
678.787	22869.37
679.135	22904.85
679.484	22746.89
679.832	22844.96
680.181	22867.34
680.529	22748.24
680.877	22676.16
681.225	22703.73
681.573	22734.46
681.922	22628.02
682.27	22524.97
682.618	22556.61
682.966	22392.32
683.314	22533.33
683.661	22458.76
684.009	22294.7
684.357	22364.98
684.705	22249.73
685.053	22239.78
685.4	22301.93
685.748	22107.13
686.095	22069.84
686.443	21978.32
686.79	21931.77
687.138	21981.03
687.485	21962.73
687.832	21829.85
688.18	21947.36
688.527	21744.2
688.874	21809.96
689.221	21696.75
689.568	21671.44
689.915	21518.22
690.262	21502.4
690.609	21484.32
690.956	21406.13
691.303	21355.96
691.65	21286.59
691.997	21347.38
692.344	21115.07
692.69	21134.95
693.037	21128.17
693.383	20895.41
693.73	21066.48
694.077	20933.6
694.423	20945.35
694.769	20881.85
695.116	20814.96
695.462	20835.3
695.808	20740.39
696.155	20653.16
696.501	20451.81
696.847	20436.21
697.193	20393.96
697.539	20390.57
697.885	20265.15
698.231	20317.12
698.577	20116.9
698.923	20109.22
699.269	19987.86
699.614	19916.68
699.96	19961.42
700.306	19828.77
700.651	19718.27
700.997	19786.51
701.342	19650.7
701.688	19660.19
702.033	19582.9
702.379	19510.59
702.724	19398.05
703.069	19496.58
703.415	19375.23
703.76	19310.14
704.105	19224.49
704.45	19161.45
704.795	19139.07
705.14	19055.46
705.485	19087.55
705.83	18939.08
706.175	18996.7
706.52	19028.57
706.865	18801
707.209	18814.34
707.554	18787.22
707.899	18784.96
708.243	18675.58
708.588	18604.62
708.932	18433.78
709.277	18486.89
709.621	18501.35
709.966	18324.41
710.31	18359.21
710.654	18265.65
710.998	18333.67
711.342	18257.74
711.687	18247.57
712.031	18089.38
712.375	18054.81
712.719	18086.22
713.063	18158.76
713.407	18016.39
713.75	18028.37
714.094	18018.65
714.438	17822.5
714.782	17868.6
715.125	17732.33
715.469	17891.65
715.812	17660.92
716.156	17633.35
716.499	17635.61
716.843	17682.39
717.186	17556.74
717.53	17623.41
717.873	17622.73
718.216	17553.13
718.559	17471.77
718.902	17326.24
719.246	17391.55
719.589	17380.93
719.932	17246.47
720.275	17235.17
720.617	17249.86
720.96	17266.81
721.303	17297.99
721.646	17156.98
721.989	17094.16
722.331	17133.7
722.674	17052.8
723.016	17143.87
723.359	17121.5
723.701	17128.96
724.044	16979.13
724.386	16916.31
724.729	16938
725.071	16943.65
725.413	16947.27
725.755	16929.64
726.097	16843.54
726.439	16714.05
726.782	16823.2
727.124	16897.1
727.465	16840.38
727.807	16767.38
728.149	16789.53
728.491	16755.18
728.833	16722.64
729.175	16704.79
729.516	16714.96
729.858	16695.3
730.199	16694.39
730.541	16623.66
730.882	16595.64
731.224	16666.37
731.565	16532.59
731.906	16661.62
732.248	16554.28
732.589	16494.62
732.93	16492.81
733.271	16540.72
733.612	16578.24
733.953	16432.93
734.294	16489.65
734.635	16431.8
734.976	16398.35
735.317	16500.05
735.658	16354.29
735.999	16373.95
736.339	16348.86
736.68	16458.01
737.021	16402.65
737.361	16358.58
737.702	16470.44
738.042	16364.23
738.383	16381.18
738.723	16312.25
739.063	16320.62
739.404	16310.9
739.744	16308.19
740.084	16326.27
740.424	16284.91
740.764	16371.91
741.104	16390.9
741.444	16279.04
741.784	16230.45
742.124	16241.75
742.464	16285.81
742.804	16343.89
743.143	16293.5
743.483	16349.77
743.823	16276.78
744.162	16231.13
744.502	16350.9
744.841	16312.03
745.181	16383.89
745.52	16306.38
745.86	16324.91
746.199	16339.37
746.538	16406.49
746.877	16388.41
747.216	16449.65
747.556	16566.94
747.895	16467.5
748.234	16474.06
748.573	16557.22
748.911	16535.53
749.25	16609.2
749.589	16592.02
749.928	16682.41
750.267	16758.8
750.605	16727.39
750.944	16731
751.283	16761.73
751.621	16904.33
751.96	16805.12
752.298	16893.03
752.636	17088.28
752.975	16989.53
753.313	16986.81
753.651	17165.34
753.989	17220.03
754.327	17326.24
754.666	17210.76
755.004	17226.58
755.342	17381.15
755.679	17472.9
756.017	17503.86
756.355	17523.3
756.693	17567.36
757.031	17700.69
757.368	17565.56
757.706	17791.54
758.044	17786.79
758.381	17894.81
758.719	17948.6
759.056	17940.46
759.394	17965.09
759.731	18033.11
760.068	18105.65
760.405	18115.15
760.743	18208.93
761.08	18302.48
761.417	18248.47
761.754	18203.28
762.091	18234.24
762.428	18348.13
762.765	18325.54
763.102	18441.01
763.438	18463.38
763.775	18421.35
764.112	18505.19
764.449	18651.4
764.785	18595.81
765.122	18557.17
765.458	18570.5
765.795	18630.61
766.131	18625.64
766.467	18619.54
766.804	18652.76
767.14	18625.41
767.476	18672.19
767.812	18642.14
768.148	18749.25
768.485	18707.9
768.821	18721.68
769.157	18598.07
769.492	18715.81
769.828	18768.46
770.164	18584.51
770.5	18635.58
770.836	18671.51
771.171	18596.04
771.507	18638.07
771.842	18566.21
772.178	18608.69
772.513	18592.42
772.849	18544.06
773.184	18447.34
773.519	18419.09
773.855	18415.93
774.19	18392.65
774.525	18424.52
774.86	18397.85
775.195	18485.08
775.53	18252.54
775.865	18205.99
776.2	18225.42
776.535	18179.55
776.87	18136.61
777.205	17957.64
777.539	17980.46
777.874	18059.33
778.209	17952.66
778.543	17895.72
778.878	17895.26
779.212	17807.36
779.547	17742.27
779.881	17759
780.215	17628.83
780.55	17743.63
780.884	17676.06
781.218	17584.31
781.552	17621.6
781.886	17576.4
782.22	17438.1
782.554	17468.16
782.888	17197.43
783.222	17159.46
783.556	17198.33
783.889	17126.92
784.223	17004.44
784.557	17032.01
784.89	17108.84
785.224	16869.08
785.557	16797.67
785.891	16808.74
786.224	16761.96
786.558	16802.41
786.891	16696.2
787.224	16639.25
787.557	16542.31
787.891	16506.6
788.224	16525.36
788.557	16458.01
788.89	16470.89
789.223	16397.45
789.556	16278.13
789.888	16216.66
790.221	16184.12
790.554	16191.35
790.887	16051.47
791.219	16018.93
791.552	16065.03
791.884	15961.53
792.217	15844.47
792.549	15881.31
792.882	15779.16
793.214	15682.21
793.546	15661.88
793.879	15611.48
794.211	15551.14
794.543	15573.52
794.875	15545.95
795.207	15568.55
795.539	15396.12
795.871	15398.15
796.203	15296.69
796.535	15236.12
796.867	15276.35
797.198	15145.51
797.53	15135.34
797.862	15017.37
798.193	15112.96
798.525	15060.99
798.856	15010.37
799.188	14907.09
799.519	14846.98
799.85	14782.13
800.182	14785.74
800.513	14781.9
800.844	14648.34
801.175	14672.07
801.506	14701.9
801.837	14578.74
802.168	14477.27
802.499	14451.29
802.83	14431.85
803.161	14432.53
803.491	14425.52
803.822	14349.37
804.153	14253.33
804.483	14179.66
804.814	14129.26
805.145	14175.36
805.475	14147.79
805.805	14089.71
806.136	14011.52
806.466	13974.01
806.796	14017.4
807.126	13938.98
807.457	13858.31
807.787	13760.01
808.117	13783.51
808.447	13708.71
808.777	13837.74
809.107	13747.8
809.436	13685.88
809.766	13641.36
810.096	13658.77
810.426	13552.55
810.755	13597.75
811.085	13508.94
811.414	13463.74
811.744	13394.82
812.073	13397.53
812.403	13370.19
812.732	13297.42
813.061	13261.71
813.39	13167.25
813.719	13083.64
814.049	13260.13
814.378	13234.6
814.707	13103.75
815.036	13113.02
815.365	13077.54
815.693	12899.92
816.022	12960.48
816.351	12913.93
816.68	12885.68
817.008	12849.52
817.337	12806.36
817.665	12790.54
817.994	12796.19
818.322	12759.58
818.651	12770.43
818.979	12632.35
819.307	12737.89
819.636	12657.21
819.964	12549.87
820.292	12671.9
820.62	12610.66
820.948	12556.42
821.276	12605.91
821.604	12653.59
821.932	12619.02
822.259	12614.5
822.587	12578.79
822.915	12513.03
823.243	12541.28
823.57	12542.41
823.898	12567.04
824.225	12473.03
824.553	12563.2
824.88	12549.87
825.207	12541.05
825.535	12446.82
825.862	12501.51
826.189	12501.51
826.516	12502.64
826.843	12657.89
827.17	12559.36
827.497	12548.29
827.824	12499.02
828.151	12585.12
828.478	12575.4
828.805	12606.14
829.131	12537.21
829.458	12535.63
829.785	12478.01
830.111	12441.4
830.438	12556.87
830.764	12497.44
831.09	12492.47
831.417	12367.05
831.743	12449.31
832.069	12485.46
832.395	12368.63
832.722	12343.32
833.048	12349.87
833.374	12440.49
833.7	12361.85
834.026	12355.75
834.351	12369.76
834.677	12384.67
835.003	12311.68
835.329	12353.94
835.654	12293.38
835.98	12308.74
836.306	12265.36
836.631	12209.76
836.956	12236.2
837.282	12269.42
837.607	12245.47
837.932	12181.29
838.258	12210.22
838.583	12122.99
838.908	12047.73
839.233	12050.9
839.558	12097
839.883	12002.99
840.208	12031.69
840.533	12042.99
840.858	11958.02
841.182	12024.46
841.507	12019.26
841.832	11853.39
842.156	11942.43
842.481	11926.38
842.805	11878.47
843.13	11875.08
843.454	11824.24
843.778	11760.96
844.103	11784.24
844.427	11767.74
844.751	11626.73
845.075	11675.77
845.399	11675.99
845.723	11585.6
846.047	11563.23
846.371	11520.74
846.695	11483.23
847.019	11431.03
847.343	11354.87
847.666	11283.01
847.99	11274.87
848.313	11273.29
848.637	11128.89
848.96	11151.49
849.284	11068.32
849.607	11079.17
849.931	11041.21
850.254	10936.58
850.577	10826.3
850.9	10843.02
851.223	10870.59
851.546	10810.93
851.869	10713.76
852.192	10818.61
852.515	10605.29
852.838	10613.87
853.161	10589.02
853.483	10549.02
853.806	10479.41
854.129	10546.3
854.451	10497.72
854.774	10325.07
855.096	10376.37
855.419	10336.14
855.741	10315.12
856.063	10208.46
856.385	10229.48
856.708	10204.39
857.03	10147.9
857.352	10218.63
857.674	10056.83
857.996	10121.91
858.318	10019.99
858.64	9980.67
858.961	9988.81
859.283	9970.27
859.605	9883.95
859.926	9926.43
860.248	9889.37
860.57	9801.92
860.891	9834.91
861.212	9804.18
861.534	9780.68
861.855	9845.31
862.176	9718.98
862.498	9859.77
862.819	9791.3
863.14	9682.15
863.461	9595.6
863.782	9600.11
864.103	9654.35
864.424	9583.39
864.745	9588.59
865.065	9512.21
865.386	9542.49
865.707	9537.97
866.027	9531.19
866.348	9490.74
866.668	9506.11
866.989	9468.59
867.309	9398.09
867.63	9406.45
867.95	9438.99
868.27	9358.09
868.59	9450.06
868.91	9386.79
869.23	9367.58
869.55	9314.47
869.87	9407.35
870.19	9325.55
870.51	9377.07
870.83	9310.4
871.15	9304.76
871.469	9299.56
871.789	9340.91
872.109	9247.81
872.428	9207.13
872.748	9221.37
873.067	9185.21
873.386	9190.86
873.706	9175.04
874.025	9097.3
874.344	9164.87
874.663	9147.47
874.982	9088.72
875.301	9102.27
875.62	9064.31
875.939	9006.46
876.258	9025.67
876.577	9042.39
876.896	9003.75
877.214	9019.34
877.533	8967.14
877.852	9070.64
878.17	8964.65
878.489	9013.24
878.807	8935.5
879.125	8917.19
879.444	8868.16
879.762	8848.72
880.08	8864.99
880.398	8826.8
880.716	8850.98
881.034	8823.41
881.352	8804.88
881.67	8765.33
881.988	8759.91
882.306	8761.94
882.624	8706.58
882.941	8669.07
883.259	8652.57
883.577	8654.83
883.894	8650.54
884.212	8576.86
884.529	8606.02
884.846	8587.26
885.164	8543.87
885.481	8467.04
885.798	8523.08
886.115	8452.57
886.432	8415.06
886.75	8467.94
887.067	8441.05
887.383	8379.58
887.7	8434.5
888.017	8325.57
888.334	8306.82
888.651	8294.61
888.967	8290.54
889.284	8296.65
889.6	8239.7
889.917	8218.91
890.233	8221.17
890.55	8171.68
890.866	8168.74
891.182	8151.79
891.498	8183.65
891.815	8099.59
892.131	8074.28
892.447	8086.26
892.763	8007.39
893.079	8034.51
893.395	7991.57
893.71	7947.28
894.026	8014.39
894.342	7905.92
894.657	7824.34
894.973	7859.37
895.289	7831.57
895.604	7844.45
895.92	7693.95
896.235	7709.32
896.55	7757.23
896.865	7753.61
897.181	7687.4
897.496	7653.27
897.811	7634.52
898.126	7555.65
898.441	7617.57
898.756	7559.94
899.071	7518.59
899.386	7455.31
899.7	7427.97
900.015	7450.11
900.33	7356.78
900.644	7404.47
900.959	7321.08
901.273	7261.42
901.588	7325.37
901.902	7268.88
902.216	7266.39
902.531	7223.91
902.845	7249.89
903.159	7205.38
903.473	7114.76
903.787	7122.89
904.101	7108.2
904.415	7066.4
904.729	7100.07
905.042	7040.86
905.356	6985.49
905.67	6990.01
905.984	6950.69
906.297	6932.16
906.611	6846.29
906.924	6889.9
907.237	6817.82
907.551	6839.51
907.864	6806.29
908.177	6750.47
908.491	6765.39
908.804	6690.59
909.117	6678.61
909.43	6592.06
909.743	6628.89
910.056	6624.37
910.368	6616.01
910.681	6541.66
910.994	6535.34
911.307	6508.22
911.619	6442.46
911.932	6437.71
912.244	6437.26
912.557	6408.56
912.869	6336.25
913.181	6263.71
913.494	6290.82
913.806	6258.06
914.118	6268.68
914.43	6195.91
914.742	6246.98
915.054	6134.9
915.366	6133.54
915.678	6190.94
915.99	6130.38
916.302	6042.02
916.613	6046.99
916.925	6072.98
917.236	6030.04
917.548	5978.52
917.859	5949.14
918.171	5890.61
918.482	5936.71
918.794	5875.02
919.105	5849.7
919.416	5835.69
919.727	5821.91
920.038	5819.42
920.349	5727.45
920.66	5698.75
920.971	5759.76
921.282	5753.44
921.593	5668.24
921.903	5612.42
922.214	5639.99
922.525	5620.11
922.835	5600.67
923.146	5538.98
923.456	5515.02
923.767	5525.65
924.077	5468.02
924.387	5470.73
924.697	5431.18
925.008	5416.5
925.318	5367.23
925.628	5447
925.938	5343.28
926.248	5334.24
926.558	5312.09
926.867	5314.58
927.177	5293.56
927.487	5288.59
927.796	5184.41
928.106	5151.64
928.416	5227.12
928.725	5177.18
929.034	5089.95
929.344	5101.02
929.653	5136.5
929.962	5041.82
930.271	5017.41
930.581	5029.84
930.89	5010.86
931.199	5036.17
931.508	4945.32
931.817	4986.45
932.125	4925.89
932.434	4905.55
932.743	4863.52
933.051	4875.72
933.36	4819.45
933.669	4797.76
933.977	4840.47
934.286	4813.35
934.594	4786.68
934.902	4766.34
935.21	4726.12
935.519	4746.01
935.827	4714.59
936.135	4670.98
936.443	4658.78
936.751	4630.98
937.059	4588.72
937.367	4550.76
937.674	4561.38
937.982	4560.02
938.29	4542.17
938.597	4523.19
938.905	4477.09
939.213	4469.85
939.52	4442.74
939.827	4429.63
940.135	4426.69
940.442	4428.05
940.749	4394.38
941.056	4388.73
941.363	4320.03
941.67	4365
941.977	4302.18
942.284	4293.14
942.591	4267.6
942.898	4286.81
943.205	4268.28
943.511	4229.86
943.818	4193.7
944.125	4167.49
944.431	4151.22
944.738	4135.17
945.044	4152.12
945.35	4130.65
945.657	4071.45
945.963	4055.85
946.269	4015.63
946.575	4068.51
946.881	4028.96
947.187	3975.18
947.493	3942.86
947.799	3962.3
948.105	3936.53
948.41	3918.91
948.716	3907.84
949.022	3874.39
949.327	3880.27
949.633	3875.07
949.938	3866.48
950.244	3821.06
950.549	3862.41
950.854	3800.95
951.16	3764.34
951.465	3771.34
951.77	3753.49
952.075	3708.52
952.38	3692.02
952.685	3691.12
952.99	3644.34
953.294	3691.34
953.599	3681.85
953.904	3656.54
954.209	3614.74
954.513	3628.52
954.818	3611.35
955.122	3566.38
955.426	3600.95
955.731	3550.78
956.035	3527.73
956.339	3570.22
956.643	3542.19
956.948	3461.07
957.252	3480.5
957.556	3467.39
957.86	3440.95
958.163	3466.26
958.467	3436.21
958.771	3402.99
959.075	3384.01
959.378	3380.17
959.682	3350.34
959.985	3345.59
960.289	3330.22
960.592	3345.82
960.896	3319.38
961.199	3256.33
961.502	3290.22
961.805	3311.01
962.108	3273.5
962.411	3247.29
962.714	3198.25
963.017	3206.61
963.32	3236.89
963.623	3199.61
963.926	3191.92
964.228	3187.85
964.531	3167.52
964.833	3161.19
965.136	3119.38
965.438	3080.96
965.741	3099.95
966.043	3066.05
966.345	3052.72
966.648	3073.28
966.95	2999.84
967.252	3015.43
967.554	2993.73
967.856	3006.16
968.158	2956.67
968.46	2949.67
968.761	3009.1
969.063	2974.3
969.365	2940.18
969.666	2943.57
969.968	2888.88
970.269	2918.26
970.571	2864.7
970.872	2850.69
971.174	2842.78
971.475	2859.5
971.776	2846.17
972.077	2837.13
972.378	2823.57
972.679	2822.44
972.98	2819.95
973.281	2763.68
973.582	2765.27
973.883	2725.95
974.183	2746.51
974.484	2726.17
974.785	2737.02
975.085	2694.31
975.386	2657.7
975.686	2669.68
975.986	2653.4
976.287	2654.31
976.587	2621.32
976.887	2596.68
977.187	2621.99
977.487	2621.09
977.787	2593.29
978.087	2567.31
978.387	2562.56
978.687	2554.2
978.987	2562.79
979.286	2529.34
979.586	2536.8
979.885	2509.91
980.185	2501.32
980.484	2488.44
980.784	2519.62
981.083	2504.48
981.382	2460.19
981.682	2470.58
981.981	2430.36
982.28	2459.06
982.579	2358.95
982.878	2422.22
983.177	2396.69
983.475	2398.27
983.774	2357.59
984.073	2340.87
984.372	2327.31
984.67	2387.2
984.969	2348.55
985.267	2330.93
985.566	2333.87
985.864	2329.12
986.162	2298.39
986.461	2277.82
986.759	2285.05
987.057	2263.81
987.355	2262.23
987.653	2248.9
987.951	2244.6
988.249	2205.73
988.547	2240.76
988.844	2234.66
989.142	2233.53
989.44	2196.92
989.737	2185.62
990.035	2193.76
990.332	2170.25
990.63	2141.1
990.927	2154.43
991.224	2120.76
991.521	2118.73
991.819	2108.33
992.116	2115.11
992.413	2093.87
992.71	2079.86
993.006	2091.61
993.303	2082.35
993.6	2050.26
993.897	2041.22
994.193	2074.44
994.49	2024.49
994.787	2013.42
995.083	2001.22
995.379	1976.81
995.676	1998.28
995.972	1965.51
996.268	1976.59
996.565	1979.07
996.861	1897.72
997.157	1955.8
997.453	1913.09
997.749	1933.65
998.044	1952.18
998.34	1876.48
998.636	1897.04
998.932	1903.14
999.227	1866.08
999.523	1888.68
999.818	1875.8
1000.114	1839.19
1000.409	1839.64
1000.704	1817.49
1001	1819.53
1001.295	1823.37
1001.59	1819.08
1001.885	1775.01
1002.18	1798.06
1002.475	1788.79
1002.77	1744.28
1003.065	1756.93
1003.359	1736.82
1003.654	1728.68
1003.949	1718.74
1004.243	1747.44
1004.538	1714.22
1004.832	1704.28
1005.127	1698.4
1005.421	1681.45
1005.715	1679.42
1006.009	1664.73
1006.304	1671.51
1006.598	1632.19
1006.892	1648.46
1007.186	1626.09
1007.48	1622.25
1007.773	1616.14
1008.067	1619.99
1008.361	1609.59
1008.655	1563.72
1008.948	1593.09
1009.242	1559.2
1009.535	1565.98
1009.829	1554.22
1010.122	1533.21
1010.415	1549.48
1010.708	1552.19
1011.001	1523.04
1011.295	1501.34
1011.588	1514.23
1011.881	1487.56
1012.173	1511.29
1012.466	1478.52
1012.759	1472.42
1013.052	1442.36
1013.344	1451.63
1013.637	1451.85
1013.93	1444.85
1014.222	1441.01
1014.514	1445.07
1014.807	1406.43
1015.099	1383.38
1015.391	1385.87
1015.683	1396.26
1015.976	1371.18
1016.268	1371.63
1016.56	1332.54
1016.851	1351.07
1017.143	1356.94
1017.435	1353.33
1017.727	1328.47
1018.018	1333.67
1018.31	1315.81
1018.602	1332.31
1018.893	1292.08
1019.185	1290.05
1019.476	1288.69
1019.767	1262.03
1020.058	1255.7
1020.35	1269.26
1020.641	1259.77
1020.932	1249.15
1021.223	1232.88
1021.514	1230.39
1021.804	1208.92
1022.095	1204.18
1022.386	1225.19
1022.677	1212.76
1022.967	1166.44
1023.258	1174.8
1023.548	1191.97
1023.839	1162.82
1024.129	1162.37
1024.419	1165.76
1024.709	1111.3
1025	1137.29
1025.29	1126.67
1025.58	1123.5
1025.87	1131.86
1026.16	1121.92
1026.449	1099.1
1026.739	1095.03
1027.029	1105.42
1027.319	1114.69
1027.608	1075.37
1027.898	1101.36
1028.187	1063.39
1028.477	1077.18
1028.766	1061.36
1029.055	1050.06
1029.344	1050.51
1029.634	1050.06
1029.923	1042.15
1030.212	1026.33
1030.501	1012.09
1030.79	1028.59
1031.078	1007.35
1031.367	1010.74
1031.656	980
1031.945	986.56
1032.233	971.19
1032.522	972.77
1032.81	994.24
1033.099	987.23
1033.387	947.01
1033.675	912.21
1033.963	955.14
1034.251	949.04
1034.54	924.86
1034.828	934.13
1035.116	927.57
1035.403	913.56
1035.691	888.93
1035.979	925.09
1036.267	912.21
1036.554	878.76
1036.842	878.54
1037.129	881.7
1037.417	867.69
1037.704	874.47
1037.992	875.6
1038.279	882.15
1038.566	863.4
1038.853	863.4
1039.14	863.4
