Data from hue_350_FLMS001491_68.txt Node
Date: Mon Feb 06 15:38:22 GMT 2017
User: dcchb
Spectrometer: FLMS00149
Trigger mode: 0
Integration Time (sec): 2.000000E-2
Scans to average: 10
Electric dark correction enabled: true
Nonlinearity correction enabled: false
Boxcar width: 0
XAxis mode: Wavelengths
Number of Pixels in Spectrum: 2048
>>>>>Begin Spectral Data<<<<<
341.393	-15.3
341.776	-15.3
342.16	-15.3
342.543	-82.41
342.927	-75.18
343.31	-37.22
343.693	-63.43
344.077	-59.14
344.46	-49.65
344.843	-58.46
345.226	-60.94
345.61	-55.3
345.993	-31.57
346.376	0.07
346.759	10.69
347.142	8.88
347.525	46.4
347.908	65.61
348.291	82.33
348.674	82.33
349.057	119.39
349.44	123.91
349.823	146.51
350.206	179.5
350.588	203.91
350.971	204.13
351.354	236.9
351.737	225.38
352.119	234.64
352.502	245.71
352.884	282.78
353.267	264.02
353.65	284.81
354.032	294.07
354.414	304.47
354.797	324.13
355.179	325.49
355.562	329.78
355.944	327.52
356.326	320.29
356.709	350.57
357.091	327.07
357.473	326.39
357.855	334.98
358.238	321.42
358.62	324.13
359.002	351.7
359.384	326.62
359.766	336.78
360.148	326.16
360.53	331.14
360.912	332.49
361.294	326.39
361.676	314.64
362.057	329.33
362.439	341.76
362.821	365.48
363.203	314.19
363.584	330.23
363.966	310.12
364.348	315.77
364.729	292.27
365.111	319.61
365.493	326.39
365.874	331.59
366.256	317.58
366.637	304.02
367.019	301.98
367.4	303.79
367.781	314.41
368.163	316.45
368.544	292.72
368.925	302.89
369.306	305.83
369.688	294.98
370.069	306.28
370.45	298.82
370.831	304.7
371.212	311.7
371.593	310.8
371.974	299.95
372.355	286.84
372.736	321.19
373.117	286.62
373.498	298.37
373.879	322.1
374.26	331.81
374.641	327.07
375.021	310.8
375.402	317.12
375.783	322.1
376.163	304.24
376.544	310.12
376.925	314.86
377.305	306.73
377.686	341.53
378.066	306.5
378.447	318.48
378.827	346.95
379.208	303.11
379.588	345.37
379.968	315.77
380.349	313.51
380.729	310.57
381.109	340.4
381.489	344.69
381.87	335.2
382.25	324.13
382.63	334.07
383.01	323.9
383.39	343.56
383.77	329.33
384.15	333.17
384.53	347.86
384.91	324.36
385.29	354.41
385.67	340.17
386.049	339.27
386.429	331.59
386.809	358.03
387.189	332.27
387.568	360.06
387.948	363.68
388.328	347.18
388.707	337.69
389.087	334.53
389.466	337.91
389.846	335.88
390.225	359.16
390.605	364.81
390.984	350.57
391.363	344.92
391.743	347.63
392.122	345.15
392.501	350.12
392.881	346.95
393.26	359.84
393.639	361.64
394.018	347.63
394.397	360.74
394.776	370
395.155	355.99
395.534	366.39
395.913	367.52
396.292	371.36
396.671	377.46
397.05	364.13
397.429	389.89
397.808	386.28
398.186	372.04
398.565	365.48
398.944	384.92
399.323	368.65
399.701	381.76
400.08	387.86
400.458	409.1
400.837	384.47
401.215	382.21
401.594	392.6
401.972	384.92
402.351	404.81
402.729	407.74
403.107	408.87
403.486	400.74
403.864	397.57
404.242	400.74
404.62	387.86
404.999	411.13
405.377	384.92
405.755	389.21
406.133	391.25
406.511	397.12
406.889	410.91
407.267	397.35
407.645	407.97
408.023	397.8
408.401	415.2
408.779	416.56
409.156	412.72
409.534	433.28
409.912	426.5
410.29	433.96
410.667	437.12
411.045	417.01
411.422	419.95
411.8	446.16
412.178	438.25
412.555	455.65
412.933	424.69
413.31	453.84
413.687	452.04
414.065	437.57
414.442	474.18
414.819	461.98
415.197	465.6
415.574	468.98
415.951	469.66
416.328	493.62
416.705	471.7
417.082	490
417.46	480.51
417.837	487.74
418.214	476.44
418.591	504.92
418.967	501.07
419.344	513.96
419.721	510.79
420.098	506.72
420.475	513.96
420.852	519.83
421.228	525.48
421.605	529.1
421.982	528.42
422.358	522.77
422.735	519.38
423.111	547.4
423.488	531.58
423.864	547.17
424.241	546.95
424.617	535.2
424.994	531.13
425.37	541.53
425.746	532.03
426.123	553.95
426.499	561.86
426.875	573.16
427.251	567.51
427.627	582.2
428.003	587.17
428.379	577
428.756	570.9
429.132	570.9
429.507	601.86
429.883	594.63
430.259	604.8
430.635	617.46
431.011	604.12
431.387	637.79
431.763	630.79
432.138	635.76
432.514	612.94
432.89	642.31
433.265	649.32
433.641	653.61
434.016	641.86
434.392	644.8
434.767	662.2
435.143	664.46
435.518	671.69
435.894	695.19
436.269	664.46
436.644	673.5
437.02	680.73
437.395	701.97
437.77	699.26
438.145	695.42
438.52	705.59
438.895	707.17
439.271	753.05
439.646	708.3
440.021	720.73
440.395	738.13
440.77	741.75
441.145	732.48
441.52	721.86
441.895	750.33
442.27	740.84
442.645	774.29
443.019	746.72
443.394	759.82
443.769	779.94
444.143	768.41
444.518	765.7
444.892	791.91
445.267	777.45
445.641	788.3
446.016	785.59
446.39	776.77
446.764	791.91
447.139	811.12
447.513	791.24
447.887	796.43
448.262	802.76
448.636	824
449.01	819.03
449.384	808.18
449.758	826.26
450.132	846.15
450.506	843.66
450.88	840.73
451.254	817.22
451.628	838.92
452.002	828.75
452.376	860.61
452.75	868.75
453.123	867.17
453.497	876.88
453.871	879.14
454.244	887.28
454.618	905.13
454.992	887.28
455.365	905.58
455.739	923.44
456.112	908.97
456.486	934.51
456.859	929.09
457.232	968.18
457.606	958.69
457.979	948.29
458.352	983.1
458.725	992.36
459.099	987.16
459.472	999.82
459.845	1005.92
460.218	1033.94
460.591	1019.25
460.964	1025.13
461.337	1040.04
461.71	1058.57
462.083	1071.23
462.456	1046.14
462.829	1077.33
463.201	1070.78
463.574	1095.86
463.947	1090.44
464.32	1118.23
464.692	1131.34
465.065	1105.35
465.438	1135.41
465.81	1160.94
466.183	1170.44
466.555	1205.46
466.928	1216.54
467.3	1214.05
467.672	1206.37
468.045	1233.48
468.417	1251.34
468.789	1242.98
469.161	1257.66
469.534	1259.47
469.906	1314.84
470.278	1327.95
470.65	1334.05
471.022	1358.9
471.394	1361.39
471.766	1388.96
472.138	1390.32
472.51	1408.85
472.882	1426.25
473.253	1463.53
473.625	1479.81
473.997	1500.37
474.369	1503.31
474.74	1525.91
475.112	1565.68
475.484	1576.75
475.855	1581.95
476.227	1608.84
476.598	1627.82
476.97	1677.77
477.341	1687.03
477.713	1721.61
478.084	1756.41
478.455	1767.93
478.827	1826.92
479.198	1846.58
479.569	1867.14
479.94	1924.77
480.311	1910.3
480.682	1975.16
481.053	2004.76
481.424	2023.07
481.795	2057.42
482.166	2074.59
482.537	2110.75
482.908	2171.76
483.279	2189.17
483.65	2214.93
484.021	2258.54
484.391	2310.29
484.762	2296.51
485.133	2307.35
485.503	2361.14
485.874	2395.71
486.244	2402.72
486.615	2491.76
486.985	2528.37
487.356	2574.24
487.726	2562.49
488.097	2617.18
488.467	2623.73
488.837	2710.06
489.207	2755.25
489.578	2792.09
489.948	2801.35
490.318	2849.49
490.688	2842.48
491.058	2913.44
491.428	2930.84
491.798	2994.12
492.168	3042.7
492.538	3029.14
492.908	3048.35
493.278	3094.68
493.648	3139.2
494.017	3170.83
494.387	3222.58
494.757	3188.69
495.126	3274.79
495.496	3298.74
495.866	3302.81
496.235	3334.9
496.605	3371.06
496.974	3350.72
497.344	3447.44
497.713	3425.29
498.082	3429.58
498.452	3476.36
498.821	3462.35
499.19	3514.1
499.559	3536.7
499.928	3596.59
500.298	3566.08
500.667	3637.72
501.036	3609.02
501.405	3637.94
501.774	3631.84
502.143	3700.31
502.512	3701.22
502.88	3713.65
503.249	3765.4
503.618	3780.99
503.987	3801.78
504.356	3798.39
504.724	3799.74
505.093	3854.43
505.462	3883.81
505.83	3864.83
506.199	3880.87
506.567	3929.46
506.936	3948.44
507.304	3980.53
507.672	4010.59
508.041	3994.54
508.409	4022.56
508.777	4033.18
509.145	4051.26
509.514	4047.42
509.882	4116.57
510.25	4095.33
510.618	4156.35
510.986	4153.18
511.354	4165.38
511.722	4205.38
512.09	4226.85
512.458	4211.03
512.826	4243.8
513.193	4231.6
513.561	4263.46
513.929	4302.33
514.297	4291.26
514.664	4337.13
515.032	4304.14
515.4	4342.33
515.767	4345.04
516.135	4407.64
516.502	4347.53
516.869	4447.41
517.237	4434.08
517.604	4465.04
517.972	4477.92
518.339	4477.47
518.706	4504.36
519.073	4495.77
519.44	4502.1
519.808	4590.01
520.175	4558.14
520.542	4549.56
520.909	4619.61
521.276	4621.19
521.643	4611.93
522.009	4707.52
522.376	4677.46
522.743	4716.33
523.11	4720.4
523.477	4705.48
523.843	4787.52
524.21	4809.89
524.577	4862.54
524.943	4859.83
525.31	4875.2
525.676	4894.41
526.043	4948.42
526.409	4893.5
526.776	4988.87
527.142	4977.34
527.508	4976.89
527.874	5049.2
528.241	5079.26
528.607	5083.33
528.973	5069.09
529.339	5095.3
529.705	5153.83
530.071	5160.39
530.437	5228.63
530.803	5222.53
531.169	5246.71
531.535	5241.97
531.901	5294.17
532.267	5287.16
532.632	5339.37
532.998	5358.12
533.364	5387.73
533.73	5400.83
534.095	5424.11
534.461	5438.8
534.826	5482.41
535.192	5467.05
535.557	5559.47
535.923	5535.97
536.288	5533.26
536.653	5534.16
537.019	5610.32
537.384	5576.65
537.749	5626.59
538.114	5678.11
538.479	5679.92
538.845	5674.95
539.21	5712.91
539.575	5746.13
539.94	5749.75
540.305	5782.29
540.67	5772.35
541.034	5816.64
541.399	5841.05
541.764	5892.8
542.129	5882.85
542.494	5876.98
542.858	5980.7
543.223	5955.62
543.587	5988.16
543.952	5996.52
544.316	6055.73
544.681	6066.8
545.045	6087.82
545.41	6133.69
545.774	6184.54
546.138	6157.65
546.503	6160.59
546.867	6141.83
547.231	6196.07
547.595	6295.72
547.959	6292.56
548.324	6279
548.688	6342.95
549.052	6345.21
549.416	6296.85
549.779	6374.82
550.143	6358.1
550.507	6436.74
550.871	6441.26
551.235	6420.69
551.599	6504.31
551.962	6433.35
552.326	6514.02
552.689	6563.51
553.053	6530.07
553.417	6542.95
553.78	6655.04
554.143	6643.29
554.507	6651.87
554.87	6641.03
555.234	6715.83
555.597	6683.74
555.96	6718.31
556.323	6802.38
556.686	6730.06
557.05	6758.54
557.413	6808.71
557.776	6800.12
558.139	6820.46
558.502	6830.4
558.865	6862.26
559.228	6967.8
559.59	6938.87
559.953	6902.71
560.316	6987.68
560.679	7014.58
561.041	7061.58
561.404	7036.27
561.767	7122.37
562.129	7084.86
562.492	7119.43
562.854	7113.56
563.217	7159.43
563.579	7162.59
563.941	7249.6
564.304	7206.43
564.666	7320.33
565.028	7273.55
565.39	7313.78
565.753	7345.41
566.115	7363.04
566.477	7407.33
566.839	7388.12
567.201	7472.87
567.563	7465.64
567.925	7560.32
568.287	7541.57
568.648	7573.43
569.01	7594.22
569.372	7707.66
569.734	7641.23
570.095	7727.1
570.457	7713.77
570.819	7782.24
571.18	7756.25
571.542	7851.84
571.903	7797.38
572.265	7941.56
572.626	7932.52
572.987	7998.96
573.349	8072.85
573.71	8088.67
574.071	8109.24
574.432	8105.62
574.794	8203.47
575.155	8283.24
575.516	8248.89
575.877	8387.65
576.238	8381.77
576.599	8460.64
576.96	8500.64
577.32	8597.58
577.681	8686.4
578.042	8773.63
578.403	8797.35
578.763	8904.7
579.124	8983.11
579.485	9059.49
579.845	9167.97
580.206	9212.48
580.566	9351.92
580.927	9442.99
581.287	9608.63
581.648	9632.59
582.008	9827.61
582.368	9915.97
582.728	10051.78
583.089	10211.78
583.449	10299.01
583.809	10406.8
584.169	10666.91
584.529	10728.6
584.889	10999.56
585.249	11193.67
585.609	11242.49
585.969	11532.87
586.329	11596.6
586.688	11893.54
587.048	12119.3
587.408	12221.67
587.768	12475
588.127	12658.49
588.487	12768.1
588.846	13204.92
589.206	13339.15
589.565	13557.68
589.925	13932.81
590.284	14048.51
590.643	14309.98
591.003	14547.48
591.362	14935.5
591.721	15095.49
592.08	15323.96
592.44	15678.53
592.799	15909.48
593.158	16203.26
593.517	16410.94
593.876	16718.73
594.235	16993.3
594.593	17323.23
594.952	17609.33
595.311	17906.49
595.67	18175.64
596.029	18488.62
596.387	18828.5
596.746	19062.17
597.104	19387.58
597.463	19568.37
597.822	19906.67
598.18	20136.26
598.538	20336.49
598.897	20801.33
599.255	20917.71
599.613	21510.01
599.972	21641.54
600.33	22013.5
600.688	22071.81
601.046	22529.42
601.404	22837.66
601.762	23117.88
602.12	23578.21
602.478	23661.14
602.836	23957.18
603.194	24145.65
603.552	24471.29
603.91	24646.88
604.268	24992.41
604.625	25214.1
604.983	25591.71
605.341	25633.29
605.698	26065.15
606.056	26235.54
606.413	26525.7
606.771	26902.19
607.128	26934.5
607.485	27214.04
607.843	27416.75
608.2	27778.1
608.557	28040.46
608.914	28121.59
609.272	28554.57
609.629	28838.86
609.986	29203.14
610.343	29197.49
610.7	29452.4
611.057	29682.68
611.414	29751.38
611.771	30032.28
612.127	30374.19
612.484	30453.28
612.841	30818.02
613.198	30751.8
613.554	31030.67
613.911	31350.88
614.267	31538.45
614.624	31490.77
614.98	31759.01
615.337	32026.8
615.693	32129.62
616.05	32239.9
616.406	32518.31
616.762	32488.03
617.118	32560.12
617.475	32942.71
617.831	33068.58
618.187	33251.85
618.543	33375.69
618.899	33636.25
619.255	33798.28
619.611	33896.13
619.967	34029.91
620.323	34160.53
620.678	34245.27
621.034	34268.32
621.39	34322.11
621.746	34350.35
622.101	34846.84
622.457	34706.5
622.812	34939.72
623.168	34987.85
623.523	35083.67
623.879	35191.01
624.234	35170.9
624.589	35303.55
624.945	35609.3
625.3	35646.14
625.655	35600.72
626.01	35702.41
626.365	35906.47
626.72	35853.59
627.075	35928.62
627.43	35973.59
627.785	35835.06
628.14	36151.66
628.495	36223.07
628.85	36293.58
629.205	36123.64
629.559	36449.51
629.914	36334.93
630.269	36430.07
630.623	36397.31
630.978	36227.82
631.332	36637.07
631.687	36637.3
632.041	36470.07
632.396	36623.06
632.75	36417.87
633.104	36540.35
633.459	36397.53
633.813	36608.83
634.167	36483.18
634.521	36659.22
634.875	36606.34
635.229	36664.64
635.583	36552.33
635.937	36572.44
636.291	36491.31
636.645	36580.13
636.999	36409.96
637.352	36735.83
637.706	36496.96
638.06	36589.39
638.413	36574.7
638.767	36563.63
639.121	36639.56
639.474	36483.63
639.828	36522.95
640.181	36621.03
640.534	36632.1
640.888	36432.78
641.241	36360.7
641.594	36437.3
641.947	36576.96
642.301	36528.38
642.654	36564.31
643.007	36585.55
643.36	36416.51
643.713	36400.47
644.066	36623.51
644.419	36330.64
644.771	36224.43
645.124	35834.61
645.477	35743.76
645.83	35617.21
646.182	35623.31
646.535	35305.13
646.888	35595.52
647.24	35198.92
647.593	35523.66
647.945	35392.59
648.298	35250.44
648.65	35217
649.002	35173.84
649.355	35425.58
649.707	35236.66
650.059	35396.2
650.411	35793.48
650.763	35850.88
651.115	36236.18
651.467	36220.36
651.819	36193.47
652.171	36048.39
652.523	35983.53
652.875	36095.62
653.227	35828.06
653.578	36206.35
653.93	36039.57
654.282	35875.51
654.633	35874.83
654.985	35773.59
655.337	35988.5
655.688	35899.24
656.039	36042.96
656.391	35581.73
656.742	35839.13
657.094	35742.18
657.445	35960.03
657.796	35914.15
658.147	35764.1
658.498	35865.34
658.849	35933.36
659.2	35975.4
659.551	35713.03
659.902	35794.61
660.253	35796.64
660.604	35922.97
660.955	35685.23
661.306	35927.71
661.656	35718.91
662.007	35807.49
662.358	35730.88
662.708	35753.48
663.059	35677.32
663.409	35521.4
663.76	35673.71
664.11	35558.91
664.461	35812.46
664.811	35626.93
665.161	35693.6
665.511	35549.87
665.862	35739.92
666.212	35833.03
666.562	35714.16
666.912	35643.2
667.262	35617.21
667.612	35548.51
667.962	35641.39
668.312	35542.86
668.662	35845.46
669.011	35636.65
669.361	35634.16
669.711	35518.46
670.06	35500.83
670.41	35450.66
670.76	35430.55
671.109	35628.74
671.459	35574.95
671.808	35422.42
672.157	35468.97
672.507	35192.14
672.856	35210.9
673.205	35420.61
673.554	35361.4
673.904	35229.2
674.253	35443.88
674.602	35308.97
674.951	34936.33
675.3	34805.26
675.649	35244.79
675.998	35256.77
676.346	35243.44
676.695	35312.36
677.044	35046.38
677.393	35207.05
677.741	35298.35
678.09	35224.91
678.438	35066.04
678.787	35065.82
679.135	35031.01
679.484	34935.2
679.832	34968.87
680.181	34927.06
680.529	35063.56
680.877	35020.62
681.225	34746.95
681.573	34940.39
681.922	34805.26
682.27	34569.56
682.618	34779.72
682.966	34608.43
683.314	34535.21
683.661	34569.11
684.009	34389.45
684.357	34222.22
684.705	34293.18
685.053	34313.07
685.4	34183.58
685.748	34068.78
686.095	34088.21
686.443	34049.57
686.79	33985.17
687.138	33962.34
687.485	33914.89
687.832	33858.16
688.18	33890.25
688.527	33717.83
688.874	33606.64
689.221	33669.47
689.568	33544.27
689.915	33461.56
690.262	33376.14
690.609	33345.41
690.956	33317.61
691.303	33228.58
691.65	33074.68
691.997	33046.21
692.344	32886.66
692.69	33007.56
693.037	32837.4
693.383	32645.31
693.73	32860.9
694.077	32562.15
694.423	32534.81
694.769	32435.6
695.116	32305.21
695.462	32356.73
695.808	32175.27
696.155	32142.05
696.501	32025.67
696.847	32093.46
697.193	31730.76
697.539	31974.37
697.885	31668.84
698.231	31522.41
698.577	31621.61
698.923	31444.89
699.269	31392.24
699.614	31329.19
699.96	31210.78
700.306	31196.76
700.651	31148.63
700.997	31087.16
701.342	30980.27
701.688	30987.28
702.033	30799.94
702.379	30740.96
702.724	30634.97
703.069	30815.53
703.415	30365.37
703.76	30347.3
704.105	30410.34
704.45	30364.47
704.795	30275.88
705.14	30107.53
705.485	30078.6
705.83	29855.56
706.175	30059.17
706.52	29893.3
706.865	29675.22
707.209	29787.31
707.554	29673.41
707.899	29731.49
708.243	29557.03
708.588	29439.07
708.932	29331.73
709.277	29290.15
709.621	29331.95
709.966	29174.67
710.31	29176.03
710.654	28906.66
710.998	29032.53
711.342	28927.9
711.687	28819.43
712.031	28793.89
712.375	28679.54
712.719	28699.88
713.063	28770.16
713.407	28748.69
713.75	28604.06
714.094	28577.4
714.438	28366.78
714.782	28465.08
715.125	28287.91
715.469	28414.01
715.812	28191.19
716.156	28069.16
716.499	28178.54
716.843	28246.79
717.186	27979
717.53	28130.63
717.873	28108.03
718.216	27955.49
718.559	27896.06
718.902	27771.54
719.246	27739
719.589	27633.69
719.932	27576.97
720.275	27609.51
720.617	27492.46
720.96	27563.64
721.303	27455.62
721.646	27503.3
721.989	27263.99
722.331	27415.17
722.674	27263.31
723.016	27322.52
723.359	27240.48
723.701	27221.5
724.044	26981.06
724.386	26841.4
724.729	27008.85
725.071	26973.82
725.413	26929.08
725.755	27002.3
726.097	26810.67
726.439	26728.63
726.782	26691.8
727.124	26719.59
727.465	26590.33
727.807	26631.91
728.149	26527.06
728.491	26451.13
728.833	26513.05
729.175	26450.45
729.516	26295.88
729.858	26357.12
730.199	26296.33
730.541	26320.51
730.882	26281.19
731.224	26354.86
731.565	26181.3
731.906	26158.03
732.248	26221.08
732.589	26021.99
732.93	25896.34
733.271	26076.45
733.612	26060.85
733.953	26039.84
734.294	25775.21
734.635	25748.77
734.976	25871.48
735.317	25540.42
735.658	25684.37
735.999	25690.24
736.339	25657.7
736.68	25694.99
737.021	25575.67
737.361	25532.05
737.702	25622
738.042	25449.12
738.383	25459.74
738.723	25422.9
739.063	25388.78
739.404	25409.8
739.744	25268.11
740.084	25271.5
740.424	25299.29
740.764	25156.92
741.104	25245.96
741.444	25108.34
741.784	25057.26
742.124	24982.69
742.464	24967.78
742.804	24912.64
743.143	24876.48
743.483	24910.6
743.823	24791.06
744.162	24737.73
744.502	24878.74
744.841	24695.47
745.181	24784.73
745.52	24771.4
745.86	24732.53
746.199	24600.33
746.538	24558.75
746.877	24698.4
747.216	24556.94
747.556	24598.52
747.895	24527.11
748.234	24418.86
748.573	24222.94
748.911	24306.1
749.25	24387
749.589	24332.76
749.928	24329.37
750.267	24286.89
750.605	24238.08
750.944	24079.21
751.283	24051.87
751.621	24134.58
751.96	24058.42
752.298	23971.19
752.636	23978.2
752.975	23827.92
753.313	23716.06
753.651	23893.68
753.989	23722.16
754.327	23755.15
754.666	23553.8
755.004	23641.03
755.342	23552.9
755.679	23574.37
756.017	23454.37
756.355	23600.81
756.693	23387.25
757.031	23431.32
757.368	23314.94
757.706	23239.01
758.044	23233.58
758.381	23294.15
758.719	23141.61
759.056	23114.04
759.394	23032.23
759.731	22876.98
760.068	22855.97
760.405	22789.08
760.743	22694.84
761.08	22737.1
761.417	22580.27
761.754	22565.13
762.091	22592.02
762.428	22517.67
762.765	22269.99
763.102	22330.56
763.438	22217.79
763.775	22111.13
764.112	22144.57
764.449	22151.35
764.785	22146.15
765.122	21865.71
765.458	21818.03
765.795	21794.3
766.131	21781.87
766.467	21744.81
766.804	21640.86
767.14	21557.24
767.476	21503.69
767.812	21421.88
768.148	21443.12
768.485	21238.38
768.821	21171.49
769.157	21148.44
769.492	21061.21
769.828	21027.54
770.164	20872.74
770.5	20905.96
770.836	20799.75
771.171	20700.77
771.507	20599.53
771.842	20488.57
772.178	20456.71
772.513	20483.6
772.849	20359.08
773.184	20321.12
773.519	20289.93
773.855	20187.11
774.19	20116.83
774.525	20029.83
774.86	19989.38
775.195	19870.06
775.53	19971.75
775.865	19865.76
776.2	19639.78
776.535	19598.65
776.87	19562.95
777.205	19433.91
777.539	19359.11
777.874	19355.27
778.209	19191.43
778.543	19232.33
778.878	19048.16
779.212	19137.87
779.547	18946.92
779.881	18966.13
780.215	18882.96
780.55	18841.16
780.884	18688.62
781.218	18698.56
781.552	18706.47
781.886	18517.78
782.22	18486.14
782.554	18454.73
782.888	18265.58
783.222	18225.81
783.556	18158.46
783.889	18064.91
784.223	18019.03
784.557	17867.4
784.89	17850.45
785.224	17844.8
785.557	17774.74
785.891	17656.78
786.224	17581.3
786.558	17640.96
786.891	17457.01
787.224	17439.84
787.557	17316.23
787.891	17376.34
788.224	17332.95
788.557	17329.78
788.89	17240.3
789.223	17192.39
789.556	17107.42
789.888	17019.74
790.221	16876.91
790.554	16876.46
790.887	16743.36
791.219	16748.56
791.552	16736.13
791.884	16639.63
792.217	16571.16
792.549	16520.54
792.882	16355.35
793.214	16351.05
793.546	16396.02
793.879	16197.16
794.211	16194.9
794.543	16190.83
794.875	16206.42
795.207	16176.59
795.539	15992.64
795.871	16094.11
796.203	15928.24
796.535	15860.9
796.867	15779.09
797.198	15681.01
797.53	15703.16
797.862	15597.85
798.193	15708.81
798.525	15527.8
798.856	15528.93
799.188	15451.64
799.519	15413.22
799.85	15314.02
800.182	15295.94
800.513	15329.84
800.844	15154.7
801.175	15296.39
801.506	15264.98
801.837	15090.75
802.168	15048.04
802.499	14946.8
802.83	14955.84
803.161	14911.99
803.491	14945.89
803.822	14911.09
804.153	14774.37
804.483	14636.07
804.814	14661.83
805.145	14569.63
805.475	14635.84
805.805	14539.35
806.136	14493.93
806.466	14487.83
806.796	14455.96
807.126	14342.97
807.457	14308.62
807.787	14302.29
808.117	14201.96
808.447	14194.05
808.777	14271.11
809.107	14151.79
809.436	14081.73
809.766	13980.27
810.096	14025.24
810.426	13968.06
810.755	14034.05
811.085	14006.03
811.414	13965.58
811.744	13803.32
812.073	13787.96
812.403	13832.93
812.732	13660.05
813.061	13665.7
813.39	13538.02
813.719	13567.85
814.049	13726.49
814.378	13601.97
814.707	13560.62
815.036	13485.82
815.365	13455.54
815.693	13354.07
816.022	13265.71
816.351	13258.03
816.68	13271.81
817.008	13226.62
817.337	13163.57
817.665	13096.9
817.994	13165.37
818.322	13124.92
818.651	13088.77
818.979	12969.45
819.307	13125.38
819.636	12980.75
819.964	12965.61
820.292	12977.58
820.62	13001.99
820.948	12956.11
821.276	12961.31
821.604	12944.14
821.932	12921.76
822.259	12995.21
822.587	12857.13
822.915	12828.66
823.243	12915.44
823.57	12783.46
823.898	12877.02
824.225	12804.93
824.553	12869.34
824.88	12750.92
825.207	12871.82
825.535	12813.52
825.862	12898.71
826.189	12782.79
826.516	12849.45
826.843	12969.22
827.17	12838.83
827.497	12894.65
827.824	12827.3
828.151	12873.86
828.478	12833.63
828.805	12888.32
829.131	12782.11
829.458	12787.98
829.785	12730.36
830.111	12778.04
830.438	12824.82
830.764	12771.71
831.09	12787.53
831.417	12786.4
831.743	12787.08
832.069	12794.76
832.395	12693.07
832.722	12784.14
833.048	12743.69
833.374	12647.42
833.7	12603.36
834.026	12735.1
834.351	12756.35
834.677	12684.93
835.003	12708.89
835.329	12738.04
835.654	12560.19
835.98	12622.56
836.306	12624.37
836.631	12594.54
836.956	12608.33
837.282	12552.96
837.607	12522
837.932	12449.69
838.258	12489.23
838.583	12444.04
838.908	12372.17
839.233	12401.1
839.558	12369.69
839.883	12343.93
840.208	12289.92
840.533	12362.68
840.858	12345.06
841.182	12276.81
841.507	12312.06
841.832	12254.44
842.156	12116.36
842.481	12171.28
842.805	12240.2
843.13	12106.87
843.454	12088.57
843.778	12017.38
844.103	11978.74
844.427	12056.7
844.751	11962.92
845.075	11911.62
845.399	11907.1
845.723	11839.08
846.047	11844.5
846.371	11759.76
846.695	11766.77
847.019	11759.99
847.343	11536.49
847.666	11571.07
847.99	11594.12
848.313	11494.91
848.637	11460.11
848.96	11458.07
849.284	11432.99
849.607	11362.71
849.931	11280.45
850.254	11209.27
850.577	11115.71
850.9	10966.11
851.223	11102.83
851.546	11023.74
851.869	10929.27
852.192	11079.78
852.515	10860.8
852.838	10838.66
853.161	10839.33
853.483	10820.58
853.806	10721.14
854.129	10755.49
854.451	10686.8
854.774	10667.81
855.096	10555.73
855.419	10483.41
855.741	10531.55
856.063	10548.49
856.385	10460.36
856.708	10470.53
857.03	10427.82
857.352	10372.68
857.674	10375.17
857.996	10340.82
858.318	10327.71
858.64	10227.37
858.961	10281.16
859.283	10200.03
859.605	10149.63
859.926	10211.55
860.248	10150.31
860.57	10097.43
860.891	10092.46
861.212	10053.37
861.534	9937.44
861.855	9980.37
862.176	10047.26
862.498	9923.43
862.819	9948.06
863.14	9970.88
863.461	9942.41
863.782	9816.31
864.103	9838.46
864.424	9818.12
864.745	9879.58
865.065	9806.14
865.386	9805.69
865.707	9805.01
866.027	9725.01
866.348	9726.14
866.668	9709.19
866.989	9694.73
867.309	9563.21
867.63	9637.11
867.95	9615.86
868.27	9599.59
868.59	9614.73
868.91	9571.34
869.23	9566.15
869.55	9527.5
869.87	9548.07
870.19	9525.7
870.51	9482.31
870.83	9527.73
871.15	9376.1
871.469	9504
871.789	9478.24
872.109	9441.4
872.428	9359.15
872.748	9409.54
873.067	9405.25
873.386	9345.81
873.706	9394.63
874.025	9371.58
874.344	9328.86
874.663	9324.8
874.982	9361.86
875.301	9253.84
875.62	9195.08
875.939	9252.93
876.258	9205.25
876.577	9229.21
876.896	9155.76
877.214	9165.71
877.533	9185.37
877.852	9107.18
878.17	9155.08
878.489	9179.94
878.807	9117.8
879.125	9076.67
879.444	9131.81
879.762	9030.79
880.08	9088.19
880.398	9045.03
880.716	9059.27
881.034	9020.17
881.352	9064.01
881.67	8992.6
881.988	8974.52
882.306	8921.42
882.624	8930.46
882.941	8934.98
883.259	8842.55
883.577	8824.47
883.894	8759.16
884.212	8836.22
884.529	8785.83
884.846	8758.03
885.164	8803.23
885.481	8713.51
885.798	8744.47
886.115	8649.11
886.432	8674.87
886.75	8649.56
887.067	8629.22
887.383	8600.97
887.7	8610.92
888.017	8541.54
888.334	8507.87
888.651	8570.01
888.967	8534.08
889.284	8464.71
889.6	8398.27
889.917	8356.24
890.233	8374.31
890.55	8344.03
890.866	8419.28
891.182	8340.19
891.498	8305.16
891.815	8259.06
892.131	8276.92
892.447	8216.35
892.763	8227.65
893.079	8187.43
893.395	8183.58
893.71	8143.59
894.026	8088.45
894.342	8100.42
894.657	8063.81
894.973	8036.92
895.289	8017.49
895.604	8006.41
895.92	7913.31
896.235	7941.33
896.55	7967.32
896.865	7886.64
897.181	7896.36
897.496	7886.42
897.811	7820.66
898.126	7782.24
898.441	7786.98
898.756	7713.54
899.071	7718.74
899.386	7704.5
899.7	7592.87
900.015	7626.54
900.33	7558.52
900.644	7530.72
900.959	7587.67
901.273	7495.92
901.588	7479.42
901.902	7442.13
902.216	7460.89
902.531	7378.86
902.845	7351.06
903.159	7332.08
903.473	7275.59
903.787	7245.98
904.101	7295.92
904.415	7245.53
904.729	7273.1
905.042	7142.26
905.356	7165.53
905.67	7124.4
905.984	7113.78
906.297	7057.29
906.611	7055.7
906.924	6977.97
907.237	6982.94
907.551	6989.04
907.864	6994.69
908.177	6919.89
908.491	6945.65
908.804	6885.31
909.117	6848.03
909.43	6738.2
909.743	6772.55
910.056	6756.96
910.368	6689.39
910.681	6688.03
910.994	6674.25
911.307	6582.27
911.619	6614.13
911.932	6582.95
912.244	6570.75
912.557	6506.11
912.869	6455.04
913.181	6466.57
913.494	6444.65
913.806	6471.99
914.118	6395.61
914.43	6381.15
914.742	6311.32
915.054	6332.33
915.366	6335.27
915.678	6278.32
915.99	6301.83
916.302	6192.45
916.613	6158.78
916.925	6199.46
917.236	6201.49
917.548	6150.42
917.859	6111.1
918.171	6033.81
918.482	6051.21
918.794	6005.34
919.105	6047.6
919.416	5961.95
919.727	5942.06
920.038	5947.71
920.349	5937.54
920.66	5889.41
920.971	5876.53
921.282	5809.41
921.593	5794.49
921.903	5748.17
922.214	5713.14
922.525	5786.13
922.835	5721.28
923.146	5726.47
923.456	5665.23
923.767	5644.44
924.077	5597.21
924.387	5599.25
924.697	5564.9
925.008	5554.27
925.318	5503.88
925.628	5519.02
925.938	5514.28
926.248	5491.68
926.558	5434.5
926.867	5374.84
927.177	5394.28
927.487	5344.34
927.796	5324.45
928.106	5320.83
928.416	5281.74
928.725	5316.99
929.034	5224.34
929.344	5237.22
929.653	5201.52
929.962	5178.92
930.271	5137.34
930.581	5143.89
930.89	5093.72
931.199	5039.03
931.508	5117.68
931.817	5100.05
932.125	5001.07
932.434	5070.45
932.743	4965.14
933.051	4915.65
933.36	4903.9
933.669	4903.22
933.977	4886.5
934.286	4872.03
934.594	4876.55
934.902	4817.35
935.21	4778.48
935.519	4807.85
935.827	4802.43
936.135	4759.04
936.443	4718.36
936.751	4657.35
937.059	4679.27
937.367	4630.23
937.674	4666.84
937.982	4628.88
938.29	4622.77
938.597	4612.38
938.905	4589.33
939.213	4502.33
939.52	4523.12
939.827	4520.18
940.135	4514.98
940.442	4471.37
940.749	4454.87
941.056	4405.15
941.363	4429.33
941.67	4441.99
941.977	4380.97
942.284	4361.99
942.591	4312.27
942.898	4364.25
943.205	4295.1
943.511	4281.54
943.818	4300.3
944.125	4233.63
944.431	4236.34
944.738	4249.68
945.044	4218.04
945.35	4160.64
945.657	4146.63
945.963	4143.46
946.269	4147.98
946.575	4108.89
946.881	4114.76
947.187	4100.98
947.493	4063.01
947.799	4018.5
948.105	4033.41
948.41	3980.3
948.716	3998.84
949.022	4010.36
949.327	3957.48
949.633	3913.19
949.938	3878.84
950.244	3899.63
950.549	3895.34
950.854	3899.18
951.16	3870.7
951.465	3840.42
951.77	3802.68
952.075	3813.53
952.38	3799.74
952.685	3821.89
952.99	3763.14
953.294	3743.48
953.599	3758.39
953.904	3702.57
954.209	3715.45
954.513	3696.24
954.818	3667.09
955.122	3654.66
955.426	3661.22
955.731	3623.03
956.035	3617.38
956.339	3594.78
956.643	3566.98
956.948	3554.78
957.252	3521.11
957.556	3580.99
957.86	3530.83
958.163	3516.14
958.467	3502.13
958.771	3477.72
959.075	3466.19
959.378	3451.51
959.682	3449.7
959.985	3435.23
960.289	3416.25
960.592	3398.85
960.896	3405.63
961.199	3340.32
961.502	3352.52
961.805	3338.06
962.108	3334.9
962.411	3328.12
962.714	3295.58
963.017	3256.48
963.32	3289.93
963.623	3219.2
963.926	3232.08
964.228	3199.53
964.531	3171.96
964.833	3169.25
965.136	3180.78
965.438	3159.08
965.741	3172.64
966.043	3109.14
966.345	3085.19
966.648	3093.1
966.95	3103.27
967.252	3052.87
967.554	3057.39
967.856	3029.14
968.158	3048.8
968.46	2998.64
968.761	3047.67
969.063	3022.36
969.365	2998.41
969.666	2967
969.968	2935.81
970.269	2949.6
970.571	2959.54
970.872	2911.18
971.174	2890.62
971.475	2880.45
971.776	2878.41
972.077	2868.92
972.378	2870.28
972.679	2868.02
972.98	2866.66
973.281	2797.74
973.582	2818.53
973.883	2804.74
974.183	2784.63
974.484	2771.52
974.785	2743.5
975.085	2755.25
975.386	2753.44
975.686	2776.27
975.986	2755.48
976.287	2735.59
976.587	2717.51
976.887	2675.25
977.187	2665.54
977.487	2661.02
977.787	2657.85
978.087	2637.29
978.387	2649.27
978.687	2620.11
978.987	2574.69
979.286	2578.99
979.586	2590.28
979.885	2560.23
980.185	2583.73
980.484	2519.78
980.784	2550.51
981.083	2524.3
981.382	2527.69
981.682	2510.74
981.981	2504.41
982.28	2472.1
982.579	2432.32
982.878	2469.84
983.177	2461.93
983.475	2418.31
983.774	2428.93
984.073	2377.86
984.372	2386.67
984.67	2367.24
984.969	2408.14
985.267	2388.48
985.566	2376.28
985.864	2329.73
986.162	2331.76
986.461	2317.75
986.759	2321.14
987.057	2312.78
987.355	2300.8
987.653	2298.54
987.951	2296.73
988.249	2272.1
988.547	2258.54
988.844	2240.46
989.142	2276.39
989.44	2261.93
989.737	2241.59
990.035	2230.52
990.332	2225.77
990.63	2177.64
990.927	2164.53
991.224	2182.39
991.521	2146.45
991.819	2147.36
992.116	2131.54
992.413	2135.83
992.71	2093.35
993.006	2129.51
993.303	2103.97
993.6	2094.93
993.897	2079.34
994.193	2080.47
994.49	2056.29
994.787	2065.33
995.083	2044.99
995.379	2047.7
995.676	2002.05
995.972	2000.24
996.268	2014.25
996.565	2006.12
996.861	1997.76
997.157	2001.6
997.453	1973.35
997.749	1959.79
998.044	1924.54
998.34	1955.73
998.636	1925.22
998.932	1906.24
999.227	1887.7
999.523	1920.7
999.818	1878.21
1000.114	1889.06
1000.409	1865.78
1000.704	1834.15
1001	1864.65
1001.295	1842.73
1001.59	1837.54
1001.885	1846.35
1002.18	1806.58
1002.475	1810.64
1002.77	1794.83
1003.065	1760.02
1003.359	1788.72
1003.654	1763.19
1003.949	1769.74
1004.243	1749.18
1004.538	1765.67
1004.832	1712.57
1005.127	1720.93
1005.421	1724.09
1005.715	1714.15
1006.009	1703.98
1006.304	1694.94
1006.598	1671.44
1006.892	1671.67
1007.186	1616.53
1007.48	1631.67
1007.773	1629.41
1008.067	1624.66
1008.361	1622.4
1008.655	1619.46
1008.948	1615.17
1009.242	1593.25
1009.535	1590.09
1009.829	1608.39
1010.122	1570.2
1010.415	1535.62
1010.708	1552.35
1011.001	1549.18
1011.295	1518.45
1011.588	1559.13
1011.881	1518.67
1012.173	1516.64
1012.466	1517.54
1012.759	1482.74
1013.052	1507.6
1013.344	1459.24
1013.637	1494.04
1013.93	1466.7
1014.222	1462.41
1014.514	1443.65
1014.807	1416.76
1015.099	1410.2
1015.391	1443.65
1015.683	1423.08
1015.976	1420.6
1016.268	1379.47
1016.56	1386.7
1016.851	1389.19
1017.143	1367.27
1017.435	1366.59
1017.727	1353.71
1018.018	1332.46
1018.31	1338.11
1018.602	1322.52
1018.893	1333.37
1019.185	1306.02
1019.476	1311.22
1019.767	1289.08
1020.058	1307.61
1020.35	1280.26
1020.641	1269.19
1020.932	1275.29
1021.223	1270.77
1021.514	1269.42
1021.804	1238.91
1022.095	1238
1022.386	1229.87
1022.677	1207.72
1022.967	1249.98
1023.258	1211.56
1023.548	1191
1023.839	1167.72
1024.129	1178.57
1024.419	1144.45
1024.709	1146.26
1025	1158.01
1025.29	1181.51
1025.58	1140.83
1025.87	1145.8
1026.16	1148.06
1026.449	1136.99
1026.739	1103.54
1027.029	1093.38
1027.319	1113.49
1027.608	1119.14
1027.898	1088.18
1028.187	1093.6
1028.477	1065.58
1028.766	1072.81
1029.055	1044.11
1029.344	1094.05
1029.634	1046.14
1029.923	1042.3
1030.212	1031
1030.501	1016.09
1030.79	1007.05
1031.078	1031.23
1031.367	1018.12
1031.656	1008.86
1031.945	1003.89
1032.233	990.33
1032.522	959.59
1032.81	970.67
1033.099	957.11
1033.387	995.3
1033.675	942.87
1033.963	962.53
1034.251	956.2
1034.54	960.05
1034.828	964.34
1035.116	927.5
1035.403	922.31
1035.691	912.59
1035.979	915.75
1036.267	929.76
1036.554	904.23
1036.842	917.33
1037.129	885.47
1037.417	880.73
1037.704	906.04
1037.992	889.09
1038.279	881.63
1038.566	863.55
1038.853	863.55
1039.14	863.55
