Data from hue_110_FLMS001491_00036.txt Node
Date: Tue Feb 07 17:01:14 GMT 2017
User: dcchb
Spectrometer: FLMS00149
Trigger mode: 0
Integration Time (sec): 2.000000E-2
Scans to average: 10
Electric dark correction enabled: true
Nonlinearity correction enabled: false
Boxcar width: 0
XAxis mode: Wavelengths
Number of Pixels in Spectrum: 2048
>>>>>Begin Spectral Data<<<<<
341.393	-3.88
341.776	-3.88
342.16	-3.88
342.543	-31.45
342.927	-72.13
343.31	-77.55
343.693	-62.64
344.077	-74.62
344.46	-54.5
344.843	-50.66
345.226	-34.62
345.61	-39.14
345.993	1.77
346.376	11.71
346.759	8.09
347.142	18.94
347.525	26.85
347.908	53.29
348.291	59.84
348.674	84.93
349.057	128.32
349.44	117.02
349.823	138.26
350.206	156.79
350.588	188.65
350.971	209.67
351.354	202.89
351.737	242.66
352.119	259.39
352.502	266.39
352.884	279.72
353.267	272.72
353.65	298.93
354.032	284.24
354.414	332.15
354.797	325.15
355.179	326.95
355.562	335.77
355.944	335.54
356.326	336.67
356.709	328.31
357.091	341.87
357.473	333.96
357.855	334.64
358.238	364.24
358.62	341.64
359.002	368.08
359.384	339.38
359.766	328.99
360.148	331.47
360.53	323.56
360.912	339.16
361.294	340.74
361.676	328.76
362.057	325.82
362.439	326.73
362.821	299.38
363.203	342.1
363.584	327.86
363.966	322.66
364.348	320.85
364.729	337.35
365.111	326.95
365.493	328.08
365.874	305.49
366.256	291.93
366.637	318.37
367.019	316.79
367.4	313.17
367.781	318.14
368.163	330.34
368.544	312.27
368.925	331.7
369.306	321.08
369.688	317.01
370.069	308.42
370.45	318.37
370.831	317.24
371.212	310.46
371.593	309.55
371.974	319.72
372.355	319.72
372.736	321.31
373.117	323.11
373.498	331.02
373.879	311.81
374.26	312.04
374.641	320.18
375.021	340.06
375.402	317.69
375.783	316.79
376.163	323.79
376.544	324.92
376.925	330.34
377.305	323.56
377.686	316.56
378.066	315.2
378.447	347.29
378.827	313.17
379.208	331.47
379.588	340.06
379.968	349.55
380.349	335.09
380.729	335.99
381.109	355.65
381.489	345.03
381.87	353.85
382.25	327.63
382.63	335.99
383.01	326.28
383.39	351.36
383.77	358.14
384.15	348.65
384.53	332.6
384.91	355.2
385.29	341.19
385.67	344.58
386.049	340.97
386.429	344.13
386.809	366.73
387.189	330.12
387.568	364.69
387.948	343.9
388.328	364.02
388.707	361.08
389.087	353.85
389.466	363.56
389.846	361.53
390.225	371.7
390.605	364.69
390.984	377.8
391.363	382.32
391.743	380.29
392.122	388.65
392.501	384.81
392.881	375.77
393.26	380.74
393.639	384.81
394.018	398.37
394.397	384.35
394.776	382.55
395.155	383.22
395.534	389.55
395.913	390.23
396.292	391.13
396.671	403.56
397.05	387.29
397.429	396.33
397.808	403.56
398.186	389.55
398.565	400.17
398.944	414.18
399.323	400.4
399.701	396.56
400.08	418.7
400.458	405.37
400.837	422.32
401.215	407.18
401.594	407.86
401.972	418.03
402.351	392.72
402.729	416.22
403.107	448.31
403.486	422.77
403.864	416.9
404.242	435.2
404.62	440.85
404.999	430.68
405.377	432.26
405.755	418.7
406.133	415.77
406.511	464.13
406.889	438.59
407.267	478.82
407.645	452.38
408.023	465.03
408.401	454.63
408.779	454.63
409.156	468.65
409.534	453.51
409.912	447.18
410.29	464.35
410.667	449.21
411.045	475.65
411.422	465.48
411.8	497.35
412.178	491.02
412.555	481.3
412.933	497.12
413.31	489.66
413.687	494.18
414.065	488.53
414.442	488.53
414.819	530.79
415.197	513.39
415.574	529.44
415.951	519.27
416.328	530.34
416.705	543.45
417.082	516.1
417.46	523.79
417.837	530.34
418.214	526.27
418.591	527.18
418.967	557.01
419.344	536.89
419.721	566.95
420.098	556.55
420.475	556.78
420.852	558.14
421.228	554.75
421.605	559.49
421.982	566.95
422.358	559.94
422.735	566.5
423.111	568.53
423.488	579.38
423.864	585.93
424.241	585.93
424.617	580.06
424.994	594.29
425.37	580.73
425.746	602.65
426.123	614.18
426.499	617.12
426.875	618.92
427.251	628.64
427.627	626.61
428.003	621.86
428.379	643.1
428.756	635.42
429.132	639.26
429.507	640.84
429.883	645.82
430.259	684.46
430.635	662.31
431.011	666.83
431.387	690.79
431.763	699.15
432.138	700.96
432.514	710.22
432.89	717.45
433.265	729.2
433.641	735.53
434.016	724.01
434.392	740.73
434.767	723.33
435.143	754.74
435.518	782.76
435.894	741.63
436.269	775.76
436.644	757
437.02	768.52
437.395	781.63
437.77	809.88
438.145	826.6
438.52	804.91
438.895	800.61
439.271	809.65
439.646	819.37
440.021	818.24
440.395	833.16
440.77	829.77
441.145	827.28
441.52	823.21
441.895	841.07
442.27	840.39
442.645	868.41
443.019	855.53
443.394	879.03
443.769	884.91
444.143	883.32
444.518	887.84
444.892	869.09
445.267	898.69
445.641	925.13
446.016	904.34
446.39	924.91
446.764	919.93
447.139	923.1
447.513	952.02
447.887	932.36
448.262	960.38
448.636	922.87
449.01	955.86
449.384	947.73
449.758	967.62
450.132	1002.42
450.506	1008.29
450.88	996.09
451.254	989.31
451.628	1005.35
452.002	1011.23
452.376	1033.83
452.75	1029.76
453.123	1058.91
453.497	1057.56
453.871	1056.88
454.244	1086.03
454.618	1097.78
454.992	1102.08
455.365	1093.94
455.739	1096.88
456.112	1171.68
456.486	1123.32
456.859	1172.58
457.232	1181.4
457.606	1165.58
457.979	1224.78
458.352	1223.88
458.725	1208.97
459.099	1252.81
459.472	1246.48
459.845	1256.65
460.218	1281.96
460.591	1292.35
460.964	1289.87
461.337	1336.19
461.71	1329.87
462.083	1359.92
462.456	1353.59
462.829	1371.22
463.201	1441.28
463.574	1400.37
463.947	1440.82
464.32	1480.14
464.692	1491.9
465.065	1528.73
465.438	1520.6
465.81	1547.71
466.183	1573.93
466.555	1606.7
466.928	1628.39
467.3	1623.87
467.672	1636.98
468.045	1695.51
468.417	1713.58
468.789	1701.83
469.161	1755.62
469.534	1808.27
469.906	1808.72
470.278	1864.32
470.65	1894.37
471.022	1935.05
471.394	1981.83
471.766	1987.93
472.138	2030.64
472.51	2094.37
472.882	2118.09
473.253	2160.13
473.625	2198.09
473.997	2244.19
474.369	2279.67
474.74	2337.75
475.112	2397.86
475.484	2464.75
475.855	2524.19
476.227	2544.3
476.598	2631.53
476.97	2699.77
477.341	2789.49
477.713	2826.78
478.084	2871.52
478.455	2996.71
478.827	3041.46
479.198	3142.25
479.569	3187.22
479.94	3321.45
480.311	3376.82
480.682	3461.56
481.053	3617.04
481.424	3687.32
481.795	3769.12
482.166	3928.44
482.537	3963.02
482.908	4054.54
483.279	4165.27
483.65	4273.97
484.021	4454.76
484.391	4544.02
484.762	4629.89
485.133	4763.9
485.503	4882.77
485.874	4971.13
486.244	5094.51
486.615	5286.82
486.985	5395.07
487.356	5492.24
487.726	5621.28
488.097	5828.28
488.467	5887.26
488.837	6137.65
489.207	6216.29
489.578	6380.81
489.948	6498.09
490.318	6576.51
490.688	6784.41
491.058	6920.68
491.428	7058.76
491.798	7238.64
492.168	7422.36
492.538	7606.54
492.908	7717.49
493.278	7842.92
493.648	7955.68
494.017	8194.09
494.387	8283.81
494.757	8392.05
495.126	8590.92
495.496	8650.13
495.866	8791.14
496.235	8962.66
496.605	9098.02
496.974	9178.7
497.344	9382.08
497.713	9517
498.082	9600.84
498.452	9743.88
498.821	9848.29
499.19	9933.26
499.559	10104.55
499.928	10232.46
500.298	10253.25
500.667	10476.07
501.036	10482.62
501.405	10670.64
501.774	10674.25
502.143	10888.94
502.512	10944.98
502.88	11110.85
503.249	11140.91
503.618	11131.19
503.987	11331.19
504.356	11453.44
504.724	11492.54
505.093	11551.52
505.462	11617.73
505.83	11676.03
506.199	11915.12
506.567	11991.73
506.936	12103.59
507.304	12167.55
507.672	12276.25
508.041	12322.35
508.409	12460.65
508.777	12513.07
509.145	12624.94
509.514	12662.9
509.882	12724.37
510.25	12780.64
510.618	12849.34
510.986	12851.15
511.354	13069.22
511.722	13111.03
512.09	13226.05
512.458	13198.03
512.826	13281.64
513.193	13295.2
513.561	13376.1
513.929	13479.83
514.297	13545.14
514.664	13631.01
515.032	13629.88
515.4	13718.69
515.767	13814.06
516.135	13779.93
516.502	13719.14
516.869	13942.64
517.237	13996.2
517.604	13869.65
517.972	14035.52
518.339	14070.32
518.706	14045.92
519.073	14195.06
519.44	14222.18
519.808	14294.27
520.175	14284.1
520.542	14428.96
520.909	14485.68
521.276	14428.5
521.643	14640.02
522.009	14552.12
522.376	14680.25
522.743	14711.44
523.11	14706.46
523.477	14882.73
523.843	14917.08
524.21	14946.46
524.577	15001.6
524.943	15042.5
525.31	15021.26
525.676	15144.42
526.043	15278.43
526.409	15125.44
526.776	15293.11
527.142	15217.64
527.508	15336.96
527.874	15337.63
528.241	15319.78
528.607	15290.18
528.973	15419.89
529.339	15291.08
529.705	15506.89
530.071	15538.53
530.437	15514.13
530.803	15462.15
531.169	15470.51
531.535	15473.9
531.901	15436.39
532.267	15466.67
532.632	15458.53
532.998	15460.12
533.364	15515.71
533.73	15557.06
534.095	15618.98
534.461	15600.23
534.826	15469.83
535.192	15542.37
535.557	15585.54
535.923	15560.9
536.288	15557.97
536.653	15499.44
537.019	15416.05
537.384	15423.05
537.749	15417.18
538.114	15394.13
538.479	15385.99
538.845	15392.1
539.21	15386.45
539.575	15351.87
539.94	15265.54
540.305	15359.33
540.67	15255.15
541.034	15292.89
541.399	15350.29
541.764	15280.46
542.129	15229.61
542.494	15220.35
542.858	15207.69
543.223	15071.88
543.587	15216.51
543.952	14960.24
544.316	14990.07
544.681	14963.41
545.045	15038.88
545.41	15066
545.774	14934.25
546.138	14915.95
546.503	14885.44
546.867	14828.27
547.231	14948.27
547.595	14814.71
547.959	14804.99
548.324	14742.17
548.688	14710.98
549.052	14661.94
549.416	14702.85
549.779	14624.66
550.143	14607.48
550.507	14714.37
550.871	14594.38
551.235	14581.72
551.599	14619.91
551.962	14589.63
552.326	14499.01
552.689	14515.28
553.053	14401.39
553.417	14530.2
553.78	14552.12
554.143	14350.77
554.507	14459.92
554.87	14430.99
555.234	14490.2
555.597	14340.6
555.96	14372.24
556.323	14400.48
556.686	14380.82
557.05	14357.32
557.413	14410.88
557.776	14260.83
558.139	14381.27
558.502	14289.53
558.865	14330.43
559.228	14430.76
559.59	14311.45
559.953	14303.54
560.316	14444.78
560.679	14360.48
561.041	14372.69
561.404	14437.54
561.767	14483.42
562.129	14346.7
562.492	14482.51
562.854	14533.81
563.217	14380.37
563.579	14428.05
563.941	14452.01
564.304	14491.1
564.666	14473.7
565.028	14406.81
565.39	14558.22
565.753	14598.22
566.115	14605.68
566.477	14652.91
566.839	14631.89
567.201	14657.43
567.563	14635.28
567.925	14683.64
568.287	14705.11
568.648	14604.09
569.01	14654.04
569.372	14797.76
569.734	14702.4
570.095	14783.07
570.457	14817.87
570.819	14805.22
571.18	14821.49
571.542	14873.46
571.903	14883.63
572.265	14953.24
572.626	14898.1
572.987	14886.8
573.349	14863.52
573.71	14939.45
574.071	15016.96
574.432	14932.67
574.794	15051.09
575.155	14894.26
575.516	14885.89
575.877	14997.76
576.238	14950.75
576.599	14962.73
576.96	14976.06
577.32	14965.44
577.681	15099.9
578.042	15066.45
578.403	15009.96
578.763	14981.94
579.124	15061.71
579.485	15010.64
579.845	15050.64
580.206	15040.69
580.566	15028.49
580.927	14994.37
581.287	15062.84
581.648	14990.07
582.008	15062.61
582.368	15004.31
582.728	15043.18
583.089	14980.58
583.449	14974.71
583.809	14969.51
584.169	14972.67
584.529	14992.11
584.889	15081.59
585.249	15009.05
585.609	14902.39
585.969	15066.23
586.329	14986
586.688	15003.4
587.048	14980.13
587.408	14871.66
587.768	14904.88
588.127	14852.22
588.487	14864.43
588.846	14943.52
589.206	14830.3
589.565	14890.87
589.925	14922.5
590.284	14901.94
590.643	14868.04
591.003	14874.37
591.362	14927.7
591.721	14833.01
592.08	14886.12
592.44	14871.66
592.799	14860.58
593.158	14853.58
593.517	14832.34
593.876	14819.45
594.235	14807.7
594.593	14798.44
594.952	14811.09
595.311	14716.41
595.67	14731.32
596.029	14829.85
596.387	14830.3
596.746	14840.47
597.104	14683.19
597.463	14697.65
597.822	14755.5
598.18	14691.77
598.538	14621.27
598.897	14712.57
599.255	14630.99
599.613	14949.4
599.972	14763.86
600.33	14793.24
600.688	14628.73
601.046	14718.67
601.404	14759.34
601.762	14708.72
602.12	14798.89
602.478	14748.5
602.836	14797.08
603.194	14734.03
603.552	14768.61
603.91	14716.18
604.268	14721.38
604.625	14764.09
604.983	14830.98
605.341	14781.26
605.698	14767.03
606.056	14790.08
606.413	14730.42
606.771	14861.49
607.128	14725.67
607.485	14731.77
607.843	14748.27
608.2	14751.21
608.557	14827.36
608.914	14836.18
609.272	14771.09
609.629	14848.83
609.986	14967.47
610.343	14835.27
610.7	14971.54
611.057	14938.55
611.414	14929.96
611.771	14914.82
612.127	14914.37
612.484	14922.96
612.841	14962.28
613.198	14961.15
613.554	14842.28
613.911	14985.55
614.267	15037.98
614.624	14979.45
614.98	15120.69
615.337	15117.3
615.693	14997.76
616.05	15060.58
616.406	15134.25
616.762	15132.44
617.118	15098.77
617.475	15130.63
617.831	15135.15
618.187	15158.88
618.543	15162.27
618.899	15234.81
619.255	15275.71
619.611	15057.87
619.967	15221.03
620.323	15256.73
620.678	15141.25
621.034	15159.11
621.39	15254.92
621.746	15142.38
622.101	15333.34
622.457	15294.24
622.812	15302.15
623.168	15211.08
623.523	15228.71
623.879	15243.85
624.234	15213.34
624.589	15258.77
624.945	15242.72
625.3	15210.86
625.655	15319.33
626.01	15294.02
626.365	15221.7
626.72	15280.23
627.075	15216.05
627.43	15261.93
627.785	15235.94
628.14	15269.16
628.495	15269.84
628.85	15300.8
629.205	15174.7
629.559	15269.39
629.914	15185.32
630.269	15180.12
630.623	15144.64
630.978	15025.78
631.332	15130.86
631.687	15044.08
632.041	15060.35
632.396	15109.39
632.75	15055.61
633.104	15105.32
633.459	15036.4
633.813	14948.04
634.167	14987.13
634.521	15036.17
634.875	14975.16
635.229	15031.88
635.583	14835.27
635.937	14929.96
636.291	14870.75
636.645	14825.1
636.999	14863.75
637.352	14904.42
637.706	14720.25
638.06	14886.35
638.413	14788.72
638.767	14695.62
639.121	14809.51
639.474	14699.91
639.828	14715.28
640.181	14723.86
640.534	14760.93
640.888	14677.31
641.241	14598.22
641.594	14640.48
641.947	14726.12
642.301	14586.47
642.654	14629.63
643.007	14703.3
643.36	14595.51
643.713	14597.99
644.066	14597.77
644.419	14615.39
644.771	14488.84
645.124	14369.07
645.477	14337.21
645.83	14308.73
646.182	14214.73
646.535	14162.52
646.888	14177.21
647.24	14052.24
647.593	14116.87
647.945	14054.96
648.298	14047.5
648.65	14063.32
649.002	13936.31
649.355	14068.06
649.707	14124.78
650.059	14213.37
650.411	14272.58
650.763	14349.18
651.115	14503.53
651.467	14431.22
651.819	14422.86
652.171	14452.46
652.523	14466.24
652.875	14380.14
653.227	14314.38
653.578	14470.31
653.93	14500.14
654.282	14331.56
654.633	14469.18
654.985	14390.77
655.337	14435.74
655.688	14402.97
656.039	14478
656.391	14351.44
656.742	14422.4
657.094	14408.84
657.445	14405.91
657.796	14407.26
658.147	14338.79
658.498	14399.35
658.849	14487.71
659.2	14387.38
659.551	14427.15
659.902	14424.44
660.253	14374.49
660.604	14503.31
660.955	14365.46
661.306	14479.58
661.656	14489.75
662.007	14451.1
662.358	14388.05
662.708	14452.46
663.059	14495.62
663.409	14309.86
663.76	14491.33
664.11	14408.39
664.461	14435.28
664.811	14483.19
665.161	14460.37
665.511	14493.36
665.862	14458.79
666.212	14506.02
666.562	14492.68
666.912	14512.34
667.262	14419.24
667.612	14423.08
667.962	14457.66
668.312	14462.63
668.662	14478.45
669.011	14398.9
669.361	14425.34
669.711	14460.37
670.06	14368.62
670.41	14340.6
670.76	14319.81
671.109	14429.86
671.459	14386.92
671.808	14305.12
672.157	14376.3
672.507	14303.76
672.856	14319.13
673.205	14322.52
673.554	14303.31
673.904	14325.91
674.253	14367.26
674.602	14256.53
674.951	14076.42
675.3	14028.52
675.649	14317.32
675.998	14198.45
676.346	14248.4
676.695	14301.95
677.044	14216.31
677.393	14238.23
677.741	14255.85
678.09	14191.45
678.438	14154.61
678.787	14146.7
679.135	14194.16
679.484	14034.16
679.832	14091.56
680.181	13992.36
680.529	13990.55
680.877	14019.02
681.225	14036.65
681.573	13993.26
681.922	13929.53
682.27	13893.15
682.618	13958.01
682.966	13892.7
683.314	13956.43
683.661	13854.51
684.009	13815.87
684.357	13866.26
684.705	13785.13
685.053	13756.66
685.4	13786.71
685.748	13639.82
686.095	13621.75
686.443	13554.18
686.79	13600.96
687.138	13619.71
687.485	13579.26
687.832	13517.57
688.18	13591.69
688.527	13406.84
688.874	13337.91
689.221	13396.22
689.568	13275.54
689.915	13292.49
690.262	13336.1
690.609	13259.04
690.956	13207.29
691.303	13185.6
691.65	13081.2
691.997	13087.3
692.344	12984.25
692.69	13049.56
693.037	12965.49
693.383	12845.5
693.73	12909.67
694.077	12827.87
694.423	12750.36
694.769	12665.16
695.116	12727.98
695.462	12686.86
695.808	12610.25
696.155	12628.55
696.501	12626.74
696.847	12485.73
697.193	12437.82
697.539	12532.28
697.885	12369.8
698.231	12336.58
698.577	12303.14
698.923	12364.83
699.269	12263.36
699.614	12167.1
699.96	12172.52
700.306	12109.92
700.651	12003.03
700.997	11946.76
701.342	11954.67
701.688	11889.59
702.033	11851.62
702.379	11799.87
702.724	11800.78
703.069	11793.77
703.415	11662.7
703.76	11647.56
704.105	11642.14
704.45	11645.98
704.795	11490.73
705.14	11473.55
705.485	11486.44
705.83	11384.52
706.175	11459.54
706.52	11432.88
706.865	11412.09
707.209	11370.96
707.554	11274.92
707.899	11330.06
708.243	11151.75
708.588	11227.91
708.932	11238.31
709.277	11079.89
709.621	11137.07
709.966	11088.71
710.31	11081.93
710.654	10993.11
710.998	10994.7
711.342	10986.34
711.687	10983.85
712.031	10830.41
712.375	10880.12
712.719	10893.68
713.063	10815.49
713.407	10833.57
713.75	10821.82
714.094	10773.69
714.438	10735.04
714.782	10724.2
715.125	10684.2
715.469	10707.7
715.812	10608.94
716.156	10569.62
716.499	10566.01
716.843	10612.11
717.186	10542.51
717.53	10537.99
717.873	10639.45
718.216	10568.04
718.559	10476.97
718.902	10492.11
719.246	10462.28
719.589	10454.6
719.932	10401.04
720.275	10380.93
720.617	10377.99
720.96	10373.47
721.303	10355.84
721.646	10328.05
721.989	10375.28
722.331	10302.06
722.674	10325.56
723.016	10264.32
723.359	10282.17
723.701	10333.47
724.044	10310.42
724.386	10204.44
724.729	10291.66
725.071	10247.82
725.413	10261.16
725.755	10267.03
726.097	10183.19
726.439	10142.52
726.782	10160.59
727.124	10229.07
727.465	10093.03
727.807	10112.23
728.149	10112.46
728.491	10124.44
728.833	10175.28
729.175	10091.22
729.516	10093.25
729.858	10015.97
730.199	10056.87
730.541	10084.44
730.882	10043.08
731.224	10089.41
731.565	10100.03
731.906	10077.43
732.248	10006.7
732.589	9980.03
732.93	10054.16
733.271	10020.71
733.612	10010.09
733.953	10063.2
734.294	10083.08
734.635	10058.22
734.976	10088.51
735.317	10023.65
735.658	10022.29
735.999	10058.68
736.339	10020.26
736.68	10136.19
737.021	10033.14
737.361	10066.81
737.702	10148.39
738.042	10110.2
738.383	10116.75
738.723	10062.97
739.063	10169.86
739.404	10116.3
739.744	10076.53
740.084	10121.95
740.424	10174.83
740.764	10161.5
741.104	10198.33
741.444	10192.23
741.784	10171.89
742.124	10161.72
742.464	10239.24
742.804	10243.98
743.143	10258.9
743.483	10293.47
743.823	10214.6
744.162	10326.92
744.502	10379.12
744.841	10352.23
745.181	10349.97
745.52	10427.03
745.86	10472.22
746.199	10493.24
746.538	10602.62
746.877	10639.23
747.216	10711.09
747.556	10717.42
747.895	10785.44
748.234	10771.65
748.573	10876.96
748.911	10840.12
749.25	10852.1
749.589	11029.72
749.928	11023.85
750.267	11130.29
750.605	11213.67
750.944	11349.26
751.283	11361.01
751.621	11547.9
751.96	11498.19
752.298	11653.21
752.636	11691.85
752.975	11792.19
753.313	11885.52
753.651	12017.72
753.989	12086.65
754.327	12312.63
754.666	12306.53
755.004	12464.71
755.342	12599.63
755.679	12785.61
756.017	12861.54
756.355	12963.23
756.693	13119.61
757.031	13291.81
757.368	13447.97
757.706	13584.46
758.044	13715.76
758.381	13848.63
758.719	13997.1
759.056	14212.24
759.394	14249.75
759.731	14363.2
760.068	14613.13
760.405	14629.86
760.743	14865.56
761.08	15113.68
761.417	15226.45
761.754	15388.93
762.091	15529.94
762.428	15673.44
762.765	15788.02
763.102	16090.83
763.438	16128.35
763.775	16283.6
764.112	16465.06
764.449	16716.81
764.785	16858.05
765.122	16893.3
765.458	17003.35
765.795	17128.32
766.131	17288.09
766.467	17510.23
766.804	17574.86
767.14	17677.23
767.476	17794.29
767.812	17882.43
768.148	18102.31
768.485	18179.59
768.821	18220.5
769.157	18385.01
769.492	18427.04
769.828	18558.11
770.164	18627.26
770.5	18659.35
770.836	18852.57
771.171	18941.61
771.507	18977.99
771.842	18968.95
772.178	19111.32
772.513	19168.49
772.849	19223.86
773.184	19313.35
773.519	19377.75
773.855	19419.33
774.19	19538.88
774.525	19576.84
774.86	19683.73
775.195	19757.86
775.53	19751.98
775.865	19683.73
776.2	19772.09
776.535	19636.28
776.87	19705.43
777.205	19704.3
777.539	19775.26
777.874	19808.25
778.209	19836.05
778.543	19783.17
778.878	19765.31
779.212	19844.18
779.547	19771.42
779.881	19914.24
780.215	19775.26
780.55	19884.63
780.884	19845.31
781.218	19763.28
781.552	19925.31
781.886	19772.32
782.22	19716.95
782.554	19794.92
782.888	19704.52
783.222	19643.73
783.556	19667.46
783.889	19620.23
784.223	19503.63
784.557	19628.82
784.89	19597.41
785.224	19593.79
785.557	19596.05
785.891	19464.53
786.224	19513.57
786.558	19438.99
786.891	19339.56
787.224	19303.63
787.557	19348.38
787.891	19294.14
788.224	19317.64
788.557	19396.74
788.89	19313.35
789.223	19320.35
789.556	19219.11
789.888	19126.01
790.221	19086.46
790.554	18982.06
790.887	19022.73
791.219	19000.36
791.552	18909.29
791.884	18966.92
792.217	18938.89
792.549	18827.71
792.882	18706.58
793.214	18637.66
793.546	18752.68
793.879	18648.73
794.211	18601.73
794.543	18662.29
794.875	18565.57
795.207	18589.07
795.539	18480.83
795.871	18554.95
796.203	18277.67
796.535	18272.47
796.867	18435.63
797.198	18222.53
797.53	18277.22
797.862	18123.55
798.193	18150.21
798.525	18123.1
798.856	18030.22
799.188	17874.06
799.519	17847.62
799.85	17777.8
800.182	17800.62
800.513	17851.47
800.844	17612.15
801.175	17733.73
801.506	17742.09
801.837	17708.42
802.168	17569.21
802.499	17549.33
802.83	17451.93
803.161	17473.62
803.491	17421.42
803.822	17440.4
804.153	17411.03
804.483	17253.29
804.814	17220.07
805.145	17200.18
805.475	17154.76
805.805	17075.21
806.136	17108.43
806.466	17158.38
806.796	17071.83
807.126	16983.24
807.457	16918.16
807.787	16879.29
808.117	16890.59
808.447	16813.53
808.777	16754.77
809.107	16696.92
809.436	16657.6
809.766	16652.85
810.096	16598.17
810.426	16636.13
810.755	16524.27
811.085	16505.06
811.414	16506.42
811.744	16296.03
812.073	16394.33
812.403	16339.19
812.732	16290.15
813.061	16294.9
813.39	16169.48
813.719	16256.71
814.049	16209.93
814.378	16180.78
814.707	16199.98
815.036	16123.83
815.365	15978.29
815.693	15964.06
816.022	15929.71
816.351	15939.65
816.68	15820.11
817.008	15906.21
817.337	15812.65
817.665	15644.52
817.994	15736.72
818.322	15698.08
818.651	15573.33
818.979	15525.88
819.307	15639.77
819.636	15557.51
819.964	15560.23
820.292	15632.09
820.62	15542.83
820.948	15537.63
821.276	15554.8
821.604	15491.53
821.932	15577.63
822.259	15571.3
822.587	15553.45
822.915	15419.67
823.243	15410.85
823.57	15503.96
823.898	15478.65
824.225	15393.45
824.553	15397.52
824.88	15429.38
825.207	15536.72
825.535	15507.57
825.862	15560.45
826.189	15488.14
826.516	15549.38
826.843	15634.35
827.17	15628.02
827.497	15551.19
827.824	15509.38
828.151	15511.41
828.478	15491.08
828.805	15504.41
829.131	15493.56
829.458	15473.22
829.785	15465.31
830.111	15430.74
830.438	15649.72
830.764	15461.02
831.09	15513.9
831.417	15404.07
831.743	15528.36
832.069	15434.58
832.395	15381.7
832.722	15409.5
833.048	15394.36
833.374	15427.12
833.7	15324.98
834.026	15354.36
834.351	15301.48
834.677	15405.2
835.003	15235.04
835.329	15287.69
835.654	15276.39
835.98	15228.48
836.306	15277.07
836.631	15220.57
836.956	15292.44
837.282	15276.84
837.607	15194.36
837.932	15167.24
838.258	15175.15
838.583	15172.67
838.908	15071.65
839.233	15065.1
839.558	14960.24
839.883	14955.5
840.208	15000.69
840.533	14958.89
840.858	14962.28
841.182	14985.1
841.507	14931.09
841.832	14843.18
842.156	14799.12
842.481	14852.22
842.805	14754.37
843.13	14740.14
843.454	14711.21
843.778	14649.29
844.103	14583.3
844.427	14589.18
844.751	14553.7
845.075	14636.41
845.399	14461.05
845.723	14334.04
846.047	14402.52
846.371	14329.3
846.695	14370.65
847.019	14223.31
847.343	14148.51
847.666	14068.74
847.99	14048.4
848.313	14001.62
848.637	13950.55
848.96	13927.95
849.284	13866.49
849.607	13819.93
849.931	13773.38
850.254	13761.18
850.577	13534.07
850.9	13507.17
851.223	13517.34
851.546	13398.93
851.869	13416.33
852.192	13452.94
852.515	13286.16
852.838	13241.19
853.161	13263.56
853.483	13118.93
853.806	13090.23
854.129	13095.88
854.451	12985.83
854.774	12970.92
855.096	13052.72
855.419	12878.72
855.741	12865.83
856.063	12871.26
856.385	12748.1
856.708	12756.23
857.03	12698.38
857.352	12683.92
857.674	12625.84
857.996	12586.75
858.318	12534.09
858.64	12547.88
858.961	12471.95
859.283	12423.81
859.605	12444.15
859.926	12403.93
860.248	12343.59
860.57	12318.73
860.891	12300.65
861.212	12204.38
861.534	12241.67
861.855	12160.99
862.176	12230.82
862.498	12217.04
862.819	12141.79
863.14	12031.51
863.461	11984.28
863.782	12085.29
864.103	12116.93
864.424	11953.54
864.745	11975.46
865.065	11945.86
865.386	11830.83
865.707	11841.68
866.027	11839.19
866.348	11789.03
866.668	11815.01
866.989	11883.71
867.309	11744.51
867.63	11806.88
867.95	11754.45
868.27	11702.7
868.59	11692.53
868.91	11623.61
869.23	11719.65
869.55	11656.83
869.87	11719.2
870.19	11672.87
870.51	11639.88
870.83	11627.67
871.15	11593.33
871.469	11575.7
871.789	11551.29
872.109	11595.81
872.428	11491.86
872.748	11512.88
873.067	11529.6
873.386	11499.99
873.706	11463.61
874.025	11372.99
874.344	11411.41
874.663	11427.91
874.982	11391.75
875.301	11420
875.62	11316.27
875.939	11350.39
876.258	11300.23
876.577	11210.96
876.896	11227.01
877.214	11175.48
877.533	11190.4
877.852	11146.11
878.17	11138.65
878.489	11167.57
878.807	11133.68
879.125	11072.43
879.444	11109.95
879.762	11103.39
880.08	11022.27
880.398	11034.7
880.716	10976.84
881.034	10963.06
881.352	10983.17
881.67	10931.2
881.988	10970.29
882.306	10853.91
882.624	10818.66
882.941	10798.09
883.259	10777.53
883.577	10696.63
883.894	10810.07
884.212	10750.41
884.529	10781.82
884.846	10758.09
885.164	10697.3
885.481	10643.97
885.798	10654.82
886.115	10615.95
886.432	10604.65
886.75	10590.87
887.067	10532.56
887.383	10529.17
887.7	10490.53
888.017	10379.35
888.334	10452.11
888.651	10363.07
888.967	10467.93
889.284	10328.27
889.6	10252.8
889.917	10338.67
890.233	10230.65
890.55	10256.41
890.866	10243.98
891.182	10176.87
891.498	10187.03
891.815	10050.31
892.131	10074.04
892.447	9963.54
892.763	9989.98
893.079	10001.05
893.395	9990.2
893.71	9873.37
894.026	9928.96
894.342	9914.73
894.657	9782.75
894.973	9793.6
895.289	9731
895.604	9759.7
895.92	9713.15
896.235	9665.69
896.55	9609.2
896.865	9539.14
897.181	9596.99
897.496	9600.61
897.811	9520.84
898.126	9471.8
898.441	9477.9
898.756	9390.22
899.071	9392.48
899.386	9314.74
899.7	9308.41
900.015	9241.07
900.33	9150.45
900.644	9200.17
900.959	9186.38
901.273	9135.54
901.588	9079.72
901.902	8995.65
902.216	8992.94
902.531	8967.41
902.845	8905.49
903.159	8933.73
903.473	8907.75
903.787	8841.76
904.101	8748.2
904.415	8799.73
904.729	8735.32
905.042	8743.23
905.356	8682.89
905.67	8632.05
905.984	8653.52
906.297	8595.89
906.611	8567.42
906.924	8567.42
907.237	8482.22
907.551	8456.46
907.864	8453.07
908.177	8465.72
908.491	8378.27
908.804	8390.25
909.117	8300.98
909.43	8216.01
909.743	8175.79
910.056	8187.76
910.368	8169.23
910.681	8108.67
910.994	8109.8
911.307	8115
911.619	8005.4
911.932	8058.05
912.244	8016.7
912.557	7934.89
912.869	7913.2
913.181	7858.51
913.494	7799.53
913.806	7759.98
914.118	7809.7
914.43	7736.48
914.742	7756.59
915.054	7695.8
915.366	7658.97
915.678	7635.01
915.99	7575.13
916.302	7541.45
916.613	7478.86
916.925	7509.59
917.236	7479.31
917.548	7436.37
917.859	7369.93
918.171	7357.5
918.482	7285.42
918.794	7273.21
919.105	7301.69
919.416	7235.93
919.727	7209.94
920.038	7155.02
920.349	7125.42
920.66	7061.47
920.971	7078.19
921.282	7104.18
921.593	7030.06
921.903	6994.58
922.214	6938.76
922.525	6894.24
922.835	6896.95
923.146	6882.49
923.456	6837.52
923.767	6840.46
924.077	6776.5
924.387	6756.84
924.697	6698.09
925.008	6716.84
925.318	6724.75
925.628	6656.51
925.938	6611.08
926.248	6611.54
926.558	6550.75
926.867	6558.66
927.177	6528.37
927.487	6498.09
927.796	6474.36
928.106	6469.84
928.416	6423.97
928.725	6367.25
929.034	6379.45
929.344	6363.86
929.653	6301.71
929.962	6291.09
930.271	6273.92
930.581	6238.89
930.89	6241.83
931.199	6199.34
931.508	6149.4
931.817	6196.86
932.125	6147.14
932.434	6092
932.743	6043.19
933.051	6050.65
933.36	6019.69
933.669	6016.97
933.977	5972.23
934.286	5926.36
934.594	5929.97
934.902	5841.84
935.21	5884.1
935.519	5837.54
935.827	5772.91
936.135	5817.21
936.443	5733.14
936.751	5719.81
937.059	5713.71
937.367	5709.19
937.674	5694.27
937.982	5722.29
938.29	5649.53
938.597	5589.19
938.905	5547.61
939.213	5535.18
939.52	5535.63
939.827	5534.05
940.135	5512.13
940.442	5422.19
940.749	5427.84
941.056	5412.47
941.363	5385.8
941.67	5406.6
941.977	5360.49
942.284	5323.89
942.591	5220.84
942.898	5209.76
943.205	5246.37
943.511	5225.36
943.818	5226.03
944.125	5172.7
944.431	5129.09
944.738	5152.82
945.044	5104
945.35	5068.07
945.657	5063.1
945.963	5043.89
946.269	5021.07
946.575	4987.85
946.881	4937.23
947.187	4976.1
947.493	4958.47
947.799	4894.97
948.105	4863.33
948.41	4878.93
948.716	4862.2
949.022	4811.13
949.327	4816.1
949.633	4821.75
949.938	4784.24
950.244	4738.82
950.549	4700.4
950.854	4685.48
951.16	4656.56
951.465	4629.44
951.77	4686.84
952.075	4621.31
952.38	4572.72
952.685	4594.64
952.99	4575.2
953.294	4521.65
953.599	4520.52
953.904	4505.83
954.209	4461.31
954.513	4452.04
954.818	4407.3
955.122	4429.22
955.426	4413.17
955.731	4391.03
956.035	4380.86
956.339	4339.96
956.643	4338.15
956.948	4279.17
957.252	4306.51
957.556	4283.46
957.86	4271.94
958.163	4229
958.467	4254.31
958.771	4172.05
959.075	4208.43
959.378	4154.42
959.682	4142.22
959.985	4108.32
960.289	4134.99
960.592	4094.54
960.896	4096.35
961.199	4042.11
961.502	4036.91
961.805	3996.69
962.108	4003.92
962.411	3976.35
962.714	3989.91
963.017	3958.72
963.32	3905.84
963.623	3919.85
963.926	3927.09
964.228	3880.53
964.531	3869.69
964.833	3872.17
965.136	3852.74
965.438	3815.45
965.741	3784.04
966.043	3810.48
966.345	3765.28
966.648	3751.5
966.95	3726.41
967.252	3673.31
967.554	3691.84
967.856	3690.03
968.158	3632.18
968.46	3650.71
968.761	3633.99
969.063	3595.34
969.365	3606.19
969.666	3585.85
969.968	3570.94
970.269	3593.54
970.571	3547.89
970.872	3531.62
971.174	3506.31
971.475	3500.66
971.776	3519.64
972.077	3492.3
972.378	3461.11
972.679	3432.86
972.98	3436.7
973.281	3396.03
973.582	3405.52
973.883	3368.68
974.183	3351.28
974.484	3352.86
974.785	3366.2
975.085	3348.12
975.386	3344.05
975.686	3307.67
975.986	3284.62
976.287	3288.68
976.587	3271.74
976.887	3275.35
977.187	3212.98
977.487	3203.49
977.787	3152.42
978.087	3178.86
978.387	3141.34
978.687	3181.79
978.987	3127.78
979.286	3076.03
979.586	3088.69
979.885	3086.88
980.185	3075.36
980.484	3057.28
980.784	3087.33
981.083	3060.44
981.382	3025.19
981.682	3010.5
981.981	2999.88
982.28	2963.27
982.579	2959.2
982.878	2970.5
983.177	2935.7
983.475	2959.65
983.774	2941.58
984.073	2916.94
984.372	2879.88
984.67	2852.09
984.969	2865.19
985.267	2875.81
985.566	2867.68
985.864	2815.02
986.162	2812.99
986.461	2819.09
986.759	2778.42
987.057	2727.8
987.355	2732.99
987.653	2749.26
987.951	2732.99
988.249	2726.21
988.547	2735.25
988.844	2700.9
989.142	2677.63
989.44	2692.77
989.737	2667.91
990.035	2638.98
990.332	2651.64
990.63	2628.36
990.927	2650.51
991.224	2583.39
991.521	2611.19
991.819	2563.96
992.116	2561.47
992.413	2518.76
992.71	2581.13
993.006	2523.51
993.303	2489.84
993.6	2517.63
993.897	2499.55
994.193	2511.3
994.49	2453.45
994.787	2475.37
995.083	2434.24
995.379	2429.72
995.676	2419.1
995.972	2456.84
996.268	2402.15
996.565	2406.45
996.861	2363.74
997.157	2357.18
997.453	2362.16
997.749	2347.01
998.044	2314.47
998.34	2346.34
998.636	2309.28
998.932	2270.86
999.227	2306.79
999.523	2262.5
999.818	2262.95
1000.114	2240.12
1000.409	2225.89
1000.704	2222.95
1001	2194.7
1001.295	2194.02
1001.59	2209.84
1001.885	2167.36
1002.18	2166
1002.475	2141.37
1002.77	2137.3
1003.065	2143.63
1003.359	2100.69
1003.654	2105.89
1003.949	2099.79
1004.243	2097.53
1004.538	2051.66
1004.832	2077.19
1005.127	2039
1005.421	2060.69
1005.715	2040.36
1006.009	2003.75
1006.304	2006.46
1006.598	1962.62
1006.892	1963.75
1007.186	1982.5
1007.48	1968.49
1007.773	1924.65
1008.067	1914.03
1008.361	1897.53
1008.655	1890.53
1008.948	1886.24
1009.242	1897.99
1009.535	1871.32
1009.829	1877.42
1010.122	1860.02
1010.415	1821.83
1010.708	1838.55
1011.001	1816.86
1011.295	1781.15
1011.588	1779.57
1011.881	1759.91
1012.173	1785
1012.466	1796.97
1012.759	1747.71
1013.052	1736.86
1013.344	1751.1
1013.637	1704.32
1013.93	1722.4
1014.222	1717.2
1014.514	1695.51
1014.807	1692.57
1015.099	1697.31
1015.391	1661.61
1015.683	1655.51
1015.976	1664.32
1016.268	1627.26
1016.56	1634.26
1016.851	1623.64
1017.143	1604.89
1017.435	1584.32
1017.727	1575.51
1018.018	1578.45
1018.31	1564.66
1018.602	1548.62
1018.893	1540.93
1019.185	1561.05
1019.476	1533.25
1019.767	1517.43
1020.058	1500.94
1020.35	1495.06
1020.641	1495.51
1020.932	1478.11
1021.223	1467.49
1021.514	1471.11
1021.804	1436.76
1022.095	1440.82
1022.386	1432.69
1022.677	1412.8
1022.967	1420.03
1023.258	1400.15
1023.548	1388.62
1023.839	1376.42
1024.129	1395.85
1024.419	1361.05
1024.709	1353.37
1025	1326.25
1025.29	1338.23
1025.58	1319.24
1025.87	1316.08
1026.16	1319.7
1026.449	1308.85
1026.739	1319.02
1027.029	1285.57
1027.319	1270.21
1027.608	1291.68
1027.898	1249.19
1028.187	1275.63
1028.477	1257.33
1028.766	1271.79
1029.055	1246.93
1029.344	1229.3
1029.634	1207.61
1029.923	1249.87
1030.212	1191.11
1030.501	1181.17
1030.79	1190.43
1031.078	1196.31
1031.367	1160.61
1031.656	1145.01
1031.945	1153.6
1032.233	1145.01
1032.522	1141.62
1032.81	1117.22
1033.099	1123.32
1033.387	1136.88
1033.675	1128.29
1033.963	1100.72
1034.251	1106.14
1034.54	1080.61
1034.828	1079.7
1035.116	1081.96
1035.403	1074.51
1035.691	1033.6
1035.979	1045.35
1036.267	1047.39
1036.554	1032.02
1036.842	1018.46
1037.129	1044.68
1037.417	1009.42
1037.704	1022.08
1037.992	1014.39
1038.279	1000.38
1038.566	977.79
1038.853	977.79
1039.14	977.79
