Data from hue_80_FLMS001491_57.txt Node
Date: Mon Feb 06 15:23:14 GMT 2017
User: dcchb
Spectrometer: FLMS00149
Trigger mode: 0
Integration Time (sec): 2.000000E-2
Scans to average: 10
Electric dark correction enabled: true
Nonlinearity correction enabled: false
Boxcar width: 0
XAxis mode: Wavelengths
Number of Pixels in Spectrum: 2048
>>>>>Begin Spectral Data<<<<<
341.393	-0.81
341.776	-0.81
342.16	-0.81
342.543	-28.37
342.927	-59.33
343.31	-58.43
343.693	-57.3
344.077	-53.46
344.46	-60.46
344.843	-56.4
345.226	-41.93
345.61	-45.32
345.993	-16.4
346.376	-7.13
346.759	12.08
347.142	28.12
347.525	24.73
347.908	57.5
348.291	75.13
348.674	99.31
349.057	99.98
349.44	126.2
349.823	158.96
350.206	152.19
350.588	188.79
350.971	207.33
351.354	218.4
351.737	255.01
352.119	269.24
352.502	280.09
352.884	270.83
353.267	298.17
353.65	288
354.032	278.96
354.414	307.44
354.797	322.12
355.179	329.81
355.562	310.6
355.944	324.61
356.326	339.07
356.709	335.23
357.091	346.98
357.473	355.57
357.855	363.25
358.238	346.08
358.62	340.43
359.002	339.98
359.384	343.82
359.766	346.3
360.148	347.66
360.53	319.86
360.912	341.78
361.294	337.04
361.676	327.1
362.057	349.47
362.439	350.15
362.821	338.62
363.203	316.47
363.584	313.76
363.966	331.62
364.348	334.1
364.729	324.61
365.111	331.84
365.493	320.54
365.874	309.7
366.256	325.74
366.637	334.78
367.019	308.34
367.4	336.81
367.781	321.67
368.163	329.81
368.544	318.06
368.925	325.29
369.306	337.49
369.688	307.89
370.069	322.58
370.45	316.25
370.831	321.22
371.212	306.98
371.593	315.34
371.974	315.57
372.355	313.76
372.736	319.86
373.117	317.6
373.498	330.03
373.879	340.65
374.26	310.83
374.641	327.32
375.021	318.73
375.402	316.25
375.783	312.41
376.163	322.58
376.544	319.64
376.925	323.71
377.305	336.14
377.686	345.17
378.066	328.68
378.447	343.82
378.827	318.96
379.208	338.17
379.588	357.15
379.968	356.02
380.349	325.97
380.729	330.26
381.109	317.15
381.489	346.76
381.87	349.24
382.25	342.91
382.63	332.97
383.01	346.08
383.39	341.33
383.77	346.08
384.15	337.04
384.53	348.56
384.91	361.22
385.29	346.53
385.67	336.14
386.049	340.43
386.429	353.31
386.809	363.25
387.189	371.84
387.568	351.05
387.948	348.56
388.328	364.61
388.707	349.69
389.087	369.35
389.466	359.19
389.846	363.71
390.225	389.02
390.605	371.84
390.984	368.9
391.363	364.16
391.743	349.92
392.122	367.32
392.501	355.57
392.881	360.99
393.26	393.31
393.639	369.58
394.018	374.33
394.397	384.04
394.776	374.55
395.155	403.03
395.534	382.91
395.913	405.29
396.292	378.39
396.671	381.33
397.05	413.42
397.429	383.14
397.808	381.33
398.186	392.18
398.565	390.6
398.944	380.43
399.323	416.81
399.701	396.25
400.08	398.28
400.458	422.69
400.837	396.7
401.215	415.46
401.594	391.95
401.972	425.17
402.351	410.48
402.729	406.42
403.107	426.98
403.486	404.61
403.864	416.81
404.242	423.82
404.62	418.17
404.999	413.65
405.377	414.33
405.755	437.6
406.133	434.21
406.511	415.68
406.889	419.07
407.267	425.17
407.645	433.99
408.023	421.78
408.401	431.73
408.779	422.46
409.156	424.72
409.534	437.83
409.912	448.22
410.29	464.95
410.667	450.93
411.045	457.26
411.422	452.29
411.8	462.69
412.178	453.19
412.555	462.23
412.933	475.34
413.31	452.74
413.687	464.95
414.065	483.48
414.442	483.25
414.819	478.96
415.197	502.01
415.574	490.71
415.951	494.55
416.328	492.52
416.705	476.47
417.082	482.35
417.46	490.48
417.837	489.58
418.214	489.8
418.591	494.78
418.967	520.09
419.344	520.54
419.721	539.97
420.098	504.27
420.475	507.88
420.852	522.8
421.228	525.06
421.605	524.15
421.982	539.07
422.358	537.71
422.735	538.84
423.111	543.14
423.488	544.49
423.864	545.17
424.241	555.56
424.617	582.46
424.994	546.98
425.37	559.41
425.746	546.98
426.123	560.76
426.499	580.42
426.875	586.75
427.251	566.41
427.627	596.92
428.003	585.17
428.379	603.7
428.756	606.86
429.132	620.42
429.507	601.89
429.883	624.49
430.259	609.12
430.635	633.08
431.011	623.81
431.387	619.07
431.763	620.42
432.138	645.73
432.514	650.03
432.89	670.59
433.265	640.76
433.641	653.19
434.016	670.36
434.392	675.34
434.767	675.79
435.143	684.6
435.518	690.25
435.894	703.36
436.269	696.58
436.644	695.22
437.02	709.01
437.395	717.14
437.77	723.02
438.145	718.5
438.52	728.89
438.895	748.78
439.271	725.5
439.646	772.28
440.021	742.45
440.395	752.17
440.77	756.24
441.145	751.49
441.52	748.33
441.895	764.15
442.27	763.02
442.645	766.63
443.019	794.43
443.394	780.19
443.769	793.52
444.143	770.47
444.518	805.05
444.892	804.82
445.267	816.8
445.641	822.22
446.016	822.68
446.39	829.68
446.764	830.13
447.139	814.31
447.513	824.48
447.887	857.25
448.262	825.61
448.636	832.39
449.01	852.96
449.384	902
449.758	891.83
450.132	866.97
450.506	881.88
450.88	884.14
451.254	887.99
451.628	890.24
452.002	931.15
452.376	904.26
452.75	917.36
453.123	939.06
453.497	928.89
453.871	958.04
454.244	968.21
454.618	969.56
454.992	967.76
455.365	990.36
455.739	1008.89
456.112	1013.63
456.486	1021.31
456.859	1048.21
457.232	1042.78
457.606	1029.9
457.979	1077.13
458.352	1057.47
458.725	1075.78
459.099	1106.74
459.472	1096.57
459.845	1131.37
460.218	1136.57
460.591	1154.64
460.964	1158.71
461.337	1172.5
461.71	1183.8
462.083	1211.59
462.456	1210.46
462.829	1239.16
463.201	1224.47
463.574	1239.16
463.947	1285.71
464.32	1281.87
464.692	1318.03
465.065	1316.45
465.438	1337.92
465.81	1375.2
466.183	1337.24
466.555	1402.55
466.928	1420.17
467.3	1416.11
467.672	1426.95
468.045	1469.21
468.417	1494.97
468.789	1526.84
469.161	1526.39
469.534	1534.52
469.906	1591.02
470.278	1601.64
470.65	1655.87
471.022	1674.63
471.394	1730.67
471.766	1739.26
472.138	1760.73
472.51	1813.16
472.882	1854.97
473.253	1871.01
473.625	1921.18
473.997	1926.38
474.369	2020.16
474.74	2032.36
475.112	2085.47
475.484	2116.65
475.855	2160.27
476.227	2205.69
476.598	2283.43
476.97	2341.96
477.341	2409.53
477.713	2447.49
478.084	2478.45
478.455	2617.43
478.827	2618.34
479.198	2727.03
479.569	2768.84
479.94	2869.63
480.311	2917.54
480.682	3036.4
481.053	3117.98
481.424	3213.8
481.795	3287.47
482.166	3355.26
482.537	3417.64
482.908	3548.25
483.279	3665.31
483.65	3730.17
484.021	3833.44
484.391	3954.57
484.762	4018.3
485.133	4097.84
485.503	4260.1
485.874	4383.94
486.244	4506.42
486.615	4575.12
486.985	4735.57
487.356	4876.58
487.726	4985.5
488.097	5114.31
488.467	5213.07
488.837	5365.16
489.207	5410.58
489.578	5600.4
489.948	5741.42
490.318	5915.2
490.688	6003.33
491.058	6173.27
491.428	6303.89
491.798	6425.24
492.168	6598.12
492.538	6735.97
492.908	6886.25
493.278	7006.69
493.648	7125.56
494.017	7296.4
494.387	7413.01
494.757	7512.9
495.126	7727.58
495.496	7820.68
495.866	7869.5
496.235	8149.26
496.605	8220.45
496.974	8350.84
497.344	8476.71
497.713	8653.2
498.082	8736.59
498.452	8921.9
498.821	9038.96
499.19	9141.55
499.559	9219.52
499.928	9422.68
500.298	9439.62
500.667	9659.73
501.036	9736.11
501.405	9858.6
501.774	9957.58
502.143	10128.65
502.512	10157.8
502.88	10340.39
503.249	10387.85
503.618	10578.13
503.987	10619.25
504.356	10740.38
504.724	10773.6
505.093	10933.82
505.462	10976.08
505.83	11149.64
506.199	11223.31
506.567	11400.7
506.936	11455.62
507.304	11617.65
507.672	11720.02
508.041	11679.11
508.409	11819.45
508.777	11951.2
509.145	12014.25
509.514	12083.62
509.882	12198.42
510.25	12276.39
510.618	12417.17
510.986	12473.22
511.354	12583.72
511.722	12737.17
512.09	12825.3
512.458	12865.98
512.826	12937.16
513.193	13111.84
513.561	13135.12
513.929	13247.43
514.297	13308.68
514.664	13360.2
515.032	13490.14
515.4	13613.3
515.767	13637.71
516.135	13743.01
516.502	13600.65
516.869	13871.82
517.237	13896.68
517.604	13845.61
517.972	14036.11
518.339	14079.05
518.706	14137.35
519.073	14229.56
519.44	14273.4
519.808	14375.99
520.175	14337.57
520.542	14510.45
520.909	14561.07
521.276	14609.66
521.643	14695.76
522.009	14837.67
522.376	14808.75
522.743	14935.53
523.11	15050.32
523.477	15154.73
523.843	15213.94
524.21	15381.39
524.577	15405.57
524.943	15454.38
525.31	15599.91
525.676	15622.06
526.043	15644.89
526.409	15695.96
526.776	15798.55
527.142	15797.88
527.508	15909.51
527.874	15999.9
528.241	16097.08
528.607	16067.02
528.973	16147.92
529.339	16082.16
529.705	16189.28
530.071	16364.19
530.437	16395.15
530.803	16382.49
531.169	16473.79
531.535	16495.94
531.901	16430.18
532.267	16585.88
532.632	16578.42
532.998	16610.51
533.364	16588.59
533.73	16671.98
534.095	16721.47
534.461	16673.11
534.826	16753.1
535.192	16779.32
535.557	16791.07
535.923	16737.74
536.288	16843.72
536.653	16839.43
537.019	16773.9
537.384	16768.7
537.749	16904.97
538.114	16773.9
538.479	16856.15
538.845	16871.07
539.21	16806.44
539.575	16884.85
539.94	16891.41
540.305	16873.1
540.67	16887.34
541.034	16913.78
541.399	16891.18
541.764	16897.51
542.129	16961.01
542.494	16911.97
542.858	17001.69
543.223	16876.72
543.587	16996.49
543.952	16888.02
544.316	16996.71
544.681	16827.9
545.045	16925.98
545.41	16892.08
545.774	17003.72
546.138	16984.74
546.503	16923.04
546.867	16913.78
547.231	16982.48
547.595	16861.58
547.959	16870.84
548.324	16925.3
548.688	16852.54
549.052	16864.29
549.416	16932.31
549.779	16856.15
550.143	16848.47
550.507	16949.48
550.871	16869.26
551.235	16812.31
551.599	16882.14
551.962	16969.14
552.326	16939.77
552.689	16959.43
553.053	16877.62
553.417	16834.91
553.78	17086.88
554.143	16931.86
554.507	17003.95
554.87	16943.16
555.234	16989.71
555.597	16949.94
555.96	16928.69
556.323	16961.91
556.686	16897.06
557.05	17004.4
557.413	17062.7
557.776	16974.79
558.139	17080.1
558.502	17060.67
558.865	17045.3
559.228	17157.39
559.59	17163.72
559.953	17137.95
560.316	17336.82
560.679	17296.59
561.041	17335.24
561.404	17339.53
561.767	17429.92
562.129	17289.81
562.492	17427.66
562.854	17441.22
563.217	17454.78
563.579	17467.21
563.941	17565.96
564.304	17495.68
564.666	17601.22
565.028	17625.85
565.39	17683.48
565.753	17631.5
566.115	17767.32
566.477	17812.06
566.839	17752.17
567.201	17827.65
567.563	17800.08
567.925	18013.41
568.287	17881.89
568.648	17902.68
569.01	17963.92
569.372	18041.88
569.734	18019.29
570.095	18071.49
570.457	18111.04
570.819	18097.48
571.18	18104.26
571.542	18122.11
571.903	18258.38
572.265	18297.02
572.626	18287.98
572.987	18341.31
573.349	18316.91
573.71	18356
574.071	18342.89
574.432	18407.75
574.794	18479.39
575.155	18463.79
575.516	18408.2
575.877	18459.05
576.238	18474.42
576.599	18496.11
576.96	18523.91
577.32	18452.27
577.681	18571.14
578.042	18529.56
578.403	18607.29
578.763	18611.36
579.124	18617.46
579.485	18670.79
579.845	18816.1
580.206	18559.16
580.566	18665.14
580.927	18616.56
581.287	18643.9
581.648	18644.58
582.008	18705.14
582.368	18656.11
582.728	18729.78
583.089	18619.27
583.449	18647.07
583.809	18686.39
584.169	18685.26
584.529	18756.22
584.889	18803.22
585.249	18661.53
585.609	18666.5
585.969	18726.84
586.329	18586.5
586.688	18635.77
587.048	18681.64
587.408	18599.38
587.768	18603.23
588.127	18553.51
588.487	18516.22
588.846	18655.43
589.206	18547.86
589.565	18523.45
589.925	18605.49
590.284	18551.25
590.643	18521.65
591.003	18599.61
591.362	18598.71
591.721	18567.97
592.08	18535.88
592.44	18669.89
592.799	18634.19
593.158	18532.04
593.517	18449.33
593.876	18528.2
594.235	18517.8
594.593	18555.32
594.952	18487.07
595.311	18500.86
595.67	18490.69
596.029	18574.98
596.387	18563.45
596.746	18468.31
597.104	18481.87
597.463	18556.67
597.822	18623.79
598.18	18483.23
598.538	18540.85
598.897	18538.59
599.255	18466.28
599.613	18675.77
599.972	18556.22
600.33	18535.66
600.688	18503.12
601.046	18551.48
601.404	18584.24
601.762	18560.06
602.12	18661.3
602.478	18614.75
602.836	18578.37
603.194	18457.47
603.552	18567.52
603.91	18551.02
604.268	18641.87
604.625	18524.36
604.983	18629.89
605.341	18540.4
605.698	18576.11
606.056	18670.57
606.413	18658.37
606.771	18616.11
607.128	18746.27
607.485	18541.53
607.843	18658.82
608.2	18726.84
608.557	18726.61
608.914	18627.41
609.272	18700.62
609.629	18755.09
609.986	18832.37
610.343	18738.14
610.7	18866.95
611.057	18876.66
611.414	18809.55
611.771	18834.86
612.127	18930
612.484	18812.26
612.841	18935.65
613.198	18966.38
613.554	18916.66
613.911	18968.41
614.267	18966.15
614.624	18900.39
614.98	19077.56
615.337	19186.94
615.693	19065.36
616.05	19135.64
616.406	19134.06
616.762	19039.15
617.118	19059.26
617.475	19029.43
617.831	19169.31
618.187	19081.41
618.543	19172.48
618.899	19252.7
619.255	19177.67
619.611	19162.76
619.967	19262.64
620.323	19308.74
620.678	19216.54
621.034	19220.84
621.39	19197.56
621.746	19191.91
622.101	19372.7
622.457	19275.3
622.812	19306.71
623.168	19335.18
623.523	19261.29
623.879	19301.29
624.234	19251.34
624.589	19268.07
624.945	19266.71
625.3	19349.19
625.655	19282.53
626.01	19346.26
626.365	19420.61
626.72	19404.33
627.075	19308.74
627.43	19363.21
627.785	19266.71
628.14	19311
628.495	19295.18
628.85	19249.31
629.205	19222.87
629.559	19254.73
629.914	19218.8
630.269	19153.72
630.623	19258.12
630.978	19170.89
631.332	19173.15
631.687	19320.95
632.041	19177.9
632.396	19161.85
632.75	19091.57
633.104	19157.11
633.459	19068.75
633.813	19018.58
634.167	19101.74
634.521	19021.97
634.875	19041.63
635.229	19044.34
635.583	18911.69
635.937	18949.88
636.291	18913.5
636.645	18948.3
636.999	18951.69
637.352	19063.1
637.706	18800.06
638.06	18994.63
638.413	18773.84
638.767	18746.5
639.121	18871.24
639.474	18757.8
639.828	18702.43
640.181	18679.61
640.534	18775.2
640.888	18633.06
641.241	18704.92
641.594	18628.31
641.947	18737.23
642.301	18687.07
642.654	18662.43
643.007	18744.24
643.36	18662.43
643.713	18608.2
644.066	18649.55
644.419	18525.04
644.771	18408.43
645.124	18409.78
645.477	18290.47
645.83	18203.24
646.182	18117.36
646.535	18047.99
646.888	18032.39
647.24	18017.25
647.593	18068.32
647.945	17942.9
648.298	17995.11
648.65	17920.98
649.002	17887.31
649.355	17926.63
649.707	17831.49
650.059	18021.77
650.411	18235.1
650.763	18212.05
651.115	18335.89
651.467	18408.43
651.819	18360.75
652.171	18385.83
652.523	18321.65
652.875	18377.92
653.227	18286.4
653.578	18411.59
653.93	18405.72
654.282	18346.74
654.633	18211.37
654.985	18334.53
655.337	18333.85
655.688	18293.63
656.039	18427.86
656.391	18301.76
656.742	18366.4
657.094	18239.17
657.445	18344.25
657.796	18312.84
658.147	18245.95
658.498	18319.84
658.849	18410.69
659.2	18302.44
659.551	18346.51
659.902	18324.14
660.253	18304.02
660.604	18345.15
660.955	18239.39
661.306	18344.25
661.656	18349.45
662.007	18394.19
662.358	18352.84
662.708	18241.88
663.059	18385.6
663.409	18246.17
663.76	18395.55
664.11	18304.48
664.461	18360.97
664.811	18339.05
665.161	18330.69
665.511	18324.59
665.862	18341.09
666.212	18464.02
666.562	18363.91
666.912	18365.49
667.262	18276.91
667.612	18308.32
667.962	18347.19
668.312	18389.45
668.662	18449.33
669.011	18329.33
669.361	18227.87
669.711	18405.49
670.06	18208.21
670.41	18296.79
670.76	18395.77
671.109	18379.95
671.459	18260.18
671.808	18278.49
672.157	18273.29
672.507	18143.58
672.856	18219.51
673.205	18240.52
673.554	18228.77
673.904	18098.83
674.253	18331.14
674.602	18211.37
674.951	17888.22
675.3	17790.14
675.649	18116.68
675.998	18102
676.346	18126.85
676.695	18141.09
677.044	17972.51
677.393	18081.21
677.741	18087.53
678.09	18010.47
678.438	18000.53
678.787	18075.78
679.135	17977.25
679.484	17847.31
679.832	17950.59
680.181	17841.21
680.529	17911.49
680.877	17895.67
681.225	17842.34
681.573	17858.39
681.922	17779.97
682.27	17736.13
682.618	17661.78
682.966	17664.49
683.314	17665.62
683.661	17703.36
684.009	17638.28
684.357	17563.25
684.705	17410.26
685.053	17461.11
685.4	17433.76
685.748	17340.89
686.095	17295.92
686.443	17285.29
686.79	17139.08
687.138	17240.55
687.485	17168.24
687.832	17130.72
688.18	17143.38
688.527	16990.84
688.874	17068.12
689.221	16984.06
689.568	16910.16
689.915	16892.99
690.262	16831.97
690.609	16836.72
690.956	16752.88
691.303	16761.01
691.65	16602.83
691.997	16636.05
692.344	16508.14
692.69	16519.21
693.037	16472.43
693.383	16345.88
693.73	16431.76
694.077	16376.62
694.423	16308.37
694.769	16173.23
695.116	16228.6
695.462	16121.71
695.808	16118.77
696.155	16167.36
696.501	15942.73
696.847	15966.68
697.193	15836.52
697.539	15851.89
697.885	15705.45
698.231	15658.9
698.577	15670.87
698.923	15627.48
699.269	15536.87
699.614	15425.23
699.96	15450.09
700.306	15481.95
700.651	15306.14
700.997	15255.52
701.342	15231.34
701.688	15201.28
702.033	15141.17
702.379	15112.24
702.724	15014.85
703.069	15072.02
703.415	14834.06
703.76	14924.9
704.105	14828.41
704.45	14905.47
704.795	14757
705.14	14755.64
705.485	14588.87
705.83	14608.3
706.175	14647.4
706.52	14560.17
706.865	14479.94
707.209	14495.99
707.554	14460.74
707.899	14425.48
708.243	14307.07
708.588	14313.39
708.932	14231.59
709.277	14186.62
709.621	14200.18
709.966	14064.81
710.31	14122.67
710.654	13988.66
710.998	14051.25
711.342	13933.07
711.687	13917.7
712.031	13905.5
712.375	13877.25
712.719	13828.66
713.063	13817.59
713.407	13854.88
713.75	13700.53
714.094	13747.99
714.438	13670.47
714.782	13672.73
715.125	13631.15
715.469	13654.43
715.812	13607.65
716.156	13494.21
716.499	13570.14
716.843	13585.73
717.186	13394.55
717.53	13493.76
717.873	13526.07
718.216	13394.32
718.559	13447.2
718.902	13347.54
719.246	13318.39
719.589	13235.91
719.932	13281.56
720.275	13218.06
720.617	13293.31
720.96	13253.54
721.303	13230.49
721.646	13260.09
721.989	13149.81
722.331	13169.47
722.674	13180.32
723.016	13147.78
723.359	13126.76
723.701	13153.88
724.044	13134.67
724.386	13042.92
724.729	13001.34
725.071	13031.39
725.413	12991.62
725.755	13053.77
726.097	12963.6
726.439	12987.55
726.782	12966.31
727.124	13045.18
727.465	12912.98
727.807	12948.68
728.149	12893.09
728.491	12959.53
728.833	12964.28
729.175	12917.27
729.516	12800.21
729.858	12903.49
730.199	12870.27
730.541	12846.77
730.882	12828.69
731.224	12860.33
731.565	12811.74
731.906	12769.48
732.248	12805.19
732.589	12749.14
732.93	12709.82
733.271	12703.27
733.612	12776.03
733.953	12741.68
734.294	12753.66
734.635	12755.92
734.976	12691.06
735.317	12661.23
735.658	12723.83
735.999	12768.8
736.339	12703.49
736.68	12736.49
737.021	12766.77
737.361	12675.47
737.702	12802.7
738.042	12747.56
738.383	12727.9
738.723	12887.67
739.063	12704.85
739.404	12805.41
739.744	12738.52
740.084	12820.1
740.424	12864.62
740.764	12792.08
741.104	12823.72
741.444	12695.36
741.784	12833.21
742.124	12938.52
742.464	12814.45
742.804	12787.11
743.143	12866.43
743.483	12877.73
743.823	12833.21
744.162	12838.86
744.502	12959.31
744.841	12940.55
745.181	13022.58
745.52	12973.77
745.86	13073.43
746.199	13104.61
746.538	13096.25
746.877	13199.3
747.216	13197.72
747.556	13259.19
747.895	13351.39
748.234	13342.57
748.573	13432.29
748.911	13395
749.25	13454.89
749.589	13540.31
749.928	13659.4
750.267	13696.69
750.605	13671.15
750.944	13721.55
751.283	13848.1
751.621	14000.86
751.96	13905.72
752.298	13987.98
752.636	14123.12
752.975	14210.12
753.313	14245.83
753.651	14406.5
753.989	14390.91
754.327	14580.51
754.666	14489.44
755.004	14733.27
755.342	14805.59
755.679	14862.08
756.017	14931.91
756.355	15053.71
756.693	15141.85
757.031	15415.06
757.368	15329.19
757.706	15577.77
758.044	15643.08
758.381	15698.67
758.719	15812.34
759.056	15969.4
759.394	16014.14
759.731	16103.18
760.068	16139.79
760.405	16313.79
760.743	16386.11
761.08	16685.54
761.417	16558.08
761.754	16812.31
762.091	16811.41
762.428	16945.19
762.765	16927.79
763.102	17215.01
763.438	17221.34
763.775	17217.5
764.112	17362.58
764.449	17545.63
764.785	17541.78
765.122	17522.35
765.458	17625.85
765.795	17781.33
766.131	17726.86
766.467	17866.07
766.804	17905.84
767.14	17981.1
767.476	18061.77
767.812	18093.86
768.148	18229.45
768.485	18224.25
768.821	18163.24
769.157	18247.08
769.492	18297.02
769.828	18361.2
770.164	18316.91
770.5	18346.51
770.836	18435.55
771.171	18508.31
771.507	18431.7
771.842	18445.72
772.178	18474.64
772.513	18503.12
772.849	18464.7
773.184	18496.11
773.519	18625.6
773.855	18414.98
774.19	18518.03
774.525	18588.54
774.86	18624.92
775.195	18542.21
775.53	18501.76
775.865	18445.72
776.2	18391.93
776.535	18445.49
776.87	18378.6
777.205	18346.96
777.539	18268.09
777.874	18405.04
778.209	18303.8
778.543	18274.87
778.878	18256.34
779.212	18273.97
779.547	18219.28
779.881	18273.74
780.215	18158.49
780.55	18174.54
780.884	18184.25
781.218	18105.16
781.552	18150.58
781.886	18093.86
782.22	18005.5
782.554	17938.16
782.888	18018.83
783.222	17771.38
783.556	17810.7
783.889	17782.68
784.223	17621.78
784.557	17653.87
784.89	17728.9
785.224	17644.38
785.557	17581.11
785.891	17471.05
786.224	17540.2
786.558	17495.01
786.891	17370.26
787.224	17349.25
787.557	17354.67
787.891	17267.67
788.224	17236.48
788.557	17209.82
788.89	17220.66
789.223	17218.4
789.556	17112.87
789.888	17057.96
790.221	17012.76
790.554	16942.25
790.887	16881.69
791.219	16865.19
791.552	16834.68
791.884	16735.7
792.217	16757.85
792.549	16713.11
792.882	16596.05
793.214	16554.24
793.546	16571.41
793.879	16420.91
794.211	16395.83
794.543	16458.88
794.875	16373
795.207	16370.97
795.539	16262.72
795.871	16289.84
796.203	16196.96
796.535	16016.17
796.867	16054.82
797.198	15988.61
797.53	16008.94
797.862	15962.62
798.193	15940.7
798.525	15753.36
798.856	15839.46
799.188	15688.95
799.519	15718.56
799.85	15587.71
800.182	15620.71
800.513	15587.49
800.844	15531.89
801.175	15599.24
801.506	15465.91
801.837	15430.43
802.168	15351.33
802.499	15334.16
802.83	15225.24
803.161	15245.57
803.491	15264.1
803.822	15190.21
804.153	15103.66
804.483	15017.78
804.814	14978.91
805.145	14847.39
805.475	14943.66
805.805	14820.5
806.136	14899.14
806.466	14835.64
806.796	14855.08
807.126	14741.63
807.457	14640.84
807.787	14699.15
808.117	14641.97
808.447	14612.6
808.777	14638.58
809.107	14569.66
809.436	14569.21
809.766	14490.57
810.096	14430.68
810.426	14465.48
810.755	14404.01
811.085	14353.62
811.414	14234.07
811.744	14261.64
812.073	14160.63
812.403	14150.91
812.732	14189.78
813.061	14143.91
813.39	14052.16
813.719	13977.36
814.049	14048.09
814.378	14065.27
814.707	13928.55
815.036	13919.51
815.365	13899.85
815.693	13809
816.022	13797.93
816.351	13715.22
816.68	13746.86
817.008	13734.88
817.337	13625.05
817.665	13505.73
817.994	13642.68
818.322	13597.93
818.651	13521.33
818.979	13571.49
819.307	13585.96
819.636	13516.35
819.964	13404.72
820.292	13443.59
820.62	13424.83
820.948	13422.34
821.276	13373.98
821.604	13324.27
821.932	13392.97
822.259	13353.42
822.587	13410.59
822.915	13350.71
823.243	13448.11
823.57	13373.31
823.898	13390.48
824.225	13336.7
824.553	13276.59
824.88	13353.87
825.207	13393.87
825.535	13402.91
825.862	13355.68
826.189	13287.89
826.516	13446.07
826.843	13406.98
827.17	13365.4
827.497	13378.05
827.824	13342.12
828.151	13458.5
828.478	13345.96
828.805	13357.49
829.131	13326.98
829.458	13308.68
829.785	13257.38
830.111	13330.37
830.438	13308.68
830.764	13278.85
831.09	13325.62
831.417	13240.88
831.743	13299.41
832.069	13316.13
832.395	13232.75
832.722	13227.77
833.048	13323.36
833.374	13278.39
833.7	13163.59
834.026	13171.28
834.351	13201.11
834.677	13188.9
835.003	13192.07
835.329	13192.75
835.654	13157.94
835.98	13105.07
836.306	13084.73
836.631	13042.47
836.956	13099.87
837.282	13168.57
837.607	13061.68
837.932	13012.19
838.258	13070.49
838.583	12968.57
838.908	12897.84
839.233	13011.96
839.558	12935.58
839.883	12928.57
840.208	12888.57
840.533	12866.88
840.858	12900.32
841.182	12825.07
841.507	12830.27
841.832	12703.72
842.156	12735.36
842.481	12711.63
842.805	12691.29
843.13	12693.55
843.454	12729.48
843.778	12571.97
844.103	12644.74
844.427	12563.84
844.751	12573.33
845.075	12450.62
845.399	12435.7
845.723	12414.91
846.047	12353.45
846.371	12227.12
846.695	12285.2
847.019	12161.81
847.343	12135.6
847.666	12033
847.99	12003.4
848.313	12025.09
848.637	11938.99
848.96	11954.36
849.284	11907.13
849.607	11825.32
849.931	11767.47
850.254	11706.01
850.577	11661.71
850.9	11607.25
851.223	11507.37
851.546	11591.21
851.869	11443.64
852.192	11513.92
852.515	11385.11
852.838	11346.24
853.161	11290.42
853.483	11239.58
853.806	11256.53
854.129	11183.31
854.451	11179.92
854.774	11117.77
855.096	11020.37
855.419	11059.7
855.741	11008.4
856.063	10947.61
856.385	10947.83
856.708	10867.16
857.03	10822.41
857.352	10858.8
857.674	10858.8
857.996	10796.65
858.318	10785.35
858.64	10749.87
858.961	10757.56
859.283	10602.76
859.605	10599.82
859.926	10594.17
860.248	10642.53
860.57	10593.94
860.891	10575.64
861.212	10533.83
861.534	10465.13
861.855	10499.94
862.176	10491.12
862.498	10436.21
862.819	10450.22
863.14	10347.17
863.461	10387.17
863.782	10343.78
864.103	10301.07
864.424	10265.82
864.745	10391.24
865.065	10236.89
865.386	10132.71
865.707	10228.3
866.027	10152.6
866.348	10206.16
866.668	10193.5
866.989	10104.24
867.309	10020.4
867.63	10137.91
867.95	10104.92
868.27	9997.58
868.59	10028.54
868.91	10058.14
869.23	10023.34
869.55	9934.98
869.87	10043.45
870.19	9890.91
870.51	9935.2
870.83	9963.68
871.15	9872.61
871.469	9938.82
871.789	9884.81
872.109	9878.48
872.428	9795.1
872.748	9879.61
873.067	9855.21
873.386	9792.38
873.706	9810.24
874.025	9764.59
874.344	9747.41
874.663	9743.35
874.982	9645.49
875.301	9763.01
875.62	9666.96
875.939	9644.14
876.258	9592.39
876.577	9730.69
876.896	9659.51
877.214	9647.53
877.533	9654.99
877.852	9589
878.17	9607.08
878.489	9626.29
878.807	9571.82
879.125	9549.9
879.444	9565.72
879.762	9523.46
880.08	9461.55
880.398	9478.49
880.716	9452.05
881.034	9412.73
881.352	9427.65
881.67	9372.73
881.988	9377.93
882.306	9358.95
882.624	9366.41
882.941	9284.6
883.259	9291.15
883.577	9281.44
883.894	9203.25
884.212	9170.71
884.529	9181.33
884.846	9196.92
885.164	9174.55
885.481	9091.84
885.798	9141.33
886.115	9092.74
886.432	9080.31
886.75	9056.36
887.067	9029.47
887.383	8997.15
887.7	8953.76
888.017	8912.18
888.334	8932.29
888.651	8944.95
888.967	8929.81
889.284	8830.83
889.6	8829.47
889.917	8702.69
890.233	8805.97
890.55	8700.66
890.866	8724.16
891.182	8687.78
891.498	8738.85
891.815	8649.59
892.131	8594.68
892.447	8612.08
892.763	8554.68
893.079	8573.21
893.395	8550.83
893.71	8475.58
894.026	8517.16
894.342	8462.93
894.657	8424.51
894.973	8421.12
895.289	8356.04
895.604	8430.61
895.92	8322.37
896.235	8279.2
896.55	8302.25
896.865	8238.53
897.181	8240.11
897.496	8252.31
897.811	8168.47
898.126	8140.45
898.441	8053.22
898.756	8089.6
899.071	8002.83
899.386	8089.38
899.7	7951.3
900.015	7932.09
900.33	7964.64
900.644	7869.95
900.959	7908.37
901.273	7848.03
901.588	7843.73
901.902	7797.86
902.216	7763.96
902.531	7727.35
902.845	7709.73
903.159	7622.27
903.473	7625.89
903.787	7627.02
904.101	7558.77
904.415	7583.63
904.729	7498.43
905.042	7477.42
905.356	7516.29
905.67	7404.2
905.984	7457.53
906.297	7376.4
906.611	7356.52
906.924	7301.6
907.237	7308.16
907.551	7295.95
907.864	7251.43
908.177	7254.82
908.491	7149.97
908.804	7174.6
909.117	7155.84
909.43	7100.03
909.743	7113.81
910.056	7038.56
910.368	6982.51
910.681	6968.28
910.994	6988.39
911.307	6968.96
911.619	6849.18
911.932	6863.42
912.244	6826.81
912.557	6846.47
912.869	6792.91
913.181	6837.89
913.494	6789.52
913.806	6693.48
914.118	6740.03
914.43	6678.12
914.742	6583.65
915.054	6593.6
915.366	6613.94
915.678	6574.62
915.99	6567.84
916.302	6477.22
916.613	6463.66
916.925	6453.26
917.236	6411.46
917.548	6389.31
917.859	6428.18
918.171	6314.74
918.482	6319.03
918.794	6266.6
919.105	6251.23
919.416	6194.51
919.727	6241.52
920.038	6219.6
920.349	6108.64
920.66	6163.78
920.971	6125.59
921.282	6128.75
921.593	6093.72
921.903	5987.06
922.214	6006.04
922.525	5997.46
922.835	5971.24
923.146	5968.3
923.456	5894.18
923.767	5886.95
924.077	5913.16
924.387	5869.32
924.697	5800.62
925.008	5801.75
925.318	5770.79
925.628	5736.9
925.938	5749.1
926.248	5713.85
926.558	5675.88
926.867	5628.2
927.177	5667.52
927.487	5630.01
927.796	5567.18
928.106	5612.61
928.416	5559.95
928.725	5576
929.034	5534.42
929.344	5496.23
929.653	5471.82
929.962	5375.78
930.271	5403.8
930.581	5366.74
930.89	5368.32
931.199	5323.12
931.508	5344.37
931.817	5286.74
932.125	5298.26
932.434	5297.81
932.743	5232.05
933.051	5184.82
933.36	5179.4
933.669	5132.17
933.977	5089.68
934.286	5085.16
934.594	5062.79
934.902	5044.49
935.21	5027.09
935.519	5034.99
935.827	5003.13
936.135	4962.45
936.443	4945.96
936.751	4932.62
937.059	4908.9
937.367	4891.72
937.674	4872.74
937.982	4866.41
938.29	4831.16
938.597	4802.68
938.905	4789.8
939.213	4738.28
939.52	4750.48
939.827	4756.81
940.135	4695.34
940.442	4713.42
940.749	4687.43
941.056	4722.23
941.363	4628.23
941.67	4687.21
941.977	4570.83
942.284	4562.24
942.591	4552.75
942.898	4535.8
943.205	4522.69
943.511	4484.27
943.818	4506.65
944.125	4465.74
944.431	4436.59
944.738	4421
945.044	4397.05
945.35	4428.23
945.657	4373.32
945.963	4322.7
946.269	4330.38
946.575	4308.46
946.881	4313.43
947.187	4284.51
947.493	4243.6
947.799	4223.26
948.105	4237.73
948.41	4191.18
948.716	4173.32
949.022	4189.59
949.327	4150.95
949.633	4100.33
949.938	4117.5
950.244	4098.97
950.549	4063.72
950.854	4088.8
951.16	4011.74
951.465	3983.72
951.77	3979.88
952.075	3973.78
952.38	3964.29
952.685	3987.34
952.99	3927.68
953.294	3915.93
953.599	3956.15
953.904	3891.52
954.209	3889.71
954.513	3880.22
954.818	3864.4
955.122	3790.51
955.426	3840.9
955.731	3746.89
956.035	3764.75
956.339	3773.11
956.643	3757.29
956.948	3701.47
957.252	3693.79
957.556	3661.47
957.86	3688.82
958.163	3649.95
958.467	3674.8
958.771	3646.78
959.075	3635.03
959.378	3609.95
959.682	3587.58
959.985	3569.95
960.289	3523.4
960.592	3575.37
960.896	3544.64
961.199	3518.88
961.502	3493.57
961.805	3479.78
962.108	3465.09
962.411	3428.03
962.714	3428.48
963.017	3405.89
963.32	3406.79
963.623	3376.06
963.926	3353.23
964.228	3372.44
964.531	3370.63
964.833	3321.82
965.136	3289.5
965.438	3299.67
965.741	3313.23
966.043	3297.64
966.345	3270.3
966.648	3285.21
966.95	3247.02
967.252	3207.47
967.554	3228.26
967.856	3221.94
968.158	3136.51
968.46	3191.43
968.761	3142.84
969.063	3127.02
969.365	3133.58
969.666	3112.56
969.968	3059.68
970.269	3073.24
970.571	3053.13
970.872	3066.46
971.174	3053.8
971.475	3059.91
971.776	3025.1
972.077	3004.54
972.378	3011.32
972.679	2970.19
972.98	2974.71
973.281	2968.38
973.582	2940.36
973.883	2924.54
974.183	2909.63
974.484	2913.02
974.785	2921.38
975.085	2874.6
975.386	2902.85
975.686	2859.46
975.986	2856.75
976.287	2800.25
976.587	2824.21
976.887	2800.03
977.187	2807.71
977.487	2784.88
977.787	2776.3
978.087	2717.99
978.387	2731.33
978.687	2755.96
978.987	2721.84
979.286	2710.08
979.586	2700.82
979.885	2680.93
980.185	2670.09
980.484	2681.84
980.784	2648.39
981.083	2635.96
981.382	2641.61
981.682	2645.91
981.981	2628.73
982.28	2605.45
982.579	2580.82
982.878	2595.06
983.177	2611.78
983.475	2571.33
983.774	2546.92
984.073	2560.26
984.372	2508.51
984.67	2512.58
984.969	2492.69
985.267	2497.43
985.566	2452.92
985.864	2453.59
986.162	2483.42
986.461	2457.89
986.759	2438
987.057	2406.59
987.355	2379.02
987.653	2418.57
987.951	2379.92
988.249	2395.06
988.547	2381.28
988.844	2359.58
989.142	2339.25
989.44	2341.28
989.737	2351
990.035	2296.76
990.332	2317.33
990.63	2298.12
990.927	2281.85
991.224	2266.48
991.521	2248.18
991.819	2258.57
992.116	2260.15
992.413	2214.73
992.71	2248.85
993.006	2222.19
993.303	2193.49
993.6	2219.48
993.897	2181.28
994.193	2147.16
994.49	2152.13
994.787	2172.25
995.083	2113.04
995.379	2119.59
995.676	2119.82
995.972	2115.75
996.268	2092.02
996.565	2070.78
996.861	2092.47
997.157	2059.03
997.453	2067.62
997.749	2045.69
998.044	2028.97
998.34	2048.41
998.636	2016.09
998.932	1999.82
999.227	1992.81
999.523	1967.28
999.818	1960.5
1000.114	1969.09
1000.409	1967.5
1000.704	1965.24
1001	1937.45
1001.295	1939.26
1001.59	1936.77
1001.885	1928.86
1002.18	1906.26
1002.475	1904.46
1002.77	1884.57
1003.065	1855.87
1003.359	1871.24
1003.654	1840.28
1003.949	1842.08
1004.243	1840.05
1004.538	1820.16
1004.832	1804.35
1005.127	1802.54
1005.421	1798.92
1005.715	1793.72
1006.009	1794.18
1006.304	1772.48
1006.598	1774.52
1006.892	1749.21
1007.186	1728.87
1007.48	1728.19
1007.773	1727.06
1008.067	1722.77
1008.361	1700.62
1008.655	1692.03
1008.948	1680.96
1009.242	1670.79
1009.535	1686.38
1009.829	1656.55
1010.122	1627.4
1010.415	1640.28
1010.708	1617.91
1011.001	1607.29
1011.295	1630.79
1011.588	1622.88
1011.881	1608.87
1012.173	1582.88
1012.466	1587.4
1012.759	1558.02
1013.052	1542.21
1013.344	1546.27
1013.637	1562.09
1013.93	1525.03
1014.222	1513.05
1014.514	1513.28
1014.807	1512.15
1015.099	1489.33
1015.391	1506.05
1015.683	1451.13
1015.976	1459.5
1016.268	1481.42
1016.56	1445.26
1016.851	1437.12
1017.143	1439.16
1017.435	1412.94
1017.727	1418.59
1018.018	1411.36
1018.31	1436.45
1018.602	1401.42
1018.893	1366.84
1019.185	1376.79
1019.476	1385.15
1019.767	1377.46
1020.058	1369.78
1020.35	1323.68
1020.641	1324.36
1020.932	1315.09
1021.223	1308.09
1021.514	1298.6
1021.804	1294.3
1022.095	1304.25
1022.386	1296.11
1022.677	1247.98
1022.967	1250.46
1023.258	1246.62
1023.548	1243.46
1023.839	1232.16
1024.129	1277.13
1024.419	1238.03
1024.709	1215.21
1025	1218.37
1025.29	1219.05
1025.58	1201.2
1025.87	1208.43
1026.16	1166.17
1026.449	1186.06
1026.739	1158.26
1027.029	1164.81
1027.319	1134.31
1027.608	1133.18
1027.898	1128.88
1028.187	1118.49
1028.477	1101.99
1028.766	1119.17
1029.055	1112.39
1029.344	1078.26
1029.634	1098.83
1029.923	1102.22
1030.212	1091.6
1030.501	1073.97
1030.79	1066.06
1031.078	1063.57
1031.367	1068.32
1031.656	1040.75
1031.945	1050.69
1032.233	1038.49
1032.522	1025.83
1032.81	1004.82
1033.099	1023.12
1033.387	1014.99
1033.675	995.33
1033.963	972.73
1034.251	999.39
1034.54	979.73
1034.828	973.86
1035.116	978.6
1035.403	941.54
1035.691	950.58
1035.979	958.04
1036.267	965.05
1036.554	943.8
1036.842	948.1
1037.129	932.73
1037.417	915.56
1037.704	934.31
1037.992	954.88
1038.279	891.37
1038.566	899.28
1038.853	899.28
1039.14	899.28
