Data from hue_110_FLMS001491_00028.txt Node
Date: Tue Feb 07 17:01:06 GMT 2017
User: dcchb
Spectrometer: FLMS00149
Trigger mode: 0
Integration Time (sec): 2.000000E-2
Scans to average: 10
Electric dark correction enabled: true
Nonlinearity correction enabled: false
Boxcar width: 0
XAxis mode: Wavelengths
Number of Pixels in Spectrum: 2048
>>>>>Begin Spectral Data<<<<<
341.393	-14.36
341.776	-14.36
342.16	-14.36
342.543	-64.31
342.927	-67.02
343.31	-65.44
343.693	-60.01
344.077	-85.1
344.46	-62.95
344.843	-60.24
345.226	-58.66
345.61	-33.35
345.993	-53.23
346.376	20.44
346.759	28.57
347.142	18.18
347.525	62.92
347.908	63.15
348.291	82.13
348.674	104.28
349.057	99.31
349.44	116.03
349.823	137.72
350.206	147.21
350.588	167.33
350.971	229.7
351.354	225.18
351.737	252.97
352.119	253.2
352.502	246.65
352.884	266.76
353.267	300.2
353.65	277.15
354.032	293.42
354.414	299.75
354.797	316.7
355.179	326.64
355.562	318.51
355.944	312.18
356.326	340.43
356.709	337.27
357.091	350.82
357.473	344.27
357.855	330.26
358.238	331.62
358.62	337.49
359.002	329.13
359.384	337.27
359.766	340.43
360.148	339.52
360.53	330.26
360.912	329.13
361.294	324.61
361.676	323.03
362.057	323.25
362.439	350.6
362.821	324.38
363.203	302.92
363.584	316.47
363.966	303.37
364.348	313.54
364.729	304.27
365.111	319.19
365.493	310.15
365.874	314.67
366.256	314.67
366.637	345.4
367.019	290.49
367.4	309.24
367.781	331.39
368.163	297.94
368.544	285.97
368.925	306.53
369.306	322.58
369.688	305.4
370.069	312.18
370.45	287.77
370.831	303.37
371.212	340.65
371.593	319.41
371.974	298.85
372.355	288
372.736	302.92
373.117	302.69
373.498	312.63
373.879	307.89
374.26	313.99
374.641	325.29
375.021	332.52
375.402	330.94
375.783	293.2
376.163	315.8
376.544	332.29
376.925	330.49
377.305	339.3
377.686	314.21
378.066	330.26
378.447	319.19
378.827	323.03
379.208	319.19
379.588	323.48
379.968	326.19
380.349	329.36
380.729	313.31
381.109	342.24
381.489	330.49
381.87	324.16
382.25	339.75
382.63	340.65
383.01	352.86
383.39	326.42
383.77	317.83
384.15	342.46
384.53	346.98
384.91	356.93
385.29	343.14
385.67	335.68
386.049	346.08
386.429	336.36
386.809	348.11
387.189	351.73
387.568	358.06
387.948	346.76
388.328	379.52
388.707	364.38
389.087	353.54
389.466	348.11
389.846	352.63
390.225	356.93
390.605	348.56
390.984	365.74
391.363	354.44
391.743	378.85
392.122	377.49
392.501	379.07
392.881	377.49
393.26	357.15
393.639	359.86
394.018	365.96
394.397	364.16
394.776	356.93
395.155	369.81
395.534	391.95
395.913	373.65
396.292	398.96
396.671	365.29
397.05	365.51
397.429	376.81
397.808	379.75
398.186	384.5
398.565	396.02
398.944	393.08
399.323	380.43
399.701	393.76
400.08	384.95
400.458	402.12
400.837	414.1
401.215	407.09
401.594	399.41
401.972	389.69
402.351	398.73
402.729	385.17
403.107	427.21
403.486	422.23
403.864	416.36
404.242	400.31
404.62	404.16
404.999	425.62
405.377	409.35
405.755	404.83
406.133	411.16
406.511	416.59
406.889	400.99
407.267	429.01
407.645	432.4
408.023	429.69
408.401	433.31
408.779	434.66
409.156	439.64
409.534	447.77
409.912	437.83
410.29	438.73
410.667	464.27
411.045	429.47
411.422	462.23
411.8	451.39
412.178	459.07
412.555	438.96
412.933	471.72
413.31	494.1
413.687	468.56
414.065	490.48
414.442	472.18
414.819	467.66
415.197	470.14
415.574	485.51
415.951	492.52
416.328	483.7
416.705	481.89
417.082	504.72
417.46	478.05
417.837	506.53
418.214	502.46
418.591	488
418.967	509.01
419.344	515.34
419.721	504.27
420.098	509.46
420.475	524.83
420.852	530.25
421.228	514.66
421.605	520.31
421.982	535.23
422.358	529.8
422.735	507.2
423.111	533.19
423.488	525.51
423.864	512.63
424.241	544.04
424.617	562.57
424.994	553.53
425.37	546.3
425.746	546.98
426.123	571.38
426.499	544.49
426.875	544.49
427.251	575.45
427.627	582.23
428.003	596.47
428.379	584.72
428.756	585.62
429.132	603.02
429.507	601.21
429.883	610.93
430.259	591.5
430.635	589.01
431.011	588.33
431.387	624.26
431.763	623.81
432.138	636.24
432.514	615.9
432.89	629.46
433.265	630.14
433.641	652.96
434.016	667.2
434.392	650.03
434.767	668.33
435.143	685.73
435.518	714.88
435.894	671.72
436.269	691.83
436.644	683.47
437.02	698.84
437.395	706.07
437.77	694.77
438.145	713.53
438.52	714.2
438.895	738.38
439.271	746.07
439.646	763.02
440.021	754.2
440.395	766.41
440.77	738.16
441.145	734.54
441.52	789.23
441.895	770.93
442.27	761.21
442.645	753.3
443.019	794.88
443.394	771.38
443.769	780.64
444.143	782.9
444.518	780.64
444.892	810.02
445.267	806.18
445.641	804.15
446.016	814.77
446.39	852.51
446.764	830.13
447.139	838.49
447.513	830.13
447.887	824.71
448.262	862.68
448.636	856.8
449.01	854.54
449.384	859.29
449.758	871.49
450.132	880.08
450.506	906.06
450.88	899.96
451.254	888.44
451.628	905.39
452.002	896.35
452.376	905.39
452.75	921.2
453.123	926.85
453.497	915.78
453.871	913.3
454.244	983.58
454.618	973.63
454.992	981.32
455.365	975.44
455.739	987.64
456.112	991.03
456.486	1035.55
456.859	1009.56
457.232	1047.53
457.606	1043.24
457.979	1059.96
458.352	1071.26
458.725	1064.93
459.099	1060.64
459.472	1112.84
459.845	1090.24
460.218	1139.73
460.591	1156.23
460.964	1142.89
461.337	1191.93
461.71	1200.75
462.083	1206.39
462.456	1206.39
462.829	1223.34
463.201	1227.19
463.574	1258.6
463.947	1275.77
464.32	1271.48
464.692	1344.02
465.065	1302.21
465.438	1331.82
465.81	1358.48
466.183	1358.71
466.555	1396.67
466.928	1417.24
467.3	1415.65
467.672	1454.3
468.045	1498.14
468.417	1491.81
468.789	1506.73
469.161	1523.22
469.534	1574.75
469.906	1605.03
470.278	1619.94
470.65	1648.19
471.022	1732.26
471.394	1721.41
471.766	1732.03
472.138	1767.06
472.51	1833.05
472.882	1833.95
473.253	1886.15
473.625	1948.97
473.997	1965.02
474.369	2016.54
474.74	2025.81
475.112	2058.58
475.484	2145.35
475.855	2173.15
476.227	2238.91
476.598	2320.04
476.97	2341.96
477.341	2447.94
477.713	2507.6
478.084	2535.17
478.455	2612.69
478.827	2688.84
479.198	2836.18
479.569	2803.19
479.94	2903.07
480.311	2957.99
480.682	3090.41
481.053	3197.75
481.424	3253.8
481.795	3302.16
482.166	3423.51
482.537	3499.67
482.908	3616.95
483.279	3720.45
483.65	3741.7
484.021	3951.86
484.391	4061.24
484.762	4150.95
485.133	4233.21
485.503	4330.83
485.874	4490.6
486.244	4588.9
486.615	4723.59
486.985	4838.16
487.356	5004.94
487.726	5081.1
488.097	5253.97
488.467	5317.93
488.837	5517.69
489.207	5613.74
489.578	5787.97
489.948	5866.16
490.318	6055.08
490.688	6073.39
491.058	6309.54
491.428	6420.5
491.798	6601.06
492.168	6730.09
492.538	6834.04
492.908	6980.25
493.278	7161.94
493.648	7255.5
494.017	7397.87
494.387	7508.83
494.757	7662.5
495.126	7790.85
495.496	7940.68
495.866	8110.85
496.235	8247.79
496.605	8310.84
496.974	8434.45
497.344	8538.86
497.713	8621.12
498.082	8773.88
498.452	8925.51
498.821	9009.58
499.19	9128.22
499.559	9217.03
499.928	9388.78
500.298	9506.74
500.667	9527.31
501.036	9638.04
501.405	9825.38
501.774	9869.22
502.143	9989.21
502.512	10007.52
502.88	10137.23
503.249	10242.54
503.618	10345.14
503.987	10405.02
504.356	10569.99
504.724	10560.05
505.093	10682.98
505.462	10752.58
505.83	10798.46
506.199	10918.91
506.567	11137.43
506.936	11057.89
507.304	11283.64
507.672	11342.85
508.041	11337.88
508.409	11508.95
508.777	11602.51
509.145	11632.34
509.514	11650.19
509.882	11756.17
510.25	11806.57
510.618	11906.9
510.986	11885.66
511.354	12006.11
511.722	12085.43
512.09	12113.23
512.458	12123.62
512.826	12280
513.193	12288.82
513.561	12354.35
513.929	12431.86
514.297	12505.31
514.664	12551.18
515.032	12562.71
515.4	12651.29
515.767	12600.9
516.135	12761.35
516.502	12595.47
516.869	12854.45
517.237	12848.12
517.604	12803.38
517.972	12934.67
518.339	12950.27
518.706	12913.88
519.073	12956.59
519.44	13023.03
519.808	13095.12
520.175	13083.6
520.542	13222.12
520.909	13350.71
521.276	13183.48
521.643	13353.42
522.009	13358.62
522.376	13380.31
522.743	13420.31
523.11	13469.58
523.477	13575.56
523.843	13579.18
524.21	13577.14
524.577	13738.04
524.943	13716.57
525.31	13720.19
525.676	13759.06
526.043	13882.67
526.409	13826.4
526.776	13970.35
527.142	13945.04
527.508	13924.03
527.874	13921.31
528.241	13960.64
528.607	14006.06
528.973	14026.85
529.339	13952.05
529.705	13979.84
530.071	14081.54
530.437	14114.98
530.803	14089.9
531.169	14182.78
531.535	14063.23
531.901	14021.43
532.267	14067.3
532.632	14119.05
532.998	14055.55
533.364	14069.79
533.73	14034.98
534.095	14160.63
534.461	14063.23
534.826	13999.28
535.192	13955.66
535.557	13962.9
535.923	13974.42
536.288	13967.64
536.653	14025.94
537.019	13895.33
537.384	13914.99
537.749	13964.7
538.114	13839.96
538.479	13880.86
538.845	13842.45
539.21	13788.89
539.575	13818.04
539.94	13816.68
540.305	13774.65
540.67	13687.42
541.034	13766.97
541.399	13734.43
541.764	13703.92
542.129	13632.73
542.494	13545.96
542.858	13569.69
543.223	13544.6
543.587	13545.73
543.952	13490.59
544.316	13446.07
544.681	13413.08
545.045	13406.07
545.41	13418.96
545.774	13390.03
546.138	13304.16
546.503	13252.63
546.867	13304.16
547.231	13319.3
547.595	13306.19
547.959	13204.05
548.324	13145.52
548.688	13166.08
549.052	13105.97
549.416	13150.71
549.779	13084.95
550.143	13019.64
550.507	13042.24
550.871	13066.2
551.235	13016.48
551.599	12982.81
551.962	12944.17
552.326	12914.34
552.689	12965.18
553.053	12851.06
553.417	12846.99
553.78	12898.97
554.143	12754.11
554.507	12800.44
554.87	12819.87
555.234	12831.85
555.597	12749.14
555.96	12736.94
556.323	12716.6
556.686	12697.39
557.05	12719.09
557.413	12733.78
557.776	12657.39
558.139	12763.38
558.502	12736.71
558.865	12677.73
559.228	12693.32
559.59	12730.61
559.953	12714.11
560.316	12714.11
560.679	12684.29
561.041	12694.68
561.404	12748.01
561.767	12781.23
562.129	12734.68
562.492	12800.89
562.854	12819.42
563.217	12728.58
563.579	12757.28
563.941	12819.2
564.304	12731.29
564.666	12785.3
565.028	12888.8
565.39	12810.38
565.753	12858.97
566.115	12863.72
566.477	12910.04
566.839	12874.56
567.201	12886.31
567.563	12906.43
567.925	12939.87
568.287	12941.91
568.648	12935.8
569.01	13000.21
569.372	13033.2
569.734	12944.84
570.095	13019.42
570.457	12992.98
570.819	12961.57
571.18	12990.04
571.542	13037.5
571.903	13081.79
572.265	13086.99
572.626	13074.33
572.987	13029.59
573.349	13152.52
573.71	13023.26
574.071	13088.57
574.432	13138.74
574.794	13183.48
575.155	13238.85
575.516	13127.66
575.877	13150.94
576.238	13174.22
576.599	13149.36
576.96	13156.36
577.32	13175.12
577.681	13183.71
578.042	13164.5
578.403	13175.57
578.763	13200.88
579.124	13160.66
579.485	13275.23
579.845	13284.5
580.206	13255.8
580.566	13202.92
580.927	13275.68
581.287	13222.12
581.648	13133.54
582.008	13238.17
582.368	13258.51
582.728	13217.83
583.089	13195.68
583.449	13178.96
583.809	13140.32
584.169	13200.43
584.529	13236.59
584.889	13201.79
585.249	13163.82
585.609	13044.95
585.969	13111.84
586.329	13138.96
586.688	13041.34
587.048	13080.43
587.408	13065.52
587.768	12989.36
588.127	13058.29
588.487	13056.7
588.846	13113.43
589.206	12984.16
589.565	13042.02
589.925	13120.88
590.284	13051.06
590.643	12952.53
591.003	13052.19
591.362	13093.31
591.721	13080.88
592.08	13074.11
592.44	13112.52
592.799	13058.96
593.158	13014.22
593.517	12971.74
593.876	13079.75
594.235	12959.08
594.593	12993.88
594.952	12977.38
595.311	12929.48
595.67	12943.26
596.029	12949.59
596.387	12961.57
596.746	13022.58
597.104	12916.6
597.463	12916.82
597.822	12963.37
598.18	12879.08
598.538	12925.63
598.897	12961.34
599.255	12800.21
599.613	13046.31
599.972	12915.92
600.33	12914.56
600.688	12891.96
601.046	12944.39
601.404	12915.01
601.762	12960.89
602.12	12959.53
602.478	13028.68
602.836	12908.69
603.194	12880.66
603.552	12911.62
603.91	12835.92
604.268	12979.87
604.625	12886.99
604.983	12970.83
605.341	12857.84
605.698	13013.32
606.056	12945.52
606.413	12999.53
606.771	13032.98
607.128	12982.81
607.485	12910.27
607.843	12927.67
608.2	13002.47
608.557	13002.69
608.914	12980.77
609.272	13060.77
609.629	13117.04
609.986	13065.07
610.343	13051.51
610.7	13003.6
611.057	13107.1
611.414	13049.02
611.771	13058.96
612.127	13093.54
612.484	13128.34
612.841	13131.05
613.198	13138.51
613.554	13110.26
613.911	13164.72
614.267	13121.56
614.624	13103.03
614.98	13187.55
615.337	13256.7
615.693	13137.15
616.05	13200.66
616.406	13261.22
616.762	13188
617.118	13158.4
617.475	13143.93
617.831	13183.93
618.187	13279.3
618.543	13289.01
618.899	13312.97
619.255	13281.11
619.611	13327.21
619.967	13366.75
620.323	13401.78
620.678	13362.91
621.034	13298.28
621.39	13310.26
621.746	13175.35
622.101	13484.49
622.457	13297.6
622.812	13309.58
623.168	13312.52
623.523	13354.32
623.879	13412.85
624.234	13292.18
624.589	13388.22
624.945	13362.46
625.3	13374.21
625.655	13357.26
626.01	13326.75
626.365	13340.54
626.72	13273.42
627.075	13258.28
627.43	13276.59
627.785	13259.64
628.14	13331.05
628.495	13307.09
628.85	13263.03
629.205	13240.88
629.559	13372.18
629.914	13267.32
630.269	13269.13
630.623	13253.31
630.978	13199.3
631.332	13207.44
631.687	13164.05
632.041	13171.05
632.396	13270.03
632.75	13107.1
633.104	13150.94
633.459	13150.04
633.813	13168.34
634.167	13102.13
634.521	13169.02
634.875	13134.22
635.229	13126.08
635.583	12985.52
635.937	12979.87
636.291	12994.56
636.645	13082.69
636.999	13051.51
637.352	13055.35
637.706	12962.92
638.06	13038.85
638.413	13018.74
638.767	12915.01
639.121	12938.06
639.474	12854.45
639.828	12848.12
640.181	12888.35
640.534	12824.39
640.888	12858.97
641.241	12795.24
641.594	12837.73
641.947	12911.17
642.301	12803.6
642.654	12844.96
643.007	12845.18
643.36	12768.8
643.713	12749.14
644.066	12813.1
644.419	12731.74
644.771	12648.35
645.124	12541.69
645.477	12594.8
645.83	12400.45
646.182	12425.31
646.535	12351.64
646.888	12386.44
647.24	12276.39
647.593	12494.91
647.945	12357.51
648.298	12307.57
648.65	12326.78
649.002	12273.9
649.355	12340.11
649.707	12308.48
650.059	12421.02
650.411	12517.51
650.763	12545.53
651.115	12632.31
651.467	12641.35
651.819	12611.52
652.171	12592.08
652.523	12581.69
652.875	12599.09
653.227	12508.92
653.578	12623.04
653.93	12590.95
654.282	12592.08
654.633	12571.29
654.985	12521.35
655.337	12630.5
655.688	12582.59
656.039	12622.37
656.391	12599.77
656.742	12585.76
657.094	12612.42
657.445	12634.79
657.796	12590.05
658.147	12586.43
658.498	12616.72
658.849	12732.42
659.2	12672.53
659.551	12615.13
659.902	12559.54
660.253	12639.54
660.604	12719.31
660.955	12617.85
661.306	12671.4
661.656	12637.73
662.007	12668.92
662.358	12710.27
662.708	12733.1
663.059	12712.76
663.409	12621.91
663.76	12750.05
664.11	12762.02
664.461	12672.53
664.811	12679.77
665.161	12744.17
665.511	12575.59
665.862	12745.98
666.212	12715.02
666.562	12737.17
666.912	12691.74
667.262	12644.74
667.612	12684.96
667.962	12739.42
668.312	12680.44
668.662	12707.34
669.011	12672.76
669.361	12637.05
669.711	12618.3
670.06	12582.59
670.41	12687
670.76	12662.59
671.109	12678.64
671.459	12669.6
671.808	12618.75
672.157	12673.44
672.507	12534.46
672.856	12553.89
673.205	12605.87
673.554	12571.07
673.904	12631.63
674.253	12648.35
674.602	12557.73
674.951	12436.38
675.3	12303.05
675.649	12534.01
675.998	12524.29
676.346	12500.11
676.695	12585.98
677.044	12434.35
677.393	12430.28
677.741	12410.62
678.09	12478.87
678.438	12407.68
678.787	12481.13
679.135	12468.92
679.484	12354.8
679.832	12403.39
680.181	12336.27
680.529	12371.75
680.877	12235.71
681.225	12275.26
681.573	12301.92
681.922	12154.58
682.27	12242.49
682.618	12171.3
682.966	12136.5
683.314	12228.03
683.661	12143.51
684.009	12120.23
684.357	12085.43
684.705	12023.51
685.053	12085.66
685.4	12076.39
685.748	11935.6
686.095	11973.8
686.443	11890.18
686.79	11947.58
687.138	11926.79
687.485	11872.56
687.832	11880.92
688.18	11843.4
688.527	11831.43
688.874	11788.04
689.221	11710.07
689.568	11730.41
689.915	11695.16
690.262	11623.07
690.609	11543.52
690.956	11514.15
691.303	11497.65
691.65	11455.84
691.997	11497.65
692.344	11415.84
692.69	11375.62
693.037	11421.04
693.383	11292.46
693.73	11225.57
694.077	11197.77
694.423	11185.79
694.769	11194.61
695.116	11077.55
695.462	11065.57
695.808	11010.88
696.155	11076.19
696.501	10974.73
696.847	10957.78
697.193	10897.89
697.539	10913.71
697.885	10885.24
698.231	10791.68
698.577	10779.48
698.923	10720.27
699.269	10740.38
699.614	10666.94
699.96	10671.68
700.306	10580.61
700.651	10541.74
700.997	10478.69
701.342	10520.73
701.688	10518.01
702.033	10424.46
702.379	10328.87
702.724	10344.01
703.069	10373.39
703.415	10279.15
703.76	10231.02
704.105	10228.76
704.45	10186.5
704.795	10089.78
705.14	10112.15
705.485	10082.09
705.83	10019.95
706.175	10043.9
706.52	10056.11
706.865	9966.39
707.209	9906.05
707.554	9940.18
707.899	9853.4
708.243	9886.62
708.588	9834.19
708.932	9781.54
709.277	9746.28
709.621	9815.66
709.966	9665.38
710.31	9716.68
710.654	9583.8
710.998	9582.45
711.342	9648.88
711.687	9517.36
712.031	9564.82
712.375	9480.08
712.719	9521.43
713.063	9483.47
713.407	9495.44
713.75	9434.65
714.094	9424.94
714.438	9477.36
714.782	9452.28
715.125	9332.28
715.469	9424.71
715.812	9382.23
716.156	9243.7
716.499	9262.91
716.843	9271.72
717.186	9249.8
717.53	9303.13
717.873	9250.03
718.216	9267.88
718.559	9236.01
718.902	9194.21
719.246	9223.13
719.589	9196.02
719.932	9153.76
720.275	9166.19
720.617	9181.1
720.96	9139.97
721.303	9124.15
721.646	9144.27
721.989	9064.04
722.331	9143.59
722.674	9023.36
723.016	9079.63
723.359	9030.6
723.701	9065.4
724.044	9076.24
724.386	9042.12
724.729	9035.79
725.071	9042.8
725.413	9060.88
725.755	8970.03
726.097	8987.89
726.439	8874.44
726.782	8927.55
727.124	8978.39
727.465	8926.87
727.807	8938.85
728.149	8917.6
728.491	8907.89
728.833	8910.83
729.175	8897.04
729.516	8852.07
729.858	8857.49
730.199	8930.49
730.541	8918.28
730.882	8871.96
731.224	8939.75
731.565	8805.29
731.906	8873.54
732.248	8934.1
732.589	8859.75
732.93	8815.69
733.271	8845.06
733.612	8836.93
733.953	8871.73
734.294	8915.8
734.635	8803.26
734.976	8851.17
735.317	8839.87
735.658	8868.57
735.999	8907.21
736.339	8865.18
736.68	8903.37
737.021	8857.72
737.361	8850.71
737.702	8928.9
738.042	8923.25
738.383	8905.85
738.723	8928.23
739.063	8894.1
739.404	8952.63
739.744	8877.61
740.084	8921.9
740.424	8960.09
740.764	8936.14
741.104	8980.65
741.444	8983.59
741.784	8957.15
742.124	9020.43
742.464	8991.5
742.804	9059.07
743.143	9077.83
743.483	9110.14
743.823	9079.41
744.162	9126.86
744.502	9209.35
744.841	9230.82
745.181	9248.67
745.52	9237.14
745.86	9259.74
746.199	9284.83
746.538	9380.64
746.877	9345.84
747.216	9429.23
747.556	9454.77
747.895	9512.62
748.234	9574.99
748.573	9613.18
748.911	9676
749.25	9741.76
749.589	9859.95
749.928	9880.97
750.267	9986.73
750.605	10050.68
750.944	10094.3
751.283	10202.09
751.621	10172.03
751.96	10359.15
752.298	10410.45
752.636	10569.31
752.975	10546.26
753.313	10650.89
753.651	10875.52
753.989	10893.37
754.327	11019.47
754.666	11128.39
755.004	11241.61
755.342	11374.04
755.679	11503.98
756.017	11591.21
756.355	11726.34
756.693	11758.66
757.031	12047.47
757.368	12133.11
757.706	12215.14
758.044	12439.77
758.381	12614.23
758.719	12702.59
759.056	12905.97
759.394	13019.64
759.731	13140.77
760.068	13373.98
760.405	13447.2
760.743	13613.07
761.08	13841.99
761.417	13980.07
761.754	14137.58
762.091	14345.48
762.428	14420.96
762.765	14594.97
763.102	14796.32
763.438	14829.09
763.775	14976.88
764.112	15248.96
764.449	15470.88
764.785	15542.52
765.122	15706.13
765.458	15741.83
765.795	15879.46
766.131	16169.17
766.467	16262.72
766.804	16278.77
767.14	16439.89
767.476	16579.55
767.812	16662.03
768.148	16928.24
768.485	17009.37
768.821	17012.31
769.157	17177.05
769.492	17164.17
769.828	17398.51
770.164	17320.55
770.5	17563.48
770.836	17750.37
771.171	17692.06
771.507	17830.59
771.842	17822.23
772.178	17951.72
772.513	17986.97
772.849	18066.06
773.184	18090.92
773.519	18230.58
773.855	18231.03
774.19	18276.68
774.525	18339.73
774.86	18414.76
775.195	18387.19
775.53	18562.77
775.865	18474.87
776.2	18522.32
776.535	18433.06
776.87	18588.54
777.205	18550.57
777.539	18614.75
777.874	18693.84
778.209	18635.54
778.543	18677.35
778.878	18553.51
779.212	18741.08
779.547	18742.66
779.881	18773.62
780.215	18750.79
780.55	18775.42
780.884	18723.9
781.218	18675.09
781.552	18763.67
781.886	18713.73
782.22	18626.05
782.554	18669.89
782.888	18644.58
783.222	18711.7
783.556	18531.36
783.889	18584.24
784.223	18532.04
784.557	18536.56
784.89	18503.34
785.224	18464.02
785.557	18444.13
785.891	18481.42
786.224	18458.37
786.558	18588.99
786.891	18347.19
787.224	18359.62
787.557	18317.36
787.891	18333.18
788.224	18351.93
788.557	18405.49
788.89	18337.92
789.223	18321.88
789.556	18204.82
789.888	18197.13
790.221	18103.8
790.554	18064.26
790.887	18042.56
791.219	18023.13
791.552	18007.31
791.884	18007.76
792.217	17894.09
792.549	17950.36
792.882	17826.07
793.214	17673.31
793.546	17811.16
793.879	17696.81
794.211	17659.07
794.543	17541.33
794.875	17551.05
795.207	17719.18
795.539	17584.5
795.871	17604.38
796.203	17370.49
796.535	17383.6
796.867	17399.64
797.198	17348.34
797.53	17414.78
797.862	17282.13
798.193	17242.81
798.525	17074.9
798.856	17047.56
799.188	17049.82
799.519	16988.58
799.85	16864.97
800.182	16892.08
800.513	16998.52
800.844	16693.67
801.175	16861.8
801.506	16838.07
801.837	16757.4
802.168	16656.84
802.499	16635.82
802.83	16563.28
803.161	16552.66
803.491	16540.68
803.822	16529.83
804.153	16428.37
804.483	16361.93
804.814	16338.88
805.145	16313.12
805.475	16350.86
805.805	16273.34
806.136	16224.53
806.466	16249.39
806.796	16190.63
807.126	16163.52
807.457	16106.57
807.787	16068.15
808.117	16014.82
808.447	15949.28
808.777	15957.87
809.107	15906.8
809.436	15839.68
809.766	15885.78
810.096	15734.37
810.426	15725.79
810.755	15737.99
811.085	15760.81
811.414	15675.39
811.744	15556.3
812.073	15573.93
812.403	15654.6
812.732	15417.09
813.061	15422.29
813.39	15368.51
813.719	15408.96
814.049	15458
814.378	15412.8
814.707	15320.15
815.036	15275.4
815.365	15229.3
815.693	15213.48
816.022	15135.29
816.351	15133.03
816.68	15106.14
817.008	15170.32
817.337	14997.22
817.665	14852.36
817.994	14975.3
818.322	14984.56
818.651	14956.09
818.979	14841.52
819.307	15004.9
819.636	14927.39
819.964	14808.07
820.292	14852.14
820.62	14879.03
820.948	14770.56
821.276	14845.58
821.604	14775.98
821.932	14738.24
822.259	14735.76
822.587	14672.48
822.915	14788.64
823.243	14762.42
823.57	14709.09
823.898	14740.5
824.225	14729.2
824.553	14671.8
824.88	14743.21
825.207	14807.39
825.535	14767.39
825.862	14835.42
826.189	14757
826.516	14754.74
826.843	14784.79
827.17	14793.16
827.497	14792.25
827.824	14789.09
828.151	14777.34
828.478	14765.81
828.805	14833.83
829.131	14787.51
829.458	14698.24
829.785	14690.56
830.111	14696.21
830.438	14747.96
830.764	14717.23
831.09	14829.99
831.417	14707.96
831.743	14707.06
832.069	14736.66
832.395	14661.63
832.722	14711.12
833.048	14545.93
833.374	14733.72
833.7	14530.56
834.026	14652.14
834.351	14641.75
834.677	14595.2
835.003	14658.7
835.329	14591.13
835.654	14602.2
835.98	14561.3
836.306	14496.44
836.631	14504.58
836.956	14564.01
837.282	14561.75
837.607	14435.2
837.932	14388.65
838.258	14405.37
838.583	14504.58
838.908	14413.73
839.233	14387.52
839.558	14386.16
839.883	14315.43
840.208	14262.1
840.533	14248.31
840.858	14234.75
841.182	14206.05
841.507	14215.77
841.832	14223.23
842.156	14142.55
842.481	14145.94
842.805	14120.86
843.13	14071.59
843.454	13972.16
843.778	13971.03
844.103	13905.5
844.427	13928.32
844.751	13902.56
845.075	13864.37
845.399	13764.48
845.723	13735.78
846.047	13750.25
846.371	13712.73
846.695	13613.98
847.019	13522
847.343	13465.96
847.666	13427.32
847.99	13403.14
848.313	13354.1
848.637	13254.67
848.96	13245.4
849.284	13169.47
849.607	13091.73
849.931	13065.52
850.254	13019.64
850.577	12959.76
850.9	12894.22
851.223	12884.73
851.546	12776.03
851.869	12750.95
852.192	12775.13
852.515	12678.64
852.838	12627.79
853.161	12645.64
853.483	12465.31
853.806	12436.83
854.129	12508.47
854.451	12428.02
854.774	12379.21
855.096	12262.6
855.419	12268.25
855.741	12305.99
856.063	12137.86
856.385	12068.03
856.708	12084.75
857.03	12114.81
857.352	12049.5
857.674	12080.01
857.996	11905.55
858.318	11882.27
858.64	11965.43
858.961	11899.22
859.283	11869.62
859.605	11820.35
859.926	11853.8
860.248	11759.34
860.57	11693.58
860.891	11735.38
861.212	11606.12
861.534	11626.46
861.855	11612.45
862.176	11571.55
862.498	11534.71
862.819	11583.75
863.14	11526.35
863.461	11560.25
863.782	11422.62
864.103	11499.23
864.424	11434.15
864.745	11443.87
865.065	11371.78
865.386	11312.57
865.707	11258.56
866.027	11249.29
866.348	11249.29
866.668	11282.74
866.989	11206.13
867.309	11110.99
867.63	11230.09
867.95	11235.28
868.27	11159.35
868.59	11136.08
868.91	11153.03
869.23	11107.15
869.55	11068.06
869.87	11068.73
870.19	11087.04
870.51	11090.43
870.83	11048.4
871.15	11007.49
871.469	10968.17
871.789	11040.94
872.109	10965.46
872.428	10940.15
872.748	10900.38
873.067	10937.44
873.386	10904.44
873.706	10925.91
874.025	10840.04
874.344	10866.03
874.663	10799.81
874.982	10798.46
875.301	10778.8
875.62	10751.68
875.939	10745.35
876.258	10731.12
876.577	10738.8
876.896	10685.47
877.214	10658.8
877.533	10648.41
877.852	10644.56
878.17	10646.37
878.489	10593.27
878.807	10647.05
879.125	10601.18
879.444	10611.12
879.762	10579.48
880.08	10592.14
880.398	10479.6
880.716	10459.48
881.034	10471.69
881.352	10441.18
881.67	10377.45
881.988	10506.72
882.306	10389.2
882.624	10360.96
882.941	10313.5
883.259	10213.62
883.577	10224.01
883.894	10265.14
884.212	10316.44
884.529	10177.23
884.846	10219.04
885.164	10176.1
885.481	10107.63
885.798	10120.96
886.115	10013.17
886.432	10035.99
886.75	10007.97
887.067	10062.89
887.383	9937.24
887.7	9967.29
888.017	9894.98
888.334	9955.32
888.651	9942.89
888.967	9914.41
889.284	9854.08
889.6	9869.67
889.917	9806.85
890.233	9847.98
890.55	9650.24
890.866	9756
891.182	9647.3
891.498	9565.95
891.815	9628.55
892.131	9630.13
892.447	9578.38
892.763	9498.83
893.079	9544.25
893.395	9456.57
893.71	9497.02
894.026	9428.78
894.342	9439.85
894.657	9299.97
894.973	9340.42
895.289	9340.64
895.604	9252.51
895.92	9204.6
896.235	9208.67
896.55	9186.52
896.865	9171.61
897.181	9078.28
897.496	9189.91
897.811	9004.61
898.126	9050.93
898.441	9012.29
898.756	8928.45
899.071	8918.96
899.386	8950.37
899.7	8832.18
900.015	8799.64
900.33	8742.02
900.644	8760.32
900.959	8792.64
901.273	8669.02
901.588	8626.09
901.902	8654.33
902.216	8588.8
902.531	8565.98
902.845	8539.54
903.159	8516.71
903.473	8541.12
903.787	8476.94
904.101	8417.05
904.415	8419.31
904.729	8389.03
905.042	8287.79
905.356	8285.3
905.67	8247.57
905.984	8217.96
906.297	8207.57
906.611	8144.74
906.924	8193.1
907.237	8055.25
907.551	8039.44
907.864	8023.84
908.177	7986.78
908.491	7950.85
908.804	7851.87
909.117	7905.88
909.43	7836.95
909.743	7808.03
910.056	7796.5
910.368	7794.92
910.681	7791.98
910.994	7744.98
911.307	7696.17
911.619	7703.85
911.932	7662.95
912.244	7584.98
912.557	7526.91
912.869	7440.36
913.181	7500.24
913.494	7430.41
913.806	7430.19
914.118	7403.97
914.43	7372.33
914.742	7341.37
915.054	7339.11
915.366	7257.54
915.678	7264.09
915.99	7202.4
916.302	7167.14
916.613	7156.75
916.925	7121.49
917.236	7089.86
917.548	7053.02
917.859	7112.91
918.171	6995.17
918.482	6954.27
918.794	6961.27
919.105	6974.15
919.416	6879.47
919.727	6903.42
920.038	6836.98
920.349	6811.22
920.66	6770.99
920.971	6826.36
921.282	6761.05
921.593	6685.12
921.903	6651.22
922.214	6669.98
922.525	6619.36
922.835	6609.19
923.146	6554.73
923.456	6585.24
923.767	6540.72
924.077	6479.7
924.387	6470.44
924.697	6380.27
925.008	6465.92
925.318	6386.37
925.628	6368.74
925.938	6336.2
926.248	6322.19
926.558	6245.13
926.867	6278.35
927.177	6255.53
927.487	6194.06
927.796	6140.05
928.106	6180.5
928.416	6082.42
928.725	6084.01
929.034	6083.55
929.344	6126.04
929.653	6064.8
929.962	6026.83
930.271	5969.66
930.581	5968.3
930.89	5904.8
931.199	5871.36
931.508	5866.84
931.817	5874.29
932.125	5825.71
932.434	5830
932.743	5772.38
933.051	5764.69
933.36	5696.67
933.669	5723.56
933.977	5660.52
934.286	5662.55
934.594	5682.44
934.902	5597.01
935.21	5587.52
935.519	5625.04
935.827	5565.15
936.135	5557.47
936.443	5454.42
936.751	5443.12
937.059	5447.87
937.367	5446.74
937.674	5399.96
937.982	5400.18
938.29	5307.53
938.597	5382.1
938.905	5362.44
939.213	5249.23
939.52	5278.6
939.827	5265.72
940.135	5246.29
940.442	5209.68
940.749	5166.97
941.056	5160.19
941.363	5075.45
941.67	5147.99
941.977	5093.07
942.284	5040.19
942.591	5049.01
942.898	5018.72
943.205	5017.82
943.511	5025.28
943.818	4958.61
944.125	4959.29
944.431	4907.99
944.738	4912.96
945.044	4874.32
945.35	4872.29
945.657	4839.75
945.963	4802.01
946.269	4734.21
946.575	4781.67
946.881	4741.67
947.187	4748
947.493	4701.9
947.799	4701.44
948.105	4675
948.41	4624.84
948.716	4640.43
949.022	4557.04
949.327	4584.61
949.633	4552.75
949.938	4532.86
950.244	4523.82
950.549	4516.82
950.854	4497.61
951.16	4435.24
951.465	4477.95
951.77	4456.25
952.075	4383.94
952.38	4383.03
952.685	4381.68
952.99	4346.2
953.294	4352.53
953.599	4327.67
953.904	4301.91
954.209	4336.26
954.513	4278.18
954.818	4253.55
955.122	4230.5
955.426	4231.17
955.731	4199.08
956.035	4164.74
956.339	4169.25
956.643	4126.54
956.948	4136.49
957.252	4098.97
957.556	4086.09
957.86	4048.58
958.163	4022.37
958.467	4049.71
958.771	4042.03
959.075	4016.49
959.378	3982.14
959.682	3952.54
959.985	3983.72
960.289	3947.11
960.592	3973.55
960.896	3931.07
961.199	3869.38
961.502	3843.84
961.805	3891.3
962.108	3801.81
962.411	3816.04
962.714	3763.62
963.017	3759.32
963.32	3745.54
963.623	3806.1
963.926	3727.01
964.228	3708.02
964.531	3708.02
964.833	3677.74
965.136	3633
965.438	3620.79
965.741	3643.62
966.043	3635.26
966.345	3633.22
966.648	3567.01
966.95	3589.16
967.252	3572.89
967.554	3557.07
967.856	3505.32
968.158	3499.44
968.46	3452.89
968.761	3473
969.063	3444.08
969.365	3467.13
969.666	3435.71
969.968	3418.99
970.269	3435.26
970.571	3422.38
970.872	3386.45
971.174	3343.51
971.475	3398.65
971.776	3382.38
972.077	3268.04
972.378	3317.07
972.679	3292.89
972.98	3278.2
973.281	3275.04
973.582	3277.07
973.883	3214.93
974.183	3200.69
974.484	3199.56
974.785	3202.73
975.085	3208.6
975.386	3192.33
975.686	3187.36
975.986	3149.85
976.287	3125.89
976.587	3114.59
976.887	3088.38
977.187	3105.1
977.487	3091.32
977.787	3048.83
978.087	3048.15
978.387	3009.06
978.687	3004.54
978.987	2979
979.286	2981.94
979.586	2990.75
979.885	2977.42
980.185	2922.28
980.484	2941.26
980.784	2901.27
981.083	2904.88
981.382	2921.38
981.682	2880.93
981.981	2837.31
982.28	2871.21
982.579	2831.89
982.878	2835.05
983.177	2842.28
983.475	2816.97
983.774	2799.8
984.073	2787.82
984.372	2771.1
984.67	2766.35
984.969	2761.38
985.267	2735.17
985.566	2708.05
985.864	2716.64
986.162	2702.4
986.461	2653.59
986.759	2660.14
987.057	2625.57
987.355	2636.41
987.653	2636.41
987.951	2661.05
988.249	2571.56
988.547	2626.02
988.844	2589.64
989.142	2575.4
989.44	2568.84
989.737	2527.26
990.035	2521.84
990.332	2464.44
990.63	2512.12
990.927	2488.62
991.224	2477.55
991.521	2479.13
991.819	2429.87
992.116	2448.62
992.413	2424.22
992.71	2427.61
993.006	2423.54
993.303	2428.28
993.6	2385.35
993.897	2351.9
994.193	2383.31
994.49	2375.63
994.787	2384.67
995.083	2325.69
995.379	2369.98
995.676	2342.64
995.972	2303.32
996.268	2288.63
996.565	2271.23
996.861	2284.56
997.157	2252.24
997.453	2272.58
997.749	2250.66
998.044	2244.79
998.34	2246.14
998.636	2229.42
998.932	2198.91
999.227	2221.28
999.523	2200.72
999.818	2177.44
1000.114	2147.39
1000.409	2144.68
1000.704	2111.23
1001	2110.33
1001.295	2100.83
1001.59	2100.38
1001.885	2137.44
1002.18	2073.94
1002.475	2079.14
1002.77	2064
1003.065	2028.75
1003.359	2000.5
1003.654	2005.47
1003.949	2004.79
1004.243	1976.32
1004.538	1956.21
1004.832	1972.93
1005.127	1960.5
1005.421	1978.35
1005.715	1932.93
1006.009	1959.82
1006.304	1931.35
1006.598	1909.2
1006.892	1923.89
1007.186	1913.27
1007.48	1874.17
1007.773	1864.68
1008.067	1858.36
1008.361	1837.56
1008.655	1847.28
1008.948	1828.98
1009.242	1801.63
1009.535	1791.92
1009.829	1814.97
1010.122	1776.32
1010.415	1764.35
1010.708	1774.97
1011.001	1749.88
1011.295	1759.15
1011.588	1744.01
1011.881	1719.6
1012.173	1746.04
1012.466	1701.3
1012.759	1705.14
1013.052	1709.43
1013.344	1675.08
1013.637	1667.17
1013.93	1654.29
1014.222	1668.08
1014.514	1625.37
1014.807	1618.36
1015.099	1620.85
1015.391	1612.03
1015.683	1633.5
1015.976	1570.23
1016.268	1584.01
1016.56	1552.37
1016.851	1555.09
1017.143	1567.97
1017.435	1518.7
1017.727	1526.39
1018.018	1511.02
1018.31	1508.53
1018.602	1513.05
1018.893	1511.02
1019.185	1519.83
1019.476	1468.31
1019.767	1471.92
1020.058	1461.08
1020.35	1449.78
1020.641	1418.37
1020.932	1405.71
1021.223	1421.98
1021.514	1415.65
1021.804	1396.22
1022.095	1363.68
1022.386	1389.21
1022.677	1398.71
1022.967	1377.69
1023.258	1344.7
1023.548	1341.53
1023.839	1341.53
1024.129	1339.27
1024.419	1304.7
1024.709	1291.36
1025	1274.64
1025.29	1311.48
1025.58	1275.77
1025.87	1300.63
1026.16	1285.49
1026.449	1256.79
1026.739	1249.56
1027.029	1224.02
1027.319	1233.51
1027.608	1238.94
1027.898	1243.23
1028.187	1235.55
1028.477	1157.36
1028.766	1208.65
1029.055	1217.69
1029.344	1156.45
1029.634	1163.46
1029.923	1168.88
1030.212	1163.23
1030.501	1139.28
1030.79	1167.98
1031.078	1122.1
1031.367	1123.01
1031.656	1121.2
1031.945	1108.77
1032.233	1132.72
1032.522	1090.69
1032.81	1090.01
1033.099	1080.07
1033.387	1095.89
1033.675	1084.82
1033.963	1059.96
1034.251	1094.76
1034.54	1061.77
1034.828	1054.99
1035.116	1021.99
1035.403	1017.47
1035.691	1013.18
1035.979	1024.93
1036.267	1020.86
1036.554	1034.87
1036.842	1016.12
1037.129	986.06
1037.417	987.87
1037.704	1008.66
1037.992	989.45
1038.279	967.76
1038.566	945.16
1038.853	945.16
1039.14	945.16
