Data from hue_190_FLMS001491_00014.txt Node
Date: Tue Feb 07 16:44:54 GMT 2017
User: dcchb
Spectrometer: FLMS00149
Trigger mode: 0
Integration Time (sec): 2.000000E-2
Scans to average: 10
Electric dark correction enabled: true
Nonlinearity correction enabled: false
Boxcar width: 0
XAxis mode: Wavelengths
Number of Pixels in Spectrum: 2048
>>>>>Begin Spectral Data<<<<<
341.393	-14.25
341.776	-14.25
342.16	-14.25
342.543	-57.41
342.927	-60.35
343.31	-88.15
343.693	-74.36
344.077	-71.88
344.46	-55.83
344.843	-48.37
345.226	-27.36
345.61	-31.2
345.993	-24.87
346.376	-7.02
346.759	8.8
347.142	24.62
347.525	48.8
347.908	63.49
348.291	76.82
348.674	88.8
349.057	117.72
349.44	123.37
349.823	140.55
350.206	192.98
350.588	196.59
350.971	217.16
351.354	218.96
351.737	235.91
352.119	259.19
352.502	263.26
352.884	275.46
353.267	254.67
353.65	275.46
354.032	292.18
354.414	306.42
354.797	332.18
355.179	320.66
355.562	322.46
355.944	334.67
356.326	327.66
356.709	328.79
357.091	338.28
357.473	331.73
357.855	333.99
358.238	342.35
358.62	349.58
359.002	349.81
359.384	360.43
359.766	344.16
360.148	355.68
360.53	336.7
360.912	320.88
361.294	333.76
361.676	325.85
362.057	316.81
362.439	319.07
362.821	328.34
363.203	324.27
363.584	328.56
363.966	350.94
364.348	328.79
364.729	316.14
365.111	309.58
365.493	330.37
365.874	328.56
366.256	318.4
366.637	333.08
367.019	320.2
367.4	309.58
367.781	318.17
368.163	321.79
368.544	310.03
368.925	329.69
369.306	306.64
369.688	308.45
370.069	323.14
370.45	311.39
370.831	311.62
371.212	311.16
371.593	331.05
371.974	295.12
372.355	302.8
372.736	329.02
373.117	317.49
373.498	317.04
373.879	309.81
374.26	316.59
374.641	321.11
375.021	314.55
375.402	312.52
375.783	337.38
376.163	325.85
376.544	326.98
376.925	331.28
377.305	321.11
377.686	332.41
378.066	336.93
378.447	338.73
378.827	330.15
379.208	329.47
379.588	334.67
379.968	327.89
380.349	350.49
380.729	297.61
381.109	348.23
381.489	338.28
381.87	342.35
382.25	350.94
382.63	335.34
383.01	337.6
383.39	360.88
383.77	339.86
384.15	338.51
384.53	353.87
384.91	342.58
385.29	326.98
385.67	350.94
386.049	352.52
386.429	336.02
386.809	344.84
387.189	366.53
387.568	349.58
387.948	348.9
388.328	345.74
388.707	348.23
389.087	351.16
389.466	376.47
389.846	365.63
390.225	366.08
390.605	361.11
390.984	390.71
391.363	358.62
391.743	351.62
392.122	377.83
392.501	382.8
392.881	374.44
393.26	380.54
393.639	402.46
394.018	381.67
394.397	380.99
394.776	380.99
395.155	369.92
395.534	368.34
395.913	378.28
396.292	404.04
396.671	407.21
397.05	419.86
397.429	404.95
397.808	396.81
398.186	399.3
398.565	398.62
398.944	413.08
399.323	394.78
399.701	423.7
400.08	421.22
400.458	433.65
400.837	415.12
401.215	406.98
401.594	432.06
401.972	416.02
402.351	425.74
402.729	429.81
403.107	416.02
403.486	457.37
403.864	433.87
404.242	428.9
404.62	438.17
404.999	459.18
405.377	466.41
405.755	451.95
406.133	461.89
406.511	460.31
406.889	482.23
407.267	470.03
407.645	468.22
408.023	501.44
408.401	490.82
408.779	510.71
409.156	483.59
409.534	489.69
409.912	527.2
410.29	538.73
410.667	520.42
411.045	537.82
411.422	542.8
411.8	574.89
412.178	583.02
412.555	583.25
412.933	577.37
413.31	581.21
413.687	599.29
414.065	600.87
414.442	581.21
414.819	615.79
415.197	635.45
415.574	634.55
415.951	647.88
416.328	645.62
416.705	661.66
417.082	644.49
417.46	676.35
417.837	675
418.214	668.22
418.591	699.18
418.967	709.57
419.344	717.48
419.721	715.9
420.098	735.56
420.475	768.33
420.852	740.53
421.228	788.44
421.605	801.77
421.982	779.85
422.358	776.91
422.735	795.9
423.111	815.56
423.488	834.09
423.864	838.38
424.241	832.05
424.617	886.06
424.994	882.22
425.37	899.17
425.746	930.58
426.123	916.8
426.499	951.15
426.875	932.16
427.251	967.42
427.627	982.56
428.003	1019.62
428.379	989.56
428.756	1013.52
429.132	1020.3
429.507	1041.77
429.883	1065.27
430.259	1080.64
430.635	1083.12
431.011	1073.86
431.387	1097.36
431.763	1114.76
432.138	1128.54
432.514	1149.11
432.89	1175.1
433.265	1192.72
433.641	1252.16
434.016	1224.13
434.392	1245.83
434.767	1266.85
435.143	1328.09
435.518	1305.71
435.894	1340.29
436.269	1363.34
436.644	1364.47
437.02	1399.5
437.395	1426.62
437.77	1476.33
438.145	1450.57
438.52	1511.13
438.895	1516.1
439.271	1530.79
439.646	1583.22
440.021	1575.09
440.395	1588.19
440.77	1605.59
441.145	1604.69
441.52	1679.94
441.895	1697.12
442.27	1692.82
442.645	1662.54
443.019	1719.94
443.394	1738.7
443.769	1758.81
444.143	1740.28
444.518	1794.74
444.892	1808.3
445.267	1841.75
445.641	1856.66
446.016	1855.98
446.39	1885.59
446.764	1881.07
447.139	1908.18
447.513	1923.33
447.887	1896.66
448.262	1938.69
448.636	1940.73
449.01	1981.18
449.384	2015.07
449.758	2030.67
450.132	2067.05
450.506	2010.78
450.88	2095.52
451.254	2092.81
451.628	2116.77
452.002	2138.69
452.376	2135.52
452.75	2190.66
453.123	2209.87
453.497	2205.8
453.871	2252.13
454.244	2286.25
454.618	2303.65
454.992	2332.58
455.365	2355.4
455.739	2408.74
456.112	2402.86
456.486	2443.54
456.859	2467.49
457.232	2492.58
457.606	2475.4
457.979	2549.98
458.352	2575.74
458.725	2625.23
459.099	2652.35
459.472	2694.15
459.845	2712
460.218	2766.69
460.591	2777.99
460.964	2823.19
461.337	2850.31
461.71	2884.66
462.083	2959
462.456	2925.56
462.829	2954.26
463.201	3006.91
463.574	2998.78
463.947	3075.84
464.32	3101.6
464.692	3179.11
465.065	3189.51
465.438	3247.13
465.81	3317.64
466.183	3318.99
466.555	3425.88
466.928	3396.28
467.3	3453.68
467.672	3498.65
468.045	3537.07
468.417	3588.14
468.789	3627.24
469.161	3668.14
469.534	3755.37
469.906	3830.39
470.278	3853.67
470.65	3883.5
471.022	3979.54
471.394	4052.76
471.766	4061.35
472.138	4111.06
472.51	4190.38
472.882	4244.39
473.253	4317.84
473.625	4384.5
473.997	4489.59
474.369	4537.04
474.74	4582.69
475.112	4630.82
475.484	4716.7
475.855	4810.71
476.227	4810.48
476.598	4994.43
476.97	5007.54
477.341	5156.01
477.713	5199.85
478.084	5256.12
478.455	5400.3
478.827	5495.66
479.198	5568.65
479.569	5636.22
479.94	5737.01
480.311	5821.3
480.682	5964.8
481.053	6068.07
481.424	6198.92
481.795	6280.72
482.166	6356.65
482.537	6391.68
482.908	6584.9
483.279	6579.93
483.65	6700.6
484.021	6919.35
484.391	6957.77
484.762	7033.7
485.133	7095.17
485.503	7130.87
485.874	7371.32
486.244	7401.83
486.615	7500.58
486.985	7666.45
487.356	7777.63
487.726	7890.85
488.097	8030.06
488.467	8095.14
488.837	8185.53
489.207	8254.01
489.578	8429.82
489.948	8432.76
490.318	8572.19
490.688	8644.5
491.058	8723.37
491.428	8886.08
491.798	8955.46
492.168	9103.02
492.538	9140.08
492.908	9178.05
493.278	9327.65
493.648	9358.38
494.017	9456.91
494.387	9539.4
494.757	9648.55
495.126	9727.19
495.496	9732.84
495.866	9787.07
496.235	9833.63
496.605	9989.55
496.974	9983
497.344	10029.78
497.713	10062.32
498.082	10161.98
498.452	10237
498.821	10272.71
499.19	10349.09
499.559	10365.59
499.928	10486.04
500.298	10486.49
500.667	10467.51
501.036	10484
501.405	10599.03
501.774	10613.94
502.143	10716.54
502.512	10680.61
502.88	10783.43
503.249	10771.23
503.618	10926.7
503.987	10895.29
504.356	10865.91
504.724	10974.61
505.093	10971.67
505.462	11034.27
505.83	11069.53
506.199	11086.25
506.567	11184.55
506.936	11170.09
507.304	11248.5
507.672	11275.4
508.041	11337.54
508.409	11391.32
508.777	11374.83
509.145	11389.29
509.514	11353.81
509.882	11497.08
510.25	11424.09
510.618	11517.65
510.986	11508.38
511.354	11626.8
511.722	11617.53
512.09	11630.64
512.458	11558.78
512.826	11681.94
513.193	11703.18
513.561	11688.94
513.929	11659.34
514.297	11766.68
514.664	11793.35
515.032	11770.3
515.4	11833.35
515.767	11787.7
516.135	11890.52
516.502	11743.41
516.869	11918.77
517.237	11859.34
517.604	11826.12
517.972	11980.46
518.339	11954.02
518.706	11905.44
519.073	11949.5
519.44	11909.96
519.808	12038.99
520.175	11952.44
520.542	12080.8
520.909	11986.79
521.276	12006.68
521.643	11989.28
522.009	12113.57
522.376	12050.97
522.743	12095.04
523.11	12211.42
523.477	12221.36
523.843	12142.27
524.21	12180.91
524.577	12198.99
524.943	12192.21
525.31	12190.85
525.676	12305.65
526.043	12258.87
526.409	12220.91
526.776	12347.91
527.142	12242.6
527.508	12163.96
527.874	12254.8
528.241	12251.64
528.607	12135.71
528.973	12210.06
529.339	12183.17
529.705	12214.13
530.071	12217.29
530.437	12234.69
530.803	12199.44
531.169	12195.15
531.535	12099.55
531.901	12127.8
532.267	12057.75
532.632	12077.63
532.998	11960.58
533.364	12094.13
533.73	12016.39
534.095	11940.69
534.461	11975.49
534.826	12026.56
535.192	11869.5
535.557	11930.52
535.923	11947.69
536.288	11817.08
536.653	11776.63
537.019	11669.74
537.384	11669.06
537.749	11599
538.114	11573.47
538.479	11541.83
538.845	11533.02
539.21	11407.14
539.575	11421.61
539.94	11359.91
540.305	11338.9
540.67	11347.26
541.034	11227.26
541.399	11250.09
541.764	11166.47
542.129	11161.27
542.494	11128.51
542.858	11032.24
543.223	11011.45
543.587	10986.59
543.952	10874.95
544.316	10814.16
544.681	10807.61
545.045	10770.78
545.41	10731.68
545.774	10624.34
546.138	10642.42
546.503	10615.07
546.867	10486.49
547.231	10537.56
547.595	10498.69
547.959	10419.15
548.324	10278.13
548.688	10314.97
549.052	10277
549.416	10210.11
549.779	10134.86
550.143	10175.54
550.507	10087.86
550.871	10067.07
551.235	10051.92
551.599	10014.19
551.962	9971.7
552.326	9915.43
552.689	9918.37
553.053	9781.65
553.417	9816
553.78	9819.16
554.143	9709.56
554.507	9718.15
554.87	9675.66
555.234	9705.95
555.597	9538.49
555.96	9564.93
556.323	9531.49
556.686	9485.16
557.05	9514.54
557.413	9434.54
557.776	9501.88
558.139	9500.98
558.502	9449.91
558.865	9402.22
559.228	9350.47
559.59	9343.02
559.953	9372.85
560.316	9393.19
560.679	9352.51
561.041	9335.11
561.404	9411.26
561.767	9307.54
562.129	9285.84
562.492	9312.51
562.854	9248.78
563.217	9263.92
563.579	9241.1
563.941	9241.78
564.304	9261.66
564.666	9243.58
565.028	9162
565.39	9240.19
565.753	9249.01
566.115	9196.58
566.477	9229.12
566.839	9192.74
567.201	9274.32
567.563	9192.74
567.925	9168.56
568.287	9226.64
568.648	9206.07
569.01	9216.69
569.372	9225.51
569.734	9215.79
570.095	9240.42
570.457	9275.9
570.819	9181.21
571.18	9202.23
571.542	9286.97
571.903	9238.39
572.265	9222.79
572.626	9237.48
572.987	9231.61
573.349	9225.73
573.71	9202
574.071	9260.08
574.432	9207.65
574.794	9246.52
575.155	9202.91
575.516	9182.8
575.877	9257.37
576.238	9226.64
576.599	9219.86
576.96	9218.95
577.32	9192.29
577.681	9236.58
578.042	9237.94
578.403	9232.51
578.763	9211.72
579.124	9186.86
579.485	9230.7
579.845	9256.92
580.206	9155.68
580.566	9198.16
580.927	9262.57
581.287	9180.08
581.648	9190.03
582.008	9224.6
582.368	9177.15
582.728	9213.08
583.089	9167.88
583.449	9103.93
583.809	9179.41
584.169	9169.24
584.529	9106.64
584.889	9167.2
585.249	9117.49
585.609	9087.66
585.969	9139.18
586.329	9022.57
586.688	9035.68
587.048	9069.13
587.408	9066.41
587.768	9012.18
588.127	9015.79
588.487	9047.88
588.846	9102.8
589.206	8943.03
589.565	9044.27
589.925	9033.87
590.284	8933.76
590.643	8950.71
591.003	8976.25
591.362	8966.98
591.721	8956.81
592.08	8885.18
592.44	8984.61
592.799	8951.61
593.158	8964.04
593.517	8925.4
593.876	8960.2
594.235	8987.32
594.593	8901.45
594.952	8929.47
595.311	8963.37
595.67	8881.56
596.029	8994.55
596.387	8904.16
596.746	8902.58
597.104	8818.74
597.463	8816.03
597.822	8897.61
598.18	8850.15
598.538	8816.03
598.897	8933.76
599.255	8827.1
599.613	8935.12
599.972	8822.13
600.33	8936.25
600.688	8918.4
601.046	8930.15
601.404	8863.48
601.762	8905.97
602.12	8885.85
602.478	8893.31
602.836	8876.59
603.194	8795.23
603.552	8825.52
603.91	8798.4
604.268	8801.11
604.625	8825.74
604.983	8816.03
605.341	8798.4
605.698	8856.25
606.056	8860.54
606.413	8824.16
606.771	8856.25
607.128	8815.57
607.485	8810.83
607.843	8825.06
608.2	8856.02
608.557	8870.71
608.914	8868
609.272	8887.89
609.629	8889.47
609.986	8979.64
610.343	8819.64
610.7	8906.87
611.057	8873.65
611.414	8904.61
611.771	8882.46
612.127	8899.64
612.484	8846.53
612.841	8842.24
613.198	8877.49
613.554	8905.74
613.911	8943.25
614.267	8890.15
614.624	8987.77
614.98	8903.93
615.337	8846.98
615.693	8991.84
616.05	8954.1
616.406	9027.32
616.762	8897.83
617.118	8945.97
617.475	8943.25
617.831	8968.79
618.187	8987.32
618.543	9023.7
618.899	8940.99
619.255	8958.85
619.611	8962.01
619.967	9041.33
620.323	9002.01
620.678	8983.7
621.034	8977.83
621.39	8933.54
621.746	9006.53
622.101	9004.95
622.457	8915.23
622.812	8985.96
623.168	8965.85
623.523	9009.01
623.879	9015.79
624.234	8897.38
624.589	9089.92
624.945	9010.82
625.3	8967.89
625.655	9024.38
626.01	9031.39
626.365	8975.57
626.72	8961.33
627.075	8946.64
627.43	8999.3
627.785	8953.42
628.14	9009.69
628.495	9013.53
628.85	9019.18
629.205	8922.46
629.559	9003.36
629.914	8910.94
630.269	8953.65
630.623	8964.04
630.978	8925.63
631.332	8928.79
631.687	8941.22
632.041	8919.3
632.396	8872.07
632.75	8928.11
633.104	8838.17
633.459	8888.79
633.813	8843.37
634.167	8863.03
634.521	8822.13
634.875	8865.06
635.229	8804.05
635.583	8790.04
635.937	8775.12
636.291	8772.41
636.645	8783.71
636.999	8725.63
637.352	8745.29
637.706	8761.11
638.06	8740.1
638.413	8700.77
638.767	8682.47
639.121	8689.47
639.474	8644.5
639.828	8650.15
640.181	8659.87
640.534	8656.93
640.888	8625.97
641.241	8634.34
641.594	8604.73
641.947	8679.98
642.301	8630.49
642.654	8561.12
643.007	8634.56
643.36	8557.5
643.713	8598.18
644.066	8632.98
644.419	8616.71
644.771	8512.53
645.124	8437.73
645.477	8439.54
645.83	8400.67
646.182	8326.77
646.535	8318.86
646.888	8317.96
647.24	8287.45
647.593	8274.34
647.945	8310.5
648.298	8261.24
648.65	8288.36
649.002	8240.9
649.355	8316.83
649.707	8292.88
650.059	8357.96
650.411	8434.79
650.763	8471.85
651.115	8522.93
651.467	8478.41
651.819	8494.9
652.171	8492.87
652.523	8479.99
652.875	8450.84
653.227	8510.5
653.578	8505.3
653.93	8511.63
654.282	8443.61
654.633	8401.57
654.985	8496.94
655.337	8448.35
655.688	8453.32
656.039	8491.06
656.391	8386.66
656.742	8408.35
657.094	8493.77
657.445	8538.07
657.796	8533.55
658.147	8439.09
658.498	8475.24
658.849	8512.76
659.2	8450.61
659.551	8425.53
659.902	8520.67
660.253	8488.12
660.604	8469.14
660.955	8468.46
661.306	8521.34
661.656	8420.78
662.007	8507.78
662.358	8498.07
662.708	8588.01
663.059	8496.26
663.409	8465.98
663.76	8562.02
664.11	8574.9
664.461	8492.19
664.811	8520.44
665.161	8491.97
665.511	8525.86
665.862	8530.84
666.212	8576.03
666.562	8514.56
666.912	8523.38
667.262	8514.11
667.612	8528.8
667.962	8511.4
668.312	8581.23
668.662	8504.4
669.011	8504.85
669.361	8491.51
669.711	8505.52
670.06	8543.72
670.41	8449.93
670.76	8479.54
671.109	8499.2
671.459	8533.32
671.808	8511.85
672.157	8450.39
672.507	8419.65
672.856	8405.41
673.205	8462.81
673.554	8461.68
673.904	8448.58
674.253	8477.5
674.602	8443.83
674.951	8321.57
675.3	8265.76
675.649	8396.38
675.998	8391.4
676.346	8415.58
676.695	8460.55
677.044	8360.22
677.393	8320.45
677.741	8416.49
678.09	8386.21
678.438	8363.83
678.787	8317.28
679.135	8305.08
679.484	8225.98
679.832	8284.97
680.181	8256.72
680.529	8280.22
680.877	8238.64
681.225	8184.18
681.573	8278.41
681.922	8177.62
682.27	8164.06
682.618	8192.31
682.966	8139.66
683.314	8166.55
683.661	8100.34
684.009	8074.12
684.357	8112.77
684.705	8102.82
685.053	8078.64
685.4	8009.04
685.748	8053.33
686.095	8059.43
686.443	8002.26
686.79	7938.08
687.138	8003.84
687.485	7964.3
687.832	7960
688.18	7912.55
688.527	7944.86
688.874	7843.17
689.221	7905.31
689.568	7839.78
689.915	7811.53
690.262	7800.68
690.609	7713.68
690.956	7757.75
691.303	7672.78
691.65	7742.61
691.997	7671.2
692.344	7614.93
692.69	7592.1
693.037	7609.5
693.383	7545.32
693.73	7560.69
694.077	7505.33
694.423	7545.1
694.769	7478.21
695.116	7477.3
695.462	7383.97
695.808	7378.32
696.155	7458.77
696.501	7338.32
696.847	7345.33
697.193	7217.2
697.539	7259
697.885	7227.59
698.231	7192.11
698.577	7193.47
698.923	7202.51
699.269	7133.81
699.614	7036.41
699.96	7033.47
700.306	7066.92
700.651	7025.56
700.997	7018.56
701.342	7011.55
701.688	6928.84
702.033	6914.38
702.379	6903.08
702.724	6908.73
703.069	6908.5
703.415	6792.12
703.76	6818.79
704.105	6840.03
704.45	6826.93
704.795	6744.44
705.14	6706.93
705.485	6746.25
705.83	6676.65
706.175	6673.26
706.52	6707.38
706.865	6680.49
707.209	6616.54
707.554	6591
707.899	6604.11
708.243	6579.7
708.588	6522.3
708.932	6556.42
709.277	6477.1
709.621	6492.7
709.966	6406.15
710.31	6415.41
710.654	6372.25
710.998	6422.19
711.342	6412.47
711.687	6358.01
712.031	6314.4
712.375	6314.17
712.719	6342.64
713.063	6287.96
713.407	6365.47
713.75	6288.86
714.094	6340.61
714.438	6302.42
714.782	6285.24
715.125	6237.34
715.469	6229.88
715.812	6263.55
716.156	6233.95
716.499	6217.45
716.843	6242.99
717.186	6196.21
717.53	6197.11
717.873	6203.89
718.216	6169.54
718.559	6143.33
718.902	6120.28
719.246	6119.37
719.589	6073.27
719.932	6093.61
720.275	6072.59
720.617	6109.43
720.96	6094.97
721.303	6106.94
721.646	6088.19
721.989	6063.78
722.331	6042.76
722.674	6050.67
723.016	6074.18
723.359	6078.47
723.701	6064.23
724.044	6014.07
724.386	5991.92
724.729	6042.54
725.071	5985.37
725.413	6075.98
725.755	5999.38
726.097	6009.32
726.439	5965.93
726.782	6002.99
727.124	6031.01
727.465	5941.07
727.807	6018.58
728.149	6001.64
728.491	5973.16
728.833	5962.31
729.175	5971.35
729.516	5956.89
729.858	6024.23
730.199	5980.85
730.541	6013.39
730.882	5964.12
731.224	6000.28
731.565	5932.49
731.906	5950.34
732.248	5958.25
732.589	5925.48
732.93	5955.54
733.271	5941.75
733.612	5980.39
733.953	6002.77
734.294	5968.64
734.635	5949.21
734.976	5949.66
735.317	5899.72
735.658	5987.63
735.999	5984.01
736.339	5972.03
736.68	6002.09
737.021	5984.91
737.361	5972.71
737.702	6036.44
738.042	6003.44
738.383	5938.81
738.723	6000.28
739.063	6007.51
739.404	6059.26
739.744	6002.99
740.084	6000.51
740.424	6066.94
740.764	6105.36
741.104	6119.37
741.444	6033.05
741.784	6066.49
742.124	6093.38
742.464	6150.56
742.804	6128.86
743.143	6160.73
743.483	6201.86
743.823	6156.66
744.162	6219.03
744.502	6241.18
744.841	6228.75
745.181	6310.33
745.52	6328.41
745.86	6335.64
746.199	6393.49
746.538	6443.21
746.877	6488.18
747.216	6536.76
747.556	6605.24
747.895	6642.52
748.234	6683.43
748.573	6685.01
748.911	6787.6
749.25	6789.41
749.589	6865.57
749.928	6939.92
750.267	6959.35
750.605	7018.56
750.944	7097.88
751.283	7182.85
751.621	7287.03
751.96	7370.64
752.298	7420.58
752.636	7574.93
752.975	7647.24
753.313	7680.46
753.651	7828.03
753.989	7905.77
754.327	8008.59
754.666	8096.04
755.004	8299.65
755.342	8383.27
755.679	8435.24
756.017	8583.49
756.355	8726.08
756.693	8946.42
757.031	9032.29
757.368	9163.13
757.706	9333.53
758.044	9462.56
758.381	9555.21
758.719	9748.2
759.056	10018.25
759.394	10089.44
759.731	10232.03
760.068	10377.11
760.405	10511.35
760.743	10671.8
761.08	10926.7
761.417	11026.14
761.754	11188.39
762.091	11395.84
762.428	11513.13
762.765	11695.95
763.102	11878.32
763.438	12060.69
763.775	12200.12
764.112	12410.51
764.449	12624.29
764.785	12739.99
765.122	12883.04
765.458	13045.52
765.795	13194.89
766.131	13370.26
766.467	13565.5
766.804	13625.39
767.14	13759.4
767.476	13953.07
767.812	14168.43
768.148	14451.13
768.485	14302.43
768.821	14505.37
769.157	14641.41
769.492	14850.22
769.828	14977.9
770.164	15051.34
770.5	15179.02
770.836	15320.04
771.171	15380.15
771.507	15458.34
771.842	15536.75
772.178	15750.76
772.513	15784.66
772.849	15860.36
773.184	15970.41
773.519	16018.55
773.855	16157.53
774.19	16242.5
774.525	16338.54
774.86	16474.35
775.195	16506.44
775.53	16516.84
775.865	16572.66
776.2	16581.92
776.535	16641.81
776.87	16740.34
777.205	16685.87
777.539	16773.78
777.874	16935.36
778.209	16873.67
778.543	16955.7
778.878	16945.53
779.212	17062.36
779.547	16981.69
779.881	17059.42
780.215	17022.36
780.55	17154.34
780.884	17228.69
781.218	17188.46
781.552	17321.11
781.886	17348.23
782.22	17153.43
782.554	17208.57
782.888	17112.98
783.222	17145.07
783.556	17171.51
783.889	17265.75
784.223	17148.01
784.557	17164.73
784.89	17204.05
785.224	17126.09
785.557	17073.21
785.891	17163.6
786.224	17104.85
786.558	17138.29
786.891	17000.44
787.224	17049.93
787.557	17031.63
787.891	17002.93
788.224	17066.43
788.557	17140.55
788.89	17046.77
789.223	17112.98
789.556	17074.11
789.888	17048.58
790.221	16963.83
790.554	16839.54
790.887	16951.4
791.219	16861.92
791.552	16890.16
791.884	16855.14
792.217	16869.82
792.549	16851.75
792.882	16719.77
793.214	16737.4
793.546	16776.04
793.879	16710.96
794.211	16580.79
794.543	16733.78
794.875	16639.55
795.207	16718.87
795.539	16623.96
795.871	16637.74
796.203	16496.73
796.535	16400.91
796.867	16438.42
797.198	16404.53
797.53	16452.43
797.862	16277.52
798.193	16325.88
798.525	16221.71
798.856	16312.78
799.188	16214.7
799.519	16107.36
799.85	15997.31
800.182	16058.09
800.513	16004.99
800.844	15895.39
801.175	15983.52
801.506	15914.37
801.837	15879.12
802.168	15890.64
802.499	15863.3
802.83	15808.84
803.161	15818.33
803.491	15731.78
803.822	15714.6
804.153	15737.43
804.483	15638.9
804.814	15575.17
805.145	15623.08
805.475	15449.98
805.805	15421.73
806.136	15479.35
806.466	15500.6
806.796	15461.73
807.126	15334.27
807.457	15257.21
807.787	15268.51
808.117	15183.99
808.447	15223.09
808.777	15263.09
809.107	15134.96
809.436	15152.36
809.766	15129.08
810.096	15091.79
810.426	15082.08
810.755	15054.96
811.085	14971.12
811.414	15032.36
811.744	14990.55
812.073	14931.8
812.403	14937.45
812.732	14927.05
813.061	14849.54
813.39	14753.04
813.719	14759.82
814.049	14865.81
814.378	14801.4
814.707	14623.56
815.036	14714.85
815.365	14611.35
815.693	14513.28
816.022	14638.25
816.351	14459.94
816.68	14480.74
817.008	14573.84
817.337	14409.78
817.665	14336.11
817.994	14376.11
818.322	14415.88
818.651	14330
818.979	14230.35
819.307	14321.87
819.636	14193.51
819.964	14302.66
820.292	14204.81
820.62	14353.96
820.948	14236.9
821.276	14306.5
821.604	14235.54
821.932	14240.29
822.259	14228.31
822.587	14241.19
822.915	14222.44
823.243	14159.39
823.57	14120.74
823.898	14215.21
824.225	14196
824.553	14224.7
824.88	14204.36
825.207	14237.58
825.535	14238.03
825.862	14275.54
826.189	14156.22
826.516	14256.33
826.843	14283
827.17	14284.36
827.497	14245.04
827.824	14273.51
828.151	14407.52
828.478	14283.9
828.805	14352.6
829.131	14214.98
829.458	14285.71
829.785	14148.99
830.111	14103.8
830.438	14312.6
830.764	14279.61
831.09	14306.95
831.417	14170.46
831.743	14288.42
832.069	14245.94
832.395	14106.73
832.722	14318.93
833.048	14112.84
833.374	14228.31
833.7	14116.45
834.026	14173.85
834.351	14196.45
834.677	14183.57
835.003	14198.48
835.329	14163.91
835.654	14118.48
835.98	14143.79
836.306	14092.27
836.631	14005.49
836.956	14068.99
837.282	14038.49
837.607	14022.89
837.932	13985.61
838.258	13958.71
838.583	13986.28
838.908	13914.42
839.233	13955.33
839.558	13852.28
839.883	13805.05
840.208	13795.1
840.533	13783.13
840.858	13715.33
841.182	13809.34
841.507	13774.31
841.832	13738.16
842.156	13628.33
842.481	13714.88
842.805	13709.91
843.13	13599.63
843.454	13557.37
843.778	13470.82
844.103	13497.26
844.427	13457.26
844.751	13442.57
845.075	13430.82
845.399	13290.71
845.723	13287.77
846.047	13330.03
846.371	13214.33
846.695	13209.36
847.019	13177.94
847.343	13037.61
847.666	13017.5
847.99	12919.65
848.313	12921.45
848.637	12789.48
848.96	12933.66
849.284	12765.98
849.607	12737.05
849.931	12694.57
850.254	12651.18
850.577	12555.81
850.9	12535.7
851.223	12472.2
851.546	12409.38
851.869	12321.7
852.192	12321.02
852.515	12247.57
852.838	12211.87
853.161	12254.58
853.483	12183.62
853.806	12097.07
854.129	12116.96
854.451	12104.98
854.774	11975.94
855.096	12047.35
855.419	11948.15
855.741	11903.18
856.063	11812.1
856.385	11858.66
856.708	11810.3
857.03	11741.15
857.352	11778.66
857.674	11710.86
857.996	11632.9
858.318	11531.43
858.64	11602.84
858.961	11570.08
859.283	11511.77
859.605	11501.6
859.926	11479.91
860.248	11404.88
860.57	11369.86
860.891	11487.14
861.212	11271.78
861.534	11329.86
861.855	11240.37
862.176	11242.18
862.498	11308.16
862.819	11206.47
863.14	11211.67
863.461	11158.56
863.782	11153.36
864.103	11071.33
864.424	11119.69
864.745	11111.11
865.065	11084.21
865.386	10966.48
865.707	11059.13
866.027	11042.41
866.348	11012.8
866.668	10948.85
866.989	10942.75
867.309	10873.6
867.63	10940.49
867.95	10845.35
868.27	10854.16
868.59	10867.27
868.91	10853.94
869.23	10874.5
869.55	10768.52
869.87	10825.92
870.19	10748.86
870.51	10808.29
870.83	10754.73
871.15	10693.26
871.469	10716.99
871.789	10711.34
872.109	10704.11
872.428	10599.48
872.748	10673.15
873.067	10626.37
873.386	10583.44
873.706	10651.91
874.025	10523.78
874.344	10488.75
874.663	10576.2
874.982	10543.66
875.301	10577.33
875.62	10454.85
875.939	10451.69
876.258	10448.07
876.577	10449.2
876.896	10405.14
877.214	10311.58
877.533	10367.17
877.852	10420.28
878.17	10350
878.489	10350.9
878.807	10339.6
879.125	10308.87
879.444	10308.87
879.762	10228.64
880.08	10284.46
880.398	10198.81
880.716	10204.92
881.034	10174.18
881.352	10266.16
881.67	10110.68
881.988	10240.62
882.306	10055.77
882.624	10094.41
882.941	10056.44
883.259	10015.99
883.577	9979.16
883.894	9914.3
884.212	9959.05
884.529	9955.2
884.846	9917.24
885.164	9944.58
885.481	9913.85
885.798	9865.26
886.115	9816.68
886.432	9857.35
886.75	9811.93
887.067	9778.26
887.383	9710.69
887.7	9794.76
888.017	9607.87
888.334	9729.45
888.651	9715.21
888.967	9703.69
889.284	9592.73
889.6	9635.89
889.917	9495.56
890.233	9547.76
890.55	9498.04
890.866	9477.02
891.182	9460.98
891.498	9435.22
891.815	9393.86
892.131	9356.58
892.447	9279.97
892.763	9254.43
893.079	9290.59
893.395	9249.91
893.71	9137.82
894.026	9178.95
894.342	9131.72
894.657	9160.87
894.973	9112.97
895.289	9097.83
895.604	9124.72
895.92	8938.51
896.235	8917.04
896.55	8945.97
896.865	8918.4
897.181	8868.23
897.496	8877.49
897.811	8817.38
898.126	8797.95
898.441	8786.65
898.756	8738.74
899.071	8651.96
899.386	8696.93
899.7	8594.79
900.015	8582.81
900.33	8527.45
900.644	8520.89
900.959	8489.25
901.273	8526.99
901.588	8408.35
901.902	8357.73
902.216	8389.37
902.531	8309.82
902.845	8359.54
903.159	8355.92
903.473	8221.01
903.787	8226.44
904.101	8105.99
904.415	8173.56
904.729	8141.92
905.042	8122.48
905.356	8072.54
905.67	8061.69
905.984	8008.36
906.297	7985.09
906.611	7927.24
906.924	7922.94
907.237	7880
907.551	7879.78
907.864	7853.79
908.177	7761.59
908.491	7752.1
908.804	7735.83
909.117	7718.43
909.43	7625.55
909.743	7616.51
910.056	7645.43
910.368	7555.27
910.681	7489.28
910.994	7502.16
911.307	7478.21
911.619	7348.04
911.932	7402.96
912.244	7334.26
912.557	7336.97
912.869	7280.92
913.181	7170.19
913.494	7297.65
913.806	7181.72
914.118	7153.02
914.43	7126.13
914.742	7159.57
915.054	7104.43
915.366	7059.91
915.678	7064.21
915.99	7039.57
916.302	6929.97
916.613	6951.67
916.925	6951.44
917.236	6984.89
917.548	6863.31
917.859	6925.91
918.171	6851.56
918.482	6825.8
918.794	6737.66
919.105	6751.22
919.416	6709.64
919.727	6687.27
920.038	6671.9
920.349	6633.48
920.66	6613.82
920.971	6598.68
921.282	6560.04
921.593	6499.7
921.903	6512.13
922.214	6497.22
922.525	6470.78
922.835	6441.17
923.146	6405.02
923.456	6359.59
923.767	6317.11
924.077	6359.82
924.387	6358.46
924.697	6301.06
925.008	6265.13
925.318	6227.17
925.628	6177.68
925.938	6151.24
926.248	6139.49
926.558	6136.1
926.867	6132.03
927.177	6058.36
927.487	6067.85
927.796	5973.61
928.106	6007.29
928.416	5951.24
928.725	5941.3
929.034	5956.44
929.344	5905.37
929.653	5933.39
929.962	5815.43
930.271	5783.34
930.581	5814.3
930.89	5761.64
931.199	5754.18
931.508	5707.63
931.817	5659.72
932.125	5690.46
932.434	5683
932.743	5609.33
933.051	5593.96
933.36	5587.64
933.669	5552.61
933.977	5558.03
934.286	5519.39
934.594	5531.82
934.902	5451.14
935.21	5465.6
935.519	5433.74
935.827	5412.5
936.135	5411.14
936.443	5356
936.751	5339.96
937.059	5370.69
937.367	5324.82
937.674	5310.58
937.982	5279.17
938.29	5229.68
938.597	5278.27
938.905	5147.87
939.213	5107.87
939.52	5168.44
939.827	5168.89
940.135	5097.25
940.442	5100.64
940.749	5117.82
941.056	5027.65
941.363	5030.36
941.67	5003.47
941.977	4941.32
942.284	4906.98
942.591	4950.59
942.898	4918.5
943.205	4880.31
943.511	4880.54
943.818	4872.85
944.125	4808.9
944.431	4838.28
944.738	4810.03
945.044	4739.97
945.35	4738.62
945.657	4690.71
945.963	4700.65
946.269	4702.24
946.575	4652.74
946.881	4670.37
947.187	4649.81
947.493	4640.32
947.799	4631.73
948.105	4567.32
948.41	4577.49
948.716	4541.34
949.022	4533.2
949.327	4533.65
949.633	4445.29
949.938	4436.93
950.244	4460.89
950.549	4413.43
950.854	4385.86
951.16	4405.52
951.465	4380.44
951.77	4325.07
952.075	4319.19
952.38	4326.2
952.685	4280.1
952.99	4278.52
953.294	4203.72
953.599	4190.61
953.904	4210.95
954.209	4213.43
954.513	4184.51
954.818	4133.44
955.122	4122.82
955.426	4102.93
955.731	4080.1
956.035	4063.61
956.339	4035.36
956.643	4067.22
956.948	4039.65
957.252	3976.15
957.556	4015.7
957.86	3983.84
958.163	3985.87
958.467	3982.03
958.771	3919.43
959.075	3929.37
959.378	3908.81
959.682	3860.22
959.985	3867
960.289	3823.16
960.592	3833.33
960.896	3842.82
961.199	3840.11
961.502	3788.13
961.805	3785.88
962.108	3747.91
962.411	3774.8
962.714	3693.45
963.017	3669.72
963.32	3655.71
963.623	3689.83
963.926	3655.48
964.228	3623.85
964.531	3622.72
964.833	3650.29
965.136	3585.2
965.438	3599.21
965.741	3545.66
966.043	3531.64
966.345	3557.86
966.648	3495.04
966.95	3488.48
967.252	3450.06
967.554	3461.36
967.856	3426.56
968.158	3403.29
968.46	3418.2
968.761	3440.35
969.063	3411.2
969.365	3358.77
969.666	3340.01
969.968	3329.84
970.269	3339.11
970.571	3336.17
970.872	3308.15
971.174	3309.5
971.475	3272.44
971.776	3322.61
972.077	3278.54
972.378	3221.82
972.679	3251.65
972.98	3224.08
973.281	3211.2
973.582	3185.21
973.883	3167.59
974.183	3154.93
974.484	3118.1
974.785	3078.1
975.085	3134.59
975.386	3090.3
975.686	3089.85
975.986	3089.85
976.287	3058.89
976.587	3074.26
976.887	3039.68
977.187	3018.44
977.487	3026.35
977.787	3014.82
978.087	2975.27
978.387	3015.95
978.687	3000.36
978.987	2922.39
979.286	2977.99
979.586	2921.26
979.885	2887.82
980.185	2850.53
980.484	2893.02
980.784	2859.35
981.083	2839.46
981.382	2841.04
981.682	2853.24
981.981	2791.1
982.28	2797.65
982.579	2795.84
982.878	2830.42
983.177	2770.31
983.475	2774.15
983.774	2733.25
984.073	2750.65
984.372	2713.59
984.67	2710.65
984.969	2696.41
985.267	2714.49
985.566	2652.57
985.864	2671.55
986.162	2670.2
986.461	2661.84
986.759	2641.27
987.057	2594.04
987.355	2604.66
987.653	2586.36
987.951	2576.19
988.249	2553.82
988.547	2559.47
988.844	2546.81
989.142	2524.21
989.44	2519.24
989.737	2482.41
990.035	2498.45
990.332	2453.71
990.63	2448.96
990.927	2447.38
991.224	2430.2
991.521	2416.65
991.819	2424.33
992.116	2420.94
992.413	2373.71
992.71	2406.25
993.006	2351.79
993.303	2362.41
993.6	2359.47
993.897	2355.86
994.193	2355.86
994.49	2334.16
994.787	2302.52
995.083	2303.88
995.379	2306.82
995.676	2298.91
995.972	2314.5
996.268	2237.44
996.565	2231.79
996.861	2231.34
997.157	2224.11
997.453	2222.3
997.749	2218.68
998.044	2181.4
998.34	2205.58
998.636	2167.84
998.932	2195.63
999.227	2149.99
999.523	2125.13
999.818	2149.08
1000.114	2141.17
1000.409	2092.13
1000.704	2082.42
1001	2069.54
1001.295	2059.14
1001.59	2037.45
1001.885	2051.68
1002.18	2027.5
1002.475	2024.11
1002.77	2025.47
1003.065	1997.9
1003.359	2028.41
1003.654	1986.15
1003.949	1976.88
1004.243	1959.71
1004.538	1948.18
1004.832	1930.78
1005.127	1926.49
1005.421	1881.74
1005.715	1913.16
1006.009	1905.7
1006.304	1880.61
1006.598	1847.39
1006.892	1877.9
1007.186	1855.98
1007.48	1857.79
1007.773	1858.47
1008.067	1832.93
1008.361	1811.24
1008.655	1818.7
1008.948	1815.31
1009.242	1768.53
1009.535	1756.55
1009.829	1742.09
1010.122	1748.64
1010.415	1743.89
1010.708	1743.22
1011.001	1728.75
1011.295	1721.52
1011.588	1712.71
1011.881	1695.76
1012.173	1661.41
1012.466	1659.6
1012.759	1654.86
1013.052	1653.05
1013.344	1669.32
1013.637	1651.24
1013.93	1616.21
1014.222	1581.87
1014.514	1626.16
1014.807	1607.63
1015.099	1579.61
1015.391	1574.18
1015.683	1559.49
1015.976	1551.81
1016.268	1562.43
1016.56	1523.56
1016.851	1542.54
1017.143	1536.44
1017.435	1525.37
1017.727	1526.05
1018.018	1506.61
1018.31	1499.16
1018.602	1469.78
1018.893	1482.21
1019.185	1462.77
1019.476	1473.17
1019.767	1452.83
1020.058	1427.74
1020.35	1423.9
1020.641	1432.04
1020.932	1399.95
1021.223	1385.26
1021.514	1387.97
1021.804	1369.89
1022.095	1356.11
1022.386	1395.43
1022.677	1353.17
1022.967	1338.03
1023.258	1335.32
1023.548	1331.25
1023.839	1317.47
1024.129	1307.3
1024.419	1267.3
1024.709	1303.45
1025	1282.89
1025.29	1278.14
1025.58	1270.69
1025.87	1246.73
1026.16	1256.9
1026.449	1227.75
1026.739	1236.56
1027.029	1249.22
1027.319	1232.27
1027.608	1229.56
1027.898	1206.96
1028.187	1221.42
1028.477	1193.4
1028.766	1176.23
1029.055	1170.12
1029.344	1149.79
1029.634	1180.07
1029.923	1140.52
1030.212	1121.54
1030.501	1166.96
1030.79	1118.37
1031.078	1102.78
1031.367	1118.6
1031.656	1093.29
1031.945	1113.85
1032.233	1096.45
1032.522	1089.67
1032.81	1086.51
1033.099	1076.34
1033.387	1054.42
1033.675	1067.98
1033.963	1059.62
1034.251	1059.62
1034.54	1026.4
1034.828	1019.62
1035.116	1019.62
1035.403	986.85
1035.691	1009
1035.979	1018.94
1036.267	1020.75
1036.554	994.08
1036.842	969.45
1037.129	990.69
1037.417	973.75
1037.704	971.71
1037.992	947.08
1038.279	912.73
1038.566	950.47
1038.853	950.47
1039.14	950.47
