Data from hue_30_FLMS001491_54.txt Node
Date: Mon Feb 06 15:05:35 GMT 2017
User: dcchb
Spectrometer: FLMS00149
Trigger mode: 0
Integration Time (sec): 2.000000E-2
Scans to average: 10
Electric dark correction enabled: true
Nonlinearity correction enabled: false
Boxcar width: 0
XAxis mode: Wavelengths
Number of Pixels in Spectrum: 2048
>>>>>Begin Spectral Data<<<<<
341.393	-16.88
341.776	-16.88
342.16	-16.88
342.543	-65.24
342.927	-61.85
343.31	-87.84
343.693	-71.11
344.077	-76.99
344.46	-63.66
344.843	-64.11
345.226	-31.12
345.61	-21.4
345.993	-23.43
346.376	-1.51
346.759	1.65
347.142	45.04
347.525	48.2
347.908	48.2
348.291	93.4
348.674	94.98
349.057	109.67
349.44	132.04
349.823	145.38
350.206	167.75
350.588	206.84
350.971	199.16
351.354	222.44
351.737	234.41
352.119	261.08
352.502	269.89
352.884	270.8
353.267	291.59
353.65	288.42
354.032	284.81
354.414	304.92
354.797	306.05
355.179	314.41
355.562	326.84
355.944	336.56
356.326	342.89
356.709	353.28
357.091	341.3
357.473	334.3
357.855	346.28
358.238	339.5
358.62	322.77
359.002	336.33
359.384	342.43
359.766	338.37
360.148	362.32
360.53	348.31
360.912	317.12
361.294	334.07
361.676	332.72
362.057	337.46
362.439	327.97
362.821	337.69
363.203	325.71
363.584	348.08
363.966	334.53
364.348	330.01
364.729	317.58
365.111	313.28
365.493	321.42
365.874	297.24
366.256	306.5
366.637	310.8
367.019	325.94
367.4	320.74
367.781	316.45
368.163	338.59
368.544	285.71
368.925	306.73
369.306	308.54
369.688	332.72
370.069	314.64
370.45	313.51
370.831	308.76
371.212	329.78
371.593	316.67
371.974	298.37
372.355	327.07
372.736	318.25
373.117	330.91
373.498	317.12
373.879	308.99
374.26	310.34
374.641	309.89
375.021	302.44
375.402	322.77
375.783	321.42
376.163	334.53
376.544	316.22
376.925	309.67
377.305	325.94
377.686	329.1
378.066	336.56
378.447	322.77
378.827	339.72
379.208	320.29
379.588	343.56
379.968	352.83
380.349	345.15
380.729	336.11
381.109	331.36
381.489	335.2
381.87	342.43
382.25	316.45
382.63	345.37
383.01	332.04
383.39	334.53
383.77	335.88
384.15	359.38
384.53	330.23
384.91	343.11
385.29	361.87
385.67	353.73
386.049	371.59
386.429	347.63
386.809	343.34
387.189	350.34
387.568	362.32
387.948	339.72
388.328	362.77
388.707	360.51
389.087	345.82
389.466	365.26
389.846	346.95
390.225	344.69
390.605	341.98
390.984	360.74
391.363	360.97
391.743	372.26
392.122	382.21
392.501	359.84
392.881	362.55
393.26	384.02
393.639	373.85
394.018	384.92
394.397	376.78
394.776	380.17
395.155	386.73
395.534	387.18
395.913	384.24
396.292	370.46
396.671	386.5
397.05	364.58
397.429	358.03
397.808	386.05
398.186	370
398.565	391.02
398.944	388.76
399.323	382.89
399.701	390.34
400.08	405.71
400.458	404.13
400.837	395.09
401.215	401.42
401.594	393.05
401.972	378.59
402.351	395.99
402.729	417.01
403.107	410.68
403.486	405.26
403.864	410.68
404.242	451.81
404.62	403.45
404.999	411.36
405.377	412.72
405.755	413.62
406.133	401.64
406.511	411.59
406.889	395.31
407.267	421.08
407.645	433.96
408.023	428.53
408.401	422.66
408.779	429.66
409.156	442.09
409.534	442.09
409.912	431.7
410.29	439.83
410.667	458.59
411.045	458.14
411.422	447.74
411.8	451.13
412.178	451.36
412.555	457.23
412.933	459.49
413.31	461.53
413.687	467.4
414.065	471.92
414.442	453.39
414.819	459.27
415.197	464.24
415.574	484.8
415.951	487.74
416.328	480.51
416.705	461.98
417.082	478.7
417.46	498.81
417.837	491.58
418.214	492.71
418.591	501.98
418.967	483.67
419.344	494.97
419.721	486.84
420.098	525.71
420.475	497.91
420.852	527.74
421.228	503.11
421.605	512.6
421.982	531.13
422.358	532.49
422.735	524.58
423.111	533.62
423.488	547.63
423.864	523.9
424.241	536.78
424.617	516.44
424.994	539.72
425.37	550.34
425.746	563.22
426.123	539.72
426.499	561.19
426.875	562.09
427.251	559.6
427.627	575.65
428.003	578.59
428.379	568.42
428.756	602.99
429.132	585.37
429.507	563.9
429.883	571.36
430.259	622.43
430.635	614.97
431.011	602.99
431.387	598.47
431.763	598.47
432.138	644.12
432.514	604.12
432.89	610
433.265	642.54
433.641	642.09
434.016	632.37
434.392	638.47
434.767	670.11
435.143	667.62
435.518	666.49
435.894	681.86
436.269	671.24
436.644	662.2
437.02	671.69
437.395	690.45
437.77	675.99
438.145	712.59
438.52	684.57
438.895	731.12
439.271	713.05
439.646	717.11
440.021	720.5
440.395	745.14
440.77	738.13
441.145	743.55
441.52	750.79
441.895	735.64
442.27	774.29
442.645	746.49
443.019	742.88
443.394	765.93
443.769	750.11
444.143	780.84
444.518	756.43
444.892	756.21
445.267	758.92
445.641	779.26
446.016	782.42
446.39	777
446.764	793.95
447.139	797.11
447.513	800.73
447.887	762.76
448.262	790.56
448.636	821.97
449.01	820.84
449.384	828.75
449.758	828.07
450.132	828.52
450.506	852.25
450.88	830.33
451.254	830.56
451.628	853.83
452.002	873.49
452.376	853.16
452.75	854.96
453.123	862.42
453.497	881.4
453.871	889.09
454.244	908.3
454.618	892.93
454.992	930.22
455.365	908.52
455.739	949.65
456.112	956.66
456.486	952.81
456.859	939.03
457.232	974.51
457.606	955.07
457.979	986.71
458.352	999.14
458.725	990.1
459.099	1014.06
459.472	1021.06
459.845	1021.51
460.218	1073.94
460.591	1025.81
460.964	1036.88
461.337	1076.65
461.71	1064.9
462.083	1089.76
462.456	1106.03
462.829	1102.87
463.201	1099.93
463.574	1150.32
463.947	1152.58
464.32	1153.94
464.692	1185.8
465.065	1185.12
465.438	1184.22
465.81	1199.36
466.183	1247.04
466.555	1238.91
466.928	1255.63
467.3	1268.29
467.672	1298.12
468.045	1284.56
468.417	1307.61
468.789	1299.02
469.161	1332.24
469.534	1361.62
469.906	1393.93
470.278	1421.28
470.65	1413.59
471.022	1418.56
471.394	1478.9
471.766	1496.3
472.138	1481.84
472.51	1517.77
472.882	1568.39
473.253	1577.2
473.625	1594.83
473.997	1635.06
474.369	1640.48
474.74	1670.76
475.112	1706.69
475.484	1723.19
475.855	1750.76
476.227	1764.32
476.598	1799.57
476.97	1856.07
477.341	1924.09
477.713	1917.76
478.084	1992.56
478.455	2002.5
478.827	2009.28
479.198	2068.26
479.569	2091.77
479.94	2138.09
480.311	2186
480.682	2228.94
481.053	2325.43
481.424	2364.98
481.795	2352.1
482.166	2446.56
482.537	2492.43
482.908	2543.96
483.279	2574.47
483.65	2648.81
484.021	2691.75
484.391	2707.8
484.762	2763.16
485.133	2800.67
485.503	2870.96
485.874	2950.05
486.244	2970.16
486.615	3028.24
486.985	3118.18
487.356	3199.99
487.726	3234.79
488.097	3296.93
488.467	3353.2
488.837	3432.75
489.207	3433.65
489.578	3518.85
489.948	3586.42
490.318	3652.63
490.688	3647.66
491.058	3792.97
491.428	3804.49
491.798	3908.89
492.168	3978.05
492.538	4003.81
492.908	4039.06
493.278	4124.03
493.648	4170.13
494.017	4229.56
494.387	4257.81
494.757	4307.98
495.126	4393.4
495.496	4417.13
495.866	4466.62
496.235	4540.52
496.605	4597.24
496.974	4596.33
497.344	4694.18
497.713	4759.72
498.082	4783
498.452	4850.56
498.821	4873.84
499.19	4928.08
499.559	4971.01
499.928	4996.32
500.298	5005.59
500.667	5110.22
501.036	5117.45
501.405	5153.61
501.774	5197
502.143	5265.47
502.512	5283.32
502.88	5377.33
503.249	5317.44
503.618	5449.87
503.987	5440.61
504.356	5472.92
504.724	5508.17
505.093	5616.42
505.462	5606.02
505.83	5647.38
506.199	5642.63
506.567	5736.64
506.936	5794.27
507.304	5833.36
507.672	5798.34
508.041	5851.89
508.409	5899.58
508.777	5910.65
509.145	6009.18
509.514	5987.26
509.882	6043.98
510.25	6022.96
510.618	6160.13
510.986	6116.75
511.354	6193.13
511.722	6233.58
512.09	6313.35
512.458	6240.58
512.826	6330.98
513.193	6322.39
513.561	6381.82
513.929	6415.5
514.297	6453.46
514.664	6500.46
515.032	6485.55
515.4	6546.11
515.767	6606
516.135	6619.11
516.502	6559.9
516.869	6679.67
517.237	6705.21
517.604	6721.93
517.972	6763.06
518.339	6728.03
518.706	6799.44
519.073	6838.08
519.44	6845.99
519.808	6931.87
520.175	6965.54
520.542	7012.54
520.909	6979.32
521.276	7050.96
521.643	7086.89
522.009	7135.93
522.376	7186.55
522.743	7202.14
523.11	7201.01
523.477	7311.74
523.843	7330.5
524.21	7338.63
524.577	7419.54
524.943	7426.99
525.31	7477.84
525.676	7526.65
526.043	7573.66
526.409	7643.26
526.776	7697.95
527.142	7722.13
527.508	7755.12
527.874	7830.6
528.241	7803.03
528.607	7919.41
528.973	7956.7
529.339	7956.25
529.705	8031.95
530.071	8099.29
530.437	8077.37
530.803	8159.18
531.169	8218.84
531.535	8207.09
531.901	8171.83
532.267	8273.3
532.632	8278.27
532.998	8361.88
533.364	8389.68
533.73	8397.36
534.095	8489.79
534.461	8493.18
534.826	8531.6
535.192	8580.64
535.557	8602.78
535.923	8619.96
536.288	8609.34
536.653	8750.57
537.019	8713.29
537.384	8768.88
537.749	8836.67
538.114	8849.1
538.479	8904.02
538.845	8948.08
539.21	8975.65
539.575	9033.28
539.94	9042.32
540.305	9055.2
540.67	9036.67
541.034	9163.22
541.399	9136.55
541.764	9129.77
542.129	9236.66
542.494	9246.16
542.858	9307.62
543.223	9258.36
543.587	9367.96
543.952	9358.02
544.316	9435.75
544.681	9471.23
545.045	9475.53
545.41	9561.63
545.774	9621.06
546.138	9601.17
546.503	9677.33
546.867	9661.74
547.231	9746.48
547.595	9692.25
547.959	9748.06
548.324	9772.7
548.688	9851.56
549.052	9840.72
549.416	9858.57
549.779	9878.45
550.143	9984.89
550.507	10021.5
550.871	10065.34
551.235	10081.39
551.599	10149.86
551.962	10105.57
552.326	10200.03
552.689	10284.09
553.053	10212.91
553.417	10240.71
553.78	10360.02
554.143	10326.35
554.507	10389.18
554.87	10400.02
555.234	10442.28
555.597	10410.87
555.96	10515.27
556.323	10533.8
556.686	10552.56
557.05	10558.66
557.413	10666.23
557.776	10635.27
558.139	10695.16
558.502	10708.94
558.865	10769.5
559.228	10830.07
559.59	10848.37
559.953	10881.37
560.316	11023.96
560.679	11015.6
561.041	11021.7
561.404	11120
561.767	11104.64
562.129	11128.59
562.492	11222.37
562.854	11185.77
563.217	11178.99
563.579	11225.76
563.941	11325.65
564.304	11416.27
564.666	11454.68
565.028	11416.95
565.39	11533.55
565.753	11504.63
566.115	11597.28
566.477	11566.32
566.839	11647
567.201	11672.08
567.563	11758.41
567.925	11707.79
568.287	11827.33
568.648	11876.59
569.01	11872.3
569.372	12064.39
569.734	11988.68
570.095	12102.8
570.457	12169.24
570.819	12116.36
571.18	12246.53
571.542	12260.54
571.903	12312.52
572.265	12296.47
572.626	12427.77
572.987	12434.77
573.349	12483.81
573.71	12650.59
574.071	12686.97
574.432	12659.62
574.794	12843.35
575.155	12867.53
575.516	12924.7
575.877	12987.75
576.238	13006.73
576.599	13176.67
576.96	13199.05
577.32	13357.01
577.681	13491.47
578.042	13567.4
578.403	13623.44
578.763	13720.39
579.124	13836.32
579.485	14003.09
579.845	14069.08
580.206	14144.78
580.566	14276.08
580.927	14428.62
581.287	14620.25
581.648	14737.08
582.008	14867.25
582.368	14891.2
582.728	15132.33
583.089	15373.23
583.449	15375.03
583.809	15690.05
584.169	15759.88
584.529	15991.97
584.889	16209.81
585.249	16368.68
585.609	16524.83
585.969	16789.01
586.329	16889.12
586.688	17235.32
587.048	17446.62
587.408	17668.53
587.768	17809.77
588.127	18003.67
588.487	18179.71
588.846	18598.45
589.206	18624.89
589.565	18878.44
589.925	19206.35
590.284	19430.97
590.643	19695.37
591.003	19997.28
591.362	20244.51
591.721	20430.95
592.08	20568.12
592.44	20912.74
592.799	21093.08
593.158	21391.82
593.517	21640.86
593.876	21944.8
594.235	22205.14
594.593	22425.47
594.952	22773.48
595.311	22965.79
595.67	23248.95
596.029	23561.94
596.387	23972.1
596.746	24224.74
597.104	24306.78
597.463	24590.84
597.822	24837.16
598.18	24941.79
598.538	25188.56
598.897	25699.96
599.255	25666.51
599.613	26137.24
599.972	26282.09
600.33	26640.73
600.688	26620.16
601.046	27123.88
601.404	27203.2
601.762	27418.56
602.12	27783.75
602.478	27943.52
602.836	28244.75
603.194	28271.19
603.552	28595.7
603.91	28760.9
604.268	29068.68
604.625	29209.92
604.983	29623.47
605.341	29583.25
605.698	29963.35
606.056	30093.52
606.413	30431.81
606.771	30583.45
607.128	30777.11
607.485	30543.22
607.843	31087.39
608.2	31288.29
608.557	31594.27
608.914	31562.63
609.272	31893.02
609.629	32174.59
609.986	32349.73
610.343	32282.39
610.7	32704.97
611.057	32672.21
611.414	32905.19
611.771	33046.21
612.127	33458.17
612.484	33354.9
612.841	33657.04
613.198	33694.1
613.554	33876.02
613.911	34171.6
614.267	34157.36
614.624	34341.09
614.98	34443.01
615.337	34696.56
615.693	34899.27
616.05	34675.54
616.406	35109.66
616.762	35145.36
617.118	35201.63
617.475	35246.83
617.831	35465.35
618.187	35688.62
618.543	35849.98
618.899	35938.56
619.255	35972.23
619.611	36045
619.967	36348.27
620.323	36393.46
620.678	36373.35
621.034	36426.01
621.39	36470.75
621.746	36599.33
622.101	37111.19
622.457	36778.09
622.812	37031.41
623.168	37061.47
623.523	37066.44
623.879	37271.86
624.234	37074.12
624.589	37184.18
624.945	37331.74
625.3	37377.17
625.655	37550.04
626.01	37501.46
626.365	37645.63
626.72	37685.18
627.075	37584.62
627.43	37575.13
627.785	37576.03
628.14	37798.62
628.495	37899.64
628.85	37893.54
629.205	37737.61
629.559	38049.01
629.914	37839.75
630.269	37931.05
630.623	37882.24
630.978	37927.43
631.332	37968.56
631.687	38120.42
632.041	38005.17
632.396	38112.97
632.75	38145.06
633.104	38112.06
633.459	37865.29
633.813	38016.25
634.167	38141.21
634.521	38002.01
634.875	38142.57
635.229	38165.17
635.583	37955.23
635.937	38053.31
636.291	37859.64
636.645	38046.53
636.999	37841.56
637.352	38122.01
637.706	37799.08
638.06	38058.96
638.413	37883.14
638.767	37920.66
639.121	37912.97
639.474	37750.72
639.828	37774.67
640.181	37848.11
640.534	37890.6
640.888	37775.8
641.241	37710.94
641.594	37763.37
641.947	37941.67
642.301	37789.36
642.654	37770.38
643.007	37795.46
643.36	37718.4
643.713	37707.55
644.066	37837.04
644.419	37683.37
644.771	37336.49
645.124	37090.17
645.477	37059.44
645.83	36794.36
646.182	36644.98
646.535	36691.76
646.888	36586
647.24	36641.59
647.593	36612.67
647.945	36667.13
648.298	36490.41
648.65	36415.38
649.002	36355.27
649.355	36527.92
649.707	36446.8
650.059	36485.44
650.411	36938.31
650.763	36960
651.115	37430.72
651.467	37346.21
651.819	37200.22
652.171	37409.26
652.523	37145.08
652.875	37108.25
653.227	36958.65
653.578	37154.35
653.93	37211.07
654.282	36988.48
654.633	37028.93
654.985	36957.29
655.337	37012.2
655.688	37118.64
656.039	37302.59
656.391	36747.13
656.742	37008.59
657.094	36985.99
657.445	37002.94
657.796	36831.87
658.147	37004.07
658.498	36948.25
658.849	37051.3
659.2	36862.38
659.551	36826.67
659.902	36856.95
660.253	36938.99
660.604	36973.11
660.955	36664.19
661.306	36815.83
661.656	36731.76
662.007	36684.53
662.358	36765.21
662.708	36639.11
663.059	36755.26
663.409	36489.51
663.76	36900.57
664.11	36767.92
664.461	36779.22
664.811	36777.86
665.161	36810.18
665.511	36835.49
665.862	36736.05
666.212	36815.6
666.562	36809.5
666.912	36708.26
667.262	36772.66
667.612	36769.95
667.962	36744.87
668.312	36742.83
668.662	36738.99
669.011	36661.25
669.361	36717.52
669.711	36588.71
670.06	36609.5
670.41	36566.57
670.76	36461.94
671.109	36642.5
671.459	36553.69
671.808	36524.53
672.157	36557.98
672.507	36274.82
672.856	36416.29
673.205	36459.22
673.554	36668.03
673.904	36369.51
674.253	36625.55
674.602	36581.71
674.951	35900.37
675.3	35712.58
675.649	36444.08
675.998	36306.69
676.346	36400.47
676.695	36468.04
677.044	36264.2
677.393	36293.81
677.741	36371.09
678.09	36090.65
678.438	36097.2
678.787	36186.01
679.135	36230.98
679.484	35938.11
679.832	36041.83
680.181	35824.89
680.529	35907.38
680.877	35884.32
681.225	35979.46
681.573	36049.29
681.922	35768.4
682.27	35713.71
682.618	35824.44
682.966	35703.31
683.314	35873.03
683.661	35623.31
684.009	35523.88
684.357	35343.1
684.705	35493.6
685.053	35382.42
685.4	35431
685.748	35118.47
686.095	35242.31
686.443	34917.12
686.79	35019.26
687.138	35060.17
687.485	35025.36
687.832	34846.61
688.18	34918.25
688.527	34736.78
688.874	34710.8
689.221	34584.7
689.568	34422.22
689.915	34484.36
690.262	34387.87
690.609	34331.6
690.956	34217.93
691.303	34282.79
691.65	34049.12
691.997	34125.73
692.344	33910.82
692.69	33915.34
693.037	33848.22
693.383	33740.88
693.73	33854.32
694.077	33519.42
694.423	33539.08
694.769	33450.72
695.116	33355.13
695.462	33236.94
695.808	33236.48
696.155	33257.05
696.501	32990.39
696.847	33034
697.193	32782.26
697.539	32855.48
697.885	32745.42
698.231	32584.07
698.577	32542.49
698.923	32585.43
699.269	32331.2
699.614	32173.91
699.96	32166.23
700.306	32124.2
700.651	32111.54
700.997	31886.92
701.342	31856.63
701.688	31721.72
702.033	31771.89
702.379	31840.82
702.724	31708.62
703.069	31697.77
703.415	31385.69
703.76	31390.21
704.105	31437.44
704.45	31382.07
704.795	31088.07
705.14	31061.4
705.485	31023.44
705.83	30896.89
706.175	30855.76
706.52	30822.99
706.865	30768.53
707.209	30675.87
707.554	30561.53
707.899	30690.11
708.243	30385.49
708.588	30415.32
708.932	30112.95
709.277	30133.52
709.621	30194.98
709.966	30070.92
710.31	30109.34
710.654	29693.08
710.998	29767.2
711.342	29870.92
711.687	29771.72
712.031	29558.84
712.375	29483.59
712.719	29671.38
713.063	29465.96
713.407	29637.48
713.75	29395.68
714.094	29341.67
714.438	29298.51
714.782	29277.72
715.125	29226.42
715.469	29149.13
715.812	28975.13
716.156	28970.16
716.499	29067.55
716.843	28943.04
717.186	28752.76
717.53	29047.67
717.873	28965.18
718.216	28768.58
718.559	28693.78
718.902	28429.15
719.246	28588.92
719.589	28287.91
719.932	28389.61
720.275	28280.68
720.617	28284.52
720.96	28242.04
721.303	28247.24
721.646	28252.66
721.989	27916.4
722.331	28165.43
722.674	28081.37
723.016	27995.27
723.359	28081.14
723.701	27948.49
724.044	27805.89
724.386	27773.13
724.729	27942.61
725.071	27725.67
725.413	27739.23
725.755	27746.01
726.097	27635.28
726.439	27377.66
726.782	27567.71
727.124	27614.03
727.465	27431.67
727.807	27469.4
728.149	27383.76
728.491	27391.44
728.833	27406.58
729.175	27332.23
729.516	27102.63
729.858	27151.22
730.199	27306.7
730.541	27079.13
730.882	27135.18
731.224	27134.95
731.565	26855.18
731.906	26849.53
732.248	27034.16
732.589	26788.52
732.93	26779.71
733.271	26830.78
733.612	26731.35
733.953	26830.78
734.294	26548.98
734.635	26583.55
734.976	26702.65
735.317	26418.36
735.658	26450.45
735.999	26500.84
736.339	26432.14
736.68	26532.48
737.021	26285.71
737.361	26278.93
737.702	26374.97
738.042	26287.06
738.383	26232.15
738.723	26348.08
739.063	26195.09
739.404	26114.86
739.744	26093.17
740.084	25931.59
740.424	26007.97
740.764	25919.62
741.104	26083.9
741.444	25864.02
741.784	25708.32
742.124	25890.69
742.464	25814.53
742.804	25687.3
743.143	25703.35
743.483	25746.29
743.823	25513.98
744.162	25574.99
744.502	25586.06
744.841	25514.2
745.181	25538.83
745.52	25464.49
745.86	25566.86
746.199	25478.72
746.538	25434.43
746.877	25437.59
747.216	25389.46
747.556	25325.73
747.895	25281.21
748.234	25147.66
748.573	25273.76
748.911	25193.98
749.25	25100.88
749.589	24984.27
749.928	25073.76
750.267	25201.22
750.605	25004.16
750.944	24935.69
751.283	24894.78
751.621	25020.66
751.96	24757.84
752.298	24796.25
752.636	24710.61
752.975	24660.89
753.313	24480.78
753.651	24636.94
753.989	24466.77
754.327	24334.12
754.666	24418.86
755.004	24376.83
755.342	24374.8
755.679	24370.73
756.017	24239.21
756.355	24266.78
756.693	24168.02
757.031	24154.92
757.368	23994.24
757.706	24006.45
758.044	23954.02
758.381	24018.42
758.719	23815.72
759.056	23853
759.394	23726.9
759.731	23569.39
760.068	23670.63
760.405	23475.61
760.743	23463.63
761.08	23479
761.417	23367.14
761.754	23279.91
762.091	23106.81
762.428	23116.52
762.765	22927.15
763.102	22995.62
763.438	22900.26
763.775	22893.71
764.112	22828.85
764.449	22904.78
764.785	22798.34
765.122	22681.06
765.458	22545.47
765.795	22517.44
766.131	22522.19
766.467	22379.14
766.804	22284
767.14	22251.91
767.476	22252.59
767.812	22050.79
768.148	22162.43
768.485	22054.41
768.821	21890.79
769.157	21776.22
769.492	21739.61
769.828	21839.04
770.164	21441.31
770.5	21617.36
770.836	21502.78
771.171	21343.01
771.507	21397.7
771.842	21211.49
772.178	21249.46
772.513	21198.84
772.849	21047.88
773.184	20883.59
773.519	20908
773.855	20852.63
774.19	20833.42
774.525	20700.32
774.86	20699.41
775.195	20686.31
775.53	20469.36
775.865	20332.19
776.2	20274.11
776.535	20150.5
776.87	20092.65
777.205	20112.99
777.539	19823.05
777.874	19953.44
778.209	19862.83
778.543	19841.81
778.878	19742.6
779.212	19707.12
779.547	19595.26
779.881	19603.4
780.215	19462.84
780.55	19468.49
780.884	19347.36
781.218	19226.46
781.552	19282.95
781.886	19178.32
782.22	19050.19
782.554	18991.21
782.888	18802.06
783.222	18786.92
783.556	18713.02
783.889	18747.15
784.223	18545.35
784.557	18485.91
784.89	18580.82
785.224	18425.57
785.557	18438.91
785.891	18325.46
786.224	18258.12
786.558	18198.01
786.891	18057
787.224	18025.13
787.557	18022.65
787.891	17907.4
788.224	17816.1
788.557	17830.34
788.89	17708.53
789.223	17766.61
789.556	17585.82
789.888	17545.37
790.221	17521.87
790.554	17328.88
790.887	17417.92
791.219	17304.02
791.552	17312.61
791.884	17210.47
792.217	17090.92
792.549	17019.96
792.882	16995.1
793.214	16928.21
793.546	16868.78
793.879	16829.23
794.211	16608.67
794.543	16796.92
794.875	16712.17
795.207	16754.66
795.539	16538.39
795.871	16608.9
796.203	16363.71
796.535	16366.19
796.867	16297.27
797.198	16246.2
797.53	16296.14
797.862	16120.78
798.193	16141.34
798.525	16121.45
798.856	16127.78
799.188	15987.22
799.519	15928.24
799.85	15717.17
800.182	15831.07
800.513	15852.54
800.844	15609.15
801.175	15768.92
801.506	15697.96
801.837	15615.71
802.168	15498.19
802.499	15539.32
802.83	15363.06
803.161	15347.46
803.491	15330.06
803.822	15325.09
804.153	15286
804.483	15116.28
804.814	15053.01
805.145	15168.03
805.475	15010.98
805.805	14969.17
806.136	14957.87
806.466	14986.57
806.796	14954.71
807.126	14818.21
807.457	14831.32
807.787	14759.91
808.117	14692.34
808.447	14677.65
808.777	14703.19
809.107	14640.14
809.436	14494.83
809.766	14569.41
810.096	14484.89
810.426	14334.61
810.755	14445.57
811.085	14372.35
811.414	14348.39
811.744	14264.33
812.073	14204.22
812.403	14303.2
812.732	14079.93
813.061	14093.26
813.39	14021.62
813.719	14040.15
814.049	14089.42
814.378	14082.64
814.707	13908.41
815.036	14011.23
815.365	13842.87
815.693	13766.26
816.022	13780.5
816.351	13749.31
816.68	13722.65
817.008	13776.21
817.337	13611.92
817.665	13578.92
817.994	13635.19
818.322	13552.48
818.651	13515.65
818.979	13486.5
819.307	13456.67
819.636	13444.01
819.964	13353.17
820.292	13363.34
820.62	13448.08
820.948	13299.38
821.276	13426.16
821.604	13267.74
821.932	13379.61
822.259	13292.6
822.587	13305.03
822.915	13222.32
823.243	13302.32
823.57	13287.18
823.898	13280.17
824.225	13272.04
824.553	13237.46
824.88	13271.36
825.207	13297.57
825.535	13232.27
825.862	13215.77
826.189	13197.24
826.516	13248.31
826.843	13284.24
827.17	13289.89
827.497	13324.47
827.824	13315.65
828.151	13314.75
828.478	13169.22
828.805	13280.85
829.131	13235.88
829.458	13166.28
829.785	13201.98
830.111	13162.44
830.438	13201.53
830.764	13193.4
831.09	13233.85
831.417	13123.12
831.743	13158.37
832.069	13172.15
832.395	13056
832.722	13113.4
833.048	13106.84
833.374	13067.98
833.7	13065.04
834.026	13124.7
834.351	13161.98
834.677	13056.9
835.003	13013.51
835.329	13135.32
835.654	13074.53
835.98	12893.52
836.306	13089.9
836.631	12910.01
836.956	12976.9
837.282	13052.38
837.607	12929.67
837.932	12904.36
838.258	12906.62
838.583	12843.12
838.908	12807.87
839.233	12811.94
839.558	12759.51
839.883	12713.41
840.208	12714.76
840.533	12686.29
840.858	12725.84
841.182	12681.77
841.507	12738.04
841.832	12572.62
842.156	12597.48
842.481	12555.9
842.805	12483.58
843.13	12492.4
843.454	12496.92
843.778	12447.88
844.103	12409.24
844.427	12344.83
844.751	12340.09
845.075	12304.83
845.399	12240.2
845.723	12239.3
846.047	12279.52
846.371	12179.64
846.695	12104.39
847.019	12018.51
847.343	12012.18
847.666	11940.77
847.99	11889.02
848.313	11912.3
848.637	11734
848.96	11804.28
849.284	11759.76
849.607	11656.04
849.931	11709.82
850.254	11593.44
850.577	11532.42
850.9	11439.09
851.223	11445.87
851.546	11375.14
851.869	11337.63
852.192	11379.43
852.515	11290.17
852.838	11177.4
853.161	11186.9
853.483	11109.16
853.806	11026.67
854.129	11127.01
854.451	11094.47
854.774	10973.12
855.096	10837.75
855.419	10916.17
855.741	10887.02
856.063	10796.62
856.385	10771.76
856.708	10812.44
857.03	10717.75
857.352	10718.21
857.674	10691.31
857.996	10677.53
858.318	10571.54
858.64	10552.34
858.961	10556.18
859.283	10473.69
859.605	10446.58
859.926	10456.74
860.248	10444.77
860.57	10345.56
860.891	10412.9
861.212	10331.1
861.534	10406.58
861.855	10368.16
862.176	10324.09
862.498	10313.47
862.819	10323.87
863.14	10247.71
863.461	10194.15
863.782	10221.04
864.103	10189.63
864.424	10135.4
864.745	10111.67
865.065	10147.37
865.386	10105.57
865.707	10092.46
866.027	10168.84
866.348	10058.56
866.668	10047.49
866.989	10008.62
867.309	9953.93
867.63	9982.63
867.95	9941.28
868.27	9901.73
868.59	9931.79
868.91	9905.12
869.23	9869.19
869.55	9853.14
869.87	9857.21
870.19	9764.56
870.51	9795.29
870.83	9765.24
871.15	9707.39
871.469	9776.31
871.789	9857.21
872.109	9739.48
872.428	9724.33
872.748	9767.5
873.067	9673.94
873.386	9705.35
873.706	9718.23
874.025	9615.19
874.344	9627.39
874.663	9701.51
874.982	9556.2
875.301	9606.15
875.62	9558.24
875.939	9481.63
876.258	9495.64
876.577	9453.16
876.896	9518.24
877.214	9443.44
877.533	9428.3
877.852	9438.92
878.17	9464.68
878.489	9412.93
878.807	9376.1
879.125	9444.12
879.444	9354.63
879.762	9325.93
880.08	9328.86
880.398	9296.78
880.716	9313.5
881.034	9300.84
881.352	9242.31
881.67	9260.17
881.988	9194.41
882.306	9200.96
882.624	9197.79
882.941	9202.77
883.259	9122.09
883.577	9070.57
883.894	9089.78
884.212	9020.4
884.529	9027.4
884.846	9024.92
885.164	9037.8
885.481	8978.59
885.798	9012.04
886.115	8918.71
886.432	8949.67
886.75	8913.06
887.067	8988.53
887.383	8861.53
887.7	8918.71
888.017	8847.97
888.334	8886.62
888.651	8806.39
888.967	8874.41
889.284	8785.83
889.6	8762.1
889.917	8683.23
890.233	8667.87
890.55	8668.77
890.866	8640.52
891.182	8658.6
891.498	8592.84
891.815	8510.13
892.131	8503.35
892.447	8507.64
892.763	8474.42
893.079	8424.26
893.395	8457.48
893.71	8440.75
894.026	8404.37
894.342	8356.69
894.657	8298.61
894.973	8285.73
895.289	8264.26
895.604	8248.44
895.92	8221.78
896.235	8149.69
896.55	8154.21
896.865	8184.49
897.181	8129.8
897.496	8073.53
897.811	8006.19
898.126	8052.74
898.441	8010.48
898.756	7910.82
899.071	7929.81
899.386	7958.28
899.7	7879.86
900.015	7843.71
900.33	7815.23
900.644	7791.05
900.959	7809.36
901.273	7767.78
901.588	7707.44
901.902	7608.91
902.216	7665.86
902.531	7585.63
902.845	7644.62
903.159	7553.77
903.473	7551.51
903.787	7491.4
904.101	7478.97
904.415	7506.77
904.729	7388.8
905.042	7448.01
905.356	7387.9
905.67	7383.61
905.984	7343.38
906.297	7311.52
906.611	7236.94
906.924	7216.15
907.237	7231.07
907.551	7234.23
907.864	7201.01
908.177	7177.51
908.491	7164.4
908.804	7108.58
909.117	7057.51
909.43	7029.94
909.743	7016.16
910.056	7018.87
910.368	6948.14
910.681	6909.95
910.994	6866.33
911.307	6870.17
911.619	6832.66
911.932	6864.97
912.244	6790.17
912.557	6718.09
912.869	6767.8
913.181	6682.61
913.494	6737.52
913.806	6640.35
914.118	6602.61
914.43	6578.2
914.742	6599.22
915.054	6542.27
915.366	6512.89
915.678	6420.69
915.99	6429.28
916.302	6422.5
916.613	6357.87
916.925	6386.8
917.236	6381.15
917.548	6313.35
917.859	6331.2
918.171	6223.64
918.482	6227.93
918.794	6232.9
919.105	6252.34
919.416	6120.14
919.727	6133.92
920.038	6152
920.349	6085.56
920.66	6069.29
920.971	6018.22
921.282	6107.48
921.593	5968.5
921.903	5964.66
922.214	5943.42
922.525	5948.61
922.835	5903.87
923.146	5841.05
923.456	5883.98
923.767	5802.63
924.077	5786.59
924.387	5770.77
924.697	5765.57
925.008	5795.62
925.318	5686.47
925.628	5668.17
925.938	5658.23
926.248	5630.66
926.558	5592.01
926.867	5591.56
927.177	5539.81
927.487	5524.67
927.796	5457.33
928.106	5453.03
928.416	5512.47
928.725	5483.77
929.034	5364.68
929.344	5446.48
929.653	5428.63
929.962	5335.07
930.271	5342.53
930.581	5350.21
930.89	5294.85
931.199	5310.67
931.508	5250.33
931.817	5183.89
932.125	5245.58
932.434	5186.37
932.743	5109.31
933.051	5131.24
933.36	5128.98
933.669	5104.12
933.977	5052.82
934.286	5022.54
934.594	5017.11
934.902	5023.89
935.21	5011.69
935.519	4947.74
935.827	4959.49
936.135	4892.37
936.443	4875.65
936.751	4832.49
937.059	4838.59
937.367	4827.97
937.674	4869.77
937.982	4761.08
938.29	4754.07
938.597	4795.42
938.905	4682.66
939.213	4720.85
939.52	4739.61
939.827	4701.64
940.135	4659.16
940.442	4578.03
940.749	4597.92
941.056	4594.3
941.363	4551.36
941.67	4513.62
941.977	4509.1
942.284	4493.06
942.591	4480.4
942.898	4487.41
943.205	4428.88
943.511	4376.23
943.818	4410.58
944.125	4360.63
944.431	4408.99
944.738	4333.97
945.044	4362.89
945.35	4322.67
945.657	4296.45
945.963	4286.96
946.269	4270.24
946.575	4287.19
946.881	4213.29
947.187	4221.43
947.493	4226.4
947.799	4136.91
948.105	4180.98
948.41	4168.55
948.716	4122.45
949.022	4099.17
949.327	4098.49
949.633	4027.31
949.938	4053.07
950.244	4013.52
950.549	4067.08
950.854	3990.25
951.16	4011.72
951.465	3985.5
951.77	3971.72
952.075	3889.91
952.38	3944.15
952.685	3886.3
952.99	3851.49
953.294	3873.87
953.599	3881.32
953.904	3816.24
954.209	3787.54
954.513	3781.44
954.818	3806.52
955.122	3793.19
955.426	3711.84
955.731	3729.92
956.035	3744.83
956.339	3702.57
956.643	3659.86
956.948	3654.44
957.252	3714.55
957.556	3687.88
957.86	3651.27
958.163	3599.52
958.467	3599.3
958.771	3581.9
959.075	3588.68
959.378	3549.13
959.682	3542.35
959.985	3517.27
960.289	3492.63
960.592	3478.62
960.896	3519.75
961.199	3462.8
961.502	3458.06
961.805	3433.2
962.108	3440.21
962.411	3397.95
962.714	3412.64
963.017	3382.58
963.32	3372.41
963.623	3382.81
963.926	3327.89
964.228	3306.88
964.531	3344.39
964.833	3265.07
965.136	3271.17
965.438	3223.04
965.741	3264.84
966.043	3204.73
966.345	3187.78
966.648	3236.37
966.95	3202.47
967.252	3122.47
967.554	3185.07
967.856	3141
968.158	3119.08
968.46	3135.36
968.761	3088.13
969.063	3123.83
969.365	3081.12
969.666	3109.59
969.968	3052.19
970.269	3020.33
970.571	3035.7
970.872	3009.93
971.174	2986.88
971.475	2992.31
971.776	2943.5
972.077	3003.38
972.378	2962.25
972.679	2950.73
972.98	2925.42
973.281	2938.07
973.582	2914.12
973.883	2898.53
974.183	2875.48
974.484	2860.79
974.785	2837.51
975.085	2849.04
975.386	2831.41
975.686	2790.51
975.986	2809.26
976.287	2814.01
976.587	2729.94
976.887	2744.41
977.187	2803.61
977.487	2759.32
977.787	2747.34
978.087	2692.2
978.387	2715.25
978.687	2695.59
978.987	2677.51
979.286	2653.33
979.586	2667.12
979.885	2648.14
980.185	2621.24
980.484	2620.57
980.784	2606.56
981.083	2626.67
981.382	2596.39
981.682	2588.93
981.981	2572.43
982.28	2533.56
982.579	2540.79
982.878	2584.86
983.177	2553
983.475	2532.89
983.774	2484.3
984.073	2496.05
984.372	2472.77
984.67	2485.43
984.969	2459.67
985.267	2418.09
985.566	2464.64
985.864	2418.31
986.162	2425.09
986.461	2411.53
986.759	2409.27
987.057	2362.27
987.355	2348.26
987.653	2357.75
987.951	2333.12
988.249	2345.55
988.547	2330.18
988.844	2319.78
989.142	2312.33
989.44	2283.4
989.737	2258.32
990.035	2273.91
990.332	2280.69
990.63	2239.33
990.927	2263.29
991.224	2239.11
991.521	2216.06
991.819	2224.42
992.116	2209.05
992.413	2194.82
992.71	2195.27
993.006	2194.36
993.303	2210.41
993.6	2152.1
993.897	2182.84
994.193	2151.2
994.49	2129.28
994.787	2110.52
995.083	2092.44
995.379	2087.25
995.676	2090.86
995.972	2078.66
996.268	2070.3
996.565	2037.31
996.861	2060.36
997.157	2059.45
997.453	2008.61
997.749	2010.19
998.044	2026.23
998.34	1998.89
998.636	2010.87
998.932	1986.23
999.227	1990.53
999.523	1980.13
999.818	1958.44
1000.114	1930.87
1000.409	1939
1000.704	1925.67
1001	1909.17
1001.295	1891.32
1001.59	1906.69
1001.885	1864.2
1002.18	1876.18
1002.475	1859
1002.77	1858.1
1003.065	1838.21
1003.359	1830.98
1003.654	1801.83
1003.949	1791.66
1004.243	1806.35
1004.538	1775.84
1004.832	1768.61
1005.127	1799.8
1005.421	1756.41
1005.715	1767.26
1006.009	1727.26
1006.304	1731.1
1006.598	1749.4
1006.892	1716.41
1007.186	1717.09
1007.48	1702.85
1007.773	1694.49
1008.067	1678.9
1008.361	1678.22
1008.655	1690.87
1008.948	1663.3
1009.242	1636.64
1009.535	1663.53
1009.829	1622.4
1010.122	1596.86
1010.415	1632.8
1010.708	1601.84
1011.001	1574.27
1011.295	1557.77
1011.588	1590.54
1011.881	1561.39
1012.173	1546.02
1012.466	1572.01
1012.759	1525.23
1013.052	1513.25
1013.344	1508.51
1013.637	1522.52
1013.93	1502.63
1014.222	1506.47
1014.514	1504.66
1014.807	1475.29
1015.099	1475.06
1015.391	1473.93
1015.683	1443.87
1015.976	1426.02
1016.268	1420.6
1016.56	1424.44
1016.851	1409.07
1017.143	1429.64
1017.435	1387.38
1017.727	1389.64
1018.018	1396.87
1018.31	1395.74
1018.602	1375.18
1018.893	1352.58
1019.185	1361.16
1019.476	1368.17
1019.767	1343.31
1020.058	1320.04
1020.35	1326.59
1020.641	1302.18
1020.932	1272.35
1021.223	1271.9
1021.514	1308.06
1021.804	1267.16
1022.095	1287.27
1022.386	1289.53
1022.677	1252.24
1022.967	1262.64
1023.258	1247.04
1023.548	1226.93
1023.839	1217.44
1024.129	1218.34
1024.419	1228.51
1024.709	1187.84
1025	1188.51
1025.29	1210.21
1025.58	1202.3
1025.87	1172.92
1026.16	1146.26
1026.449	1165.92
1026.739	1169.98
1027.029	1147.39
1027.319	1112.36
1027.608	1126.59
1027.898	1119.82
1028.187	1145.35
1028.477	1099.48
1028.766	1107.61
1029.055	1093.6
1029.344	1082.53
1029.634	1063.77
1029.923	1066.48
1030.212	1073.71
1030.501	1063.09
1030.79	1059.03
1031.078	1054.05
1031.367	1041.63
1031.656	1024.68
1031.945	1024
1032.233	1018.8
1032.522	1027.39
1032.81	1010.21
1033.099	1009.76
1033.387	1007.05
1033.675	977.22
1033.963	961.18
1034.251	1000.95
1034.54	993.26
1034.828	960.72
1035.116	969.76
1035.403	940.16
1035.691	936.54
1035.979	962.53
1036.267	934.06
1036.554	938.8
1036.842	953.27
1037.129	926.15
1037.417	922.08
1037.704	922.98
1037.992	916.43
1038.279	882.76
1038.566	892.25
1038.853	892.25
1039.14	892.25
