Data from hue_40_FLMS001491_47.txt Node
Date: Mon Feb 06 15:07:58 GMT 2017
User: dcchb
Spectrometer: FLMS00149
Trigger mode: 0
Integration Time (sec): 2.000000E-2
Scans to average: 10
Electric dark correction enabled: true
Nonlinearity correction enabled: false
Boxcar width: 0
XAxis mode: Wavelengths
Number of Pixels in Spectrum: 2048
>>>>>Begin Spectral Data<<<<<
341.393	-9.19
341.776	-9.19
342.16	-9.19
342.543	-43.77
342.927	-60.72
343.31	-55.75
343.693	-67.5
344.077	-69.31
344.46	-47.16
344.843	-61.17
345.226	-42.87
345.61	-29.99
345.993	-30.44
346.376	-4.22
346.759	-11.45
347.142	28.77
347.525	42.1
347.908	49.56
348.291	73.52
348.674	99.05
349.057	126.85
349.44	113.74
349.823	152.61
350.206	169.11
350.588	197.58
350.971	219.95
351.354	233.06
351.737	258.59
352.119	242.55
352.502	278.93
352.884	283
353.267	298.82
353.65	289.55
354.032	287.07
354.414	294.75
354.797	313.96
355.179	341.76
355.562	319.16
355.944	317.58
356.326	344.02
356.709	347.63
357.091	329.55
357.473	334.53
357.855	328.2
358.238	303.57
358.62	353.73
359.002	356.45
359.384	355.32
359.766	343.34
360.148	339.95
360.53	340.85
360.912	332.04
361.294	335.88
361.676	318.03
362.057	343.34
362.439	334.53
362.821	331.36
363.203	336.33
363.584	331.36
363.966	315.54
364.348	338.59
364.729	343.11
365.111	325.94
365.493	325.71
365.874	316.9
366.256	308.76
366.637	328.42
367.019	299.05
367.4	316.22
367.781	294.07
368.163	301.98
368.544	313.51
368.925	316.45
369.306	330.91
369.688	287.97
370.069	321.19
370.45	327.29
370.831	311.47
371.212	299.5
371.593	316.22
371.974	314.64
372.355	309.22
372.736	336.33
373.117	334.07
373.498	312.38
373.879	321.64
374.26	326.39
374.641	315.54
375.021	327.29
375.402	332.49
375.783	309.89
376.163	320.06
376.544	325.71
376.925	303.34
377.305	340.63
377.686	323.68
378.066	329.78
378.447	313.51
378.827	335.43
379.208	321.42
379.588	331.36
379.968	332.49
380.349	313.73
380.729	308.99
381.109	323.45
381.489	339.04
381.87	335.43
382.25	309.44
382.63	337.24
383.01	370.23
383.39	335.66
383.77	331.59
384.15	339.27
384.53	358.93
384.91	335.43
385.29	346.95
385.67	354.64
386.049	355.99
386.429	332.49
386.809	346.73
387.189	350.8
387.568	368.2
387.948	349.21
388.328	365.94
388.707	375.2
389.087	357.35
389.466	366.16
389.846	360.74
390.225	378.14
390.605	359.84
390.984	350.34
391.363	351.25
391.743	374.3
392.122	352.38
392.501	357.35
392.881	381.76
393.26	361.87
393.639	366.61
394.018	358.25
394.397	385.82
394.776	409.55
395.155	375.43
395.534	365.03
395.913	384.24
396.292	391.25
396.671	384.02
397.05	385.82
397.429	390.57
397.808	377.24
398.186	391.47
398.565	365.26
398.944	385.15
399.323	392.38
399.701	403
400.08	408.2
400.458	405.71
400.837	421.98
401.215	401.19
401.594	375.65
401.972	394.41
402.351	406.84
402.729	400.06
403.107	407.74
403.486	371.13
403.864	404.13
404.242	422.66
404.62	419.49
404.999	418.14
405.377	403.45
405.755	422.43
406.133	414.07
406.511	410.23
406.889	419.04
407.267	426.95
407.645	415.43
408.023	435.99
408.401	438.03
408.779	428.76
409.156	426.27
409.534	428.76
409.912	435.09
410.29	436.22
410.667	428.31
411.045	436.22
411.422	444.13
411.8	444.8
412.178	457.46
412.555	449.78
412.933	479.61
413.31	445.71
413.687	475.31
414.065	464.01
414.442	452.04
414.819	479.61
415.197	472.6
415.574	495.65
415.951	489.32
416.328	509.66
416.705	506.95
417.082	511.02
417.46	497.46
417.837	505.14
418.214	507.63
418.591	490.45
418.967	495.42
419.344	512.37
419.721	516.89
420.098	516.44
420.475	509.44
420.852	535.88
421.228	528.42
421.605	508.08
421.982	526.38
422.358	522.77
422.735	512.15
423.111	526.38
423.488	522.09
423.864	544.46
424.241	558.47
424.617	558.25
424.994	568.19
425.37	533.84
425.746	555.99
426.123	572.71
426.499	552.6
426.875	570.68
427.251	574.74
427.627	579.26
428.003	600.51
428.379	587.85
428.756	584.24
429.132	595.76
429.507	591.47
429.883	611.13
430.259	612.48
430.635	602.77
431.011	604.35
431.387	635.08
431.763	625.36
432.138	615.87
432.514	640.05
432.89	624.69
433.265	635.76
433.641	659.71
434.016	633.73
434.392	676.21
434.767	656.1
435.143	686.83
435.518	679.15
435.894	668.53
436.269	682.54
436.644	694.29
437.02	715.08
437.395	709.43
437.77	701.97
438.145	734.74
438.52	707.4
438.895	690.67
439.271	677.57
439.646	741.75
440.021	715.08
440.395	717.57
440.77	737.23
441.145	762.31
441.52	765.25
441.895	765.02
442.27	764.8
442.645	765.47
443.019	757.56
443.394	765.47
443.769	761.41
444.143	789.88
444.518	753.72
444.892	757.79
445.267	759.82
445.641	774.97
446.016	784.23
446.39	808.86
446.764	801.63
447.139	781.07
447.513	814.74
447.887	798.69
448.262	815.87
448.636	798.47
449.01	835.3
449.384	834.62
449.758	819.71
450.132	842.31
450.506	833.72
450.88	849.09
451.254	849.54
451.628	861.29
452.002	874.62
452.376	863.55
452.75	900.84
453.123	876.43
453.497	887.5
453.871	910.78
454.244	941.29
454.618	938.13
454.992	927.96
455.365	941.51
455.739	937
456.112	971.57
456.486	998.01
456.859	963.66
457.232	971.34
457.606	992.81
457.979	1002.98
458.352	1007.73
458.725	1039.14
459.099	1048.63
459.472	1039.59
459.845	1060.83
460.218	1052.47
460.591	1068.97
460.964	1102.19
461.337	1092.02
461.71	1106.93
462.083	1133.15
462.456	1108.52
462.829	1150.77
463.201	1175.63
463.574	1172.7
463.947	1174.05
464.32	1224.22
464.692	1234.84
465.065	1219.93
465.438	1256.31
465.81	1282.07
466.183	1275.97
466.555	1295.63
466.928	1313.71
467.3	1309.87
467.672	1315.52
468.045	1344.22
468.417	1372.92
468.789	1379.47
469.161	1420.82
469.534	1440.71
469.906	1484.78
470.278	1469.64
470.65	1485.46
471.022	1527.71
471.394	1562.52
471.766	1579.69
472.138	1590.76
472.51	1641.84
472.882	1683.87
473.253	1693.36
473.625	1726.13
473.997	1769.29
474.369	1788.95
474.74	1820.59
475.112	1887.48
475.484	1930.87
475.855	1941.71
476.227	1974.93
476.598	2028.27
476.97	2044.54
477.341	2130.41
477.713	2188.94
478.084	2198.88
478.455	2290.63
478.827	2301.48
479.198	2404.98
479.569	2414.24
479.94	2536.73
480.311	2505.09
480.682	2637.52
481.053	2705.31
481.424	2818.08
481.795	2856.27
482.166	2904.4
482.537	2962.93
482.908	3085.19
483.279	3130.16
483.65	3192.76
484.021	3318.4
484.391	3391.85
484.762	3437.49
485.133	3539.19
485.503	3607.21
485.874	3728.56
486.244	3862.34
486.615	3936.46
486.985	4003.58
487.356	4120.19
487.726	4219.39
488.097	4341.43
488.467	4401.99
488.837	4504.81
489.207	4632.27
489.578	4707.07
489.948	4823.45
490.318	4906.38
490.688	4973.27
491.058	5109.31
491.428	5225.02
491.798	5348.86
492.168	5503.2
492.538	5571
492.908	5690.54
493.278	5772.35
493.648	5898.9
494.017	5991.33
494.387	6100.7
494.757	6159.23
495.126	6359.9
495.496	6410.52
495.866	6507.02
496.235	6620.69
496.605	6753.11
496.974	6820.91
497.344	6959.66
497.713	7056.16
498.082	7122.14
498.452	7190.16
498.821	7357.62
499.19	7352.87
499.559	7588.12
499.928	7615.24
500.298	7699.98
500.667	7847.77
501.036	7872.41
501.405	7996.02
501.774	8032.18
502.143	8099.97
502.512	8222.45
502.88	8348.33
503.249	8328.21
503.618	8437.59
503.987	8516.23
504.356	8629.45
504.724	8664.7
505.093	8777.01
505.462	8809.33
505.83	8974.98
506.199	9003
506.567	9202.54
506.936	9222.88
507.304	9338.36
507.672	9415.64
508.041	9494.96
508.409	9541.51
508.777	9646.6
509.145	9713.71
509.514	9696.09
509.882	9798.68
510.25	9881.62
510.618	10021.05
510.986	10070.09
511.354	10167.03
511.722	10313.47
512.09	10313.7
512.458	10330.42
512.826	10440.25
513.193	10527.25
513.561	10632.56
513.929	10708.72
514.297	10831.42
514.664	10849.5
515.032	10876.39
515.4	10983.74
515.767	10969.05
516.135	11076.39
516.502	11066.67
516.869	11227.35
517.237	11329.49
517.604	11319.55
517.972	11451.75
518.339	11483.84
518.706	11512.08
519.073	11629.37
519.44	11671.4
519.808	11888.12
520.175	11831.62
520.542	11971.06
520.909	12083.14
521.276	12053.31
521.643	12229.13
522.009	12237.04
522.376	12298.96
522.743	12433.64
523.11	12423.25
523.477	12598.61
523.843	12708.66
524.21	12856
524.577	12911.14
524.943	12948.2
525.31	13011.25
525.676	13168.31
526.043	13274.52
526.409	13225.71
526.776	13433.84
527.142	13442.88
527.508	13553.61
527.874	13700.95
528.241	13764.91
528.607	13799.93
528.973	13884.23
529.339	13895.07
529.705	14034.96
530.071	14140.49
530.437	14142.3
530.803	14226.36
531.169	14298
531.535	14283.08
531.901	14415.28
532.267	14526.92
532.632	14536.86
532.998	14640.59
533.364	14760.13
533.73	14744.99
534.095	14798.33
534.461	14915.61
534.826	15039.45
535.192	15029.96
535.557	15144.31
535.923	15238.54
536.288	15216.62
536.653	15297.3
537.019	15372.55
537.384	15383.17
537.749	15504.3
538.114	15592.88
538.479	15576.61
538.845	15631.98
539.21	15740
539.575	15673.56
539.94	15791.75
540.305	15907.22
540.67	15947.9
541.034	15962.36
541.399	16120.32
541.764	16159.42
542.129	16230.6
542.494	16195.35
542.858	16263.82
543.223	16307.21
543.587	16406.87
543.952	16429.24
544.316	16438.06
544.681	16502.46
545.045	16553.99
545.41	16709.46
545.774	16821.32
546.138	16832.85
546.503	16873.75
546.867	16851.38
547.231	17075.55
547.595	17014.54
547.959	17121.65
548.324	17110.58
548.688	17200.52
549.052	17315.1
549.416	17324.13
549.779	17313.06
550.143	17442.55
550.507	17554.41
550.871	17622.66
551.235	17564.13
551.599	17617.69
551.962	17818.36
552.326	17740.85
552.689	17877.79
553.053	17811.13
553.417	17990.78
553.78	18214.51
554.143	18050.67
554.507	18234.85
554.87	18263.77
555.234	18379.25
555.597	18290.44
555.96	18383.77
556.323	18471.68
556.686	18426.48
557.05	18620.15
557.413	18668.73
557.776	18666.25
558.139	18848.84
558.502	18834.15
558.865	18919.8
559.228	19016.97
559.59	19110.53
559.953	19146.23
560.316	19381.26
560.679	19322.73
561.041	19387.58
561.404	19481.59
561.767	19639.33
562.129	19534.02
562.492	19796.16
562.854	19734.69
563.217	19765.88
563.579	19812.43
563.941	19913.45
564.304	20106.89
564.666	20116.15
565.028	20300.1
565.39	20237.28
565.753	20356.82
566.115	20493.54
566.477	20616.93
566.839	20566.76
567.201	20788.22
567.563	20613.09
567.925	20773.31
568.287	20838.39
568.648	20875.23
569.01	21113.64
569.372	21242.45
569.734	21119.74
570.095	21249.68
570.457	21408.77
570.819	21538.04
571.18	21516.79
571.542	21616.68
571.903	21681.99
572.265	21806.28
572.626	21855.77
572.987	21936.44
573.349	22025.48
573.71	22195.42
574.071	22296.43
574.432	22410.33
574.794	22482.42
575.155	22569.87
575.516	22469.76
575.877	22669.76
576.238	22695.52
576.599	22932.8
576.96	23018.22
577.32	23019.13
577.681	23309.29
578.042	23343.64
578.403	23474.71
578.763	23662.95
579.124	23648.26
579.485	23950.63
579.845	24027.24
580.206	24122.15
580.566	24061.81
580.927	24293.67
581.287	24700.44
581.648	24534.79
582.008	24812.3
582.368	24877.38
582.728	25083.25
583.089	25197.6
583.449	25358.73
583.809	25529.12
584.169	25823.57
584.529	25848.2
584.889	26172.94
585.249	26094.75
585.609	26181.98
585.969	26633.04
586.329	26779.93
586.688	27042.3
587.048	26958.91
587.408	27102.63
587.768	27268.96
588.127	27556.18
588.487	27734.93
588.846	28175.83
589.206	28191.19
589.565	28253.11
589.925	28597.96
590.284	28794.12
590.643	28977.61
591.003	29266.42
591.362	29408.56
591.721	29576.02
592.08	29729.01
592.44	30057.13
592.799	30166.28
593.158	30366.73
593.517	30472.72
593.876	30616.67
594.235	30875.19
594.593	31068.41
594.952	31334.84
595.311	31369.64
595.67	31674.49
596.029	31960.59
596.387	32133.46
596.746	32321.71
597.104	32327.36
597.463	32550.85
597.822	32782.49
598.18	32830.85
598.538	33109.26
598.897	33324.84
599.255	33204.4
599.613	33707.21
599.972	33871.04
600.33	34064.71
600.688	34119.85
601.046	34234.65
601.404	34541.76
601.762	34506.96
602.12	34885.93
602.478	34952.82
602.836	34933.84
603.194	35115.53
603.552	35317.56
603.91	35353.49
604.268	35598.68
604.625	35734.72
604.983	35998.9
605.341	35817.21
605.698	36162.96
606.056	36340.36
606.413	36430.07
606.771	36525.66
607.128	36716.62
607.485	36689.73
607.843	36916.39
608.2	37120.22
608.557	37384.85
608.914	37224.18
609.272	37663.94
609.629	37795.01
609.986	37810.6
610.343	37823.48
610.7	38205.39
611.057	38159.52
611.414	38299.63
611.771	38392.06
612.127	38608.32
612.484	38625.04
612.841	38819.84
613.198	38659.62
613.554	38842.67
613.911	39089.89
614.267	39179.61
614.624	39280.62
614.98	39213.73
615.337	39523.78
615.693	39556.77
616.05	39526.26
616.406	39806.48
616.762	39687.61
617.118	39824.56
617.475	39725.35
617.831	39852.36
618.187	40116.08
618.543	40176.19
618.899	40446.92
619.255	40488.27
619.611	40514.71
619.967	40632.67
620.323	40783.18
620.678	40647.82
621.034	40702.05
621.39	40674.48
621.746	40548.38
622.101	41078.09
622.457	40730.75
622.812	40980.24
623.168	41100.68
623.523	41142.94
623.879	41298.19
624.234	41136.39
624.589	41367.8
624.945	41316.95
625.3	41383.16
625.655	41387.23
626.01	41354.92
626.365	41429.72
626.72	41276.95
627.075	41434.69
627.43	41340
627.785	41323.28
628.14	41569.37
628.495	41515.14
628.85	41491.64
629.205	41464.07
629.559	41709.71
629.914	41562.82
630.269	41564.85
630.623	41500.22
630.978	41339.1
631.332	41671.29
631.687	41824.28
632.041	41567.79
632.396	41684.17
632.75	41609.15
633.104	41640.11
633.459	41630.61
633.813	41499.54
634.167	41536.15
634.521	41485.08
634.875	41590.62
635.229	41412.99
635.583	41361.47
635.937	41395.14
636.291	41418.87
636.645	41427.46
636.999	41262.71
637.352	41437.85
637.706	41224.52
638.06	41373.9
638.413	41295.93
638.767	41184.07
639.121	41236.27
639.474	41035.83
639.828	41117.18
640.181	41056.84
640.534	41264.52
640.888	41092.32
641.241	40959.67
641.594	41037.41
641.947	41199.44
642.301	40972.1
642.654	41027.47
643.007	40950.63
643.36	41002.16
643.713	40955.6
644.066	41149.72
644.419	40998.31
644.771	40590.64
645.124	40319.46
645.477	40197.43
645.83	39922.64
646.182	39930.32
646.535	39721.74
646.888	39925.12
647.24	39605.13
647.593	39712.02
647.945	39670.89
648.298	39550.67
648.65	39539.37
649.002	39464.34
649.355	39599.71
649.707	39497.34
650.059	39744.34
650.411	40235.85
650.763	40163.31
651.115	40576.86
651.467	40302.29
651.819	40361.72
652.171	40213.02
652.523	40242.4
652.875	40163.53
653.227	39994.95
653.578	40337.09
653.93	40083.08
654.282	40122.63
654.633	39886.25
654.985	40110.43
655.337	40110.88
655.688	40112.24
656.039	40123.99
656.391	39798.8
656.742	39965.12
657.094	39892.58
657.445	40028.4
657.796	39879.93
658.147	39956.31
658.498	39905.69
658.849	40131.9
659.2	39931.68
659.551	39919.92
659.902	40015.29
660.253	39828.4
660.604	39952.69
660.955	39650.78
661.306	39885.8
661.656	39771.68
662.007	39837.44
662.358	39762.87
662.708	39707.73
663.059	39840.38
663.409	39442.2
663.76	39909.08
664.11	39772.81
664.461	39686.94
664.811	39825.92
665.161	39838.12
665.511	39656.66
665.862	39717.44
666.212	39912.02
666.562	39761.51
666.912	39682.87
667.262	39615.98
667.612	39560.16
667.962	39581.63
668.312	39522.42
668.662	39616.43
669.011	39610.78
669.361	39476.77
669.711	39517.68
670.06	39389.32
670.41	39362.43
670.76	39375.53
671.109	39640.38
671.459	39531.91
671.808	39372.37
672.157	39460.5
672.507	39276.33
672.856	39304.12
673.205	39337.34
673.554	39361.3
673.904	39357
674.253	39515.42
674.602	39218.7
674.951	38918.37
675.3	38612.61
675.649	39167.85
675.998	39259.15
676.346	39122.88
676.695	39294.63
677.044	38912.95
677.393	39138.25
677.741	39232.94
678.09	39075.65
678.438	38967.86
678.787	39123.79
679.135	38957.69
679.484	38854.19
679.832	38867.75
680.181	38728.77
680.529	38900.74
680.877	38834.98
681.225	38722.67
681.573	38898.48
681.922	38577.59
682.27	38498.27
682.618	38490.13
682.966	38463.47
683.314	38587.3
683.661	38447.87
684.009	38281.1
684.357	38150.71
684.705	38159.97
685.053	38278.39
685.4	38111.84
685.748	37966.98
686.095	38025.29
686.443	37860.54
686.79	37765.86
687.138	37794.11
687.485	37726.31
687.832	37610.61
688.18	37849.02
688.527	37511.63
688.874	37505.75
689.221	37465.75
689.568	37338.07
689.915	37243.16
690.262	37279.77
690.609	37078.19
690.956	37034.13
691.303	36905.99
691.65	36819.67
691.997	36945.99
692.344	36430.3
692.69	36608.37
693.037	36597.53
693.383	36181.72
693.73	36422.16
694.077	36284.31
694.423	36184.43
694.769	36208.16
695.116	35990.08
695.462	35934.72
695.808	35876.42
696.155	35908.73
696.501	35815.63
696.847	35631.22
697.193	35439.14
697.539	35579.25
697.885	35342.64
698.231	35145.36
698.577	35227.84
698.923	35180.16
699.269	35017
699.614	34734.07
699.96	34610.46
700.306	34840.06
700.651	34513.97
700.997	34479.16
701.342	34551.93
701.688	34493.17
702.033	34270.36
702.379	34385.83
702.724	34115.33
703.069	34291.37
703.415	33827.88
703.76	33695
704.105	33788.79
704.45	33689.81
704.795	33505.18
705.14	33439.19
705.485	33420.43
705.83	33292.3
706.175	33337.73
706.52	33129.82
706.865	33027.9
707.209	33055.7
707.554	33000.11
707.899	33048.47
708.243	32779.32
708.588	32844.18
708.932	32609.16
709.277	32675.37
709.621	32570.97
709.966	32513.79
710.31	32411.87
710.654	32303.18
710.998	32446.45
711.342	32246.91
711.687	32162.39
712.031	32082.62
712.375	31993.81
712.719	31891.44
713.063	31852.34
713.407	32034.93
713.75	31766.24
714.094	31754.26
714.438	31511.56
714.782	31626.36
715.125	31407.61
715.469	31518.11
715.812	31390.21
716.156	31276.08
716.499	31296.87
716.843	31181.17
717.186	31053.49
717.53	31187.95
717.873	31166.71
718.216	31171.45
718.559	31011.23
718.902	30766.27
719.246	30862.76
719.589	30807.4
719.932	30680.85
720.275	30653.05
720.617	30637.23
720.96	30604.01
721.303	30488.31
721.646	30485.14
721.989	30271.82
722.331	30458.7
722.674	30256.45
723.016	30341.65
723.359	30266.17
723.701	30166.06
724.044	29976.01
724.386	29845.84
724.729	29998.6
725.071	29966.29
725.413	29961.77
725.755	29962.67
726.097	29863.69
726.439	29657.14
726.782	29712.74
727.124	29816.69
727.465	29659.86
727.807	29481.33
728.149	29485.62
728.491	29457.38
728.833	29538.05
729.175	29422.8
729.516	29308.68
729.858	29376.25
730.199	29452.86
730.541	29304.84
730.882	29179.87
731.224	29250.83
731.565	29080.89
731.906	29075.01
732.248	29063.04
732.589	28935.58
732.93	28849.26
733.271	28708.24
733.612	28932.19
733.953	28785.75
734.294	28642.93
734.635	28551.18
734.976	28687.68
735.317	28601.35
735.658	28478.19
735.999	28432.32
736.339	28458.76
736.68	28555.25
737.021	28383.05
737.361	28318.42
737.702	28376.05
738.042	28281.13
738.383	28308.25
738.723	28274.58
739.063	28173.57
739.404	28192.78
739.744	27990.52
740.084	28074.59
740.424	27913.23
740.764	27951.43
741.104	28007.24
741.444	27835.04
741.784	27877.53
742.124	27996.62
742.464	27920.24
742.804	27743.52
743.143	27681.38
743.483	27781.04
743.823	27502.4
744.162	27525.9
744.502	27437.99
744.841	27434.6
745.181	27548.5
745.52	27307.6
745.86	27502.4
746.199	27313.02
746.538	27241.84
746.877	27393.47
747.216	27238
747.556	27373.81
747.895	27109.64
748.234	27016.99
748.573	27041.62
748.911	26933.15
749.25	26930.66
749.589	27035.97
749.928	26904.9
750.267	26939.25
750.605	26805.02
750.944	26738.8
751.283	26627.85
751.621	26663.32
751.96	26482.54
752.298	26514.18
752.636	26397.12
752.975	26363.45
753.313	26345.59
753.651	26447.74
753.989	26214.75
754.327	26109.67
754.666	26134.07
755.004	26087.52
755.342	26120.06
755.679	26049.1
756.017	25922.1
756.355	26055.2
756.693	25819.05
757.031	25930.01
757.368	25693.63
757.706	25685.72
758.044	25631.49
758.381	25528.21
758.719	25499.97
759.056	25542.22
759.394	25435.33
759.731	25284.15
760.068	25287.99
760.405	25089.81
760.743	25052.97
761.08	25048.45
761.417	24878.06
761.754	24915.57
762.091	24841.9
762.428	24799.64
762.765	24582.02
763.102	24688.24
763.438	24509.71
763.775	24490.05
764.112	24356.04
764.449	24481.46
764.785	24243.5
765.122	24130.06
765.458	24092.77
765.795	24095.71
766.131	24034.24
766.467	24029.95
766.804	23699.56
767.14	23714.93
767.476	23683.29
767.812	23567.59
768.148	23624.08
768.485	23393.35
768.821	23258.89
769.157	23295.28
769.492	23167.37
769.828	23144.09
770.164	22992.01
770.5	23003.76
770.836	22977.77
771.171	22773.48
771.507	22747.04
771.842	22566.48
772.178	22565.13
772.513	22562.64
772.849	22521.96
773.184	22383.21
773.519	22331.23
773.855	22324
774.19	22214.85
774.525	22027.74
774.86	22083.56
775.195	22044.69
775.53	21845.82
775.865	21684.25
776.2	21558.37
776.535	21539.17
776.87	21571.03
777.205	21400.19
777.539	21242.45
777.874	21336.01
778.209	21107.76
778.543	21085.39
778.878	20955
779.212	20928.33
779.547	20875.45
779.881	20887.21
780.215	20704.38
780.55	20748.23
780.884	20643.6
781.218	20539.19
781.552	20568.34
781.886	20407.9
782.22	20276.6
782.554	20219.88
782.888	20023.27
783.222	19989.38
783.556	19879.77
783.889	19935.59
784.223	19715.94
784.557	19821.47
784.89	19642.72
785.224	19665.99
785.557	19464.87
785.891	19416.28
786.224	19455.38
786.558	19429.62
786.891	19192.56
787.224	19226.68
787.557	19149.17
787.891	19078.21
788.224	19054.03
788.557	19005.45
788.89	18985.33
789.223	18909.18
789.556	18803.64
789.888	18671.22
790.221	18578.57
790.554	18517.32
790.887	18548.96
791.219	18421.28
791.552	18284.34
791.884	18366.14
792.217	18254.05
792.549	18195.52
792.882	18042.99
793.214	18008.18
793.546	18006.83
793.879	17869.88
794.211	17779.49
794.543	17845.48
794.875	17844.35
795.207	17799.83
795.539	17618.59
795.871	17719.83
796.203	17555.99
796.535	17455.66
796.867	17427.18
797.198	17330.69
797.53	17371.59
797.862	17260.41
798.193	17209.79
798.525	17034.2
798.856	17114.42
799.188	16963.92
799.519	16899.97
799.85	16863.58
800.182	16843.02
800.513	16844.37
800.844	16667.43
801.175	16798.72
801.506	16640.54
801.837	16617.49
802.168	16483.48
802.499	16499.07
802.83	16453.42
803.161	16345.63
803.491	16367.78
803.822	16418.85
804.153	16186.99
804.483	16191.96
804.814	16072.42
805.145	16010.5
805.475	15995.81
805.805	16003.94
806.136	16017.73
806.466	16010.05
806.796	15849.15
807.126	15770.96
807.457	15713.33
807.787	15802.59
808.117	15654.8
808.447	15580.23
808.777	15698.19
809.107	15573.22
809.436	15504.07
809.766	15543.16
810.096	15460.46
810.426	15390.4
810.755	15505.88
811.085	15284.87
811.414	15427.01
811.744	15127.81
812.073	15206.22
812.403	15196.28
812.732	14966.91
813.061	15093.23
813.39	14997.64
813.719	14912.9
814.049	15061.6
814.378	14882.39
814.707	14860.92
815.036	14865.22
815.365	14820.47
815.693	14647.14
816.022	14664.54
816.351	14604.21
816.68	14491.22
817.008	14586.81
817.337	14462.74
817.665	14384.55
817.994	14431.1
818.322	14372.35
818.651	14392.91
818.979	14329.86
819.307	14419.58
819.636	14307.27
819.964	14260.03
820.292	14229.75
820.62	14259.36
820.948	14196.53
821.276	14179.58
821.604	14201.28
821.932	14097.33
822.259	14184.33
822.587	14126.7
822.915	14083.32
823.243	14145.69
823.57	14072.69
823.898	14050.32
824.225	14138.91
824.553	14105.46
824.88	14128.51
825.207	14116.54
825.535	14106.82
825.862	14151.79
826.189	14076.08
826.516	14227.72
826.843	14175.74
827.17	14141.85
827.497	14203.99
827.824	14177.32
828.151	14159.92
828.478	14091
828.805	14124.22
829.131	14131.9
829.458	14126.03
829.785	14024.56
830.111	14007.84
830.438	14197.44
830.764	14047.38
831.09	14155.63
831.417	13951.79
831.743	14033.83
832.069	14078.8
832.395	13975.97
832.722	13950.44
833.048	14004
833.374	14001.28
833.7	13942.53
834.026	13904.34
834.351	13973.26
834.677	13836.32
835.003	13973.26
835.329	13946.37
835.654	13930.1
835.98	13824.57
836.306	13879.93
836.631	13819.59
836.956	13794.28
837.282	13764.91
837.607	13679.71
837.932	13630.67
838.258	13728.98
838.583	13671.35
838.908	13589.77
839.233	13617.79
839.558	13637
839.883	13608.53
840.208	13462.54
840.533	13502.99
840.858	13516.78
841.182	13439.94
841.507	13472.26
841.832	13371.47
842.156	13366.72
842.481	13431.81
842.805	13386.61
843.13	13275.65
843.454	13339.83
843.778	13274.52
844.103	13235.43
844.427	13146.17
844.751	13204.47
845.075	13179.84
845.399	13132.61
845.723	13114.53
846.047	13110.91
846.371	12972.84
846.695	12979.62
847.019	12771.94
847.343	12838.38
847.666	12742.11
847.99	12684.48
848.313	12732.39
848.637	12582.79
848.96	12596.12
849.284	12515.9
849.607	12366.53
849.931	12375.11
850.254	12275.68
850.577	12271.61
850.9	12127.66
851.223	12133.08
851.546	12072.3
851.869	12041.79
852.192	12084.27
852.515	11957.27
852.838	11888.57
853.161	11913.66
853.483	11835.47
853.806	11795.69
854.129	11809.03
854.451	11698.52
854.774	11665.53
855.096	11626.66
855.419	11671.85
855.741	11553.44
856.063	11561.12
856.385	11522.48
856.708	11488.81
857.03	11462.37
857.352	11478.86
857.674	11380.11
857.996	11339.66
858.318	11332.88
858.64	11307.34
858.961	11203.84
859.283	11203.39
859.605	11138.53
859.926	11211.53
860.248	11144.41
860.57	11158.42
860.891	11136.73
861.212	10984.87
861.534	10987.35
861.855	10999.56
862.176	11061.7
862.498	10956.62
862.819	10973.34
863.14	10934.02
863.461	10859.22
863.782	10841.37
864.103	10856.51
864.424	10756.62
864.745	10841.14
865.065	10767.47
865.386	10692.67
865.707	10747.81
866.027	10707.81
866.348	10652.67
866.668	10625.1
866.989	10625.78
867.309	10573.58
867.63	10621.71
867.95	10566.35
868.27	10568.83
868.59	10516.18
868.91	10504.88
869.23	10546.23
869.55	10438.67
869.87	10553.01
870.19	10483.64
870.51	10449.29
870.83	10499.23
871.15	10301.49
871.469	10390.76
871.789	10428.95
872.109	10364.09
872.428	10311.44
872.748	10446.12
873.067	10287.26
873.386	10320.03
873.706	10343.08
874.025	10168.16
874.344	10269.18
874.663	10295.17
874.982	10198.45
875.301	10160.48
875.62	10195.73
875.939	10127.26
876.258	10150.31
876.577	10024.89
876.896	10068.73
877.214	10070.54
877.533	10044.33
877.852	10120.48
878.17	10041.39
878.489	10067.38
878.807	10048.85
879.125	9966.14
879.444	9879.81
879.762	9912.13
880.08	9909.87
880.398	9874.61
880.716	9868.29
881.034	9832.81
881.352	9807.04
881.67	9750.32
881.988	9819.47
882.306	9771.79
882.624	9772.47
882.941	9743.77
883.259	9642.53
883.577	9708.29
883.894	9635.3
884.212	9580.16
884.529	9599.82
884.846	9600.5
885.164	9609.54
885.481	9524.79
885.798	9577.9
886.115	9419.26
886.432	9465.13
886.75	9481.63
887.067	9426.04
887.383	9401.63
887.7	9415.87
888.017	9354.17
888.334	9379.03
888.651	9313.27
888.967	9309.43
889.284	9259.94
889.6	9226.95
889.917	9212.71
890.233	9204.8
890.55	9154.18
890.866	9171.35
891.182	9071.02
891.498	9090
891.815	9046.16
892.131	9077.8
892.447	9024.01
892.763	8987.4
893.079	8980.17
893.395	8893.85
893.71	8865.83
894.026	8905.6
894.342	8803.68
894.657	8803.68
894.973	8803.91
895.289	8774.98
895.604	8818.37
895.92	8708.09
896.235	8663.12
896.55	8663.35
896.865	8677.81
897.181	8631.71
897.496	8630.8
897.811	8510.81
898.126	8480.3
898.441	8492.05
898.756	8523.24
899.071	8415.22
899.386	8425.61
899.7	8323.92
900.015	8328.44
900.33	8297.71
900.644	8323.92
900.959	8224.94
901.273	8250.02
901.588	8251.83
901.902	8182.45
902.216	8091.38
902.531	8146.98
902.845	8073.53
903.159	8047.09
903.473	8010.71
903.787	8020.2
904.101	7914.21
904.415	7915.79
904.729	7951.27
905.042	7833.54
905.356	7809.58
905.67	7832.86
905.984	7790.6
906.297	7692.52
906.611	7743.6
906.924	7735.91
907.237	7639.19
907.551	7665.86
907.864	7587.67
908.177	7614.56
908.491	7519.65
908.804	7555.13
909.117	7462.02
909.43	7432.64
909.743	7367.11
910.056	7424.96
910.368	7362.81
910.681	7325.53
910.994	7355.81
911.307	7274.46
911.619	7230.39
911.932	7200.11
912.244	7151.97
912.557	7115.82
912.869	7111.75
913.181	7101.35
913.494	7107.45
913.806	7024.97
914.118	6977.06
914.43	6924.18
914.742	7005.08
915.054	6915.37
915.366	6880.12
915.678	6883.51
915.99	6823.17
916.302	6820
916.613	6763.73
916.925	6721.7
917.236	6763.51
917.548	6681.48
917.859	6667.47
918.171	6627.47
918.482	6671.76
918.794	6598.54
919.105	6590.63
919.416	6550.18
919.727	6534.36
920.038	6493.91
920.349	6477.41
920.66	6438.32
920.971	6383.18
921.282	6364.88
921.593	6366.46
921.903	6314.25
922.214	6256.4
922.525	6274.26
922.835	6246.69
923.146	6171.21
923.456	6223.18
923.767	6134.82
924.077	6153.13
924.387	6155.39
924.697	6093.02
925.008	6084.88
925.318	6034.49
925.628	6018.22
925.938	5964.43
926.248	5979.57
926.558	6001.72
926.867	5852.12
927.177	5843.08
927.487	5850.09
927.796	5794.72
928.106	5797.43
928.416	5787.94
928.725	5782.74
929.034	5745
929.344	5684.44
929.653	5643.54
929.962	5632.24
930.271	5644.22
930.581	5668.4
930.89	5579.13
931.199	5536.2
931.508	5540.94
931.817	5571
932.125	5506.14
932.434	5500.26
932.743	5425.69
933.051	5432.92
933.36	5399.48
933.669	5345.69
933.977	5329.2
934.286	5378.23
934.594	5284.9
934.902	5264.56
935.21	5295.52
935.519	5279.25
935.827	5236.09
936.135	5251.91
936.443	5170.56
936.751	5188.86
937.059	5110.44
937.367	5114.96
937.674	5092.59
937.982	5075.64
938.29	5047.62
938.597	5030.45
938.905	4949.77
939.213	5009.66
939.52	4984.12
939.827	4934.18
940.135	4897.12
940.442	4890.34
940.749	4888.76
941.056	4840.17
941.363	4844.46
941.67	4785.48
941.977	4801.75
942.284	4738.25
942.591	4766.95
942.898	4743.67
943.205	4674.52
943.511	4677.24
943.818	4682.89
944.125	4641.3
944.431	4643.11
944.738	4644.02
945.044	4550.91
945.35	4524.47
945.657	4567.41
945.963	4563.11
946.269	4528.54
946.575	4503.23
946.881	4488.54
947.187	4461.65
947.493	4442.67
947.799	4408.99
948.105	4398.83
948.41	4328.77
948.716	4422.55
949.022	4338.94
949.327	4297.36
949.633	4271.82
949.938	4280.18
950.244	4271.82
950.549	4267.76
950.854	4236.57
951.16	4190.02
951.465	4157.25
951.77	4183.46
952.075	4156.12
952.38	4091.04
952.685	4102.56
952.99	4077.7
953.294	4044.26
953.599	4061.88
953.904	4037.93
954.209	4009
954.513	3991.83
954.818	3980.53
955.122	3994.09
955.426	4007.2
955.731	3988.89
956.035	3908.44
956.339	3923.81
956.643	3913.64
956.948	3868.67
957.252	3831.83
957.556	3861.89
957.86	3867.99
958.163	3842
958.467	3767.43
958.771	3775.34
959.075	3780.08
959.378	3723.81
959.682	3754.77
959.985	3731.27
960.289	3703.48
960.592	3716.58
960.896	3641.56
961.199	3660.54
961.502	3607.66
961.805	3635.68
962.108	3584.61
962.411	3592.97
962.714	3556.81
963.017	3570.82
963.32	3555.46
963.623	3541.67
963.926	3509.81
964.228	3495.8
964.531	3506.65
964.833	3471.39
965.136	3409.7
965.438	3461.22
965.741	3409.7
966.043	3437.04
966.345	3381
966.648	3427.78
966.95	3388
967.252	3322.24
967.554	3318.18
967.856	3301.23
968.158	3298.97
968.46	3274.56
968.761	3235.69
969.063	3232.3
969.365	3244.96
969.666	3258.52
969.968	3203.15
970.269	3227.78
970.571	3188.24
970.872	3177.84
971.174	3133.32
971.475	3165.19
971.776	3175.35
972.077	3128.35
972.378	3119.31
972.679	3126.09
972.98	3107.56
973.281	3060.33
973.582	3058.75
973.883	3011.06
974.183	3019.88
974.484	3039.09
974.785	2966.55
975.085	3004.96
975.386	2979.88
975.686	2934.46
975.986	2950.73
976.287	2925.42
976.587	2882.93
976.887	2899.43
977.187	2897.4
977.487	2878.19
977.787	2861.92
978.087	2851.97
978.387	2845.87
978.687	2858.75
978.987	2824.63
979.286	2784.18
979.586	2822.14
979.885	2764.07
980.185	2752.99
980.484	2739.21
980.784	2756.83
981.083	2713.45
981.382	2725.2
981.682	2724.97
981.981	2703.28
982.28	2701.02
982.579	2668.48
982.878	2664.63
983.177	2684.75
983.475	2645.65
983.774	2611.53
984.073	2597.29
984.372	2564.97
984.67	2588.25
984.969	2572.43
985.267	2592.09
985.566	2606.33
985.864	2534.02
986.162	2530.17
986.461	2550.96
986.759	2496.73
987.057	2495.6
987.355	2515.71
987.653	2455.83
987.951	2465.99
988.249	2506.45
988.547	2449.05
988.844	2419.67
989.142	2411.76
989.44	2368.14
989.737	2380.57
990.035	2399.33
990.332	2399.78
990.63	2358.65
990.927	2357.3
991.224	2350.07
991.521	2345.32
991.819	2335.83
992.116	2311.42
992.413	2323.63
992.71	2291.08
993.006	2270.52
993.303	2247.02
993.6	2270.52
993.897	2242.27
994.193	2232.55
994.49	2262.84
994.787	2217.64
995.083	2218.77
995.379	2214.02
995.676	2176.06
995.972	2186.23
996.268	2144.42
996.565	2178.77
996.861	2156.85
997.157	2144.42
997.453	2127.92
997.749	2118.43
998.044	2096.96
998.34	2071.65
998.636	2099.22
998.932	2080.47
999.227	2031.66
999.523	2073.46
999.818	2060.36
1000.114	2010.19
1000.409	2027.36
1000.704	1989.17
1001	1986.46
1001.295	1989.4
1001.59	1978.55
1001.885	1968.38
1002.18	1953.92
1002.475	1946.69
1002.77	1937.19
1003.065	1944.43
1003.359	1878.44
1003.654	1877.54
1003.949	1912.56
1004.243	1867.59
1004.538	1873.92
1004.832	1867.82
1005.127	1826.69
1005.421	1832.56
1005.715	1812.23
1006.009	1843.19
1006.304	1817.2
1006.598	1804.09
1006.892	1787.14
1007.186	1781.49
1007.48	1801.38
1007.773	1755.05
1008.067	1729.06
1008.361	1709.86
1008.655	1745.79
1008.948	1704.66
1009.242	1729.29
1009.535	1698.11
1009.829	1692.68
1010.122	1713.02
1010.415	1675.28
1010.708	1641.16
1011.001	1651.55
1011.295	1650.65
1011.588	1613.81
1011.881	1641.84
1012.173	1630.31
1012.466	1639.58
1012.759	1623.08
1013.052	1589.63
1013.344	1579.69
1013.637	1577.88
1013.93	1567.49
1014.222	1555.74
1014.514	1547.6
1014.807	1535.17
1015.099	1517.54
1015.391	1553.48
1015.683	1524.55
1015.976	1503.08
1016.268	1538.79
1016.56	1480.26
1016.851	1460.6
1017.143	1489.3
1017.435	1459.02
1017.727	1441.16
1018.018	1447.04
1018.31	1413.59
1018.602	1435.06
1018.893	1406.59
1019.185	1403.65
1019.476	1395.74
1019.767	1413.59
1020.058	1388.51
1020.35	1361.39
1020.641	1373.14
1020.932	1352.8
1021.223	1374.72
1021.514	1311
1021.804	1341.05
1022.095	1317.78
1022.386	1328.4
1022.677	1314.16
1022.967	1301.73
1023.258	1280.94
1023.548	1271.68
1023.839	1278.68
1024.129	1249.3
1024.419	1264.9
1024.709	1236.87
1025	1254.05
1025.29	1238.23
1025.58	1239.81
1025.87	1214.95
1026.16	1202.98
1026.449	1180.83
1026.739	1199.59
1027.029	1188.06
1027.319	1198.23
1027.608	1155.52
1027.898	1170.44
1028.187	1148.51
1028.477	1124.11
1028.766	1149.19
1029.055	1133.83
1029.344	1121.62
1029.634	1123.66
1029.923	1096.99
1030.212	1092.92
1030.501	1102.41
1030.79	1104.22
1031.078	1071.45
1031.367	1065.58
1031.656	1063.55
1031.945	1058.8
1032.233	1044.79
1032.522	1066.71
1032.81	1056.99
1033.099	1039.59
1033.387	1029.65
1033.675	1003.21
1033.963	1025.35
1034.251	1021.06
1034.54	1026.94
1034.828	1000.04
1035.116	994.39
1035.403	980.61
1035.691	985.13
1035.979	995.52
1036.267	949.88
1036.554	948.97
1036.842	941.51
1037.129	970.89
1037.417	925.02
1037.704	951.23
1037.992	937.9
1038.279	927.5
1038.566	932.02
1038.853	932.02
1039.14	932.02
