Data from hue_250_FLMS001491_00037.txt Node
Date: Tue Feb 07 16:00:54 GMT 2017
User: dcchb
Spectrometer: FLMS00149
Trigger mode: 0
Integration Time (sec): 2.000000E-2
Scans to average: 10
Electric dark correction enabled: true
Nonlinearity correction enabled: false
Boxcar width: 0
XAxis mode: Wavelengths
Number of Pixels in Spectrum: 2048
>>>>>Begin Spectral Data<<<<<
341.393	-26.47
341.776	-26.47
342.16	-26.47
342.543	-51.1
342.927	-73.47
343.31	-65.11
343.693	-71.89
344.077	-74.6
344.46	-51.33
344.843	-46.81
345.226	-38.67
345.61	-17.43
345.993	-25.34
346.376	-10.88
346.759	25.51
347.142	22.12
347.525	40.2
347.908	46.75
348.291	59.86
348.674	87.88
349.057	119.74
349.44	106.18
349.823	139.86
350.206	164.26
350.588	169.23
350.971	180.31
351.354	208.55
351.737	268.44
352.119	232.96
352.502	260.76
352.884	259.4
353.267	274.31
353.65	285.16
354.032	303.92
354.414	294.2
354.797	323.58
355.179	312.05
355.562	325.61
355.944	308.89
356.326	312.05
356.709	345.73
357.091	333.97
357.473	321.32
357.855	329.45
358.238	320.64
358.62	337.59
359.002	332.17
359.384	332.17
359.766	316.57
360.148	326.29
360.53	343.92
360.912	315.44
361.294	327.42
361.676	331.71
362.057	316.57
362.439	328.1
362.821	308.89
363.203	324.26
363.584	319.29
363.966	302.34
364.348	323.13
364.729	304.37
365.111	318.61
365.493	289.23
365.874	288.33
366.256	282.68
366.637	304.14
367.019	310.7
367.4	314.77
367.781	302.34
368.163	316.8
368.544	307.08
368.925	291.72
369.306	303.24
369.688	294.65
370.069	312.96
370.45	290.59
370.831	297.82
371.212	296.01
371.593	311.15
371.974	297.82
372.355	318.16
372.736	290.13
373.117	295.33
373.498	324.71
373.879	304.37
374.26	312.73
374.641	301.43
375.021	309.34
375.402	324.48
375.783	303.01
376.163	323.35
376.544	305.5
376.925	310.25
377.305	309.57
377.686	322.9
378.066	319.96
378.447	312.96
378.827	302.11
379.208	316.57
379.588	304.14
379.968	332.62
380.349	310.25
380.729	287.65
381.109	333.07
381.489	334.88
381.87	318.16
382.25	337.14
382.63	317.7
383.01	330.81
383.39	343.69
383.77	337.36
384.15	345.27
384.53	331.49
384.91	343.24
385.29	341.88
385.67	338.04
386.049	337.59
386.429	369.23
386.809	352.05
387.189	341.43
387.568	338.04
387.948	337.14
388.328	349.79
388.707	353.18
389.087	339.4
389.466	336.46
389.846	348.89
390.225	341.66
390.605	364.48
390.984	367.19
391.363	372.62
391.743	346.63
392.122	380.53
392.501	363.58
392.881	378.94
393.26	368.55
393.639	386.4
394.018	366.52
394.397	355.67
394.776	368.32
395.155	368.1
395.534	365.16
395.913	381.66
396.292	384.37
396.671	377.81
397.05	385.95
397.429	374.88
397.808	373.3
398.186	401.32
398.565	378.04
398.944	398.38
399.323	406.29
399.701	395.44
400.08	402.67
400.458	406.29
400.837	406.06
401.215	420.75
401.594	416.23
401.972	400.41
402.351	421.2
402.729	405.84
403.107	422.33
403.486	424.82
403.864	424.59
404.242	423.46
404.62	436.34
404.999	425.05
405.377	444.25
405.755	443.58
406.133	455.33
406.511	444.03
406.889	448.55
407.267	464.59
407.645	449.9
408.023	454.2
408.401	500.3
408.779	460.75
409.156	471.37
409.534	495.55
409.912	500.98
410.29	473.18
410.667	491.94
411.045	518.15
411.422	507.08
411.8	511.37
412.178	516.57
412.555	524.7
412.933	532.39
413.31	545.72
413.687	524.03
414.065	562.44
414.442	549.79
414.819	575.32
415.197	574.65
415.574	590.69
415.951	551.14
416.328	583.01
416.705	580.97
417.082	599.5
417.46	627.53
417.837	623.23
418.214	619.39
418.591	613.06
418.967	624.36
419.344	666.39
419.721	645.15
420.098	655.1
420.475	675.21
420.852	648.77
421.228	672.04
421.605	675.21
421.982	689.22
422.358	707.3
422.735	705.26
423.111	714.53
423.488	739.16
423.864	722.66
424.241	762.44
424.617	757.01
424.994	744.81
425.37	787.07
425.746	783.23
426.123	765.15
426.499	794.3
426.875	809.22
427.251	811.25
427.627	804.7
428.003	848.09
428.379	840.4
428.756	855.99
429.132	868.42
429.507	866.84
429.883	875.65
430.259	898.03
430.635	919.5
431.011	898.48
431.387	924.02
431.763	935.54
432.138	944.58
432.514	954.75
432.89	946.84
433.265	993.17
433.641	1028.65
434.016	1001.3
434.392	1041.98
434.767	1067.74
435.143	1038.14
435.518	1084.46
435.894	1090.79
436.269	1109.77
436.644	1075.2
437.02	1146.16
437.395	1136.89
437.77	1151.13
438.145	1177.34
438.52	1191.8
438.895	1234.74
439.271	1236.1
439.646	1247.85
440.021	1256.44
440.395	1291.92
440.77	1282.42
441.145	1294.18
441.52	1291.24
441.895	1322.42
442.27	1334.17
442.645	1328.52
443.019	1359.03
443.394	1343.21
443.769	1369.65
444.143	1382.76
444.518	1406.49
444.892	1408.3
445.267	1408.3
445.641	1433.38
446.016	1402.65
446.39	1403.55
446.764	1449.88
447.139	1447.84
447.513	1441.97
447.887	1474.96
448.262	1485.36
448.636	1497.33
449.01	1500.05
449.384	1507.73
449.758	1567.84
450.132	1564.68
450.506	1578.69
450.88	1585.47
451.254	1555.86
451.628	1596.09
452.002	1595.18
452.376	1609.87
452.75	1634.96
453.123	1658.23
453.497	1660.04
453.871	1688.97
454.244	1701.17
454.618	1696.65
454.992	1742.3
455.365	1722.19
455.739	1775.52
456.112	1771.22
456.486	1821.17
456.859	1793.37
457.232	1835.86
457.606	1854.84
457.979	1840.15
458.352	1894.39
458.725	1926.47
459.099	1935.51
459.472	1965.57
459.845	1947.94
460.218	1975.06
460.591	2035.17
460.964	2029.07
461.337	2049.64
461.71	2056.64
462.083	2106.58
462.456	2128.96
462.829	2125.34
463.201	2150.65
463.574	2155.85
463.947	2171.21
464.32	2238.33
464.692	2227.94
465.065	2264.32
465.438	2283.08
465.81	2313.13
466.183	2343.41
466.555	2367.37
466.928	2408.04
467.3	2388.38
467.672	2432.9
468.045	2490.75
468.417	2482.62
468.789	2523.97
469.161	2549.51
469.534	2566.01
469.906	2605.55
470.278	2619.56
470.65	2645.78
471.022	2688.04
471.394	2736.17
471.766	2750.18
472.138	2777.75
472.51	2829.5
472.882	2883.06
473.253	2929.84
473.625	2938.43
473.997	2996.05
474.369	3020.68
474.74	3031.3
475.112	3078.53
475.484	3126.67
475.855	3176.61
476.227	3185.65
476.598	3279.89
476.97	3317.85
477.341	3360.56
477.713	3401.01
478.084	3443.95
478.455	3519.2
478.827	3551.97
479.198	3613.89
479.569	3562.14
479.94	3679.65
480.311	3723.72
480.682	3786.99
481.053	3878.06
481.424	3887.33
481.795	3972.07
482.166	4008.23
482.537	4059.3
482.908	4106.53
483.279	4152.18
483.65	4188.79
484.021	4264.72
484.391	4311.95
484.762	4342.23
485.133	4386.3
485.503	4440.31
485.874	4505.39
486.244	4560.08
486.615	4646.4
486.985	4734.08
487.356	4697.93
487.726	4789.68
488.097	4861.76
488.467	4891.37
488.837	4928.66
489.207	4990.8
489.578	5076.22
489.948	5126.62
490.318	5150.34
490.688	5132.04
491.058	5221.53
491.428	5321.41
491.798	5308.76
492.168	5467.62
492.538	5445.25
492.908	5488.64
493.278	5569.77
493.648	5520.96
494.017	5648.41
494.387	5690.67
494.757	5662.42
495.126	5732.02
495.496	5741.52
495.866	5786.26
496.235	5805.47
496.605	5846.37
496.974	5893.6
497.344	5943.77
497.713	5959.82
498.082	6022.64
498.452	6054.73
498.821	6044.56
499.19	6121.17
499.559	6113.26
499.928	6155.52
500.298	6238.45
500.667	6280.26
501.036	6201.62
501.405	6284.33
501.774	6222.63
502.143	6297.66
502.512	6351.9
502.88	6357.09
503.249	6418.11
503.618	6379.01
503.987	6447.49
504.356	6418.79
504.724	6493.59
505.093	6506.92
505.462	6544.66
505.83	6556.41
506.199	6567.48
506.567	6652.45
506.936	6644.32
507.304	6704.2
507.672	6762.28
508.041	6764.99
508.409	6743.75
508.777	6757.76
509.145	6875.95
509.514	6854.93
509.882	6837.76
510.25	6873.01
510.618	6878.43
510.986	6874.82
511.354	6939
511.722	7014.7
512.09	7026.91
512.458	7003.63
512.826	6993.23
513.193	7076.4
513.561	7062.84
513.929	7062.61
514.297	7137.19
514.664	7183.06
515.032	7134.25
515.4	7158.65
515.767	7234.81
516.135	7230.29
516.502	7213.34
516.869	7294.02
517.237	7257.63
517.604	7135.38
517.972	7320.68
518.339	7362.49
518.706	7273.68
519.073	7275.94
519.44	7254.7
519.808	7420.79
520.175	7399.55
520.542	7408.36
520.909	7438.42
521.276	7431.19
521.643	7482.94
522.009	7471.41
522.376	7518.42
522.743	7571.98
523.11	7603.84
523.477	7654.01
523.843	7676.15
524.21	7677.06
524.577	7657.4
524.943	7754.12
525.31	7716.83
525.676	7821.24
526.043	7833.21
526.409	7789.82
526.776	7867.56
527.142	7815.13
527.508	7880.89
527.874	7827.56
528.241	7862.36
528.607	7877.05
528.973	7960.67
529.339	7929.93
529.705	7982.36
530.071	7977.39
530.437	8042.47
530.803	8016.26
531.169	8005.86
531.535	7994.56
531.901	7933.77
532.267	8034.79
532.632	8091.06
532.998	8033.21
533.364	8084.96
533.73	8072.08
534.095	8073.66
534.461	8070.72
534.826	8077.95
535.192	8062.36
535.557	8043.6
535.923	8059.87
536.288	8114.56
536.653	8033.21
537.019	8027.33
537.384	8062.58
537.749	8091.74
538.114	8042.47
538.479	8076.82
538.845	8027.11
539.21	7958.41
539.575	8061
539.94	8044.96
540.305	8046.99
540.67	7973.1
541.034	8032.53
541.399	8025.75
541.764	8093.09
542.129	8090.15
542.494	8065.75
542.858	8045.64
543.223	7992.76
543.587	8053.77
543.952	8015.81
544.316	7997.95
544.681	7995.02
545.045	8066.88
545.41	8031.62
545.774	7999.31
546.138	7997.95
546.503	8012.87
546.867	7981.91
547.231	8042.47
547.595	8008.57
547.959	7976.71
548.324	7990.04
548.688	7980.78
549.052	7992.98
549.416	7955.24
549.779	7926.99
550.143	7924.74
550.507	7936.49
550.871	8016.26
551.235	7940.55
551.599	7994.34
551.962	7993.66
552.326	7973.55
552.689	7988.69
553.053	7949.82
553.417	7900.33
553.78	7963.15
554.143	7979.42
554.507	7913.89
554.87	7906.2
555.234	8036.37
555.597	7955.47
555.96	7929.71
556.323	8023.04
556.686	7931.97
557.05	7972.87
557.413	8052.87
557.776	8052.42
558.139	8011.74
558.502	8014.68
558.865	8031.4
559.228	8073.66
559.59	8056.03
559.953	8083.15
560.316	8142.36
560.679	8065.3
561.041	8085.41
561.404	8182.58
561.767	8224.39
562.129	8148.01
562.492	8201.56
562.854	8183.03
563.217	8206.99
563.579	8200.66
563.941	8257.16
564.304	8251.05
564.666	8287.89
565.028	8388
565.39	8325.85
565.753	8310.71
566.115	8348
566.477	8414.67
566.839	8409.24
567.201	8402.69
567.563	8433.65
567.925	8425.06
568.287	8403.14
568.648	8441.78
569.01	8547.77
569.372	8525.17
569.734	8549.13
570.095	8574.66
570.457	8583.02
570.819	8679.07
571.18	8577.37
571.542	8693.75
571.903	8642.68
572.265	8692.17
572.626	8663.92
572.987	8685.85
573.349	8746.86
573.71	8794.32
574.071	8776.24
574.432	8772.17
574.794	8850.13
575.155	8818.95
575.516	8865.95
575.877	8875.9
576.238	8925.16
576.599	8923.8
576.96	8915.9
577.32	8931.49
577.681	8961.54
578.042	8969.23
578.403	8963.13
578.763	9028.89
579.124	9005.61
579.485	8993.41
579.845	9041.09
580.206	9097.81
580.566	9084.7
580.927	9089.45
581.287	9137.13
581.648	9133.29
582.008	9200.41
582.368	9132.16
582.728	9172.16
583.089	9237.69
583.449	9226.85
583.809	9196.34
584.169	9320.18
584.529	9199.5
584.889	9248.99
585.249	9217.13
585.609	9211.93
585.969	9299.84
586.329	9243.34
586.688	9254.64
587.048	9336.22
587.408	9343.68
587.768	9328.77
588.127	9244.25
588.487	9346.39
588.846	9387.97
589.206	9314.3
589.565	9378.26
589.925	9444.24
590.284	9359.5
590.643	9370.8
591.003	9417.58
591.362	9491.25
591.721	9473.17
592.08	9440.18
592.44	9489.89
592.799	9503
593.158	9494.64
593.517	9553.17
593.876	9448.76
594.235	9527.63
594.593	9510.68
594.952	9559.49
595.311	9448.08
595.67	9481.08
596.029	9600.17
596.387	9577.35
596.746	9594.52
597.104	9537.57
597.463	9496.67
597.822	9548.2
598.18	9529.89
598.538	9533.73
598.897	9605.37
599.255	9604.69
599.613	9680.62
599.972	9607.18
600.33	9645.14
600.688	9571.02
601.046	9724.01
601.404	9721.52
601.762	9659.15
602.12	9697.57
602.478	9697.57
602.836	9668.19
603.194	9635.65
603.552	9692.82
603.91	9663.22
604.268	9714.29
604.625	9668.19
604.983	9665.25
605.341	9611.47
605.698	9699.6
606.056	9684.91
606.413	9679.04
606.771	9684.69
607.128	9710.45
607.485	9719.26
607.843	9772.6
608.2	9743.9
608.557	9788.19
608.914	9720.39
609.272	9834.97
609.629	9815.08
609.986	9896.66
610.343	9855.76
610.7	9893.27
611.057	9830.9
611.414	9847.85
611.771	9828.64
612.127	9913.16
612.484	9888.07
612.841	9918.36
613.198	9898.02
613.554	9911.58
613.911	9974.4
614.267	9912.48
614.624	9914.97
614.98	9944.57
615.337	9928.07
615.693	9945.02
616.05	9950.22
616.406	10041.74
616.762	9973.49
617.118	9897.56
617.475	9984.79
617.831	10031.12
618.187	10046.49
618.543	10004.91
618.899	10096.43
619.255	10065.7
619.611	10043.78
619.967	10051.46
620.323	10077.67
620.678	10014.17
621.034	10020.5
621.39	10065.02
621.746	9958.35
622.101	10182.08
622.457	10067.05
622.812	10064.57
623.168	10089.2
623.523	10036.32
623.879	10117.67
624.234	10100.05
624.589	10051.91
624.945	10062.53
625.3	10060.95
625.655	10048.97
626.01	10044.91
626.365	10042.65
626.72	10004.68
627.075	10022.31
627.43	10039.26
627.785	10008.75
628.14	10012.82
628.495	10079.71
628.85	10100.5
629.205	10060.05
629.559	10031.35
629.914	10012.82
630.269	10017.34
630.623	9890.56
630.978	9960.39
631.332	10014.4
631.687	10005.13
632.041	9945.25
632.396	9964
632.75	9873.84
633.104	9919.26
633.459	9862.31
633.813	9909.09
634.167	9900.73
634.521	9873.84
634.875	9832.26
635.229	9823.44
635.583	9804.23
635.937	9849.43
636.291	9775.53
636.645	9787.96
636.999	9756.55
637.352	9775.31
637.706	9663.67
638.06	9871.8
638.413	9777.34
638.767	9745.03
639.121	9736.66
639.474	9691.92
639.828	9732.15
640.181	9709.09
640.534	9704.12
640.888	9624.13
641.241	9580.06
641.594	9586.39
641.947	9662.77
642.301	9625.93
642.654	9604.46
643.007	9651.02
643.36	9630.68
643.713	9557.01
644.066	9629.78
644.419	9596.78
644.771	9488.54
645.124	9423.45
645.477	9452.6
645.83	9391.59
646.182	9318.14
646.535	9250.58
646.888	9278.6
647.24	9258.26
647.593	9301.42
647.945	9246.51
648.298	9215.77
648.65	9225.72
649.002	9208.32
649.355	9289.67
649.707	9230.01
650.059	9279.73
650.411	9404.24
650.763	9453.51
651.115	9475.43
651.467	9438.14
651.819	9460.29
652.171	9463.9
652.523	9459.16
652.875	9363.79
653.227	9451.7
653.578	9432.04
653.93	9438.14
654.282	9388.88
654.633	9369.89
654.985	9471.81
655.337	9411.25
655.688	9427.29
656.039	9442.66
656.391	9376
656.742	9373.74
657.094	9375.54
657.445	9391.82
657.796	9364.92
658.147	9372.83
658.498	9422.55
658.849	9454.41
659.2	9345.04
659.551	9340.97
659.902	9408.99
660.253	9325.83
660.604	9427.52
660.955	9353.17
661.306	9438.14
661.656	9384.13
662.007	9373.96
662.358	9433.85
662.708	9403.11
663.059	9412.61
663.409	9350.91
663.76	9393.62
664.11	9420.52
664.461	9332.61
664.811	9407.63
665.161	9389.33
665.511	9403.11
665.862	9371.7
666.212	9437.69
666.562	9447.18
666.912	9353.4
667.262	9375.09
667.612	9433.4
667.962	9411.25
668.312	9352.49
668.662	9402.21
669.011	9374.19
669.361	9461.19
669.711	9366.28
670.06	9318.14
670.41	9368.99
670.76	9382.32
671.109	9412.15
671.459	9407.86
671.808	9379.16
672.157	9416.22
672.507	9307.52
672.856	9363.57
673.205	9302.55
673.554	9329.44
673.904	9359.5
674.253	9338.48
674.602	9334.87
674.951	9194.31
675.3	9077.25
675.649	9265.94
675.998	9271.37
676.346	9268.65
676.695	9286.28
677.044	9251.71
677.393	9198.83
677.741	9216.23
678.09	9237.47
678.438	9149.56
678.787	9191.82
679.135	9153.4
679.484	9189.11
679.832	9182.78
680.181	9102.78
680.529	9095.78
680.877	9098.04
681.225	9081.77
681.573	9114.99
681.922	9059.62
682.27	9034.99
682.618	9009.45
682.966	8960.41
683.314	9071.82
683.661	9014.88
684.009	8942.11
684.357	8896.69
684.705	8919.51
685.053	8954.31
685.4	8969
685.748	8891.49
686.095	8873.64
686.443	8808.1
686.79	8811.72
687.138	8853.52
687.485	8815.79
687.832	8809.46
688.18	8759.06
688.527	8720.19
688.874	8706.18
689.221	8649.24
689.568	8656.69
689.915	8662.79
690.262	8590.93
690.609	8604.49
690.956	8628.9
691.303	8590.25
691.65	8479.75
691.997	8469.35
692.344	8419.41
692.69	8450.6
693.037	8382.8
693.383	8317.72
693.73	8381.22
694.077	8382.35
694.423	8258.74
694.769	8289.92
695.116	8329.92
695.462	8216.03
695.808	8220.09
696.155	8291.28
696.501	8163.82
696.847	8146.88
697.193	8122.24
697.539	8127.89
697.885	8017.16
698.231	8003.38
698.577	8013.09
698.923	8025.07
699.269	8006.31
699.614	7938.07
699.96	7885.64
700.306	7927.45
700.651	7839.31
700.997	7785.3
701.342	7833.44
701.688	7857.17
702.033	7719.09
702.379	7793.89
702.724	7723.84
703.069	7760.67
703.415	7663.05
703.76	7636.83
704.105	7654.46
704.45	7662.82
704.795	7590.51
705.14	7488.59
705.485	7507.8
705.83	7479.32
706.175	7532.66
706.52	7424.41
706.865	7403.17
707.209	7422.38
707.554	7399.55
707.899	7383.28
708.243	7332.21
708.588	7370.85
708.932	7287.69
709.277	7285.66
709.621	7335.37
709.966	7237.3
710.31	7222.15
710.654	7172.89
710.998	7199.78
711.342	7159.11
711.687	7172.89
712.031	7151.87
712.375	7126.56
712.719	7098.32
713.063	7103.29
713.407	7114.59
713.75	7065.55
714.094	7088.6
714.438	7015.83
714.782	7052.67
715.125	7016.96
715.469	7016.06
715.812	6967.47
716.156	6942.16
716.499	6956.62
716.843	6960.47
717.186	6906.91
717.53	6939.9
717.873	6995.95
718.216	6932.67
718.559	6882.28
718.902	6839.57
719.246	6857.42
719.589	6819
719.932	6791.88
720.275	6848.83
720.617	6797.53
720.96	6837.76
721.303	6841.83
721.646	6801.15
721.989	6752.79
722.331	6849.06
722.674	6810.64
723.016	6727.03
723.359	6757.76
723.701	6736.07
724.044	6728.38
724.386	6686.35
724.729	6769.29
725.071	6744.43
725.413	6734.71
725.755	6698.78
726.097	6631.21
726.439	6643.19
726.782	6635.73
727.124	6634.15
727.465	6661.94
727.807	6652.68
728.149	6618.55
728.491	6575.17
728.833	6682.28
729.175	6662.17
729.516	6644.09
729.858	6607.93
730.199	6621.04
730.541	6590.31
730.882	6622.4
731.224	6602.06
731.565	6580.82
731.906	6619.68
732.248	6600.48
732.589	6567.48
732.93	6569.52
733.271	6520.7
733.612	6534.94
733.953	6591.89
734.294	6581.49
734.635	6576.97
734.976	6589.18
735.317	6550.76
735.658	6573.81
735.999	6549.18
736.339	6534.94
736.68	6623.98
737.021	6564.77
737.361	6548.95
737.702	6636.41
738.042	6510.76
738.383	6554.15
738.723	6544.21
739.063	6599.8
739.404	6557.77
739.744	6576.07
740.084	6567.93
740.424	6560.93
740.764	6619.91
741.104	6594.83
741.444	6609.06
741.784	6585.11
742.124	6625.11
742.464	6664.88
742.804	6644.99
743.143	6677.99
743.483	6662.4
743.823	6671.66
744.162	6618.78
744.502	6666.01
744.841	6679.8
745.181	6714.82
745.52	6726.57
745.86	6741.04
746.199	6786.91
746.538	6799.57
746.877	6857.87
747.216	6854.48
747.556	6862.62
747.895	6903.52
748.234	6899
748.573	6970.64
748.911	6958.43
749.25	7035.04
749.589	7052.67
749.928	7098.54
750.267	7131.99
750.605	7147.58
750.944	7250.85
751.283	7202.72
751.621	7390.74
751.96	7336.95
752.298	7391.19
752.636	7522.49
752.975	7530.4
753.313	7599.77
753.651	7677.96
753.989	7699.2
754.327	7759.32
754.666	7858.75
755.004	7945.53
755.342	8003.6
755.679	8132.64
756.017	8155.46
756.355	8273.65
756.693	8290.15
757.031	8427.32
757.368	8503.48
757.706	8588.67
758.044	8655.79
758.381	8812.17
758.719	8933.07
759.056	8974.88
759.394	9107.53
759.731	9112.73
760.068	9214.19
760.405	9383
760.743	9367.86
761.08	9622.09
761.417	9631.36
761.754	9787.96
762.091	9872.93
762.428	9872.93
762.765	9953.16
763.102	10152.25
763.438	10227.5
763.775	10322.86
764.112	10435.86
764.449	10534.84
764.785	10603.99
765.122	10625.23
765.458	10765.34
765.795	10911.1
766.131	10956.29
766.467	11065.67
766.804	11138.21
767.14	11187.47
767.476	11292.78
767.812	11316.28
768.148	11367.36
768.485	11452.33
768.821	11517.86
769.157	11599.67
769.492	11729.15
769.828	11688.25
770.164	11707.69
770.5	11870.62
770.836	11855.48
771.171	11961.01
771.507	12007.34
771.842	11929.38
772.178	12034.23
772.513	12094.79
772.849	12212.31
773.184	12140.67
773.519	12194.45
773.855	12269.93
774.19	12293.43
774.525	12246.43
774.86	12385.18
775.195	12410.72
775.53	12463.15
775.865	12409.81
776.2	12394
776.535	12325.3
776.87	12372.53
777.205	12438.74
777.539	12485.29
777.874	12504.73
778.209	12427.44
778.543	12423.15
778.878	12471.06
779.212	12502.69
779.547	12431.51
779.881	12495.91
780.215	12483.03
780.55	12489.59
780.884	12464.73
781.218	12519.42
781.552	12555.8
781.886	12506.54
782.22	12367.78
782.554	12373.88
782.888	12335.47
783.222	12379.31
783.556	12322.13
783.889	12425.18
784.223	12331.85
784.557	12325.3
784.89	12375.92
785.224	12338.63
785.557	12275.13
785.891	12264.96
786.224	12230.16
786.558	12258.63
786.891	12147
787.224	12119.65
787.557	12103.61
787.891	12195.81
788.224	12220.44
788.557	12166.88
788.89	12187.67
789.223	12167.34
789.556	12019.99
789.888	12048.02
790.221	11984.74
790.554	12027.23
790.887	11999.2
791.219	11874.46
791.552	11890.51
791.884	11898.64
792.217	11846.67
792.549	11848.02
792.882	11681.7
793.214	11683.28
793.546	11774.35
793.879	11611.87
794.211	11589.95
794.543	11647.58
794.875	11646.9
795.207	11754.92
795.539	11604.86
795.871	11624.75
796.203	11490.97
796.535	11540.91
796.867	11503.62
797.198	11465.66
797.53	11402.84
797.862	11370.75
798.193	11431.31
798.525	11286.68
798.856	11381.37
799.188	11233.57
799.519	11221.37
799.85	11210.75
800.182	11231.54
800.513	11223.18
800.844	11114.48
801.175	11201.94
801.506	11176.63
801.837	11056.86
802.168	10998.55
802.499	11017.31
802.83	10986.35
803.161	11079.68
803.491	11021.83
803.822	10922.17
804.153	10883.53
804.483	10812.57
804.814	10800.14
805.145	10805.34
805.475	10895.73
805.805	10808.95
806.136	10810.99
806.466	10730.54
806.796	10785.68
807.126	10626.13
807.457	10754.49
807.787	10658.9
808.117	10635.85
808.447	10580.94
808.777	10573.93
809.107	10541.62
809.436	10531.45
809.766	10581.84
810.096	10443.76
810.426	10467.04
810.755	10447.83
811.085	10491.67
811.414	10400.38
811.744	10287.38
812.073	10322.19
812.403	10342.07
812.732	10273.37
813.061	10284.45
813.39	10219.82
813.719	10255.97
814.049	10280.38
814.378	10219.14
814.707	10189.76
815.036	10151.12
815.365	10088.29
815.693	9961.52
816.022	10013.49
816.351	10021.4
816.68	10017.34
817.008	10045.81
817.337	9867.28
817.665	9899.37
817.994	9908.41
818.322	9900.95
818.651	9848.75
818.979	9814.63
819.307	9830
819.636	9830
819.964	9804.69
820.292	9810.34
820.62	9851.01
820.948	9766.04
821.276	9777.12
821.604	9760.17
821.932	9801.3
822.259	9874.29
822.587	9884.91
822.915	9677.23
823.243	9792.26
823.57	9751.35
823.898	9846.49
824.225	9705.48
824.553	9804.69
824.88	9772.6
825.207	9806.04
825.535	9799.04
825.862	9820.96
826.189	9766.49
826.516	9820.05
826.843	9871.35
827.17	9819.6
827.497	9865.48
827.824	9825.7
828.151	9907.06
828.478	9743.9
828.805	9864.8
829.131	9824.12
829.458	9754.52
829.785	9777.12
830.111	9798.58
830.438	9862.76
830.764	9843.33
831.09	9827.06
831.417	9771.24
831.743	9819.15
832.069	9759.26
832.395	9750.68
832.722	9807.62
833.048	9852.59
833.374	9847.85
833.7	9714.97
834.026	9785.93
834.351	9767.85
834.677	9741.18
835.003	9727.85
835.329	9749.77
835.654	9702.09
835.98	9702.77
836.306	9726.72
836.631	9694.63
836.956	9703.9
837.282	9671.58
837.607	9654.41
837.932	9569.89
838.258	9646.95
838.583	9615.99
838.908	9547.29
839.233	9551.59
839.558	9499.38
839.883	9489.44
840.208	9451.93
840.533	9528.99
840.858	9495.54
841.182	9451.93
841.507	9459.38
841.832	9391.59
842.156	9427.52
842.481	9442.21
842.805	9342.1
843.13	9353.85
843.454	9368.54
843.778	9321.31
844.103	9286.51
844.427	9246.06
844.751	9202.67
845.075	9191.14
845.399	9143.69
845.723	9186.4
846.047	9180.97
846.371	9129.9
846.695	9116.79
847.019	8996.57
847.343	8904.14
847.666	8943.47
847.99	8929
848.313	8898.95
848.637	8839.29
848.96	8836.58
849.284	8841.55
849.607	8722.68
849.931	8727.88
850.254	8639.52
850.577	8630.03
850.9	8570.82
851.223	8577.15
851.546	8525.17
851.869	8468
852.192	8470.48
852.515	8462.12
852.838	8374.67
853.161	8423.25
853.483	8407.89
853.806	8375.57
854.129	8325.4
854.451	8305.29
854.774	8229.36
855.096	8245.18
855.419	8244.73
855.741	8222.13
856.063	8129.02
856.385	8162.24
856.708	8127.89
857.03	8086.09
857.352	8097.61
857.674	8078.18
857.996	8026.43
858.318	7980.55
858.64	8035.24
858.961	8002.93
859.283	7907.79
859.605	7927.45
859.926	7969.93
860.248	7877.73
860.57	7834.57
860.891	7919.54
861.212	7818.52
861.534	7754.12
861.855	7769.71
862.176	7770.16
862.498	7802.03
862.819	7731.97
863.14	7721.12
863.461	7719.54
863.782	7702.82
864.103	7662.82
864.424	7623.5
864.745	7680.45
865.065	7635.25
865.386	7620.79
865.707	7653.33
866.027	7569.26
866.348	7569.72
866.668	7574.91
866.989	7603.16
867.309	7538.3
867.63	7542.82
867.95	7556.84
868.27	7434.58
868.59	7459.89
868.91	7483.16
869.23	7464.86
869.55	7478.42
869.87	7494.46
870.19	7410.85
870.51	7459.21
870.83	7523.84
871.15	7308.03
871.469	7422.6
871.789	7349.38
872.109	7397.52
872.428	7351.42
872.748	7335.6
873.067	7351.42
873.386	7347.8
873.706	7379.21
874.025	7324.3
874.344	7315.94
874.663	7286.79
874.982	7207.47
875.301	7268.93
875.62	7248.59
875.939	7253.34
876.258	7227.58
876.577	7235.71
876.896	7215.83
877.214	7244.08
877.533	7256.28
877.852	7152.1
878.17	7174.92
878.489	7190.07
878.807	7174.7
879.125	7075.27
879.444	7151.87
879.762	7094.93
880.08	7091.54
880.398	7099.67
880.716	7088.15
881.034	7031.43
881.352	7027.13
881.67	7023.52
881.988	7022.61
882.306	6937.42
882.624	6908.72
882.941	6936.29
883.259	6963.86
883.577	6867.59
883.894	6916.63
884.212	6914.14
884.529	6879.79
884.846	6831.2
885.164	6814.93
885.481	6831.43
885.798	6868.72
886.115	6769.96
886.432	6769.51
886.75	6774.03
887.067	6751.21
887.383	6739.68
887.7	6726.35
888.017	6701.04
888.334	6732.45
888.651	6679.8
888.967	6673.24
889.284	6629.4
889.6	6574.04
889.917	6613.36
890.233	6607.71
890.55	6547.37
890.866	6537.2
891.182	6577.2
891.498	6525.22
891.815	6424.89
892.131	6490.65
892.447	6511.21
892.763	6435.73
893.079	6412.01
893.395	6362.97
893.71	6349.18
894.026	6353.25
894.342	6350.31
894.657	6306.25
894.973	6289.75
895.289	6243.65
895.604	6281.16
895.92	6239.81
896.235	6224.21
896.55	6242.75
896.865	6246.14
897.181	6141.05
897.496	6132.01
897.811	6097.44
898.126	6084.33
898.441	6069.19
898.756	6093.37
899.071	6046.82
899.386	6018.12
899.7	5929.53
900.015	5939.02
900.33	5898.35
900.644	5934.28
900.959	5950.78
901.273	5870.78
901.588	5886.14
901.902	5852.47
902.216	5801.63
902.531	5791.01
902.845	5744.91
903.159	5745.13
903.473	5723.89
903.787	5725.24
904.101	5705.36
904.415	5676.88
904.729	5655.19
905.042	5634.63
905.356	5627.17
905.67	5607.73
905.984	5534.52
906.297	5544.91
906.611	5522.99
906.924	5553.72
907.237	5510.56
907.551	5501.3
907.864	5479.38
908.177	5450
908.491	5437.12
908.804	5378.81
909.117	5334.29
909.43	5373.39
909.743	5336.1
910.056	5297.69
910.368	5256.78
910.681	5267.18
910.994	5221.3
911.307	5211.36
911.619	5113.74
911.932	5187.63
912.244	5193.73
912.557	5122.77
912.869	5082.78
913.181	5082.55
913.494	5044.81
913.806	5041.65
914.118	5023.79
914.43	5017.92
914.742	5015.43
915.054	4977.69
915.366	4975.43
915.678	4936.79
915.99	4931.59
916.302	4893.63
916.613	4880.3
916.925	4861.99
917.236	4854.76
917.548	4831.03
917.859	4857.92
918.171	4775.89
918.482	4730.24
918.794	4716.23
919.105	4744.93
919.416	4737.25
919.727	4710.13
920.038	4696.12
920.349	4676.91
920.66	4690.24
920.971	4670.81
921.282	4647.08
921.593	4575.9
921.903	4542.45
922.214	4550.59
922.525	4537.03
922.835	4525.28
923.146	4520.76
923.456	4473.75
923.767	4491.83
924.077	4460.65
924.387	4431.72
924.697	4400.53
925.008	4399.4
925.318	4405.96
925.628	4386.75
925.938	4345.17
926.248	4353.76
926.558	4290.03
926.867	4311.5
927.177	4292.74
927.487	4284.38
927.796	4226.08
928.106	4227.88
928.416	4212.52
928.725	4202.57
929.034	4159.86
929.344	4104.04
929.653	4159.18
929.962	4159.18
930.271	4122.12
930.581	4103.14
930.89	4114.89
931.199	4070.15
931.508	4063.82
931.817	4030.15
932.125	3993.77
932.434	4010.71
932.743	3980.66
933.051	3960.55
933.36	3933.65
933.669	3913.54
933.977	3920.55
934.286	3933.43
934.594	3851.4
934.902	3878.74
935.21	3844.16
935.519	3831.51
935.827	3797.84
936.135	3803.49
936.443	3810.27
936.751	3742.25
937.059	3773.66
937.367	3740.21
937.674	3765.97
937.982	3728.91
938.29	3751.96
938.597	3681.68
938.905	3687.33
939.213	3647.79
939.52	3618.86
939.827	3647.33
940.135	3632.42
940.442	3623.38
940.749	3577.28
941.056	3574.57
941.363	3519.88
941.67	3563.72
941.977	3556.04
942.284	3489.37
942.591	3526.88
942.898	3492.08
943.205	3411.63
943.511	3472.65
943.818	3440.11
944.125	3448.69
944.431	3411.86
944.738	3383.16
945.044	3419.77
945.35	3377.96
945.657	3358.3
945.963	3307
946.269	3289.6
946.575	3349.04
946.881	3292.31
947.187	3323.05
947.493	3272.88
947.799	3276.04
948.105	3243.95
948.41	3264.29
948.716	3239.43
949.022	3214.35
949.327	3203.96
949.633	3164.18
949.938	3154.01
950.244	3142.26
950.549	3127.8
950.854	3130.96
951.16	3129.38
951.465	3126.9
951.77	3090.74
952.075	3116.5
952.38	3060
952.685	3099.1
952.99	2997.86
953.294	3050.29
953.599	3000.57
953.904	3033.79
954.209	2969.84
954.513	2994.02
954.818	2958.31
955.122	2965.09
955.426	2963.28
955.731	2906.56
956.035	2938.65
956.339	2910.18
956.643	2902.49
956.948	2893.91
957.252	2847.35
957.556	2847.58
957.86	2837.86
958.163	2841.25
958.467	2847.58
958.771	2805.77
959.075	2813.23
959.378	2763.74
959.682	2766.45
959.985	2756.51
960.289	2791.99
960.592	2714.48
960.896	2706.57
961.199	2695.49
961.502	2738.66
961.805	2689.62
962.108	2690.3
962.411	2681.03
962.714	2660.69
963.017	2663.86
963.32	2665.89
963.623	2636.51
963.926	2613.91
964.228	2615.5
964.531	2602.62
964.833	2567.59
965.136	2537.08
965.438	2565.55
965.741	2538.44
966.043	2521.49
966.345	2520.36
966.648	2531.43
966.95	2535.95
967.252	2483.3
967.554	2488.04
967.856	2460.02
968.158	2496.63
968.46	2485.78
968.761	2488.49
969.063	2456.86
969.365	2433.13
969.666	2389.51
969.968	2375.5
970.269	2395.84
970.571	2416.63
970.872	2380.02
971.174	2379.34
971.475	2369.63
971.776	2328.5
972.077	2347.25
972.378	2339.35
972.679	2339.35
972.98	2306.58
973.281	2301.83
973.582	2308.84
973.883	2293.47
974.183	2263.19
974.484	2255.05
974.785	2248.95
975.085	2283.98
975.386	2250.08
975.686	2232.91
975.986	2236.3
976.287	2203.53
976.587	2174.6
976.887	2185.68
977.187	2192.23
977.487	2175.06
977.787	2170.76
978.087	2133.47
978.387	2139.8
978.687	2134.83
978.987	2142.06
979.286	2106.36
979.586	2097.77
979.885	2071.56
980.185	2099.35
980.484	2068.39
980.784	2057.77
981.083	2055.28
981.382	2038.34
981.682	2049.86
981.981	2026.36
982.28	2032.46
982.579	2025.68
982.878	2045.79
983.177	1995.63
983.475	1973.93
983.774	1993.37
984.073	1974.84
984.372	1977.55
984.67	1974.84
984.969	1946.36
985.267	1961.05
985.566	1936.87
985.864	1944.1
986.162	1933.25
986.461	1912.46
986.759	1894.16
987.057	1910.2
987.355	1899.13
987.653	1890.54
987.951	1883.76
988.249	1867.49
988.547	1849.64
988.844	1848.74
989.142	1848.96
989.44	1828.85
989.737	1811.9
990.035	1809.19
990.332	1831.11
990.63	1767.83
990.927	1813.03
991.224	1787.27
991.521	1792.24
991.819	1770.32
992.116	1752.92
992.413	1741.17
992.71	1731
993.006	1757.44
993.303	1731.9
993.6	1743.88
993.897	1720.15
994.193	1713.6
994.49	1742.75
994.787	1698.68
995.083	1696.65
995.379	1671.34
995.676	1654.84
995.972	1653.94
996.268	1660.04
996.565	1653.04
996.861	1643.09
997.157	1650.1
997.453	1622.53
997.749	1625.01
998.044	1637.22
998.34	1629.31
998.636	1620.49
998.932	1595.64
999.227	1559.03
999.523	1582.53
999.818	1567.84
1000.114	1542.98
1000.409	1523.1
1000.704	1535.3
1001	1534.85
1001.295	1554.73
1001.59	1509.54
1001.885	1525.13
1002.18	1517.45
1002.475	1492.81
1002.77	1496.66
1003.065	1468.18
1003.359	1474.06
1003.654	1488.97
1003.949	1455.3
1004.243	1489.42
1004.538	1450.33
1004.832	1447.39
1005.127	1435.64
1005.421	1438.8
1005.715	1442.19
1006.009	1399.03
1006.304	1398.81
1006.598	1395.19
1006.892	1376.21
1007.186	1371.01
1007.48	1383.66
1007.773	1379.6
1008.067	1363.33
1008.361	1359.94
1008.655	1345.47
1008.948	1327.62
1009.242	1347.05
1009.535	1340.28
1009.829	1333.27
1010.122	1307.28
1010.415	1312.93
1010.708	1303.21
1011.001	1275.87
1011.295	1296.21
1011.588	1273.84
1011.881	1275.87
1012.173	1255.98
1012.466	1281.97
1012.759	1232.03
1013.052	1253.05
1013.344	1241.07
1013.637	1240.17
1013.93	1189.54
1014.222	1216.21
1014.514	1209.66
1014.807	1203.56
1015.099	1214.86
1015.391	1168.08
1015.683	1174.18
1015.976	1194.97
1016.268	1177.79
1016.56	1143.67
1016.851	1136.21
1017.143	1152.48
1017.435	1149.32
1017.727	1136.89
1018.018	1143.22
1018.31	1140.05
1018.602	1119.72
1018.893	1121.07
1019.185	1105.71
1019.476	1109.1
1019.767	1086.5
1020.058	1055.99
1020.35	1082.43
1020.641	1074.97
1020.932	1097.34
1021.223	1077.23
1021.514	1063.67
1021.804	1032.04
1022.095	1044.24
1022.386	1041.07
1022.677	1015.54
1022.967	1001.53
1023.258	1000.85
1023.548	1018.02
1023.839	1021.41
1024.129	997.46
1024.419	994.75
1024.709	970.79
1025	981.87
1025.29	981.87
1025.58	977.8
1025.87	966.27
1026.16	961.75
1026.449	938.03
1026.739	938.93
1027.029	928.76
1027.319	942.32
1027.608	941.87
1027.898	918.59
1028.187	935.09
1028.477	918.14
1028.766	906.39
1029.055	923.79
1029.344	892.15
1029.634	885.15
1029.923	887.18
1030.212	881.08
1030.501	870.46
1030.79	870.46
1031.078	873.85
1031.367	883.11
1031.656	863.23
1031.945	851.02
1032.233	848.76
1032.522	851.02
1032.81	821.42
1033.099	844.7
1033.387	819.16
1033.675	832.94
1033.963	860.06
1034.251	799.5
1034.54	824.13
1034.828	827.97
1035.116	809.22
1035.403	803.79
1035.691	801.76
1035.979	793.85
1036.267	817.8
1036.554	782.32
1036.842	787.3
1037.129	782.55
1037.417	767.18
1037.704	773.96
1037.992	760.4
1038.279	764.25
1038.566	762.21
1038.853	762.21
1039.14	762.21
