Data from hue_90_FLMS001491_64.txt Node
Date: Mon Feb 06 15:25:28 GMT 2017
User: dcchb
Spectrometer: FLMS00149
Trigger mode: 0
Integration Time (sec): 2.000000E-2
Scans to average: 10
Electric dark correction enabled: true
Nonlinearity correction enabled: false
Boxcar width: 0
XAxis mode: Wavelengths
Number of Pixels in Spectrum: 2048
>>>>>Begin Spectral Data<<<<<
341.393	-5.18
341.776	-5.18
342.16	-5.18
342.543	-74.79
342.927	-76.82
343.31	-68.01
343.693	-76.14
344.077	-59.87
344.46	-83.83
344.843	-48.12
345.226	-50.61
345.61	-26.65
345.993	-29.59
346.376	6.57
346.759	21.03
347.142	9.73
347.525	27.81
347.908	68.03
348.291	82.95
348.674	113.91
349.057	112.78
349.44	132.21
349.823	124.53
350.206	163.63
350.588	184.64
350.971	191.87
351.354	237.52
351.737	250.4
352.119	235.26
352.502	246.79
352.884	251.53
353.267	295.37
353.65	294.7
354.032	303.28
354.414	314.81
354.797	326.33
355.179	315.49
355.562	298.09
355.944	315.71
356.326	329.27
356.709	309.84
357.091	330.4
357.473	335.15
357.855	345.99
358.238	351.64
358.62	356.61
359.002	349.16
359.384	333.34
359.766	328.59
360.148	350.74
360.53	336.05
360.912	348.48
361.294	350.29
361.676	345.09
362.057	343.28
362.439	320.91
362.821	349.16
363.203	345.09
363.584	325.2
363.966	333.79
364.348	302.83
364.729	307.8
365.111	313.45
365.493	329.05
365.874	311.19
366.256	313.9
366.637	315.26
367.019	294.24
367.4	313
367.781	303.73
368.163	328.37
368.544	329.05
368.925	314.36
369.306	318.42
369.688	292.21
370.069	301.7
370.45	322.27
370.831	338.76
371.212	324.75
371.593	329.72
371.974	322.72
372.355	333.34
372.736	338.54
373.117	330.85
373.498	326.56
373.879	321.14
374.26	314.13
374.641	304.86
375.021	315.49
375.402	322.72
375.783	338.76
376.163	323.17
376.544	328.14
376.925	323.17
377.305	338.08
377.686	334.24
378.066	313.23
378.447	330.17
378.827	345.32
379.208	339.67
379.588	340.57
379.968	339.44
380.349	336.73
380.729	350.06
381.109	328.14
381.489	317.52
381.87	363.62
382.25	354.36
382.63	330.63
383.01	355.94
383.39	346.67
383.77	346.45
384.15	364.52
384.53	368.59
384.91	353.23
385.29	351.19
385.67	362.72
386.049	351.64
386.429	360.91
386.809	348.93
387.189	358.42
387.568	365.65
387.948	347.8
388.328	365.43
388.707	374.24
389.087	378.54
389.466	367.24
389.846	367.01
390.225	372.21
390.605	376.73
390.984	374.47
391.363	371.76
391.743	361.36
392.122	372.21
392.501	394.35
392.881	404.98
393.26	413.34
393.639	390.06
394.018	406.56
394.397	404.52
394.776	402.26
395.155	395.94
395.534	406.11
395.913	390.96
396.292	393.68
396.671	379.67
397.05	395.26
397.429	394.81
397.808	404.3
398.186	377.18
398.565	383.51
398.944	410.17
399.323	390.96
399.701	404.3
400.08	411.53
400.458	419.21
400.837	407.91
401.215	401.81
401.594	405.2
401.972	391.42
402.351	422.15
402.729	409.04
403.107	430.96
403.486	446.56
403.864	432.55
404.242	446.78
404.62	444.97
404.999	427.57
405.377	431.19
405.755	436.61
406.133	421.25
406.511	424.64
406.889	436.84
407.267	463.96
407.645	431.64
408.023	455.37
408.401	459.44
408.779	469.15
409.156	455.82
409.534	464.18
409.912	465.31
410.29	471.87
410.667	494.69
411.045	471.87
411.422	461.02
411.8	500.11
412.178	494.69
412.555	479.78
412.933	489.04
413.31	473.45
413.687	504.86
414.065	489.49
414.442	499.21
414.819	505.31
415.197	510.28
415.574	522.94
415.951	518.87
416.328	528.14
416.705	511.87
417.082	524.07
417.46	540.34
417.837	516.16
418.214	545.08
418.591	539.21
418.967	545.54
419.344	549.6
419.721	544.41
420.098	545.76
420.475	566.33
420.852	545.99
421.228	561.81
421.605	571.07
421.982	541.47
422.358	567.91
422.735	553.9
423.111	577.4
423.488	556.61
423.864	588.47
424.241	574.24
424.617	579.89
424.994	585.31
425.37	600.68
425.746	587.34
426.123	617.4
426.499	623.73
426.875	620.11
427.251	610.85
427.627	613.56
428.003	643.61
428.379	640.45
428.756	640.22
429.132	636.38
429.507	655.36
429.883	668.02
430.259	657.4
430.635	671.63
431.011	650.17
431.387	687.45
431.763	687.23
432.138	661.24
432.514	704.85
432.89	718.19
433.265	712.54
433.641	724.97
434.016	679.77
434.392	726.1
434.767	750.5
435.143	742.14
435.518	743.95
435.894	746.66
436.269	740.56
436.644	781.46
437.02	758.64
437.395	777.62
437.77	788.47
438.145	793.67
438.52	764.29
438.895	782.59
439.271	804.51
439.646	837.96
440.021	814
440.395	820.33
440.77	800.45
441.145	832.53
441.52	863.27
441.895	857.84
442.27	845.87
442.645	869.82
443.019	861.46
443.394	858.07
443.769	841.57
444.143	865.08
444.518	880.89
444.892	882.93
445.267	880.89
445.641	889.26
446.016	874.12
446.39	913.89
446.764	897.17
447.139	895.58
447.513	896.49
447.887	938.97
448.262	926.09
448.636	922.25
449.01	941.23
449.384	949.37
449.758	939.42
450.132	960.67
450.506	959.99
450.88	959.08
451.254	984.17
451.628	990.04
452.002	988.91
452.376	1012.64
452.75	1010.16
453.123	1016.03
453.497	1006.77
453.871	1039.08
454.244	1049.03
454.618	1059.2
454.992	1071.17
455.365	1054.45
455.739	1110.49
456.112	1110.95
456.486	1122.24
456.859	1145.97
457.232	1123.37
457.606	1144.84
457.979	1162.7
458.352	1197.04
458.725	1197.27
459.099	1207.21
459.472	1216.03
459.845	1239.3
460.218	1254.44
460.591	1257.61
460.964	1277.72
461.337	1318.17
461.71	1315.46
462.083	1331.28
462.456	1348.91
462.829	1338.51
463.201	1353.42
463.574	1382.8
463.947	1393.42
464.32	1419.41
464.692	1447.43
465.065	1435.46
465.438	1484.72
465.81	1517.49
466.183	1522.91
466.555	1568.56
466.928	1580.31
467.3	1565.62
467.672	1608.33
468.045	1631.38
468.417	1652.85
468.789	1709.57
469.161	1716.35
469.534	1741.66
469.906	1802.68
470.278	1816.01
470.65	1835.67
471.022	1914.77
471.394	1915.22
471.766	1923.81
472.138	1966.97
472.51	2011.49
472.882	2076.57
473.253	2094.65
473.625	2155.44
473.997	2198.6
474.369	2217.36
474.74	2284.7
475.112	2333.29
475.484	2376.9
475.855	2463
476.227	2447.18
476.598	2563.34
476.97	2604.92
477.341	2664.12
477.713	2741.18
478.084	2759.49
478.455	2879.03
478.827	2929.88
479.198	3065.02
479.569	3109.08
479.94	3196.09
480.311	3280.38
480.682	3349.76
481.053	3499.81
481.424	3608.96
481.795	3675.85
482.166	3754.27
482.537	3832.23
482.908	3964.43
483.279	4090.53
483.65	4202.16
484.021	4319.9
484.391	4390.63
484.762	4527.35
485.133	4603.96
485.503	4717.4
485.874	4835.14
486.244	4958.75
486.615	5113.55
486.985	5261.8
487.356	5412.53
487.726	5523.26
488.097	5706.3
488.467	5747.66
488.837	5943.81
489.207	6061.1
489.578	6220.19
489.948	6313.07
490.318	6506.28
490.688	6608.88
491.058	6769.1
491.428	6974.07
491.798	7060.17
492.168	7288.41
492.538	7391.23
492.908	7533.83
493.278	7718.23
493.648	7789.87
494.017	7949.41
494.387	8052.46
494.757	8245.67
495.126	8390.53
495.496	8495.38
495.866	8546.68
496.235	8800.23
496.605	8852.21
496.974	8989.16
497.344	9189.15
497.713	9261.24
498.082	9435.92
498.452	9580.55
498.821	9679.08
499.19	9741.9
499.559	9948.45
499.928	10072.07
500.298	10156.36
500.667	10310.03
501.036	10281.1
501.405	10492.17
501.774	10528.78
502.143	10604.93
502.512	10754.53
502.88	10933.06
503.249	10983.91
503.618	11116.78
503.987	11165.6
504.356	11231.81
504.724	11418.92
505.093	11460.73
505.462	11493.95
505.83	11634.28
506.199	11746.15
506.567	11898.68
506.936	11905.24
507.304	12041.05
507.672	12125.12
508.041	12221.16
508.409	12244.89
508.777	12323.53
509.145	12448.95
509.514	12413.93
509.882	12606.46
510.25	12651.43
510.618	12715.61
510.986	12773.92
511.354	12896.85
511.722	12874.25
512.09	13097.07
512.458	12991.31
512.826	13146.79
513.193	13164.19
513.561	13156.96
513.929	13279.21
514.297	13371.87
514.664	13435.14
515.032	13466.78
515.4	13562.14
515.767	13596.72
516.135	13556.95
516.502	13688.02
516.869	13779.76
517.237	13886.88
517.604	13761.23
517.972	13870.61
518.339	13994.9
518.706	13975.24
519.073	13935.01
519.44	13950.61
519.808	14111.96
520.175	14116.03
520.542	14143.15
520.909	14210.94
521.276	14226.08
521.643	14321.45
522.009	14416.13
522.376	14358.96
522.743	14384.72
523.11	14466.75
523.477	14638.95
523.843	14610.25
524.21	14743.13
524.577	14783.81
524.943	14823.81
525.31	14865.39
525.676	14925.5
526.043	14913.29
526.409	14941.77
526.776	14985.38
527.142	15008.89
527.508	14964.37
527.874	15070.35
528.241	15057.7
528.607	15060.18
528.973	15109.9
529.339	15079.84
529.705	15186.06
530.071	15212.04
530.437	15206.17
530.803	15210.69
531.169	15207.98
531.535	15189.22
531.901	15184.02
532.267	15228.54
532.632	15206.39
532.998	15237.58
533.364	15289.56
533.73	15191.48
534.095	15281.65
534.461	15180.86
534.826	15168.88
535.192	15206.85
535.557	15178.15
535.923	15091.82
536.288	15136.57
536.653	15163.68
537.019	15092.05
537.384	15115.32
537.749	15098.37
538.114	15030.81
538.479	15003.46
538.845	15035.55
539.21	14970.69
539.575	14957.81
539.94	14997.36
540.305	14871.49
540.67	14806.63
541.034	14880.07
541.399	14831.94
541.764	14812.96
542.129	14804.6
542.494	14782.45
542.858	14639.86
543.223	14708.33
543.587	14735.22
543.952	14591.72
544.316	14599.86
544.681	14595.11
545.045	14602.57
545.41	14548.56
545.774	14541.55
546.138	14405.06
546.503	14444.38
546.867	14414.32
547.231	14416.58
547.595	14289.13
547.959	14385.17
548.324	14288.9
548.688	14239.64
549.052	14236.48
549.416	14161.45
549.779	14120.55
550.143	14098.85
550.507	14150.15
550.871	14102.92
551.235	14083.03
551.599	14089.59
551.962	14076.03
552.326	14097.95
552.689	14056.82
553.053	13990.38
553.417	13915.13
553.78	13985.18
554.143	13942.02
554.507	13879.42
554.87	13853.21
555.234	13985.18
555.597	13770.05
555.96	13758.75
556.323	13785.87
556.686	13755.13
557.05	13737.73
557.413	13735.92
557.776	13708.13
558.139	13770.05
558.502	13763.04
558.865	13730.95
559.228	13792.87
559.59	13771.63
559.953	13793.55
560.316	13870.16
560.679	13789.03
561.041	13855.02
561.404	13757.84
561.767	13861.34
562.129	13720.11
562.492	13781.12
562.854	13796.49
563.217	13775.02
563.579	13789.26
563.941	13782.02
564.304	13842.59
564.666	13873.32
565.028	13849.14
565.39	13879.88
565.753	13923.04
566.115	13804.85
566.477	13904.06
566.839	13818.86
567.201	13965.3
567.563	13928.46
567.925	14027.22
568.287	13981.79
568.648	13960.78
569.01	13971.4
569.372	14081.45
569.734	13975.92
570.095	14047.1
570.457	14139.3
570.819	14054.79
571.18	14032.64
571.542	14050.49
571.903	14021.11
572.265	14127.55
572.626	14090.72
572.987	14168.23
573.349	14154.22
573.71	14153.54
574.071	14229.92
574.432	14081.9
574.794	14226.53
575.155	14190.6
575.516	14175.23
575.877	14259.75
576.238	14248.23
576.599	14203.93
576.96	14161.9
577.32	14120.77
577.681	14149.25
578.042	14296.14
578.403	14219.53
578.763	14192.64
579.124	14186.08
579.485	14326.87
579.845	14346.3
580.206	14222.69
580.566	14268.34
580.927	14292.97
581.287	14305.85
581.648	14237.61
582.008	14252.29
582.368	14184.73
582.728	14276.7
583.089	14276.02
583.449	14262.69
583.809	14220.21
584.169	14245.52
584.529	14113.99
584.889	14156.03
585.249	14142.24
585.609	14135.46
585.969	14125.07
586.329	14119.87
586.688	14227.66
587.048	14148.79
587.408	14048.46
587.768	14129.13
588.127	14099.76
588.487	14005.52
588.846	14222.69
589.206	14055.46
589.565	14010.72
589.925	14045.07
590.284	13976.37
590.643	14048.46
591.003	14053.88
591.362	14090.49
591.721	13937.5
592.08	14090.49
592.44	13981.79
592.799	13995.8
593.158	13885.75
593.517	13981.57
593.876	13975.69
594.235	13864.06
594.593	13941.57
594.952	13963.94
595.311	13966.88
595.67	13960.1
596.029	13992.87
596.387	13997.61
596.746	14020.21
597.104	13977.27
597.463	13930.5
597.822	13932.98
598.18	13898.18
598.538	13872.19
598.897	13973.43
599.255	13797.62
599.613	14015.92
599.972	13946.09
600.33	13943.15
600.688	13873.32
601.046	14002.58
601.404	13935.47
601.762	13906.99
602.12	13977.27
602.478	13916.03
602.836	13968.23
603.194	13769.6
603.552	13838.07
603.91	13808.69
604.268	13944.28
604.625	13884.17
604.983	13928.69
605.341	13775.92
605.698	13923.94
606.056	13910.38
606.413	13897.73
606.771	13944.05
607.128	13946.31
607.485	13883.26
607.843	13850.05
608.2	13975.92
608.557	13986.99
608.914	13891.85
609.272	13944.73
609.629	14000.55
609.986	14016.59
610.343	13879.65
610.7	14002.36
611.057	14036.71
611.414	14004.17
611.771	13991.74
612.127	14013.66
612.484	14072.64
612.841	14074.22
613.198	13935.92
613.554	14069.93
613.911	14148.79
614.267	14159.19
614.624	14141.56
614.98	14056.14
615.337	14209.13
615.693	14116.48
616.05	14185.86
616.406	14224.27
616.762	14125.74
617.118	14152.64
617.475	14236.25
617.831	14192.86
618.187	14276.02
618.543	14198.28
618.899	14330.48
619.255	14287.55
619.611	14309.69
619.967	14257.49
620.323	14282.12
620.678	14273.09
621.034	14250.71
621.39	14296.36
621.746	14220.43
622.101	14359.18
622.457	14172.75
622.812	14274.67
623.168	14354.44
623.523	14298.85
623.879	14326.64
624.234	14190.38
624.589	14347.66
624.945	14306.08
625.3	14253.65
625.655	14302.01
626.01	14296.81
626.365	14332.07
626.72	14269.02
627.075	14205.29
627.43	14315.12
627.785	14203.93
628.14	14275.57
628.495	14266.08
628.85	14269.24
629.205	14180.43
629.559	14350.82
629.914	14165.74
630.269	14174.1
630.623	14120.55
630.978	14132.52
631.332	14203.71
631.687	14213.65
632.041	14135.46
632.396	14157.16
632.75	14009.59
633.104	14113.77
633.459	14021.57
633.813	13991.51
634.167	14080.1
634.521	13953.32
634.875	14073.32
635.229	14008.23
635.583	13972.75
635.937	13925.52
636.291	13843.27
636.645	13879.42
636.999	13994.22
637.352	13929.14
637.706	13883.72
638.06	13904.06
638.413	13859.08
638.767	13804.85
639.121	13850.95
639.474	13728.69
639.828	13719.43
640.181	13787
640.534	13874.45
640.888	13805.07
641.241	13706.55
641.594	13744.51
641.947	13722.14
642.301	13674.46
642.654	13685.76
643.007	13674.91
643.36	13669.94
643.713	13599.88
644.066	13723.72
644.419	13580.22
644.771	13558.75
645.124	13371.64
645.477	13448.25
645.83	13320.79
646.182	13244.19
646.535	13163.06
646.888	13248.93
647.24	13187.46
647.593	13222.94
647.945	13249.38
648.298	13105.66
648.65	13134.58
649.002	13043.51
649.355	13170.29
649.707	13111.53
650.059	13227.01
650.411	13431.3
650.763	13410.28
651.115	13525.76
651.467	13453.45
651.819	13522.14
652.171	13436.05
652.523	13492.77
652.875	13448.02
653.227	13429.94
653.578	13588.36
653.93	13486.89
654.282	13454.8
654.633	13464.74
654.985	13453.22
655.337	13427.46
655.688	13424.97
656.039	13579.09
656.391	13402.15
656.742	13525.08
657.094	13435.37
657.445	13464.74
657.796	13505.87
658.147	13455.03
658.498	13470.62
658.849	13479.66
659.2	13436.72
659.551	13457.29
659.902	13506.1
660.253	13481.02
660.604	13537.06
660.955	13367.35
661.306	13454.12
661.656	13416.84
662.007	13525.31
662.358	13566.21
662.708	13505.2
663.059	13521.01
663.409	13365.76
663.76	13626.77
664.11	13509.94
664.461	13578.41
664.811	13560.56
665.161	13533.67
665.511	13536.38
665.862	13599.2
666.212	13644.18
666.562	13575.48
666.912	13525.53
667.262	13558.53
667.612	13616.38
667.962	13585.87
668.312	13521.47
668.662	13630.62
669.011	13521.92
669.361	13513.11
669.711	13449.15
670.06	13573.22
670.41	13435.14
670.76	13446.44
671.109	13609.15
671.459	13500
671.808	13452.77
672.157	13485.76
672.507	13427.46
672.856	13384.52
673.205	13408.7
673.554	13512.88
673.904	13450.96
674.253	13485.76
674.602	13427.23
674.951	13206.9
675.3	13169.84
675.649	13323.96
675.998	13301.13
676.346	13340.23
676.695	13398.98
677.044	13275.6
677.393	13337.97
677.741	13276.95
678.09	13322.6
678.438	13298.42
678.787	13242.6
679.135	13348.36
679.484	13150.18
679.832	13202.6
680.181	13143.17
680.529	13180.46
680.877	13116.05
681.225	13107.69
681.573	13223.4
681.922	13065.43
682.27	13017.98
682.618	12951.76
682.966	13013.23
683.314	13083.06
683.661	12989.96
684.009	12891.2
684.357	12846.91
684.705	12836.29
685.053	12787.25
685.4	12804.88
685.748	12733.92
686.095	12772.11
686.443	12737.53
686.79	12690.08
687.138	12686.91
687.485	12660.02
687.832	12643.98
688.18	12639.91
688.527	12563.75
688.874	12487.82
689.221	12413.02
689.568	12588.84
689.915	12347.71
690.262	12443.75
690.609	12339.58
690.956	12306.81
691.303	12251.44
691.65	12205.57
691.997	12245.57
692.344	12149.53
692.69	12107.04
693.037	12077.66
693.383	12017.78
693.73	12051.22
694.077	11913.6
694.423	11991.79
694.769	11909.31
695.116	11882.64
695.462	11881.96
695.808	11782.08
696.155	11831.34
696.501	11629.09
696.847	11695.75
697.193	11619.14
697.539	11687.16
697.885	11514.51
698.231	11478.13
698.577	11465.93
698.923	11411.24
699.269	11372.37
699.614	11307.29
699.96	11291.47
700.306	11323.78
700.651	11141.87
700.997	11185.26
701.342	11126.5
701.688	11108.2
702.033	11057.35
702.379	11112.26
702.724	11032.04
703.069	10999.72
703.415	10888.77
703.76	10777.58
704.105	10824.14
704.45	10838.37
704.795	10775.32
705.14	10779.84
705.485	10707.3
705.83	10628.66
706.175	10662.33
706.52	10723.8
706.865	10540.53
707.209	10481.77
707.554	10506.18
707.899	10481.09
708.243	10422.56
708.588	10508.44
708.932	10366.3
709.277	10346.41
709.621	10345.28
709.966	10267.31
710.31	10278.61
710.654	10197.26
710.998	10216.69
711.342	10217.37
711.687	10221.67
712.031	10135.79
712.375	10125.17
712.719	10151.39
713.063	10070.94
713.407	10117.26
713.75	10066.42
714.094	10066.64
714.438	9989.58
714.782	10044.95
715.125	9949.58
715.469	9957.72
715.812	9913.2
716.156	9856.7
716.499	9779.42
716.843	9840.66
717.186	9823.26
717.53	9783.03
717.873	9904.16
718.216	9823.48
718.559	9789.36
718.902	9685.18
719.246	9755.92
719.589	9768.12
719.932	9674.11
720.275	9587.56
720.617	9652.19
720.96	9647.67
721.303	9664.17
721.646	9638.18
721.989	9615.58
722.331	9661.68
722.674	9566.54
723.016	9624.62
723.359	9606.54
723.701	9638.63
724.044	9541.01
724.386	9495.81
724.729	9570.16
725.071	9477.51
725.413	9493.1
725.755	9521.12
726.097	9516.83
726.439	9451.52
726.782	9462.82
727.124	9449.48
727.465	9455.58
727.807	9490.39
728.149	9416.72
728.491	9411.74
728.833	9483.61
729.175	9379.43
729.516	9377.17
729.858	9440.67
730.199	9418.07
730.541	9422.37
730.882	9501.91
731.224	9456.49
731.565	9424.63
731.906	9384.4
732.248	9366.1
732.589	9388.69
732.93	9360.45
733.271	9355.25
733.612	9328.81
733.953	9353.21
734.294	9309.37
734.635	9341.92
734.976	9366.32
735.317	9345.53
735.658	9380.11
735.999	9386.66
736.339	9373.1
736.68	9399.54
737.021	9427.56
737.361	9308.47
737.702	9442.93
738.042	9472.08
738.383	9371.07
738.723	9470.27
739.063	9482.93
739.404	9428.24
739.744	9407
740.084	9497.17
740.424	9468.47
740.764	9446.32
741.104	9497.17
741.444	9552.98
741.784	9472.76
742.124	9533.1
742.464	9537.62
742.804	9539.42
743.143	9574.9
743.483	9605.86
743.823	9658.29
744.162	9641.12
744.502	9652.64
744.841	9630.72
745.181	9774.9
745.52	9775.58
745.86	9781.45
746.199	9931.5
746.538	9919.53
746.877	9995.23
747.216	10006.76
747.556	10066.64
747.895	10082.23
748.234	10134.21
748.573	10215.11
748.911	10213.76
749.25	10298.95
749.589	10281.78
749.928	10433.41
750.267	10494.2
750.605	10519.96
750.944	10568.1
751.283	10611.94
751.621	10794.76
751.96	10840.41
752.298	10964.92
752.636	11138.03
752.975	11103.23
753.313	11221.41
753.651	11388.64
753.989	11507.96
754.327	11609.43
754.666	11730.33
755.004	11926.48
755.342	11992.02
755.679	12196.08
756.017	12265
756.355	12448.73
756.693	12626.12
757.031	12736.85
757.368	12789.51
757.706	12976.17
758.044	13090.97
758.381	13317.86
758.719	13411.64
759.056	13518.53
759.394	13749.26
759.731	13864.73
760.068	14059.31
760.405	14169.13
760.743	14292.97
761.08	14560.08
761.417	14689.8
761.754	14827.19
762.091	15085.49
762.428	15053.4
762.765	15356.45
763.102	15536.33
763.438	15693.84
763.775	15801.63
764.112	15915.98
764.449	16149.42
764.785	16228.97
765.122	16368.4
765.458	16489.52
765.795	16706.24
766.131	16807.26
766.467	16932.68
766.804	17146.23
767.14	17190.07
767.476	17399.78
767.812	17403.62
768.148	17639.78
768.485	17715.03
768.821	17771.98
769.157	17930.62
769.492	18114.79
769.828	18216.03
770.164	18174.23
770.5	18317.27
770.836	18545.74
771.171	18525.4
771.507	18625.29
771.842	18667.32
772.178	18752.52
772.513	18892.4
772.849	19025.95
773.184	19051.94
773.519	19105.27
773.855	19129.45
774.19	19231.6
774.525	19277.02
774.86	19315.21
775.195	19438.6
775.53	19465.04
775.865	19377.13
776.2	19469.11
776.535	19396.11
776.87	19464.81
777.205	19538.48
777.539	19517.47
777.874	19693.28
778.209	19531.25
778.543	19584.36
778.878	19568.77
779.212	19612.83
779.547	19632.49
779.881	19793.17
780.215	19653.73
780.55	19795.2
780.884	19665.26
781.218	19731.7
781.552	19759.04
781.886	19697.35
782.22	19674.75
782.554	19721.3
782.888	19499.39
783.222	19544.58
783.556	19558.82
783.889	19599.95
784.223	19501.65
784.557	19465.72
784.89	19527.64
785.224	19457.58
785.557	19418.49
785.891	19327.64
786.224	19340.07
786.558	19351.82
786.891	19224.82
787.224	19208.1
787.557	19179.17
787.891	19219.17
788.224	19314.08
788.557	19312.95
788.89	19182.56
789.223	19100.75
789.556	19127.42
789.888	19058.5
790.221	19046.52
790.554	18956.13
790.887	18931.95
791.219	18874.09
791.552	18904.15
791.884	18752.29
792.217	18832.29
792.549	18813.53
792.882	18743.93
793.214	18696.92
793.546	18633.87
793.879	18641.78
794.211	18597.94
794.543	18610.82
794.875	18537.61
795.207	18620.09
795.539	18506.65
795.871	18466.65
796.203	18323.37
796.535	18307.1
796.867	18243.15
797.198	18301.91
797.53	18267.33
797.862	18022.37
798.193	18223.04
798.525	18094.91
798.856	18012.87
799.188	17916.83
799.519	17883.84
799.85	17854.46
800.182	17801.58
800.513	17846.78
800.844	17666.44
801.175	17722.26
801.506	17705.99
801.837	17571.3
802.168	17511.87
802.499	17535.6
802.83	17530.85
803.161	17415.83
803.491	17442.27
803.822	17377.18
804.153	17308.03
804.483	17164.31
804.814	17136.06
805.145	17148.04
805.475	17149.39
805.805	16987.59
806.136	17021.71
806.466	17069.4
806.796	17011.32
807.126	16977.19
807.457	16771.32
807.787	16896.97
808.117	16813.36
808.447	16781.04
808.777	16885.45
809.107	16648.62
809.436	16772
809.766	16665.11
810.096	16632.8
810.426	16499.02
810.755	16668.95
811.085	16511.9
811.414	16469.64
811.744	16374.05
812.073	16412.69
812.403	16391.22
812.732	16239.81
813.061	16370.21
813.39	16235.52
813.719	16204.11
814.049	16172.7
814.378	16187.16
814.707	16046.6
815.036	16154.84
815.365	16052.93
815.693	15882.53
816.022	15893.38
816.351	15920.95
816.68	15781.52
817.008	15851.8
817.337	15721.86
817.665	15693.39
817.994	15792.59
818.322	15694.52
818.651	15670.34
818.979	15651.13
819.307	15642.54
819.636	15597.8
819.964	15586.72
820.292	15646.83
820.62	15589.66
820.948	15492.71
821.276	15477.35
821.604	15507.18
821.932	15512.83
822.259	15490.68
822.587	15509.44
822.915	15512.15
823.243	15602.77
823.57	15500.85
823.898	15517.35
824.225	15475.09
824.553	15371.36
824.88	15507.18
825.207	15528.87
825.535	15469.44
825.862	15475.54
826.189	15450.23
826.516	15533.39
826.843	15477.12
827.17	15586.5
827.497	15520.51
827.824	15561.86
828.151	15555.09
828.478	15522.09
828.805	15618.59
829.131	15458.59
829.458	15454.07
829.785	15375.66
830.111	15464.92
830.438	15524.8
830.764	15472.83
831.09	15487.06
831.417	15455.88
831.743	15558.93
832.069	15486.16
832.395	15445.26
832.722	15486.39
833.048	15456.56
833.374	15339.5
833.7	15392.6
834.026	15392.6
834.351	15403.9
834.677	15353.73
835.003	15399.38
835.329	15366.39
835.654	15351.93
835.98	15282.32
836.306	15344.7
836.631	15301.31
836.956	15249.33
837.282	15246.84
837.607	15165.72
837.932	15137.47
838.258	15142.89
838.583	15076.23
838.908	15039.17
839.233	15067.87
839.558	15045.95
839.883	14984.03
840.208	15034.65
840.533	14940.41
840.858	14913.52
841.182	14877.36
841.507	14894.54
841.832	14897.48
842.156	14837.82
842.481	14897.93
842.805	14815.67
843.13	14825.16
843.454	14779.06
843.778	14666.07
844.103	14726.63
844.427	14603.92
844.751	14591.04
845.075	14521.67
845.399	14547.2
845.723	14446.41
846.047	14458.39
846.371	14345.17
846.695	14343.37
847.019	14225.4
847.343	14124.39
847.666	14110.83
847.99	14012.98
848.313	14038.74
848.637	13930.5
848.96	13958.52
849.284	13930.04
849.607	13812.98
849.931	13785.64
850.254	13594.01
850.577	13521.24
850.9	13496.83
851.223	13476.5
851.546	13483.95
851.869	13332.77
852.192	13462.26
852.515	13271.08
852.838	13273.11
853.161	13185.43
853.483	13176.39
853.806	13094.13
854.129	13086.68
854.451	13054.13
854.774	13013.01
855.096	12915.15
855.419	12835.83
855.741	12838.77
856.063	12804.2
856.385	12713.8
856.708	12753.8
857.03	12679.45
857.352	12663.18
857.674	12609.85
857.996	12599.23
858.318	12544.09
858.64	12490.99
858.961	12512
859.283	12462.96
859.605	12394.94
859.926	12420.25
860.248	12448.95
860.57	12290.31
860.891	12319.01
861.212	12285.34
861.534	12280.82
861.855	12216.64
862.176	12179.58
862.498	12184.33
862.819	12103.65
863.14	12133.03
863.461	12074.05
863.782	12071.34
864.103	12043.31
864.424	11889.65
864.745	11990.66
865.065	11945.01
865.386	11874.96
865.707	11876.54
866.027	11895.07
866.348	11809.87
866.668	11877.22
866.989	11853.49
867.309	11754.51
867.63	11797.22
867.95	11749.99
868.27	11651.91
868.59	11750.44
868.91	11698.24
869.23	11719.71
869.55	11583.44
869.87	11623.89
870.19	11571.91
870.51	11654.17
870.83	11650.33
871.15	11507.06
871.469	11552.93
871.789	11573.95
872.109	11524.68
872.428	11467.74
872.748	11514.29
873.067	11474.06
873.386	11440.84
873.706	11498.47
874.025	11455.76
874.344	11319.04
874.663	11325.14
874.982	11365.37
875.301	11344.57
875.62	11317.23
875.939	11294.63
876.258	11334.63
876.577	11206.05
876.896	11245.37
877.214	11225.26
877.533	11191.58
877.852	11206.95
878.17	11201.08
878.489	11134.41
878.807	11166.5
879.125	11079.72
879.444	11116.56
879.762	11045.37
880.08	11022.32
880.398	10980.52
880.716	11048.54
881.034	11017.13
881.352	10956.11
881.67	10922.66
881.988	10918.37
882.306	10950.23
882.624	10871.14
882.941	10851.25
883.259	10859.16
883.577	10775.1
883.894	10830.24
884.212	10665.72
884.529	10748.43
884.846	10694.2
885.164	10674.54
885.481	10545.27
885.798	10619.85
886.115	10559.28
886.432	10597.25
886.75	10531.49
887.067	10567.19
887.383	10467.31
887.7	10493.52
888.017	10442.23
888.334	10432.51
888.651	10437.71
888.967	10410.59
889.284	10291.49
889.6	10260.31
889.917	10264.6
890.233	10247.88
890.55	10185.06
890.866	10119.07
891.182	10154.55
891.498	10098.96
891.815	10057.38
892.131	10027.32
892.447	10057.15
892.763	9990.26
893.079	10028
893.395	9927.66
893.71	9954.1
894.026	9926.98
894.342	9932.41
894.657	9761.79
894.973	9747.1
895.289	9747.78
895.604	9718.18
895.92	9633.43
896.235	9639.76
896.55	9604.73
896.865	9696.71
897.181	9599.76
897.496	9606.09
897.811	9511.85
898.126	9495.81
898.441	9436.6
898.756	9405.87
899.071	9330.39
899.386	9358.86
899.7	9269.83
900.015	9310.5
900.33	9156.84
900.644	9195.48
900.959	9201.58
901.273	9110.74
901.588	9051.08
901.902	9000.68
902.216	8989.61
902.531	8965.2
902.845	9020.79
903.159	8943.73
903.473	8894.92
903.787	8854.24
904.101	8802.49
904.415	8788.71
904.729	8789.61
905.042	8698.77
905.356	8722.27
905.67	8646.11
905.984	8629.62
906.297	8619.67
906.611	8539.68
906.924	8544.65
907.237	8568.15
907.551	8521.37
907.864	8466.01
908.177	8430.3
908.491	8331.55
908.804	8334.71
909.117	8249.97
909.43	8212.45
909.743	8214.04
910.056	8228.5
910.368	8172.45
910.681	8130.87
910.994	8041.38
911.307	8057.43
911.619	8010.42
911.932	8039.58
912.244	7908.28
912.557	7904.44
912.869	7867.6
913.181	7845.01
913.494	7798.23
913.806	7790.77
914.118	7751.9
914.43	7728.62
914.742	7700.38
915.054	7601.4
915.366	7690.43
915.678	7661.73
915.99	7545.8
916.302	7539.25
916.613	7476.2
916.925	7435.3
917.236	7451.57
917.548	7443.21
917.859	7436.88
918.171	7323.66
918.482	7329.09
918.794	7338.35
919.105	7223.1
919.416	7269.43
919.727	7230.56
920.038	7185.59
920.349	7128.64
920.66	7187.85
920.971	7106.04
921.282	7049.55
921.593	7001.19
921.903	6999.83
922.214	6971.13
922.525	6914.18
922.835	6979.04
923.146	6847.29
923.456	6844.58
923.767	6832.38
924.077	6818.59
924.387	6801.87
924.697	6763.68
925.008	6742.66
925.318	6643
925.628	6699.27
925.938	6676
926.248	6549.67
926.558	6584.7
926.867	6527.53
927.177	6493.4
927.487	6479.84
927.796	6465.61
928.106	6443.91
928.416	6450.69
928.725	6400.07
929.034	6335.67
929.344	6372.73
929.653	6394.2
929.962	6262.22
930.271	6216.12
930.581	6236.23
930.89	6224.03
931.199	6159.85
931.508	6156.01
931.817	6133.41
932.125	6098.38
932.434	6135.9
932.743	6070.81
933.051	5976.81
933.36	5967.77
933.669	5971.38
933.977	5932.97
934.286	5901.1
934.594	5897.03
934.902	5858.84
935.21	5896.81
935.519	5792.18
935.827	5806.42
936.135	5759.41
936.443	5724.84
936.751	5719.64
937.059	5674.89
937.367	5689.81
937.674	5697.49
937.982	5592.18
938.29	5616.59
938.597	5591.73
938.905	5518.74
939.213	5454.33
939.52	5480.1
939.827	5489.81
940.135	5404.84
940.442	5456.37
940.749	5404.39
941.056	5425.41
941.363	5374.79
941.67	5337.5
941.977	5307.9
942.284	5261.12
942.591	5275.13
942.898	5224.51
943.205	5260.67
943.511	5199.2
943.818	5211.4
944.125	5149.71
944.431	5133.66
944.738	5134.12
945.044	5103.83
945.35	5131.4
945.657	5041.69
945.963	5057.73
946.269	4966.44
946.575	5022.48
946.881	4975.7
947.187	4954.01
947.493	4946.55
947.799	4928.25
948.105	4878.53
948.41	4851.64
948.716	4835.82
949.022	4812.54
949.327	4832.2
949.633	4771.87
949.938	4754.01
950.244	4735.93
950.549	4678.99
950.854	4678.76
951.16	4682.15
951.465	4650.06
951.77	4648.03
952.075	4597.18
952.38	4610.97
952.685	4611.19
952.99	4584.98
953.294	4573.45
953.599	4554.02
953.904	4484.87
954.209	4497.3
954.513	4435.38
954.818	4448.03
955.122	4408.26
955.426	4383.63
955.731	4410.07
956.035	4382.95
956.339	4359.67
956.643	4365.1
956.948	4339.11
957.252	4282.39
957.556	4350.18
957.86	4255.95
958.163	4257.3
958.467	4198.55
958.771	4203.97
959.075	4168.94
959.378	4122.39
959.682	4162.39
959.985	4101.83
960.289	4094.37
960.592	4102.05
960.896	4094.82
961.199	4089.4
961.502	4020.25
961.805	4054.37
962.108	3982.28
962.411	4006.91
962.714	3930.53
963.017	3957.65
963.32	3935.28
963.623	3890.31
963.926	3910.19
964.228	3886.24
964.531	3847.37
964.833	3879.69
965.136	3827.26
965.438	3807.15
965.741	3773.02
966.043	3760.37
966.345	3739.35
966.648	3763.53
966.95	3740.71
967.252	3719.24
967.554	3728.73
967.856	3708.17
968.158	3665.23
968.46	3641.05
968.761	3641.73
969.063	3660.03
969.365	3606.02
969.666	3618.9
969.968	3581.39
970.269	3550.88
970.571	3547.72
970.872	3571.9
971.174	3541.84
971.475	3487.83
971.776	3476.08
972.077	3467.27
972.378	3450.09
972.679	3425.69
972.98	3451
973.281	3409.42
973.582	3420.94
973.883	3400.6
974.183	3405.35
974.484	3340.72
974.785	3337.78
975.085	3323.54
975.386	3319.02
975.686	3307.5
975.986	3268.18
976.287	3281.28
976.587	3227.27
976.887	3259.82
977.187	3255.97
977.487	3221.4
977.787	3140.95
978.087	3150.67
978.387	3164.45
978.687	3166.71
978.987	3121.74
979.286	3121.29
979.586	3092.59
979.885	3103.44
980.185	3100.95
980.484	3040.39
980.784	3067.28
981.083	3033.61
981.382	3012.14
981.682	3025.25
981.981	2980.5
982.28	3004.45
982.579	2967.17
982.878	2954.06
983.177	2936.43
983.475	2921.97
983.774	2913.16
984.073	2916.32
984.372	2907.73
984.67	2897.79
984.969	2874.74
985.267	2853.05
985.566	2859.83
985.864	2850.56
986.162	2857.11
986.461	2813.5
986.759	2766.72
987.057	2761.52
987.355	2777.12
987.653	2763.56
987.951	2750.22
988.249	2744.12
988.547	2712.26
988.844	2682.66
989.142	2668.87
989.44	2643.56
989.737	2663.45
990.035	2609.44
990.332	2635.43
990.63	2618.25
990.927	2599.72
991.224	2584.13
991.521	2594.07
991.819	2567.4
992.116	2564.24
992.413	2555.43
992.71	2552.04
993.006	2509.78
993.303	2528.31
993.6	2502.1
993.897	2499.84
994.193	2508.2
994.49	2496.9
994.787	2467.07
995.083	2457.8
995.379	2426.17
995.676	2429.33
995.972	2369.44
996.268	2372.83
996.565	2383.23
996.861	2387.52
997.157	2397.01
997.453	2342.1
997.749	2368.31
998.044	2327.64
998.34	2328.54
998.636	2281.76
998.932	2274.76
999.227	2283.12
999.523	2311.82
999.818	2265.49
1000.114	2256.23
1000.409	2249.67
1000.704	2223.23
1001	2243.57
1001.295	2189.79
1001.59	2166.28
1001.885	2172.16
1002.18	2187.53
1002.475	2144.59
1002.77	2142.56
1003.065	2138.04
1003.359	2129.45
1003.654	2106.63
1003.949	2079.28
1004.243	2060.98
1004.538	2050.58
1004.832	2067.08
1005.127	2063.69
1005.421	2064.37
1005.715	2002.67
1006.009	1996.35
1006.304	1992.28
1006.598	1975.1
1006.892	1957.48
1007.186	1943.92
1007.48	1918.83
1007.773	1936.69
1008.067	1922
1008.361	1916.12
1008.655	1908.44
1008.948	1897.14
1009.242	1923.58
1009.535	1875.67
1009.829	1870.7
1010.122	1857.59
1010.415	1849.68
1010.708	1822.79
1011.001	1814.88
1011.295	1826.18
1011.588	1822.11
1011.881	1782.57
1012.173	1756.8
1012.466	1800.87
1012.759	1737.37
1013.052	1759.29
1013.344	1738.5
1013.637	1719.06
1013.93	1748.22
1014.222	1708.67
1014.514	1711.16
1014.807	1705.05
1015.099	1657.37
1015.391	1659.86
1015.683	1661.89
1015.976	1669.12
1016.268	1628.45
1016.56	1615.11
1016.851	1631.16
1017.143	1592.51
1017.435	1604.94
1017.727	1575.34
1018.018	1596.36
1018.31	1562.91
1018.602	1595.45
1018.893	1571.72
1019.185	1525.62
1019.476	1534.89
1019.767	1538.73
1020.058	1520.43
1020.35	1483.36
1020.641	1482.69
1020.932	1441.33
1021.223	1450.82
1021.514	1458.51
1021.804	1446.3
1022.095	1460.31
1022.386	1423.93
1022.677	1444.5
1022.967	1439.52
1023.258	1413.99
1023.548	1379.86
1023.839	1384.84
1024.129	1379.41
1024.419	1368.57
1024.709	1337.15
1025	1353.2
1025.29	1360.88
1025.58	1339.19
1025.87	1329.02
1026.16	1335.8
1026.449	1322.92
1026.739	1304.61
1027.029	1320.43
1027.319	1265.29
1027.608	1260.32
1027.898	1257.38
1028.187	1236.82
1028.477	1244.5
1028.766	1252.86
1029.055	1211.51
1029.344	1205.63
1029.634	1213.77
1029.923	1202.02
1030.212	1222.35
1030.501	1214.45
1030.79	1169.02
1031.078	1162.47
1031.367	1173.54
1031.656	1154.56
1031.945	1172.41
1032.233	1141.23
1032.522	1138.52
1032.81	1145.52
1033.099	1125.18
1033.387	1123.37
1033.675	1130.83
1033.963	1088.57
1034.251	1100.1
1034.54	1078.63
1034.828	1055.58
1035.116	1053.77
1035.403	1035.69
1035.691	1057.39
1035.979	1054.45
1036.267	1051.06
1036.554	1064.62
1036.842	1020.55
1037.129	1044.28
1037.417	1011.06
1037.704	1020.1
1037.992	971.06
1038.279	991.85
1038.566	992.08
1038.853	992.08
1039.14	992.08
