Data from hue_170_FLMS001491_00031.txt Node
Date: Tue Feb 07 16:48:35 GMT 2017
User: dcchb
Spectrometer: FLMS00149
Trigger mode: 0
Integration Time (sec): 2.000000E-2
Scans to average: 10
Electric dark correction enabled: true
Nonlinearity correction enabled: false
Boxcar width: 0
XAxis mode: Wavelengths
Number of Pixels in Spectrum: 2048
>>>>>Begin Spectral Data<<<<<
341.393	-24.08
341.776	-24.08
342.16	-24.08
342.543	-69.05
342.927	-60.46
343.31	-69.96
343.693	-59.79
344.077	-76.51
344.46	-63.63
344.843	-49.62
345.226	-46
345.61	-39.45
345.993	-9.39
346.376	-10.3
346.759	12.98
347.142	34.9
347.525	40.32
347.908	57.27
348.291	80.77
348.674	94.79
349.057	103.6
349.44	101.57
349.823	140.66
350.206	153.77
350.588	175.01
350.971	192.64
351.354	240.54
351.737	257.95
352.119	238.74
352.502	261.33
352.884	262.46
353.267	281.67
353.65	311.5
354.032	298.4
354.414	316.7
354.797	317.6
355.179	320.32
355.562	307.66
355.944	316.25
356.326	322.12
356.709	326.42
357.091	329.13
357.473	332.75
357.855	354.67
358.238	343.59
358.62	332.97
359.002	364.38
359.384	346.53
359.766	368.22
360.148	344.04
360.53	335.68
360.912	362.35
361.294	333.42
361.676	316.7
362.057	327.1
362.439	324.61
362.821	322.8
363.203	335.01
363.584	335.91
363.966	301.33
364.348	344.72
364.729	341.11
365.111	317.83
365.493	311.96
365.874	318.73
366.256	299.3
366.637	307.66
367.019	290.26
367.4	305.63
367.781	304.27
368.163	331.16
368.544	318.06
368.925	328.9
369.306	323.93
369.688	308.34
370.069	307.66
370.45	296.81
370.831	302.46
371.212	322.35
371.593	314.67
371.974	298.17
372.355	310.6
372.736	300.2
373.117	302.01
373.498	310.15
373.879	320.54
374.26	321.9
374.641	294.55
375.021	302.01
375.402	305.4
375.783	313.54
376.163	335.46
376.544	313.76
376.925	324.16
377.305	306.98
377.686	286.42
378.066	317.38
378.447	306.76
378.827	330.26
379.208	305.85
379.588	336.36
379.968	342.24
380.349	328.23
380.729	329.36
381.109	335.68
381.489	361.22
381.87	343.37
382.25	335.23
382.63	318.96
383.01	342.69
383.39	355.57
383.77	337.27
384.15	339.75
384.53	336.59
384.91	353.99
385.29	350.37
385.67	337.94
386.049	349.47
386.429	321.22
386.809	343.14
387.189	375
387.568	353.54
387.948	358.96
388.328	354.89
388.707	350.37
389.087	347.66
389.466	345.4
389.846	364.16
390.225	349.24
390.605	359.64
390.984	353.99
391.363	365.74
391.743	365.06
392.122	349.92
392.501	365.29
392.881	373.65
393.26	362.35
393.639	372.97
394.018	372.29
394.397	384.04
394.776	383.82
395.155	371.16
395.534	384.27
395.913	378.85
396.292	391.28
396.671	399.64
397.05	408
397.429	392.18
397.808	389.02
398.186	391.95
398.565	387.43
398.944	403.7
399.323	389.24
399.701	407.32
400.08	411.16
400.458	404.38
400.837	394.89
401.215	384.04
401.594	421.33
401.972	414.78
402.351	399.86
402.729	401.22
403.107	428.34
403.486	406.87
403.864	420.88
404.242	399.41
404.62	433.53
404.999	407.09
405.377	422.69
405.755	442.35
406.133	435.34
406.511	438.05
406.889	465.62
407.267	436.25
407.645	444.15
408.023	433.31
408.401	446.19
408.779	444.83
409.156	462.91
409.534	471.27
409.912	493.65
410.29	491.61
410.667	482.57
411.045	472.4
411.422	495.68
411.8	494.55
412.178	496.81
412.555	516.92
412.933	488.45
413.31	494.55
413.687	513.53
414.065	522.57
414.442	540.65
414.819	555.34
415.197	524.38
415.574	570.71
415.951	537.49
416.328	541.1
416.705	561.21
417.082	589.91
417.46	590.82
417.837	582.68
418.214	576.13
418.591	590.82
418.967	612.29
419.344	579.74
419.721	616.35
420.098	593.53
420.475	627.2
420.852	621.78
421.228	611.61
421.605	624.49
421.982	619.74
422.358	643.7
422.735	651.16
423.111	648.22
423.488	647.54
423.864	673.53
424.241	681.66
424.617	691.83
424.994	705.84
425.37	684.6
425.746	738.84
426.123	705.17
426.499	721.89
426.875	732.51
427.251	747.65
427.627	756.46
428.003	740.42
428.379	756.24
428.756	758.72
429.132	760.08
429.507	772.73
429.883	786.74
430.259	791.49
430.635	785.84
431.011	803.02
431.387	793.98
431.763	843.01
432.138	832.17
432.514	844.6
432.89	855.44
433.265	882.79
433.641	874.65
434.016	903.8
434.392	895.89
434.767	919.85
435.143	912.39
435.518	938.61
435.894	956.46
436.269	936.57
436.644	954.88
437.02	974.76
437.395	997.13
437.77	967.31
438.145	1005.95
438.52	1021.54
438.895	1046.63
439.271	1030.81
439.646	1052.27
440.021	1076.23
440.395	1072.61
440.77	1047.53
441.145	1109.22
441.52	1111.71
441.895	1106.96
442.27	1137.02
442.645	1130.69
443.019	1170.01
443.394	1151.93
443.769	1164.81
444.143	1153.74
444.518	1193.74
444.892	1174.53
445.267	1203.68
445.641	1199.39
446.016	1221.31
446.39	1220.63
446.764	1235.55
447.139	1230.35
447.513	1246.85
447.887	1256.34
448.262	1257.47
448.636	1280.52
449.01	1292.27
449.384	1313.74
449.758	1309.89
450.132	1342.44
450.506	1308.09
450.88	1326.39
451.254	1391.7
451.628	1333.62
452.002	1361.42
452.376	1394.64
452.75	1395.77
453.123	1408.88
453.497	1416.56
453.871	1447.74
454.244	1468.08
454.618	1498.36
454.992	1516.22
455.365	1527.97
455.739	1566.84
456.112	1562.32
456.486	1554.18
456.859	1600.06
457.232	1610
457.606	1614.52
457.979	1608.87
458.352	1672.15
458.725	1696.78
459.099	1714.4
459.472	1723.22
459.845	1727.96
460.218	1743.33
460.591	1784.01
460.964	1792.59
461.337	1858.36
461.71	1901.97
462.083	1922.53
462.456	1904.91
462.829	1952.82
463.201	1958.01
463.574	1943.55
463.947	2005.92
464.32	2061.29
464.692	2049.08
465.065	2088.63
465.438	2135.18
465.81	2166.37
466.183	2181.74
466.555	2222.87
466.928	2232.13
467.3	2279.81
467.672	2320.72
468.045	2347.38
468.417	2406.59
468.789	2436.19
469.161	2465.34
469.534	2504.44
469.906	2529.07
470.278	2568.62
470.65	2617.21
471.022	2686.58
471.394	2715.51
471.766	2756.18
472.138	2763.42
472.51	2882.28
472.882	2964.09
473.253	2984.2
473.625	3037.76
473.997	3111.43
474.369	3161.37
474.74	3246.79
475.112	3319.33
475.484	3344.87
475.855	3439.1
476.227	3482.72
476.598	3588.25
476.97	3623.05
477.341	3753.9
477.713	3836.83
478.084	3842.71
478.455	4001.8
478.827	4007.23
479.198	4176.26
479.569	4215.36
479.94	4352.98
480.311	4364.5
480.682	4550.71
481.053	4662.8
481.424	4762.91
481.795	4831.84
482.166	4958.39
482.537	5073.19
482.908	5173.75
483.279	5249.9
483.65	5365.61
484.021	5510.46
484.391	5650.12
484.762	5731.47
485.133	5785.48
485.503	5915.2
485.874	6129.88
486.244	6221.18
486.615	6348.41
486.985	6415.07
487.356	6534.84
487.726	6698.23
488.097	6897.77
488.467	6898.9
488.837	7091.66
489.207	7246.46
489.578	7397.87
489.948	7549.05
490.318	7631.31
490.688	7740.46
491.058	7926.22
491.428	8045.76
491.798	8135.25
492.168	8311.07
492.538	8377.73
492.908	8540.89
493.278	8631.28
493.648	8665.63
494.017	8881.67
494.387	8979.98
494.757	9113.53
495.126	9163.93
495.496	9293.64
495.866	9379.51
496.235	9449.12
496.605	9606.17
496.974	9704.25
497.344	9762.1
497.713	9845.49
498.082	9977.46
498.452	10031.02
498.821	10119.38
499.19	10186.05
499.559	10341.3
499.928	10431.91
500.298	10500.61
500.667	10583.32
501.036	10566.6
501.405	10708.97
501.774	10734.96
502.143	10829.87
502.512	10919.13
502.88	11025.12
503.249	11060.6
503.618	11096.98
503.987	11073.25
504.356	11199.58
504.724	11254.94
505.093	11261.72
505.462	11353.92
505.83	11381.04
506.199	11466.01
506.567	11641.6
506.936	11628.04
507.304	11686.12
507.672	11778.32
508.041	11778.32
508.409	11869.39
508.777	11964.53
509.145	11944.42
509.514	12015.38
509.882	12095.6
510.25	12124.53
510.618	12151.87
510.986	12240.91
511.354	12223.96
511.722	12212.66
512.09	12385.76
512.458	12351.41
512.826	12512.31
513.193	12522.93
513.561	12414.24
513.929	12555.47
514.297	12655.81
514.664	12609.94
515.032	12627.11
515.4	12766.54
515.767	12728.35
516.135	12755.92
516.502	12665.98
516.869	12846.54
517.237	12807.45
517.604	12805.41
517.972	12865.98
518.339	12963.37
518.706	12898.52
519.073	12934
519.44	13005.63
519.808	13052.41
520.175	12992.3
520.542	13149.81
520.909	13181
521.276	13106.19
521.643	13072.98
522.009	13199.3
522.376	13227.55
522.743	13256.02
523.11	13334.44
523.477	13374.89
523.843	13363.14
524.21	13509.57
524.577	13524.26
524.943	13529.23
525.31	13472.06
525.676	13600.19
526.043	13596.8
526.409	13608.1
526.776	13631.6
527.142	13630.93
527.508	13689.68
527.874	13687.87
528.241	13729.68
528.607	13626.63
528.973	13699.63
529.339	13595.9
529.705	13761.32
530.071	13719.51
530.437	13715.44
530.803	13747.76
531.169	13791.6
531.535	13744.14
531.901	13599.52
532.267	13668.44
532.632	13697.82
532.998	13643.13
533.364	13688.1
533.73	13705.28
534.095	13698.72
534.461	13660.08
534.826	13597.48
535.192	13656.24
535.557	13680.19
535.923	13539.63
536.288	13538.27
536.653	13541.44
537.019	13393.42
537.384	13408.79
537.749	13449.91
538.114	13428.67
538.479	13391.84
538.845	13383.02
539.21	13243.59
539.575	13282.01
539.94	13255.57
540.305	13257.6
540.67	13193.88
541.034	13161.79
541.399	13135.12
541.764	13148.68
542.129	13113.2
542.494	13062.58
542.858	13004.95
543.223	12960.89
543.587	13050.6
543.952	12938.29
544.316	12904.39
544.681	12781.91
545.045	12715.7
545.41	12778.52
545.774	12749.59
546.138	12700.56
546.503	12678.64
546.867	12576.72
547.231	12633.44
547.595	12597.51
547.959	12590.28
548.324	12529.71
548.688	12409.94
549.052	12438.64
549.416	12455.14
549.779	12298.31
550.143	12302.15
550.507	12423.28
550.871	12277.52
551.235	12261.7
551.599	12260.12
551.962	12251.53
552.326	12169.04
552.689	12188.7
553.053	12106
553.417	12132.21
553.78	12173.79
554.143	12109.16
554.507	12067.8
554.87	12031.87
555.234	12104.64
555.597	11969.95
555.96	11951.65
556.323	12008.37
556.686	11898.77
557.05	11889.5
557.413	11965.66
557.776	11924.08
558.139	11959.33
558.502	11832.56
558.865	11758.66
559.228	11865.55
559.59	11882.5
559.953	11885.44
560.316	11911.42
560.679	11780.35
561.041	11819.22
561.404	11831.65
561.767	11916.85
562.129	11822.39
562.492	11919.79
562.854	11866.23
563.217	11860.8
563.579	11809.96
563.941	11805.44
564.304	11932.67
564.666	11887.24
565.028	11857.41
565.39	11875.04
565.753	11885.21
566.115	11802.27
566.477	11877.75
566.839	11850.86
567.201	11960.91
567.563	11839.79
567.925	12030.07
568.287	11955.04
568.648	12020.35
569.01	12016.05
569.372	11978.09
569.734	11931.31
570.095	11940.35
570.457	12048.37
570.819	12062.38
571.18	11934.93
571.542	12010.86
571.903	12017.41
572.265	12014.92
572.626	12021.7
572.987	12053.79
573.349	11956.39
573.71	12140.34
574.071	12145.09
574.432	12050.18
574.794	12221.02
575.155	12086.33
575.516	12051.53
575.877	12109.16
576.238	12050.63
576.599	12120.01
576.96	12122.49
577.32	12107.13
577.681	12145.99
578.042	12074.36
578.403	12138.54
578.763	12064.64
579.124	12123.85
579.485	12248.14
579.845	12167.91
580.206	12141.02
580.566	12167.24
580.927	12099.67
581.287	12171.08
581.648	12107.8
582.008	12094.47
582.368	12040.01
582.728	12168.37
583.089	12155.03
583.449	12014.47
583.809	12103.28
584.169	12018.54
584.529	12014.25
584.889	12089.72
585.249	12032.55
585.609	12049.95
585.969	11985.77
586.329	12008.82
586.688	12013.12
587.048	11979.44
587.408	11928.82
587.768	11944.64
588.127	11954.81
588.487	11892.44
588.846	12006.34
589.206	11936.96
589.565	11944.19
589.925	11954.13
590.284	11932.67
590.643	11924.08
591.003	11863.52
591.362	11921.59
591.721	11884.31
592.08	11764.08
592.44	11930.18
592.799	11844.08
593.158	11877.53
593.517	11798.88
593.876	11871.2
594.235	11811.31
594.593	11821.26
594.952	11800.24
595.311	11745.1
595.67	11853.35
596.029	11872.33
596.387	11821.26
596.746	11870.52
597.104	11843.4
597.463	11743.52
597.822	11784.2
598.18	11742.16
598.538	11786.91
598.897	11826.23
599.255	11727.25
599.613	11833.69
599.972	11773.12
600.33	11766.34
600.688	11765.89
601.046	11773.57
601.404	11848.37
601.762	11729.28
602.12	11832.1
602.478	11757.53
602.836	11810.18
603.194	11734.03
603.552	11724.76
603.91	11643.63
604.268	11691.99
604.625	11670.07
604.983	11771.77
605.341	11611.77
605.698	11741.03
606.056	11804.76
606.413	11708.49
606.771	11636.18
607.128	11786.68
607.485	11754.82
607.843	11707.81
608.2	11751.2
608.557	11826.45
608.914	11787.59
609.272	11823.06
609.629	11817.42
609.986	11894.48
610.343	11804.76
610.7	11811.54
611.057	11823.74
611.414	11816.74
611.771	11764.31
612.127	11874.36
612.484	11881.14
612.841	11832.1
613.198	11818.55
613.554	11837.3
613.911	11887.92
614.267	11929.95
614.624	11926.34
614.98	11941.71
615.337	11956.85
615.693	11931.54
616.05	11903.51
616.406	12013.79
616.762	12003.85
617.118	11926.34
617.475	11902.38
617.831	11997.52
618.187	12024.64
618.543	11971.54
618.899	12061.7
619.255	12014.25
619.611	12045.43
619.967	12056.96
620.323	12033.68
620.678	12036.17
621.034	11993
621.39	12006.34
621.746	12003.85
622.101	12089.27
622.457	11957.98
622.812	11982.83
623.168	12045.88
623.523	12045.88
623.879	12018.31
624.234	12001.82
624.589	12030.29
624.945	12033.23
625.3	11973.12
625.655	12071.87
626.01	12049.5
626.365	12044.3
626.72	12016.28
627.075	11946.23
627.43	12003.85
627.785	12047.69
628.14	11945.77
628.495	12030.97
628.85	11903.51
629.205	11899
629.559	12031.42
629.914	11975.6
630.269	11938.99
630.623	11998.88
630.978	11881.59
631.332	11953.68
631.687	11889.5
632.041	11919.79
632.396	11952.78
632.75	11814.25
633.104	11846.12
633.459	11816.51
633.813	11757.3
634.167	11821.71
634.521	11784.42
634.875	11780.58
635.229	11789.62
635.583	11688.83
635.937	11660.58
636.291	11715.27
636.645	11685.44
636.999	11676.63
637.352	11745.1
637.706	11622.84
638.06	11654.03
638.413	11619
638.767	11616.74
639.121	11616.52
639.474	11586.01
639.828	11580.81
640.181	11603.18
640.534	11619.23
640.888	11572.9
641.241	11541.49
641.594	11588.72
641.947	11573.35
642.301	11564.31
642.654	11511.21
643.007	11585.1
643.36	11521.6
643.713	11442.96
644.066	11572.22
644.419	11484.09
644.771	11374.26
645.124	11285
645.477	11378.33
645.83	11268.28
646.182	11246.13
646.535	11148.28
646.888	11230.76
647.24	11078
647.593	11207.49
647.945	11122.52
648.298	11095.85
648.65	11147.38
649.002	11024.89
649.355	11103.99
649.707	11126.81
650.059	11179.01
650.411	11273.93
650.763	11320.71
651.115	11321.84
651.467	11319.35
651.819	11358.44
652.171	11403.87
652.523	11427.37
652.875	11338.11
653.227	11357.31
653.578	11394.6
653.93	11328.84
654.282	11320.25
654.633	11320.71
654.985	11298.56
655.337	11366.35
655.688	11307.37
656.039	11399.57
656.391	11277.32
656.742	11339.24
657.094	11336.07
657.445	11391.44
657.796	11342.85
658.147	11297.2
658.498	11340.14
658.849	11395.73
659.2	11358.44
659.551	11402.74
659.902	11461.49
660.253	11437.76
660.604	11468.95
660.955	11357.77
661.306	11388.73
661.656	11314.6
662.007	11468.95
662.358	11386.92
662.708	11405.67
663.059	11349.63
663.409	11281.16
663.76	11443.41
664.11	11424.66
664.461	11445.22
664.811	11452.91
665.161	11477.31
665.511	11442.74
665.862	11432.34
666.212	11433.47
666.562	11556.18
666.912	11472.79
667.262	11403.19
667.612	11473.7
667.962	11421.72
668.312	11506.69
668.662	11534.26
669.011	11453.36
669.361	11395.96
669.711	11368.61
670.06	11431.89
670.41	11357.54
670.76	11384.43
671.109	11373.13
671.459	11332.68
671.808	11336.52
672.157	11427.82
672.507	11261.95
672.856	11323.19
673.205	11376.52
673.554	11270.76
673.904	11299.91
674.253	11367.71
674.602	11262.63
674.951	11169.3
675.3	11161.84
675.649	11308.5
675.998	11225.79
676.346	11299.01
676.695	11290.88
677.044	11180.14
677.393	11229.63
677.741	11230.09
678.09	11179.69
678.438	11134.04
678.787	11249.29
679.135	11123.2
679.484	11085.23
679.832	11128.17
680.181	11035.29
680.529	11022.18
680.877	11070.09
681.225	11008.17
681.573	11088.62
681.922	10935.86
682.27	10982.63
682.618	10998
682.966	10946.7
683.314	10957.55
683.661	10929.75
684.009	10853.6
684.357	10889.53
684.705	10756.2
685.053	10778.57
685.4	10788.97
685.748	10778.8
686.095	10724.79
686.443	10691.34
686.79	10672.13
687.138	10722.3
687.485	10744
687.832	10647.95
688.18	10636.66
688.527	10545.81
688.874	10598.01
689.221	10525.7
689.568	10497.68
689.915	10480.28
690.262	10431.46
690.609	10445.7
690.956	10439.6
691.303	10357.11
691.65	10276.21
691.997	10223.11
692.344	10207.97
692.69	10215.65
693.037	10223.56
693.383	10091.81
693.73	10081.87
694.077	10108.08
694.423	10076.44
694.769	10056.33
695.116	10007.07
695.462	9960.51
695.808	9949.67
696.155	9930.69
696.501	9830.35
696.847	9786.06
697.193	9777.92
697.539	9771.59
697.885	9661.31
698.231	9671.93
698.577	9722.1
698.923	9631.03
699.269	9551.71
699.614	9497.93
699.96	9479.85
700.306	9483.47
700.651	9447.76
700.997	9403.47
701.342	9355.11
701.688	9365.28
702.033	9351.49
702.379	9264.04
702.724	9262.68
703.069	9233.75
703.415	9229.46
703.76	9147.65
704.105	9227.65
704.45	9137.26
704.795	9069.01
705.14	9094.32
705.485	8987.21
705.83	8978.39
706.175	8990.6
706.52	8949.24
706.865	8884.16
707.209	8908.11
707.554	8775.91
707.899	8892.75
708.243	8777.95
708.588	8832.63
708.932	8757.61
709.277	8726.2
709.621	8673.09
709.966	8638.97
710.31	8626.99
710.654	8542.7
710.998	8606.88
711.342	8602.36
711.687	8517.84
712.031	8530.72
712.375	8465.19
712.719	8505.41
713.063	8447.56
713.407	8459.54
713.75	8431.06
714.094	8418.18
714.438	8408.01
714.782	8403.95
715.125	8445.98
715.469	8372.53
715.812	8308.35
716.156	8225.87
716.499	8252.31
716.843	8272.88
717.186	8301.12
717.53	8330.73
717.873	8281.01
718.216	8275.59
718.559	8241.92
718.902	8177.51
719.246	8188.13
719.589	8188.36
719.932	8174.35
720.275	8162.14
720.617	8127.12
720.96	8148.59
721.303	8138.19
721.646	8156.49
721.989	8066.55
722.331	8112.65
722.674	8111.52
723.016	8093.9
723.359	8118.76
723.701	8114.91
724.044	8000.57
724.386	8065.42
724.729	8102.03
725.071	8061.81
725.413	8076.04
725.755	7990.4
726.097	8070.4
726.439	8019.1
726.782	8015.26
727.124	8040.57
727.465	8000.11
727.807	7971.87
728.149	7952.43
728.491	7974.8
728.833	7977.06
729.175	7965.77
729.516	7969.61
729.858	7863.39
730.199	7961.02
730.541	7927.57
730.882	7923.96
731.224	7915.37
731.565	7869.72
731.906	7952.21
732.248	7901.36
732.589	7938.42
732.93	7930.29
733.271	7904.75
733.612	7893.45
733.953	7902.94
734.294	7913.79
734.635	7912.89
734.976	7930.51
735.317	7947.69
735.658	7919.21
735.999	7903.39
736.339	7871.53
736.68	7960.12
737.021	7895.03
737.361	7917.18
737.702	8036.05
738.042	7987.01
738.383	7950.85
738.723	8017.29
739.063	7970.28
739.404	8008.02
739.744	7970.74
740.084	8017.74
740.424	8061.81
740.764	8048.7
741.104	8036.5
741.444	7999.89
741.784	8058.87
742.124	8104.97
742.464	8073.33
742.804	8123.05
743.143	8128.47
743.483	8167.79
743.823	8119.66
744.162	8161.24
744.502	8232.65
744.841	8219.77
745.181	8321.91
745.52	8319.88
745.86	8397.62
746.199	8363.27
746.538	8433.1
746.877	8469.48
747.216	8528.91
747.556	8590.83
747.895	8661.34
748.234	8624.5
748.573	8732.98
748.911	8761.68
749.25	8784.5
749.589	8860.43
749.928	8995.57
750.267	9070.37
750.605	9070.82
750.944	9137.71
751.283	9226.07
751.621	9313.3
751.96	9363.92
752.298	9459.29
752.636	9595.78
752.975	9705.38
753.313	9710.58
753.651	9931.14
753.989	9946.5
754.327	9967.52
754.666	10163.9
755.004	10287.51
755.342	10474.4
755.679	10662.87
756.017	10702.19
756.355	10818.12
756.693	10864.67
757.031	11136.76
757.368	11206.13
757.706	11348.05
758.044	11466.01
758.381	11620.58
758.719	11794.59
759.056	11895.38
759.394	12073.91
759.731	12089.95
760.068	12353.9
760.405	12533.55
760.743	12694.68
761.08	12882.7
761.417	13127.89
761.754	13168.57
762.091	13363.59
762.428	13516.13
762.765	13653.07
763.102	13851.71
763.438	14056.23
763.775	14101.42
764.112	14359.95
764.449	14545.25
764.785	14701.18
765.122	14836.77
765.458	14928.97
765.795	15077.89
766.131	15107.27
766.467	15466.13
766.804	15476.98
767.14	15575.28
767.476	15825.67
767.812	15945.22
768.148	16024.31
768.485	16105.66
768.821	16284.19
769.157	16382.04
769.492	16494.35
769.828	16714.01
770.164	16716.72
770.5	16866.32
770.836	16970.73
771.171	17047.56
771.507	17064.96
771.842	17145.64
772.178	17317.38
772.513	17361.68
772.849	17497.27
773.184	17525.97
773.519	17614.1
773.855	17674.66
774.19	17762.57
774.525	17829.23
774.86	17904.26
775.195	17907.2
775.53	18004.6
775.865	18041.21
776.2	17989.91
776.535	18013.18
776.87	18046.86
777.205	18063.13
777.539	18113.07
777.874	18271.93
778.209	18142.22
778.543	18247.53
778.878	18208.43
779.212	18286.4
779.547	18163.46
779.881	18302.44
780.215	18235.78
780.55	18433.06
780.884	18374.76
781.218	18312.39
781.552	18437.58
781.886	18345.15
782.22	18380.41
782.554	18377.24
782.888	18390.35
783.222	18268.32
783.556	18341.54
783.889	18315.78
784.223	18168.21
784.557	18203.69
784.89	18280.97
785.224	18221.77
785.557	18110.58
785.891	18116.23
786.224	18145.16
786.558	18260.64
786.891	18103.8
787.224	18123.69
787.557	18092.96
787.891	18093.63
788.224	18053.64
788.557	18099.96
788.89	18083.92
789.223	18104.93
789.556	18029.91
789.888	17982
790.221	18000.76
790.554	17927.54
790.887	17855.67
791.219	17847.54
791.552	17856.8
791.884	17716.92
792.217	17769.8
792.549	17728.9
792.882	17604.83
793.214	17567.55
793.546	17666.53
793.879	17508.11
794.211	17464.5
794.543	17519.19
794.875	17500.88
795.207	17519.64
795.539	17523.93
795.871	17394.44
796.203	17298.18
796.535	17192.42
796.867	17215.24
797.198	17120.1
797.53	17182.92
797.862	17049.59
798.193	17063.61
798.525	16998.75
798.856	17067.22
799.188	16909.26
799.519	16807.57
799.85	16740.68
800.182	16832.42
800.513	16765.76
800.844	16670.62
801.175	16808.47
801.506	16698.64
801.837	16584.3
802.168	16624.07
802.499	16512.43
802.83	16435.37
803.161	16433.57
803.491	16417.07
803.822	16441.25
804.153	16342.27
804.483	16306.79
804.814	16277.86
805.145	16222.5
805.475	16252.55
805.805	16123.52
806.136	16169.39
806.466	16168.71
806.796	16168.04
807.126	15958.1
807.457	16005.78
807.787	16053.01
808.117	15896.4
808.447	15839.91
808.777	15857.76
809.107	15876.07
809.436	15770.31
809.766	15812.79
810.096	15816.18
810.426	15689.63
810.755	15674.94
811.085	15615.73
811.414	15692.12
811.744	15571.44
812.073	15483.08
812.403	15566.92
812.732	15452.57
813.061	15413.03
813.39	15263.43
813.719	15375.51
814.049	15431.11
814.378	15321.73
814.707	15306.36
815.036	15285.12
815.365	15205.57
815.693	15037.22
816.022	15095.97
816.351	15030.44
816.68	15077.89
817.008	15039.25
817.337	14933.04
817.665	14945.24
817.994	15044
818.322	14952.93
818.651	14891.46
818.979	14811.69
819.307	14889.2
819.636	14878.58
819.964	14799.03
820.292	14814.85
820.62	14863.44
820.948	14749.09
821.276	14832.93
821.604	14757.45
821.932	14902.53
822.259	14801.74
822.587	14760.16
822.915	14728.75
823.243	14839.03
823.57	14670
823.898	14773.27
824.225	14635.19
824.553	14729.2
824.88	14683.55
825.207	14801.97
825.535	14766.94
825.862	14784.12
826.189	14723.55
826.516	14814.4
826.843	14879.71
827.17	14772.37
827.497	14772.59
827.824	14801.97
828.151	14821.4
828.478	14782.76
828.805	14817.34
829.131	14708.86
829.458	14808.52
829.785	14693.72
830.111	14709.32
830.438	14747.28
830.764	14676.78
831.09	14750.9
831.417	14725.36
831.743	14751.58
832.069	14791.57
832.395	14723.1
832.722	14740.5
833.048	14607.17
833.374	14691.69
833.7	14650.34
834.026	14680.84
834.351	14662.99
834.677	14686.72
835.003	14691.01
835.329	14780.73
835.654	14543.45
835.98	14575.31
836.306	14582.99
836.631	14540.51
836.956	14591.35
837.282	14514.75
837.607	14474.29
837.932	14452.15
838.258	14429.78
838.583	14451.7
838.908	14349.55
839.233	14351.13
839.558	14284.7
839.883	14310.68
840.208	14216
840.533	14231.59
840.858	14305.71
841.182	14306.39
841.507	14260.06
841.832	14177.35
842.156	14096
842.481	14080.63
842.805	14060.07
843.13	14006.74
843.454	14006.51
843.778	14027.3
844.103	13893.52
844.427	13871.15
844.751	13928.77
845.075	13853.52
845.399	13748.66
845.723	13681.32
846.047	13757.25
846.371	13571.49
846.695	13681.1
847.019	13621.21
847.343	13520.87
847.666	13446.98
847.99	13386.19
848.313	13355.91
848.637	13288.56
848.96	13263.7
849.284	13239.07
849.607	13139.87
849.931	13104.39
850.254	13053.77
850.577	13056.25
850.9	12848.12
851.223	12924.5
851.546	12737.84
851.869	12752.08
852.192	12776.71
852.515	12686.09
852.838	12649.26
853.161	12621.46
853.483	12607
853.806	12476.16
854.129	12489.94
854.451	12508.92
854.774	12344.41
855.096	12350.28
855.419	12341.7
855.741	12255.6
856.063	12277.06
856.385	12289.04
856.708	12204.75
857.03	12130.4
857.352	12129.72
857.674	12103.51
857.996	12031.65
858.318	11957.52
858.64	11919.79
858.961	11972.67
859.283	11861.71
859.605	11874.59
859.926	11887.24
860.248	11833.46
860.57	11704.88
860.891	11722.95
861.212	11581.49
861.534	11674.14
861.855	11554.6
862.176	11652.45
862.498	11628.49
862.819	11599.34
863.14	11518.67
863.461	11540.59
863.782	11470.98
864.103	11581.26
864.424	11394.6
864.745	11461.72
865.065	11396.86
865.386	11365.9
865.707	11358.9
866.027	11399.57
866.348	11327.03
866.668	11225.34
866.989	11288.62
867.309	11208.84
867.63	11289.75
867.95	11235.96
868.27	11096.76
868.59	11217.66
868.91	11164.1
869.23	11181.5
869.55	11151.22
869.87	11145.34
870.19	11063.54
870.51	11131.56
870.83	11192.35
871.15	10993.26
871.469	11086.59
871.789	11037.1
872.109	11052.24
872.428	10926.37
872.748	10994.16
873.067	10998.45
873.386	10980.38
873.706	10870.32
874.025	10890.21
874.344	10818.8
874.663	10857.67
874.982	10760.49
875.301	10862.41
875.62	10846.37
875.939	10773.83
876.258	10763.66
876.577	10802.3
876.896	10706.26
877.214	10715.07
877.533	10667.39
877.852	10672.59
878.17	10669.2
878.489	10763.21
878.807	10630.78
879.125	10621.74
879.444	10569.76
879.762	10543.32
880.08	10600.72
880.398	10527.28
880.716	10472.82
881.034	10534.96
881.352	10478.47
881.67	10433.04
881.988	10457
882.306	10382.2
882.624	10344.91
882.941	10386.72
883.259	10302.65
883.577	10315.76
883.894	10285.03
884.212	10221.75
884.529	10223.11
884.846	10264.24
885.164	10258.81
885.481	10139.27
885.798	10164.35
886.115	10079.16
886.432	10088.2
886.75	10009.78
887.067	10085.26
887.383	9978.37
887.7	10016.33
888.017	10036.9
888.334	9982.89
888.651	9920.52
888.967	9941.08
889.284	9824.7
889.6	9867.64
889.917	9773.4
890.233	9819.73
890.55	9761.65
890.866	9782.67
891.182	9765.49
891.498	9742.44
891.815	9592.39
892.131	9637.13
892.447	9551.94
892.763	9580.64
893.079	9535.22
893.395	9468.1
893.71	9446.86
894.026	9438.95
894.342	9396.24
894.657	9412.28
894.973	9314.43
895.289	9392.62
895.604	9281.89
895.92	9261.55
896.235	9179.74
896.55	9185.17
896.865	9120.09
897.181	9138.62
897.496	9110.82
897.811	9097.71
898.126	9046.87
898.441	9031.73
898.756	9050.03
899.071	8924.38
899.386	8931.39
899.7	8833.09
900.015	8839.64
900.33	8757.38
900.644	8778.4
900.959	8828.12
901.273	8664.05
901.588	8741.11
901.902	8627.67
902.216	8618.86
902.531	8640.32
902.845	8564.62
903.159	8597.61
903.473	8539.76
903.787	8466.09
904.101	8409.14
904.415	8306.32
904.729	8354.68
905.042	8339.99
905.356	8316.49
905.67	8265.64
905.984	8260.9
906.297	8228.36
906.611	8182.26
906.924	8151.75
907.237	8169.6
907.551	8128.47
907.864	8095.25
908.177	8021.58
908.491	7959.21
908.804	8000.79
909.117	7880.8
909.43	7904.3
909.743	7829.05
910.056	7797.63
910.368	7735.49
910.681	7743.85
910.994	7747.47
911.307	7786.56
911.619	7646.45
911.932	7635.38
912.244	7600.35
912.557	7550.86
912.869	7500.24
913.181	7538.21
913.494	7485.55
913.806	7401.94
914.118	7416.18
914.43	7364.2
914.742	7420.69
915.054	7335.05
915.366	7307.48
915.678	7316.29
915.99	7298.89
916.302	7204.88
916.613	7200.59
916.925	7093.92
917.236	7135.73
917.548	7065.22
917.859	7095.28
918.171	6952.91
918.482	7029.07
918.794	6965.11
919.105	6978.22
919.416	6925.11
919.727	6887.83
920.038	6937.77
920.349	6859.13
920.66	6815.74
920.971	6782.52
921.282	6780.03
921.593	6817.09
921.903	6681.51
922.214	6649.87
922.525	6674.05
922.835	6615.74
923.146	6585.01
923.456	6565.12
923.767	6526.93
924.077	6593.15
924.387	6491.68
924.697	6456.65
925.008	6415.75
925.318	6437.22
925.628	6382.08
925.938	6375.3
926.248	6333.72
926.558	6302.53
926.867	6217.34
927.177	6293.04
927.487	6195.64
927.796	6134.17
928.106	6180.5
928.416	6150.67
928.725	6121.52
929.034	6071.58
929.344	6069.54
929.653	6060.96
929.962	6007.62
930.271	5973.05
930.581	5989.55
930.89	5950
931.199	5916.33
931.508	5905.93
931.817	5826.84
932.125	5884.24
932.434	5792.26
932.743	5797.01
933.051	5768.76
933.36	5735.77
933.669	5684.02
933.977	5686.5
934.286	5656.45
934.594	5660.74
934.902	5631.82
935.21	5594.08
935.519	5620.06
935.827	5569.44
936.135	5510.91
936.443	5528.32
936.751	5510.01
937.059	5482.89
937.367	5412.16
937.674	5415.55
937.982	5366.29
938.29	5319.51
938.597	5404.25
938.905	5324.93
939.213	5297.59
939.52	5257.59
939.827	5295.33
940.135	5202
940.442	5275.21
940.749	5223.24
941.056	5176.46
941.363	5171.04
941.67	5150.92
941.977	5116.57
942.284	5078.16
942.591	5088.1
942.898	5037.48
943.205	5019.4
943.511	4971.27
943.818	5001.78
944.125	4976.92
944.431	4962.91
944.738	4947.09
945.044	4870.25
945.35	4915.9
945.657	4887.2
945.963	4832.06
946.269	4804.04
946.575	4823.02
946.881	4750.71
947.187	4775.34
947.493	4696.92
947.799	4717.26
948.105	4691.05
948.41	4645.63
948.716	4696.02
949.022	4637.27
949.327	4594.1
949.633	4572.41
949.938	4554.78
950.244	4558.17
950.549	4545.74
950.854	4486.99
951.16	4475.46
951.465	4495.57
951.77	4435.01
952.075	4457.16
952.38	4432.52
952.685	4430.26
952.99	4352.53
953.294	4338.74
953.599	4320.66
953.904	4319.53
954.209	4288.12
954.513	4302.58
954.818	4268.91
955.122	4219.65
955.426	4265.07
955.731	4246.99
956.035	4190.05
956.339	4211.97
956.643	4175.36
956.948	4123.38
957.252	4138.97
957.556	4078.86
957.86	4073.44
958.163	4059.88
958.467	4049.48
958.771	4064.62
959.075	4003.61
959.378	3983.27
959.682	4014.46
959.985	3987.79
960.289	3939.43
960.592	3926.1
960.896	3909.83
961.199	3869.6
961.502	3896.27
961.805	3838.19
962.108	3857.85
962.411	3853.56
962.714	3802.03
963.017	3811.07
963.32	3802.94
963.623	3758.19
963.926	3780.34
964.228	3730.62
964.531	3719.78
964.833	3705.09
965.136	3705.99
965.438	3672.32
965.741	3639.33
966.043	3680.91
966.345	3607.91
966.648	3619.21
966.95	3572.66
967.252	3525.43
967.554	3545.32
967.856	3560.23
968.158	3494.92
968.46	3528.14
968.761	3468.71
969.063	3491.08
969.365	3454.25
969.666	3454.02
969.968	3434.81
970.269	3388.26
970.571	3425.32
970.872	3385.09
971.174	3392.78
971.475	3353.68
971.776	3357.75
972.077	3313.23
972.378	3337.86
972.679	3299.9
972.98	3328.82
973.281	3275.94
973.582	3270.97
973.883	3232.1
974.183	3225.78
974.484	3200.01
974.785	3183.29
975.085	3152.78
975.386	3187.36
975.686	3204.08
975.986	3156.63
976.287	3162.95
976.587	3120.47
976.887	3098.1
977.187	3100.58
977.487	3080.47
977.787	3088.61
978.087	3049.06
978.387	3062.17
978.687	3038.89
978.987	2995.05
979.286	2986.01
979.586	2974.48
979.885	2972.45
980.185	2980.13
980.484	2936.74
980.784	2897.42
981.083	2934.48
981.382	2899.23
981.682	2876.86
981.981	2878.89
982.28	2848.16
982.579	2844.77
982.878	2820.59
983.177	2825.11
983.475	2827.14
983.774	2779.46
984.073	2776.52
984.372	2769.97
984.67	2755.05
984.969	2773.36
985.267	2758.67
985.566	2752.12
985.864	2698.78
986.162	2707.37
986.461	2666.02
986.759	2665.11
987.057	2649.97
987.355	2648.84
987.653	2637.09
987.951	2668.28
988.249	2621.5
988.547	2599.58
988.844	2603.19
989.142	2572.01
989.44	2606.36
989.737	2565.68
990.035	2543.08
990.332	2581.05
990.63	2567.26
990.927	2519.81
991.224	2521.84
991.521	2487.04
991.819	2494.72
992.116	2466.47
992.413	2421.05
992.71	2442.97
993.006	2455.18
993.303	2420.83
993.6	2409.3
993.897	2402.52
994.193	2388.96
994.49	2382.41
994.787	2338.12
995.083	2338.34
995.379	2328.4
995.676	2333.14
995.972	2308.06
996.268	2287.72
996.565	2323.88
996.861	2303.99
997.157	2278.91
997.453	2272.58
997.749	2272.36
998.044	2211.11
998.34	2215.63
998.636	2216.09
998.932	2200.49
999.227	2172.7
999.523	2193.71
999.818	2143.77
1000.114	2161.4
1000.409	2153.71
1000.704	2181.74
1001	2119.37
1001.295	2097.22
1001.59	2104.22
1001.885	2133.38
1002.18	2102.87
1002.475	2058.12
1002.77	2053.15
1003.065	2016.77
1003.359	2035.07
1003.654	2047.5
1003.949	2022.64
1004.243	1990.33
1004.538	1982.19
1004.832	1976.32
1005.127	1980.61
1005.421	1959.37
1005.715	1935.64
1006.009	1940.84
1006.304	1922.31
1006.598	1889.54
1006.892	1903.33
1007.186	1900.39
1007.48	1912.14
1007.773	1894.96
1008.067	1861.29
1008.361	1841.18
1008.655	1835.08
1008.948	1835.3
1009.242	1823.78
1009.535	1797.57
1009.829	1776.55
1010.122	1788.07
1010.415	1781.97
1010.708	1750.79
1011.001	1784.46
1011.295	1722.09
1011.588	1710.79
1011.881	1717.57
1012.173	1706.04
1012.466	1711.92
1012.759	1691.58
1013.052	1700.62
1013.344	1675.31
1013.637	1655.65
1013.93	1668.98
1014.222	1631.69
1014.514	1631.69
1014.807	1651.35
1015.099	1606.38
1015.391	1636.21
1015.683	1604.12
1015.976	1593.5
1016.268	1591.24
1016.56	1549.21
1016.851	1552.6
1017.143	1550.11
1017.435	1513.96
1017.727	1533.17
1018.018	1510.12
1018.31	1501.75
1018.602	1512.38
1018.893	1494.75
1019.185	1463.56
1019.476	1478.7
1019.767	1450.23
1020.058	1464.02
1020.35	1446.16
1020.641	1439.61
1020.932	1431.25
1021.223	1427.18
1021.514	1385.6
1021.804	1365.26
1022.095	1391.25
1022.386	1362.77
1022.677	1375.88
1022.967	1362.32
1023.258	1344.24
1023.548	1331.36
1023.839	1330.91
1024.129	1339.05
1024.419	1315.32
1024.709	1325.04
1025	1327.3
1025.29	1285.71
1025.58	1255.21
1025.87	1280.97
1026.16	1261.53
1026.449	1253.63
1026.739	1268.09
1027.029	1219.05
1027.319	1223.12
1027.608	1227.86
1027.898	1233.51
1028.187	1207.07
1028.477	1204.59
1028.766	1211.37
1029.055	1165.27
1029.344	1181.31
1029.634	1171.37
1029.923	1138.6
1030.212	1132.27
1030.501	1151.71
1030.79	1154.87
1031.078	1131.14
1031.367	1120.75
1031.656	1134.98
1031.945	1093.86
1032.233	1077.58
1032.522	1089.79
1032.81	1106.06
1033.099	1092.5
1033.387	1091.37
1033.675	1069.9
1033.963	1052.5
1034.251	1039.39
1034.54	1044.59
1034.828	1070.81
1035.116	1027.64
1035.403	1030.13
1035.691	1028.77
1035.979	1025.16
1036.267	997.81
1036.554	1003.91
1036.842	1001.65
1037.129	999.62
1037.417	971.82
1037.704	982.67
1037.992	954.42
1038.279	986.29
1038.566	940.64
1038.853	940.64
1039.14	940.64
