Data from hue_140_FLMS001491_00028.txt Node
Date: Tue Feb 07 16:55:40 GMT 2017
User: dcchb
Spectrometer: FLMS00149
Trigger mode: 0
Integration Time (sec): 2.000000E-2
Scans to average: 10
Electric dark correction enabled: true
Nonlinearity correction enabled: false
Boxcar width: 0
XAxis mode: Wavelengths
Number of Pixels in Spectrum: 2048
>>>>>Begin Spectral Data<<<<<
341.393	-10.66
341.776	-10.66
342.16	-10.66
342.543	-53.83
342.927	-57.89
343.31	-64.9
343.693	-71
344.077	-51.79
344.46	-69.65
344.843	-51.34
345.226	-47.27
345.61	-21.96
345.993	-31.68
346.376	-5.69
346.759	6.74
347.142	31.82
347.525	40.18
347.908	58.71
348.291	86.28
348.674	101.42
349.057	90.12
349.44	116.56
349.823	132.61
350.206	172.38
350.588	190.24
350.971	226.39
351.354	234.75
351.737	281.76
352.119	257.8
352.502	272.94
352.884	281.08
353.267	266.62
353.65	297.12
354.032	306.84
354.414	305.03
354.797	303.45
355.179	324.92
355.562	335.32
355.944	335.77
356.326	328.31
356.709	346.16
357.091	347.97
357.473	346.62
357.855	342.32
358.238	343.68
358.62	334.64
359.002	346.39
359.384	355.65
359.766	335.99
360.148	323.56
360.53	347.52
360.912	362.43
361.294	331.7
361.676	348.42
362.057	334.86
362.439	348.2
362.821	319.72
363.203	330.57
363.584	328.31
363.966	338.25
364.348	336.67
364.729	328.54
365.111	317.92
365.493	317.01
365.874	313.17
366.256	319.05
366.637	334.86
367.019	328.08
367.4	331.47
367.781	310.01
368.163	308.88
368.544	315.88
368.925	311.14
369.306	314.07
369.688	309.33
370.069	309.78
370.45	303.45
370.831	321.31
371.212	310.01
371.593	315.88
371.974	293.96
372.355	312.49
372.736	296
373.117	319.05
373.498	321.53
373.879	333.51
374.26	307.52
374.641	289.67
375.021	319.95
375.402	345.03
375.783	314.07
376.163	331.02
376.544	313.17
376.925	338.48
377.305	319.05
377.686	343
378.066	326.28
378.447	310.23
378.827	342.55
379.208	345.71
379.588	330.34
379.968	333.51
380.349	347.07
380.729	350.23
381.109	335.54
381.489	359.27
381.87	336.45
382.25	348.65
382.63	328.99
383.01	354.3
383.39	341.42
383.77	352.72
384.15	369.44
384.53	347.97
384.91	336.67
385.29	364.92
385.67	327.18
386.049	354.07
386.429	353.17
386.809	338.93
387.189	361.3
387.568	379.38
387.948	349.78
388.328	361.3
388.707	357.24
389.087	368.54
389.466	358.37
389.846	363.11
390.225	374.19
390.605	380.29
390.984	362.21
391.363	355.65
391.743	384.35
392.122	360.17
392.501	381.87
392.881	400.85
393.26	382.77
393.639	387.97
394.018	399.27
394.397	392.72
394.776	367.63
395.155	378.03
395.534	380.29
395.913	383.45
396.292	385.26
396.671	397.91
397.05	412.83
397.429	396.78
397.808	393.62
398.186	387.97
398.565	390.91
398.944	394.52
399.323	398.37
399.701	406.05
400.08	384.35
400.458	388.2
400.837	399.72
401.215	408.99
401.594	400.17
401.972	416.22
402.351	413.96
402.729	427.29
403.107	405.6
403.486	406.5
403.864	423.9
404.242	402.43
404.62	418.25
404.999	420.51
405.377	453.51
405.755	436.1
406.133	428.42
406.511	433.62
406.889	435.43
407.267	421.87
407.645	444.92
408.023	441.98
408.401	465.93
408.779	452.38
409.156	429.55
409.534	442.43
409.912	471.81
410.29	451.92
410.667	472.94
411.045	466.16
411.422	443.34
411.8	484.92
412.178	484.46
412.555	485.14
412.933	467.06
413.31	483.11
413.687	487.4
414.065	488.98
414.442	482.2
414.819	504.13
415.197	499.38
415.574	492.15
415.951	523.11
416.328	496.67
416.705	509.77
417.082	521.98
417.46	509.32
417.837	514.52
418.214	519.94
418.591	527.85
418.967	515.65
419.344	541.86
419.721	539.83
420.098	530.57
420.475	540.06
420.852	524.69
421.228	527.85
421.605	537.57
421.982	551.58
422.358	550.45
422.735	569.66
423.111	571.47
423.488	561.07
423.864	566.5
424.241	580.51
424.617	567.4
424.994	596.78
425.37	582.54
425.746	600.39
426.123	587.06
426.499	572.15
426.875	597.68
427.251	615.99
427.627	601.07
428.003	597.91
428.379	603.56
428.756	629.32
429.132	614.63
429.507	621.64
429.883	623.67
430.259	623.22
430.635	628.87
431.011	645.14
431.387	652.37
431.763	652.14
432.138	643.33
432.514	677.68
432.89	689.43
433.265	693.5
433.641	680.17
434.016	707.96
434.392	682.88
434.767	705.25
435.143	722.42
435.518	704.8
435.894	719.26
436.269	721.75
436.644	706.38
437.02	746.15
437.395	751.8
437.77	774.85
438.145	758.36
438.52	764.46
438.895	780.28
439.271	766.94
439.646	792.71
440.021	784.12
440.395	787.96
440.77	796.09
441.145	807.17
441.52	811.01
441.895	807.62
442.27	806.94
442.645	825.25
443.019	804.46
443.394	821.86
443.769	839.26
444.143	799.71
444.518	862.76
444.892	855.98
445.267	860.5
445.641	890.78
446.016	858.24
446.39	851.69
446.764	883.78
447.139	895.08
447.513	878.35
447.887	890.33
448.262	885.81
448.636	913.38
449.01	916.54
449.384	925.36
449.758	905.47
450.132	926.49
450.506	961.74
450.88	943.21
451.254	952.47
451.628	943.44
452.002	987.28
452.376	985.24
452.75	988.86
453.123	991.8
453.497	989.31
453.871	996.32
454.244	1010.78
454.618	1018.69
454.992	1048.52
455.365	1048.52
455.739	1080.38
456.112	1062.53
456.486	1084.22
456.859	1081.96
457.232	1109.31
457.606	1118.12
457.979	1124
458.352	1131.45
458.725	1137.55
459.099	1169.64
459.472	1147.95
459.845	1194.05
460.218	1178.23
460.591	1199.02
460.964	1232.02
461.337	1220.49
461.71	1271.11
462.083	1289.42
462.456	1284.22
462.829	1294.61
463.201	1310.21
463.574	1326.02
463.947	1352.69
464.32	1396.76
464.692	1384.1
465.065	1402.86
465.438	1425.46
465.81	1417.55
466.183	1480.37
466.555	1505.23
466.928	1513.36
467.3	1530.09
467.672	1525.79
468.045	1598.79
468.417	1580.26
468.789	1609.63
469.161	1643.98
469.534	1681.72
469.906	1701.16
470.278	1728.05
470.65	1764.66
471.022	1797.2
471.394	1813.92
471.766	1851.21
472.138	1856.63
472.51	1937.08
472.882	1968.72
473.253	1993.35
473.625	2030.64
473.997	2101.82
474.369	2145.89
474.74	2182.05
475.112	2201.26
475.484	2237.41
475.855	2281.93
476.227	2362.61
476.598	2448.48
476.97	2440.12
477.341	2536.16
477.713	2619.1
478.084	2626.33
478.455	2726.44
478.827	2808.92
479.198	2907.9
479.569	2891.86
479.94	3029.48
480.311	3082.81
480.682	3158.29
481.053	3271.51
481.424	3365.74
481.795	3400.32
482.166	3526.19
482.537	3608
482.908	3697.71
483.279	3829.24
483.65	3927.99
484.021	4013.64
484.391	4124.82
484.762	4187.19
485.133	4302.44
485.503	4385.61
485.874	4556.22
486.244	4605.71
486.615	4771.13
486.985	4857.01
487.356	4999.37
487.726	5138.58
488.097	5288.63
488.467	5344.22
488.837	5491.79
489.207	5616.08
489.578	5742.41
489.948	5852.01
490.318	6030.99
490.688	6174.03
491.058	6295.61
491.428	6385.33
491.798	6559.56
492.168	6710.52
492.538	6868.7
492.908	6975.14
493.278	7119.54
493.648	7189.6
494.017	7365.64
494.387	7436.82
494.757	7590.94
495.126	7680.21
495.496	7862.12
495.866	7972.86
496.235	8073.64
496.605	8267.54
496.974	8396.57
497.344	8473.86
497.713	8607.41
498.082	8735.77
498.452	8930.57
498.821	8910.68
499.19	9017.12
499.559	9144.8
499.928	9275.42
500.298	9408.75
500.667	9567.16
501.036	9502.53
501.405	9641.06
501.774	9708.85
502.143	9856.65
502.512	9910.88
502.88	10067.26
503.249	10128.73
503.618	10147.26
503.987	10290.53
504.356	10377.99
504.724	10462.73
505.093	10511.77
505.462	10577.31
505.83	10658.43
506.199	10734.14
506.567	10930.74
506.936	10921.03
507.304	11041.02
507.672	11114.92
508.041	11227.01
508.409	11366.44
508.777	11316.27
509.145	11423.39
509.514	11392.88
509.882	11530.05
510.25	11580.67
510.618	11634.68
510.986	11689.37
511.354	11815.47
511.722	11891.85
512.09	11967.78
512.458	11910.6
512.826	12131.84
513.193	12112.63
513.561	12048.68
513.929	12297.71
514.297	12253.87
514.664	12322.57
515.032	12387.65
515.4	12487.99
515.767	12439.4
516.135	12530.48
516.502	12478.05
516.869	12646.86
517.237	12637.82
517.604	12584.94
517.972	12632.17
518.339	12803.91
518.706	12757.81
519.073	12792.84
519.44	12811.37
519.808	12906.96
520.175	12880.3
520.542	13056.79
520.909	13139.73
521.276	13045.49
521.643	13132.27
522.009	13154.64
522.376	13238.93
522.743	13232.83
523.11	13303.79
523.477	13322.32
523.843	13391.24
524.21	13424.01
524.577	13466.95
524.943	13510.34
525.31	13516.44
525.676	13668.75
526.043	13647.96
526.409	13626.72
526.776	13811.12
527.142	13722.08
527.508	13718.47
527.874	13819.48
528.241	13840.05
528.607	13715.08
528.973	13882.3
529.339	13810.67
529.705	13873.27
530.071	13906.71
530.437	13983.09
530.803	13971.12
531.169	13954.17
531.535	13938.57
531.901	13814.74
532.267	13861.51
532.632	13899.93
532.998	13828.29
533.364	13894.28
533.73	13930.44
534.095	13884.79
534.461	13915.3
534.826	13870.1
535.192	13865.58
535.557	13934.73
535.923	13890.21
536.288	13749.88
536.653	13823.77
537.019	13693.83
537.384	13829.42
537.749	13797.33
538.114	13814.06
538.479	13727.51
538.845	13720.73
539.21	13604.35
539.575	13741.07
539.94	13578.58
540.305	13638.7
540.67	13606.83
541.034	13652.71
541.399	13562.09
541.764	13544.01
542.129	13567.28
542.494	13487.06
542.858	13488.42
543.223	13455.42
543.587	13475.99
543.952	13367.29
544.316	13413.16
544.681	13222.21
545.045	13393.5
545.41	13298.37
545.774	13282.32
546.138	13265.82
546.503	13176.56
546.867	13124.58
547.231	13253.17
547.595	13142.89
547.959	13134.98
548.324	12990.12
548.688	13108.54
549.052	13028.99
549.416	12924.36
549.779	12969.79
550.143	13017.69
550.507	12930.92
550.871	12872.61
551.235	12855.66
551.599	12934.31
551.962	12855.89
552.326	12852.5
552.689	12881.43
553.053	12679.17
553.417	12779.96
553.78	12834.2
554.143	12690.7
554.507	12794.2
554.87	12720.3
555.234	12822.45
555.597	12640.08
555.96	12615.9
556.323	12728.44
556.686	12668.78
557.05	12652.73
557.413	12669
557.776	12648.44
558.139	12742.45
558.502	12595.33
558.865	12660.19
559.228	12702
559.59	12626.52
559.953	12629.46
560.316	12721.21
560.679	12649.79
561.041	12774.09
561.404	12737.7
561.767	12735.89
562.129	12647.76
562.492	12797.81
562.854	12698.15
563.217	12650.02
563.579	12679.62
563.941	12670.58
564.304	12706.29
564.666	12816.8
565.028	12712.84
565.39	12793.75
565.753	12787.19
566.115	12818.6
566.477	12860.86
566.839	12957.13
567.201	12853.86
567.563	12914.65
567.925	12899.73
568.287	12932.05
568.648	12891.37
569.01	12939.96
569.372	12957.36
569.734	12838.04
570.095	12965.49
570.457	13029.9
570.819	13064.47
571.18	13005.49
571.542	13074.42
571.903	12983.35
572.265	13040.07
572.626	13131.82
572.987	13080.74
573.349	13083
573.71	13129.56
574.071	13055.21
574.432	13167.07
574.794	13301.08
575.155	13136.56
575.516	13127.07
575.877	13194.86
576.238	13231.47
576.599	13266.5
576.96	13152.38
577.32	13209.33
577.681	13253.17
578.042	13182.89
578.403	13215.43
578.763	13212.49
579.124	13246.61
579.485	13215.88
579.845	13254.75
580.206	13304.01
580.566	13176.79
580.927	13216.79
581.287	13233.73
581.648	13161.87
582.008	13260.17
582.368	13184.47
582.728	13190.57
583.089	13188.54
583.449	13215.43
583.809	13278.93
584.169	13287.52
584.529	13133.17
584.889	13272.15
585.249	13165.94
585.609	13118.71
585.969	13175.66
586.329	13175.66
586.688	13103.12
587.048	13145.15
587.408	13089.56
587.768	13118.26
588.127	13096.34
588.487	12978.6
588.846	13080.07
589.206	13050.46
589.565	12986.06
589.925	13099.05
590.284	13060.63
590.643	13091.59
591.003	13134.08
591.362	13140.4
591.721	13083.46
592.08	13000.07
592.44	13063.79
592.799	13077.35
593.158	13024.02
593.517	13036.68
593.876	13017.47
594.235	12997.58
594.593	12941.99
594.952	13009.79
595.311	12970.92
595.67	13041.87
596.029	13042.55
596.387	13024.25
596.746	12969.11
597.104	13023.8
597.463	12953.74
597.822	12974.31
598.18	12912.16
598.538	12952.39
598.897	13001.65
599.255	12852.5
599.613	13040.29
599.972	12934.31
600.33	13031.48
600.688	12884.14
601.046	12989.67
601.404	13084.13
601.762	13055.43
602.12	13037.81
602.478	13077.13
602.836	13060.18
603.194	13031.71
603.552	13022.67
603.91	12945.15
604.268	13024.47
604.625	12932.72
604.983	13035.1
605.341	12972.05
605.698	13060.86
606.056	13078.26
606.413	13024.02
606.771	13080.74
607.128	13050.24
607.485	12951.03
607.843	12962.55
608.2	13017.69
608.557	13040.07
608.914	13009.33
609.272	13058.15
609.629	13129.78
609.986	13116
610.343	13103.34
610.7	13087.52
611.057	13158.93
611.414	13122.78
611.771	13107.41
612.127	13184.92
612.484	13105.38
612.841	13203
613.198	13212.49
613.554	13209.55
613.911	13247.52
614.267	13231.93
614.624	13143.79
614.98	13197.12
615.337	13285.03
615.693	13171.59
616.05	13268.99
616.406	13296.56
616.762	13292.72
617.118	13282.77
617.475	13250.68
617.831	13358.48
618.187	13339.95
618.543	13384.01
618.899	13441.19
619.255	13329.55
619.611	13362.09
619.967	13412.49
620.323	13448.64
620.678	13341.53
621.034	13330.91
621.39	13348.31
621.746	13315.77
622.101	13406.84
622.457	13326.61
622.812	13510.56
623.168	13390.79
623.523	13469.43
623.879	13437.57
624.234	13403
624.589	13479.6
624.945	13485.25
625.3	13380.4
625.655	13380.85
626.01	13466.27
626.365	13372.94
626.72	13384.69
627.075	13378.81
627.43	13350.12
627.785	13424.69
628.14	13339.72
628.495	13420.17
628.85	13432.82
629.205	13270.34
629.559	13320.96
629.914	13271.7
630.269	13308.31
630.623	13280.29
630.978	13308.08
631.332	13338.14
631.687	13326.16
632.041	13278.03
632.396	13336.1
632.75	13231.7
633.104	13231.93
633.459	13182.89
633.813	13220.63
634.167	13224.02
634.521	13210.91
634.875	13254.75
635.229	13127.75
635.583	13039.16
635.937	13101.99
636.291	13102.66
636.645	13078.71
636.999	13028.32
637.352	13069.9
637.706	13062.21
638.06	13119.84
638.413	13019.5
638.767	13001.2
639.121	12964.36
639.474	12888.21
639.828	12977.7
640.181	12943.8
640.534	12882.1
640.888	12899.28
641.241	12900.18
641.594	12818.15
641.947	12931.6
642.301	12784.48
642.654	12877.36
643.007	12853.63
643.36	12887.98
643.713	12733.41
644.066	12860.18
644.419	12746.29
644.771	12648.89
645.124	12562.34
645.477	12660.42
645.83	12520.76
646.182	12490.48
646.535	12418.84
646.888	12360.08
647.24	12429.01
647.593	12368.67
647.945	12349.92
648.298	12331.38
648.65	12341.78
649.002	12356.24
649.355	12342.68
649.707	12366.19
650.059	12380.88
650.411	12623.13
650.763	12599.4
651.115	12662.45
651.467	12647.76
651.819	12622.9
652.171	12668.55
652.523	12557.14
652.875	12693.18
653.227	12539.51
653.578	12574.54
653.93	12690.47
654.282	12558.27
654.633	12629.68
654.985	12587.88
655.337	12704.48
655.688	12560.08
656.039	12687.31
656.391	12591.72
656.742	12614.09
657.094	12648.44
657.445	12711.26
657.796	12646.4
658.147	12592.62
658.498	12648.44
658.849	12690.47
659.2	12617.03
659.551	12572.96
659.902	12636.91
660.253	12624.71
660.604	12652.73
660.955	12516.69
661.306	12633.75
661.656	12603.24
662.007	12596.24
662.358	12630.81
662.708	12622.68
663.059	12618.83
663.409	12527.76
663.76	12653.86
664.11	12634.2
664.461	12636.01
664.811	12714.88
665.161	12633.75
665.511	12654.09
665.862	12663.58
666.212	12750.13
666.562	12716.91
666.912	12664.71
667.262	12655.22
667.612	12705.61
667.962	12660.19
668.312	12700.19
668.662	12745.61
669.011	12663.35
669.361	12686.63
669.711	12645.73
670.06	12578.16
670.41	12529.12
670.76	12591.94
671.109	12592.39
671.459	12599.63
671.808	12533.64
672.157	12509.01
672.507	12555.33
672.856	12525.96
673.205	12576.12
673.554	12568.21
673.904	12471.95
674.253	12604.6
674.602	12505.84
674.951	12340.2
675.3	12333.42
675.649	12404.83
675.998	12510.36
676.346	12434.88
676.695	12488.89
677.044	12421.55
677.393	12397.15
677.741	12404.15
678.09	12347.2
678.438	12443.25
678.787	12423.13
679.135	12470.36
679.484	12241.67
679.832	12365.28
680.181	12231.73
680.529	12316.24
680.877	12206.19
681.225	12245.51
681.573	12234.21
681.922	12150.37
682.27	12196.93
682.618	12275.34
682.966	12082.13
683.314	12189.47
683.661	12211.61
684.009	12057.04
684.357	12050.04
684.705	12080.09
685.053	12038.06
685.4	11916.48
685.748	11968.91
686.095	11968.23
686.443	11940.66
686.79	11767.78
687.138	11837.61
687.485	11838.52
687.832	11772.08
688.18	11718.75
688.527	11741.8
688.874	11636.71
689.221	11671.97
689.568	11650.72
689.915	11615.47
690.262	11532.99
690.609	11537.06
690.956	11492.54
691.303	11529.37
691.65	11413.89
691.997	11516.04
692.344	11283.5
692.69	11277.18
693.037	11314.91
693.383	11264.97
693.73	11335.25
694.077	11204.63
694.423	11202.15
694.769	11207.57
695.116	11156.05
695.462	11074.02
695.808	11005.09
696.155	11077.86
696.501	10934.81
696.847	10915.83
697.193	10851.65
697.539	10943.62
697.885	10838.09
698.231	10745.89
698.577	10731.2
698.923	10742.5
699.269	10733.69
699.614	10677.42
699.96	10564.88
700.306	10550.64
700.651	10531.43
700.997	10490.76
701.342	10469.74
701.688	10464.99
702.033	10349.29
702.379	10367.59
702.724	10335.96
703.069	10335.96
703.415	10233.59
703.76	10177.09
704.105	10241.27
704.45	10199.92
704.795	10123.99
705.14	10153.36
705.485	10058.22
705.83	10063.65
706.175	10067.72
706.52	9973.93
706.865	9897.78
707.209	9878.79
707.554	9843.09
707.899	9984.1
708.243	9818.68
708.588	9849.87
708.932	9766.25
709.277	9809.64
709.621	9738.23
709.966	9682.64
710.31	9730.32
710.654	9572.14
710.998	9639.48
711.342	9643.09
711.687	9628.18
712.031	9592.02
712.375	9509.76
712.719	9520.16
713.063	9522.42
713.407	9545.47
713.75	9524.68
714.094	9438.81
714.438	9412.37
714.782	9457.56
715.125	9449.2
715.469	9433.61
715.812	9430.9
716.156	9278.58
716.499	9376.66
716.843	9338.7
717.186	9292.59
717.53	9299.83
717.873	9261.64
718.216	9223.67
718.559	9234.07
718.902	9134.86
719.246	9191.81
719.589	9185.03
719.932	9144.35
720.275	9178.25
720.617	9161.52
720.96	9115.42
721.303	9148.87
721.646	9148.87
721.989	9082.66
722.331	9063.67
722.674	9063.45
723.016	9144.35
723.359	9042.66
723.701	9048.76
724.044	9015.54
724.386	8941.42
724.729	9054.41
725.071	9039.95
725.413	9032.49
725.755	9016.22
726.097	8979.16
726.439	8922.21
726.782	8931.7
727.124	8983.22
727.465	8943.68
727.807	8944.13
728.149	8910.68
728.491	8856
728.833	8874.07
729.175	8879.5
729.516	8924.92
729.858	8885.15
730.199	8883.11
730.541	8892.38
730.882	8879.27
731.224	8875.66
731.565	8858.71
731.906	8852.83
732.248	8831.36
732.589	8800.4
732.93	8796.11
733.271	8784.36
733.612	8793.4
733.953	8844.7
734.294	8797.24
734.635	8790.91
734.976	8876.56
735.317	8775.32
735.658	8825.49
735.999	8850.12
736.339	8786.39
736.68	8887.63
737.021	8783.46
737.361	8795.66
737.702	8892.15
738.042	8862.32
738.383	8849.67
738.723	8815.55
739.063	8867.07
739.404	8904.58
739.744	8851.93
740.084	8858.71
740.424	8843.57
740.764	8851.02
741.104	8874.3
741.444	8919.05
741.784	8831.82
742.124	8957.01
742.464	8994.98
742.804	8931.25
743.143	9019.83
743.483	9004.47
743.823	8975.99
744.162	8987.29
744.502	8999.04
744.841	9107.51
745.181	9136.67
745.52	9189.77
745.86	9222.77
746.199	9211.47
746.538	9265.25
746.877	9280.17
747.216	9287.4
747.556	9300.96
747.895	9453.49
748.234	9405.59
748.573	9474.06
748.911	9503.66
749.25	9603.32
749.589	9640.61
749.928	9684
750.267	9746.37
750.605	9824.56
750.944	9881.51
751.283	10019.81
751.621	10111.1
751.96	10091.67
752.298	10215.51
752.636	10298.9
752.975	10349.74
753.313	10370.53
753.651	10614.82
753.989	10623.18
754.327	10781.37
754.666	10856.4
755.004	10970.74
755.342	11099.33
755.679	11159.44
756.017	11279.44
756.355	11381.13
756.693	11558.07
757.031	11785.41
757.368	11817.27
757.706	11968
758.044	12072.63
758.381	12217.72
758.719	12307.2
759.056	12589.68
759.394	12661.55
759.731	12714.88
760.068	12932.95
760.405	13054.76
760.743	13210.68
761.08	13417.68
761.417	13471.92
761.754	13628.75
762.091	13801.18
762.428	14019.25
762.765	14083.66
763.102	14283.42
763.438	14418.79
763.775	14518.45
764.112	14726.12
764.449	14880.47
764.785	15036.17
765.122	15182.61
765.458	15157.98
765.795	15439.33
766.131	15575.59
766.467	15643.61
766.804	15768.36
767.14	16004.28
767.476	16126.99
767.812	16171.51
768.148	16359.98
768.485	16305.07
768.821	16421.45
769.157	16647.88
769.492	16688.78
769.828	16952.05
770.164	16843.36
770.5	17018.95
770.836	17169.45
771.171	17234.98
771.507	17321.99
771.842	17324.25
772.178	17536.67
772.513	17486.28
772.849	17550
773.184	17613.28
773.519	17716.55
773.855	17778.93
774.19	17840.17
774.525	17830
774.86	17973.72
775.195	18084.23
775.53	18061.63
775.865	18009.2
776.2	17912.03
776.535	17974.4
776.87	18185.92
777.205	18146.6
777.539	18147.28
777.874	18239.03
778.209	18215.75
778.543	18297.33
778.878	18212.36
779.212	18347.05
779.547	18285.58
779.881	18314.05
780.215	18370.1
780.55	18436.08
780.884	18337.55
781.218	18418.91
781.552	18404.67
781.886	18309.31
782.22	18348.18
782.554	18405.12
782.888	18240.38
783.222	18187.95
783.556	18227.5
783.889	18241.96
784.223	18188.18
784.557	18127.16
784.89	18239.93
785.224	18114.28
785.557	18145.7
785.891	18109.99
786.224	18121.29
786.558	18117.9
786.891	17936.44
787.224	17916.1
787.557	17915.64
787.891	18019.14
788.224	17967.17
788.557	17959.49
788.89	17952.93
789.223	17950.67
789.556	17859.38
789.888	17867.74
790.221	17789.32
790.554	17642.43
790.887	17723.56
791.219	17679.94
791.552	17612.15
791.884	17609.66
792.217	17630.23
792.549	17546.61
792.882	17469.1
793.214	17386.62
793.546	17478.37
793.879	17406.05
794.211	17314.98
794.543	17388.65
794.875	17240.18
795.207	17444.24
795.539	17151.37
795.871	17314.08
796.203	17026.85
796.535	17074.31
796.867	17079.73
797.198	17014.2
797.53	17015.78
797.862	16872.06
798.193	16900.98
798.525	16864.37
798.856	16860.31
799.188	16699.41
799.519	16661.89
799.85	16609.01
800.182	16669.12
800.513	16578.73
800.844	16542.12
801.175	16668.45
801.506	16531.95
801.837	16531.05
802.168	16415.57
802.499	16405.18
802.83	16359.98
803.161	16322.24
803.491	16329.02
803.822	16263.48
804.153	16281.11
804.483	16082.47
804.814	16057.39
805.145	16030.72
805.475	16071.85
805.805	15879.54
806.136	15990.27
806.466	15966.77
806.796	15966.77
807.126	15856.94
807.457	15796.38
807.787	15797.28
808.117	15722.26
808.447	15692.65
808.777	15732.43
809.107	15634.35
809.436	15573.79
809.766	15574.24
810.096	15518.65
810.426	15515.93
810.755	15461.25
811.085	15534.46
811.414	15457.86
811.744	15379.44
812.073	15325.88
812.403	15303.28
812.732	15256.51
813.061	15276.39
813.39	15207.69
813.719	15134.02
814.049	15224.19
814.378	15108.03
814.707	15146
815.036	15122.05
815.365	15012.22
815.693	14903.07
816.022	14947.36
816.351	14870.08
816.68	14854.48
817.008	14967.02
817.337	14842.73
817.665	14852.67
817.994	14841.83
818.322	14790.3
818.651	14745.33
818.979	14691.77
819.307	14709.63
819.636	14679.12
819.964	14640.7
820.292	14621.04
820.62	14679.8
820.948	14577.88
821.276	14603.42
821.604	14606.58
821.932	14644.54
822.259	14626.69
822.587	14574.72
822.915	14551.89
823.243	14558.67
823.57	14586.24
823.898	14555.06
824.225	14438.9
824.553	14525.68
824.88	14502.85
825.207	14561.16
825.535	14473.48
825.862	14569.52
826.189	14535.39
826.516	14602.06
826.843	14538.78
827.17	14501.5
827.497	14600.03
827.824	14489.07
828.151	14555.73
828.478	14507.82
828.805	14590.53
829.131	14534.72
829.458	14565
829.785	14512.12
830.111	14618.56
830.438	14525.23
830.764	14633.25
831.09	14599.12
831.417	14500.59
831.743	14529.52
832.069	14548.28
832.395	14489.07
832.722	14521.61
833.048	14400.93
833.374	14455.85
833.7	14360.26
834.026	14491.55
834.351	14486.13
834.677	14397.77
835.003	14416.08
835.329	14390.77
835.654	14392.12
835.98	14384.66
836.306	14353.93
836.631	14365.23
836.956	14307.83
837.282	14358.45
837.607	14294.95
837.932	14258.79
838.258	14222.63
838.583	14282.97
838.908	14123.43
839.233	14126.14
839.558	14142.41
839.883	14089.53
840.208	14056.76
840.533	14084.11
840.858	14028.74
841.182	14083.2
841.507	14017.89
841.832	13912.59
842.156	14003.88
842.481	13997.56
842.805	13907.39
843.13	13878.91
843.454	13790.78
843.778	13807.96
844.103	13735.42
844.427	13748.52
844.751	13680.5
845.075	13711.24
845.399	13618.58
845.723	13617.23
846.047	13626.72
846.371	13404.8
846.695	13524.35
847.019	13377.46
847.343	13270.57
847.666	13240.51
847.99	13133.17
848.313	13212.27
848.637	13083
848.96	13126.62
849.284	13046.39
849.607	12944.93
849.931	12998.94
850.254	12805.5
850.577	12795.1
850.9	12739.74
851.223	12692.05
851.546	12538.84
851.869	12536.8
852.192	12599.85
852.515	12509.01
852.838	12413.87
853.161	12373.64
853.483	12318.96
853.806	12282.57
854.129	12322.35
854.451	12237.6
854.774	12193.76
855.096	12106.31
855.419	12111.5
855.741	12050.26
856.063	12043.93
856.385	12081.67
856.708	11928.68
857.03	11979.76
857.352	11945.63
857.674	11835.58
857.996	11819.31
858.318	11772.08
858.64	11758.52
858.961	11730.04
859.283	11604.85
859.605	11615.7
859.926	11678.52
860.248	11548.13
860.57	11583.38
860.891	11594.23
861.212	11520.56
861.534	11468.81
861.855	11323.05
862.176	11470.16
862.498	11348.13
862.819	11420.22
863.14	11394.23
863.461	11339.09
863.782	11278.53
864.103	11225.2
864.424	11271.3
864.745	11270.4
865.065	11156.05
865.386	11128.48
865.707	11152.66
866.027	11173.45
866.348	11157.86
866.668	11135.26
866.989	11145.2
867.309	11095.71
867.63	11134.58
867.95	11128.25
868.27	11020.01
868.59	11045.09
868.91	10984.3
869.23	11040.57
869.55	10933.23
869.87	11017.75
870.19	10949.95
870.51	10930.52
870.83	10907.24
871.15	10786.34
871.469	10850.07
871.789	10920.57
872.109	10812.1
872.428	10748.83
872.748	10785.21
873.067	10852.1
873.386	10771.88
873.706	10708.83
874.025	10683.52
874.344	10650.53
874.663	10672.22
874.982	10612.11
875.301	10675.38
875.62	10585.22
875.939	10616.63
876.258	10597.65
876.577	10594.93
876.896	10573.46
877.214	10511.77
877.533	10553.13
877.852	10565.56
878.17	10481.72
878.489	10526.01
878.807	10544.77
879.125	10446.01
879.444	10493.02
879.762	10447.14
880.08	10487.82
880.398	10333.02
880.716	10386.8
881.034	10363.3
881.352	10391.55
881.67	10203.76
881.988	10340.25
882.306	10234.04
882.624	10195.4
882.941	10164.89
883.259	10119.24
883.577	10166.47
883.894	10169.63
884.212	10102.97
884.529	10076.53
884.846	10092.8
885.164	10044.89
885.481	10003.54
885.798	10024.78
886.115	9969.64
886.432	9990.88
886.75	9978.23
887.067	9884.44
887.383	9884.22
887.7	9953.59
888.017	9860.49
888.334	9823.88
888.651	9792.92
888.967	9819.13
889.284	9720.38
889.6	9731.68
889.917	9634.28
890.233	9653.72
890.55	9617.11
890.866	9602.42
891.182	9585.47
891.498	9552.93
891.815	9469.31
892.131	9476.32
892.447	9485.81
892.763	9398.13
893.079	9405.81
893.395	9374.85
893.71	9297.11
894.026	9313.61
894.342	9263.67
894.657	9209.21
894.973	9192.71
895.289	9169.89
895.604	9136.89
895.92	9098.93
896.235	9032.26
896.55	9073.62
896.865	9057.57
897.181	9052.37
897.496	8986.84
897.811	8979.61
898.126	8919.27
898.441	8885.83
898.756	8840.4
899.071	8785.26
899.386	8876.11
899.7	8768.54
900.015	8687.41
900.33	8624.36
900.644	8645.61
900.959	8629.56
901.273	8581.65
901.588	8567.42
901.902	8530.81
902.216	8490.13
902.531	8530.13
902.845	8491.94
903.159	8411.49
903.473	8403.13
903.787	8306.18
904.101	8359.96
904.415	8324.03
904.729	8285.39
905.042	8199.06
905.356	8216.69
905.67	8193.41
905.984	8198.16
906.297	8121.33
906.611	8103.02
906.924	8013.31
907.237	8010.82
907.551	7995.45
907.864	7957.04
908.177	7912.97
908.491	7935.79
908.804	7834.78
909.117	7816.7
909.43	7717.27
909.743	7767.21
910.056	7671.39
910.368	7591.4
910.681	7644.28
910.994	7607.22
911.307	7625.75
911.619	7557.5
911.932	7518.63
912.244	7468.24
912.557	7499.42
912.869	7431.4
913.181	7388.01
913.494	7342.36
913.806	7326.09
914.118	7301.46
914.43	7238.86
914.742	7311.86
915.054	7225.98
915.366	7161.58
915.678	7174.91
915.99	7121.8
916.302	7073.22
916.613	7114.8
916.925	7050.62
917.236	7057.4
917.548	6997.51
917.859	6992.54
918.171	6953.22
918.482	6889.49
918.794	6840.23
919.105	6884.75
919.416	6789.84
919.727	6743.51
920.038	6763.62
920.349	6727.46
920.66	6726.33
920.971	6678.65
921.282	6648.14
921.593	6596.39
921.903	6614.7
922.214	6545.55
922.525	6514.81
922.835	6548.49
923.146	6477.53
923.456	6491.31
923.767	6432.33
924.077	6431.65
924.387	6361.82
924.697	6377.19
925.008	6407.47
925.318	6304.2
925.628	6302.39
925.938	6256.06
926.248	6222.17
926.558	6195.73
926.867	6180.36
927.177	6180.81
927.487	6123.41
927.796	6083.19
928.106	6065.79
928.416	6060.36
928.725	5994.83
929.034	5986.92
929.344	5959.57
929.653	5950.08
929.962	5929.29
930.271	5871.67
930.581	5907.82
930.89	5847.94
931.199	5855.62
931.508	5797.09
931.817	5827.6
932.125	5763.42
932.434	5767.49
932.743	5724.78
933.051	5686.59
933.36	5713.93
933.669	5616.53
933.977	5642.75
934.286	5615.4
934.594	5655.18
934.902	5527.95
935.21	5515.29
935.519	5527.04
935.827	5421.74
936.135	5419.25
936.443	5384
936.751	5388.29
937.059	5428.52
937.367	5384.22
937.674	5358.23
937.982	5318.24
938.29	5246.6
938.597	5264.23
938.905	5254.73
939.213	5251.8
939.52	5209.31
939.827	5203.66
940.135	5162.31
940.442	5126.15
940.749	5090.22
941.056	5156.66
941.363	5023.55
941.67	5060.39
941.977	4988.75
942.284	4952.6
942.591	5000.73
942.898	4955.76
943.205	4958.47
943.511	4900.85
943.818	4942.65
944.125	4902.43
944.431	4868.53
944.738	4849.32
945.044	4885.7
945.35	4799.61
945.657	4783.11
945.963	4774.52
946.269	4711.7
946.575	4717.8
946.881	4635.54
947.187	4710.57
947.493	4668.54
947.799	4688.65
948.105	4621.08
948.41	4623.79
948.716	4605.94
949.022	4527.52
949.327	4569.55
949.633	4514.42
949.938	4496.79
950.244	4487.3
950.549	4461.08
950.854	4466.51
951.16	4467.64
951.465	4430.58
951.77	4400.97
952.075	4380.41
952.38	4369.56
952.685	4339.5
952.99	4324.36
953.294	4276.91
953.599	4271.48
953.904	4260.18
954.209	4258.15
954.513	4229.9
954.818	4193.52
955.122	4226.97
955.426	4175.44
955.731	4136.12
956.035	4138.83
956.339	4094.77
956.643	4082.79
956.948	4056.12
957.252	4085.95
957.556	4098.61
957.86	4036.91
958.163	4049.12
958.467	3994.65
958.771	4019.96
959.075	3948.55
959.378	3972.06
959.682	3931.83
959.985	3915.11
960.289	3904.94
960.592	3881.21
960.896	3851.61
961.199	3851.83
961.502	3811.83
961.805	3779.52
962.108	3806.86
962.411	3765.06
962.714	3755.57
963.017	3771.16
963.32	3725.74
963.623	3713.08
963.926	3704.72
964.228	3688.67
964.531	3674.44
964.833	3654.1
965.136	3635.79
965.438	3615.68
965.741	3607.09
966.043	3592.41
966.345	3541.33
966.648	3585.17
966.95	3568.68
967.252	3519.19
967.554	3493.2
967.856	3508.11
968.158	3492.75
968.46	3440.32
968.761	3448.91
969.063	3482.8
969.365	3438.29
969.666	3418.4
969.968	3410.72
970.269	3352.86
970.571	3377.27
970.872	3336.59
971.174	3282.13
971.475	3336.59
971.776	3300.89
972.077	3281
972.378	3271.96
972.679	3267.89
972.98	3242.36
973.281	3199.87
973.582	3202.59
973.883	3223.6
974.183	3197.61
974.484	3142.7
974.785	3203.49
975.085	3146.77
975.386	3119.2
975.686	3132.3
975.986	3155.58
976.287	3128.91
976.587	3076.03
976.887	3087.11
977.187	3049.14
977.487	3066.77
977.787	3032.19
978.087	3015.25
978.387	3005.75
978.687	2965.3
978.987	2980.9
979.286	2976.38
979.586	2964.4
979.885	2968.47
980.185	2928.24
980.484	2884.4
980.784	2914.91
981.083	2890.28
981.382	2860.45
981.682	2843.72
981.981	2831.3
982.28	2837.85
982.579	2795.36
982.878	2838.75
983.177	2813.89
983.475	2803.5
983.774	2773.22
984.073	2780.45
984.372	2730.73
984.67	2704.29
984.969	2700.23
985.267	2703.84
985.566	2680.79
985.864	2691.19
986.162	2658.64
986.461	2657.06
986.759	2627.69
987.057	2619.32
987.355	2616.39
987.653	2594.92
987.951	2626.1
988.249	2582.04
988.547	2594.24
988.844	2597.18
989.142	2537.52
989.44	2506.11
989.737	2507.69
990.035	2487.35
990.332	2524.86
990.63	2492.77
990.927	2498.65
991.224	2478.54
991.521	2462.72
991.819	2435.15
992.116	2440.8
992.413	2438.99
992.71	2453
993.006	2395.37
993.303	2387.69
993.6	2367.58
993.897	2380.69
994.193	2359.67
994.49	2358.99
994.787	2319.22
995.083	2328.03
995.379	2308.82
995.676	2302.72
995.972	2311.99
996.268	2318.31
996.565	2263.17
996.861	2253.01
997.157	2240.58
997.453	2250.52
997.749	2206.91
998.044	2212.33
998.34	2222.72
998.636	2175.27
998.932	2200.58
999.227	2169.39
999.523	2129.62
999.818	2159
1000.114	2169.17
1000.409	2119.68
1000.704	2104.08
1001	2094.59
1001.295	2064.76
1001.59	2067.47
1001.885	2053.91
1002.18	2106.57
1002.475	2066.8
1002.77	2014.14
1003.065	2024.76
1003.359	2040.58
1003.654	2004.2
1003.949	1972.11
1004.243	1966.69
1004.538	1968.27
1004.832	1974.14
1005.127	1906.57
1005.421	1943.18
1005.715	1957.19
1006.009	1923.3
1006.304	1913.35
1006.598	1910.42
1006.892	1903.86
1007.186	1851.66
1007.48	1880.36
1007.773	1848.04
1008.067	1844.65
1008.361	1825.22
1008.655	1803.3
1008.948	1807.82
1009.242	1803.98
1009.535	1772.79
1009.829	1780.48
1010.122	1781.38
1010.415	1763.53
1010.708	1755.84
1011.001	1719.69
1011.295	1742.74
1011.588	1697.77
1011.881	1724.21
1012.173	1703.87
1012.466	1733.92
1012.759	1679.24
1013.052	1677.2
1013.344	1670.2
1013.637	1671.33
1013.93	1638.33
1014.222	1650.08
1014.514	1632.01
1014.807	1617.77
1015.099	1624.1
1015.391	1588.16
1015.683	1599.24
1015.976	1570.09
1016.268	1566.47
1016.56	1546.36
1016.851	1539.8
1017.143	1543.87
1017.435	1545.68
1017.727	1516.08
1018.018	1506.36
1018.31	1470.88
1018.602	1489.86
1018.893	1509.75
1019.185	1484.21
1019.476	1440.6
1019.767	1443.76
1020.058	1451.67
1020.35	1434.72
1020.641	1426.36
1020.932	1440.6
1021.223	1401.05
1021.514	1395.63
1021.804	1409.86
1022.095	1398.56
1022.386	1371.22
1022.677	1375.06
1022.967	1356.98
1023.258	1366.48
1023.548	1338
1023.839	1354.95
1024.129	1330.09
1024.419	1325.35
1024.709	1321.5
1025	1286.93
1025.29	1311.56
1025.58	1291.22
1025.87	1281.51
1026.16	1276.53
1026.449	1267.49
1026.739	1238.12
1027.029	1255.07
1027.319	1234.73
1027.608	1236.54
1027.898	1213.26
1028.187	1201.06
1028.477	1203.99
1028.766	1199.25
1029.055	1207.38
1029.344	1182.98
1029.634	1185.92
1029.923	1154.96
1030.212	1146.14
1030.501	1179.59
1030.79	1135.52
1031.078	1136.88
1031.367	1129.42
1031.656	1130.78
1031.945	1112.02
1032.233	1081.74
1032.522	1149.31
1032.81	1108.18
1033.099	1091.68
1033.387	1084.22
1033.675	1082.42
1033.963	1077.9
1034.251	1056.2
1034.54	1051.23
1034.828	1049.65
1035.116	1031.12
1035.403	1029.76
1035.691	1028.63
1035.979	1039.48
1036.267	1015.3
1036.554	1003.32
1036.842	1000.38
1037.129	990.89
1037.417	992.93
1037.704	973.72
1037.992	967.16
1038.279	969.2
1038.566	969.42
1038.853	969.42
1039.14	969.42
