Data from hue_210_FLMS001491_00092.txt Node
Date: Tue Feb 07 16:42:00 GMT 2017
User: dcchb
Spectrometer: FLMS00149
Trigger mode: 0
Integration Time (sec): 2.000000E-2
Scans to average: 10
Electric dark correction enabled: true
Nonlinearity correction enabled: false
Boxcar width: 0
XAxis mode: Wavelengths
Number of Pixels in Spectrum: 2048
>>>>>Begin Spectral Data<<<<<
341.393	-18.86
341.776	-18.86
342.16	-18.86
342.543	-63.83
342.927	-64.5
343.31	-80.1
343.693	-65.41
344.077	-66.31
344.46	-56.14
344.843	-49.59
345.226	-47.33
345.61	-41.45
345.993	-21.34
346.376	7.36
346.759	20.47
347.142	21.82
347.525	38.32
347.908	62.72
348.291	72.67
348.674	97.3
349.057	107.02
349.44	118.54
349.823	157.64
350.206	161.25
350.588	182.27
350.971	190.63
351.354	215.49
351.737	247.58
352.119	250.29
352.502	271.76
352.884	283.51
353.267	272.66
353.65	298.88
354.032	300.46
354.414	298.2
354.797	318.76
355.179	306.56
355.562	331.19
355.944	300.01
356.326	328.93
356.709	341.14
357.091	343.39
357.473	359.89
357.855	324.41
358.238	329.38
358.62	335.49
359.002	326.45
359.384	347.69
359.766	334.13
360.148	319.89
360.53	326.45
360.912	325.32
361.294	332.55
361.676	339.33
362.057	304.3
362.439	331.64
362.821	323.96
363.203	325.99
363.584	334.81
363.966	334.58
364.348	308.14
364.729	314.47
365.111	313.79
365.493	319.67
365.874	314.47
366.256	292.1
366.637	292.55
367.019	316.95
367.4	322.6
367.781	307.69
368.163	326.9
368.544	302.27
368.925	302.94
369.306	315.83
369.688	311.98
370.069	329.84
370.45	314.02
370.831	334.13
371.212	305.66
371.593	318.76
371.974	319.21
372.355	310.85
372.736	332.55
373.117	310.18
373.498	311.98
373.879	313.11
374.26	307.92
374.641	328.71
375.021	327.8
375.402	318.99
375.783	306.79
376.163	323.51
376.544	333.68
376.925	329.61
377.305	319.89
377.686	324.41
378.066	324.41
378.447	329.84
378.827	319.67
379.208	316.95
379.588	333
379.968	323.96
380.349	306.56
380.729	335.26
381.109	346.11
381.489	308.37
381.87	342.94
382.25	307.46
382.63	313.34
383.01	326.9
383.39	337.97
383.77	343.39
384.15	338.42
384.53	335.71
384.91	351.53
385.29	388.59
385.67	372.09
386.049	358.76
386.429	336.62
386.809	345.88
387.189	362.83
387.568	378.2
387.948	349.04
388.328	344.3
388.707	340.46
389.087	368.48
389.466	366.22
389.846	353.56
390.225	362.6
390.605	358.31
390.984	352.21
391.363	363.73
391.743	364.64
392.122	384.52
392.501	370.51
392.881	386.11
393.26	381.59
393.639	378.87
394.018	393.56
394.397	381.13
394.776	388.82
395.155	401.47
395.534	379.33
395.913	385.2
396.292	403.28
396.671	391.98
397.05	388.59
397.429	420
397.808	388.14
398.186	412.32
398.565	395.14
398.944	390.4
399.323	405.54
399.701	404.41
400.08	403.73
400.458	415.26
400.837	412.32
401.215	450.96
401.594	417.52
401.972	429.72
402.351	439.66
402.729	438.08
403.107	440.79
403.486	434.24
403.864	444.86
404.242	438.08
404.62	435.37
404.999	461.58
405.377	437.4
405.755	473.34
406.133	487.12
406.511	451.87
406.889	478.31
407.267	460.68
407.645	493.67
408.023	476.72
408.401	490.74
408.779	506.1
409.156	505.65
409.534	524.63
409.912	522.15
410.29	520.11
410.667	540.68
411.045	553.11
411.422	549.94
411.8	554.69
412.178	553.78
412.555	577.74
412.933	574.8
413.31	590.39
413.687	614.57
414.065	595.37
414.442	615.48
414.819	658.64
415.197	637.85
415.574	638.53
415.951	659.32
416.328	665.19
416.705	668.81
417.082	676.04
417.46	705.19
417.837	689.37
418.214	692.31
418.591	700.67
418.967	695.02
419.344	726.21
419.721	723.27
420.098	742.25
420.475	760.11
420.852	769.6
421.228	777.28
421.605	788.81
421.982	803.95
422.358	839.2
422.735	839.65
423.111	835.59
423.488	848.47
423.864	856.6
424.241	916.04
424.617	878.97
424.994	900.44
425.37	932.53
425.746	911.06
426.123	967.11
426.499	945.19
426.875	970.05
427.251	988.8
427.627	1011.17
428.003	1007.11
428.379	1037.61
428.756	1044.17
429.132	1048.01
429.507	1092.75
429.883	1085.52
430.259	1079.87
430.635	1144.96
431.011	1109.02
431.387	1142.24
431.763	1159.19
432.138	1187.21
432.514	1204.16
432.89	1226.99
433.265	1243.03
433.641	1281.22
434.016	1271.51
434.392	1277.16
434.767	1313.99
435.143	1338.17
435.518	1369.58
435.894	1400.77
436.269	1412.97
436.644	1432.86
437.02	1459.98
437.395	1480.99
437.77	1478.96
438.145	1500.88
438.52	1534.78
438.895	1570.93
439.271	1602.8
439.646	1629.46
440.021	1633.76
440.395	1647.99
440.77	1676.02
441.145	1699.07
441.52	1732.74
441.895	1701.55
442.27	1739.52
442.645	1758.5
443.019	1779.29
443.394	1771.15
443.769	1811.38
444.143	1836.01
444.518	1826.29
444.892	1876.24
445.267	1899.29
445.641	1899.96
446.016	1932.73
446.39	1919.85
446.764	1953.07
447.139	1924.82
447.513	1969.11
447.887	1989.91
448.262	2023.58
448.636	1981.54
449.01	2038.04
449.384	2056.34
449.758	2064.93
450.132	2115.55
450.506	2084.37
450.88	2089.11
451.254	2113.97
451.628	2136.57
452.002	2184.48
452.376	2181.54
452.75	2198.49
453.123	2218.15
453.497	2258.6
453.871	2259.95
454.244	2328.2
454.618	2350.12
454.992	2351.48
455.365	2332.5
455.739	2413.62
456.112	2439.16
456.486	2447.29
456.859	2473.06
457.232	2513.28
457.606	2522.32
457.979	2596.89
458.352	2621.75
458.725	2641.41
459.099	2663.33
459.472	2706.72
459.845	2717.12
460.218	2791.01
460.591	2776.33
460.964	2772.94
461.337	2817.45
461.71	2905.59
462.083	2927.06
462.456	2892.03
462.829	2920.05
463.201	2961.18
463.574	2980.16
463.947	3059.71
464.32	3096.09
464.692	3141.29
465.065	3165.02
465.438	3219.48
465.81	3225.35
466.183	3243.88
466.555	3313.49
466.928	3362.52
467.3	3346.48
467.672	3369.53
468.045	3481.84
468.417	3494.95
468.789	3520.03
469.161	3553.71
469.534	3586.25
469.906	3646.13
470.278	3700.37
470.65	3713.02
471.022	3825.56
471.394	3886.8
471.766	3885.22
472.138	3915.05
472.51	4000.25
472.882	4047.7
473.253	4068.27
473.625	4157.76
473.997	4211.54
474.369	4252.9
474.74	4268.04
475.112	4388.94
475.484	4384.64
475.855	4510.29
476.227	4519.78
476.598	4647.01
476.97	4677.97
477.341	4790.51
477.713	4849.27
478.084	4885.42
478.455	4967
478.827	5032.54
479.198	5106.43
479.569	5088.13
479.94	5258.29
480.311	5289.03
480.682	5376.71
481.053	5535.12
481.424	5565.63
481.795	5648.11
482.166	5766.98
482.537	5754.33
482.908	5864.38
483.279	5951.38
483.65	5986.18
484.021	6131.04
484.391	6179.63
484.762	6216.69
485.133	6288.78
485.503	6381.43
485.874	6471.6
486.244	6551.82
486.615	6669.1
486.985	6692.61
487.356	6806.73
487.726	6837.01
488.097	6915.88
488.467	6992.49
488.837	7135.53
489.207	7213.72
489.578	7288.98
489.948	7297.34
490.318	7392.02
490.688	7395.86
491.058	7525.58
491.428	7625.24
491.798	7708.4
492.168	7782.07
492.538	7804.67
492.908	7909.52
493.278	7985
493.648	8024.55
494.017	8121.95
494.387	8147.71
494.757	8255.5
495.126	8239.46
495.496	8318.1
495.866	8274.94
496.235	8432.9
496.605	8446.01
496.974	8498.21
497.344	8577.53
497.713	8615.04
498.082	8568.94
498.452	8677.64
498.821	8664.98
499.19	8658.88
499.559	8760.12
499.928	8846.67
500.298	8932.55
500.667	8915.15
501.036	8871.31
501.405	8992.89
501.774	8952.89
502.143	9013.68
502.512	9067.91
502.88	9154.69
503.249	9180
503.618	9136.61
503.987	9168.25
504.356	9258.19
504.724	9270.39
505.093	9264.06
505.462	9304.29
505.83	9364.4
506.199	9388.58
506.567	9457.73
506.936	9429.26
507.304	9544.73
507.672	9539.54
508.041	9540.22
508.409	9678.74
508.777	9605.75
509.145	9696.37
509.514	9625.41
509.882	9672.42
510.25	9722.81
510.618	9680.32
510.986	9729.81
511.354	9747.67
511.722	9808.68
512.09	9849.36
512.458	9827.21
512.826	9902.69
513.193	9913.54
513.561	9946.53
513.929	9966.42
514.297	10022.69
514.664	10020.43
515.032	10000.09
515.4	10090.48
515.767	10076.25
516.135	10072.4
516.502	9963.93
516.869	10123.02
517.237	10095.45
517.604	10032.86
517.972	10168.22
518.339	10096.81
518.706	10160.09
519.073	10059.52
519.44	10110.14
519.808	10229.46
520.175	10208.45
520.542	10219.97
520.909	10296.81
521.276	10280.08
521.643	10292.29
522.009	10260.2
522.376	10363.47
522.743	10302
523.11	10367.09
523.477	10422
523.843	10428.1
524.21	10432.4
524.577	10491.6
524.943	10456.12
525.31	10497.48
525.676	10514.88
526.043	10605.5
526.409	10555.78
526.776	10567.76
527.142	10558.27
527.508	10553.75
527.874	10627.87
528.241	10579.96
528.607	10599.62
528.973	10598.27
529.339	10617.02
529.705	10615.44
530.071	10703.57
530.437	10602.11
530.803	10581.32
531.169	10629.23
531.535	10625.16
531.901	10628.1
532.267	10594.42
532.632	10572.05
532.998	10590.58
533.364	10592.39
533.73	10536.57
534.095	10630.58
534.461	10589.68
534.826	10581.54
535.192	10527.99
535.557	10558.27
535.923	10486.63
536.288	10561.66
536.653	10446.63
537.019	10402.79
537.384	10408.44
537.749	10419.29
538.114	10367.31
538.479	10375
538.845	10377.03
539.21	10225.62
539.575	10203.7
539.94	10267.65
540.305	10294.09
540.67	10149.69
541.034	10202.8
541.399	10128.45
541.764	10085.96
542.129	10052.97
542.494	10096.13
542.858	10029.92
543.223	9985.85
543.587	9986.08
543.952	9960.54
544.316	9972.52
544.681	9924.84
545.045	9982.01
545.41	9988.57
545.774	9842.81
546.138	9864.95
546.503	9816.82
546.867	9791.28
547.231	9819.3
547.595	9744.5
547.959	9647.33
548.324	9684.62
548.688	9575.24
549.052	9679.19
549.416	9615.92
549.779	9560.55
550.143	9543.15
550.507	9576.15
550.871	9567.79
551.235	9475.36
551.599	9474
551.962	9519.2
552.326	9408.02
552.689	9440.1
553.053	9398.98
553.417	9370.05
553.78	9392.65
554.143	9287.57
554.507	9398.75
554.87	9331.41
555.234	9363.95
555.597	9238.3
555.96	9261.13
556.323	9238.75
556.686	9204.63
557.05	9194.24
557.413	9196.72
557.776	9157.17
558.139	9223.39
558.502	9215.7
558.865	9130.73
559.228	9218.87
559.59	9163.28
559.953	9166.67
560.316	9228.81
560.679	9250.51
561.041	9189.04
561.404	9201.24
561.767	9180
562.129	9136.38
562.492	9249.83
562.854	9128.7
563.217	9106.33
563.579	9168.7
563.941	9269.71
564.304	9173.22
564.666	9210.51
565.028	9206.21
565.39	9194.01
565.753	9163.28
566.115	9222.26
566.477	9237.85
566.839	9151.75
567.201	9251.86
567.563	9273.56
567.925	9260.22
568.287	9237.4
568.648	9273.56
569.01	9300.9
569.372	9297.51
569.734	9281.24
570.095	9352.88
570.457	9315.36
570.819	9322.59
571.18	9381.35
571.542	9373.21
571.903	9360.33
572.265	9348.13
572.626	9409.37
572.987	9347.9
573.349	9351.29
573.71	9373.67
574.071	9377.28
574.432	9414.57
574.794	9532.31
575.155	9471.74
575.516	9400.56
575.877	9391.97
576.238	9431.29
576.599	9504.96
576.96	9479.65
577.32	9481.91
577.681	9491.85
578.042	9551.51
578.403	9570.72
578.763	9469.48
579.124	9513.55
579.485	9571.4
579.845	9593.32
580.206	9569.37
580.566	9604.85
580.927	9579.31
581.287	9625.64
581.648	9566.43
582.008	9665.41
582.368	9561.91
582.728	9704.73
583.089	9655.92
583.449	9655.01
583.809	9621.8
584.169	9740.66
584.529	9610.72
584.889	9696.6
585.249	9685.3
585.609	9615.24
585.969	9700.21
586.329	9693.21
586.688	9704.5
587.048	9704.28
587.408	9665.18
587.768	9726.43
588.127	9672.87
588.487	9703.37
588.846	9722.36
589.206	9698.18
589.565	9693.43
589.925	9752.87
590.284	9683.49
590.643	9730.04
591.003	9800.55
591.362	9790.15
591.721	9765.52
592.08	9732.98
592.44	9703.83
592.799	9804.84
593.158	9776.37
593.517	9772.07
593.876	9748.12
594.235	9704.96
594.593	9696.37
594.952	9786.08
595.311	9750.38
595.67	9790.38
596.029	9835.57
596.387	9803.49
596.746	9810.04
597.104	9732.3
597.463	9747.67
597.822	9779.53
598.18	9751.51
598.538	9730.94
598.897	9811.62
599.255	9726.88
599.613	9822.92
599.972	9786.31
600.33	9777.95
600.688	9768.91
601.046	9824.05
601.404	9851.62
601.762	9798.97
602.12	9860.66
602.478	9825.63
602.836	9816.82
603.194	9777.72
603.552	9815.46
603.91	9724.39
604.268	9795.8
604.625	9836.03
604.983	9804.84
605.341	9751.51
605.698	9830.15
606.056	9838.74
606.413	9832.64
606.771	9862.92
607.128	9887.1
607.485	9820.66
607.843	9853.88
608.2	9883.26
608.557	9936.36
608.914	9911.5
609.272	9914.44
609.629	9869.47
609.986	9925.74
610.343	9850.94
610.7	9941.79
611.057	9886.19
611.414	9864.95
611.771	9912.41
612.127	10042.35
612.484	10026.76
612.841	9951.5
613.198	9969.13
613.554	9965.06
613.911	10001.67
614.267	9981.56
614.624	9930.94
614.98	9993.08
615.337	10062.01
615.693	10006.19
616.05	10022.69
616.406	10040.54
616.762	10028.11
617.118	10065.4
617.475	10012.52
617.831	10080.09
618.187	10064.27
618.543	10140.43
618.899	10166.87
619.255	10156.7
619.611	10064.04
619.967	10098.17
620.323	10139.52
620.678	10066.08
621.034	10110.14
621.39	10080.09
621.746	10039.64
622.101	10219.75
622.457	10111.27
622.812	10102.91
623.168	10133.65
623.523	10166.41
623.879	10107.21
624.234	10043.93
624.589	10097.26
624.945	10085.51
625.3	10111.95
625.655	10024.27
626.01	10143.82
626.365	10097.49
626.72	10024.27
627.075	10106.75
627.43	10101.1
627.785	10095.68
628.14	10098.84
628.495	10074.66
628.85	10029.02
629.205	10017.26
629.559	10056.59
629.914	10069.24
630.269	10019.75
630.623	10021.56
630.978	9980.2
631.332	10024.72
631.687	10019.07
632.041	9993.31
632.396	9913.09
632.75	9876.48
633.104	9928.68
633.459	9942.24
633.813	9891.84
634.167	9924.39
634.521	9958.28
634.875	9941.56
635.229	9885.06
635.583	9812.75
635.937	9887.55
636.291	9831.96
636.645	9792.64
636.999	9795.8
637.352	9795.12
637.706	9807.78
638.06	9773.2
638.413	9756.03
638.767	9721.91
639.121	9736.82
639.474	9675.13
639.828	9673.09
640.181	9752.19
640.534	9611.4
640.888	9664.51
641.241	9635.81
641.594	9679.42
641.947	9667.9
642.301	9618.18
642.654	9631.51
643.007	9652.3
643.36	9635.13
643.713	9653.43
644.066	9734.33
644.419	9545.41
644.771	9456.6
645.124	9485.3
645.477	9501.12
645.83	9336.83
646.182	9362.82
646.535	9293.44
646.888	9352.42
647.24	9217.51
647.593	9325.53
647.945	9247.79
648.298	9243.27
648.65	9272.65
649.002	9284.63
649.355	9327.11
649.707	9287.34
650.059	9358.98
650.411	9452.53
650.763	9451.4
651.115	9607.33
651.467	9540.44
651.819	9480.33
652.171	9541.35
652.523	9498.41
652.875	9476.94
653.227	9524.85
653.578	9514.91
653.93	9459.77
654.282	9473.1
654.633	9381.35
654.985	9455.92
655.337	9450.27
655.688	9464.51
656.039	9549.71
656.391	9514.45
656.742	9496.15
657.094	9495.7
657.445	9482.59
657.796	9539.09
658.147	9580.21
658.498	9436.72
658.849	9500.22
659.2	9549.93
659.551	9499.09
659.902	9513.1
660.253	9491.85
660.604	9550.38
660.955	9492.08
661.306	9551.29
661.656	9503.61
662.007	9487.11
662.358	9522.36
662.708	9553.1
663.059	9562.59
663.409	9490.95
663.76	9609.14
664.11	9586.32
664.461	9602.59
664.811	9525.53
665.161	9580.67
665.511	9567.33
665.862	9605.75
666.212	9544.06
666.562	9603.04
666.912	9615.24
667.262	9530.27
667.612	9583.38
667.962	9615.92
668.312	9539.99
668.662	9559.42
669.011	9571.17
669.361	9600.55
669.711	9641.91
670.06	9461.57
670.41	9581.12
670.76	9445.3
671.109	9534.57
671.459	9444.4
671.808	9493.89
672.157	9484.17
672.507	9450.27
672.856	9461.8
673.205	9468.8
673.554	9543.6
673.904	9496.37
674.253	9540.67
674.602	9455.25
674.951	9346.55
675.3	9283.72
675.649	9415.25
675.998	9403.04
676.346	9400.11
676.695	9437.17
677.044	9350.84
677.393	9328.92
677.741	9351.52
678.09	9381.12
678.438	9390.61
678.787	9370.05
679.135	9379.09
679.484	9295.48
679.832	9319.43
680.181	9268.58
680.529	9314.23
680.877	9290.28
681.225	9223.61
681.573	9263.39
681.922	9222.48
682.27	9162.6
682.618	9193.33
682.966	9147.68
683.314	9140
683.661	9140.68
684.009	9112.88
684.357	9057.74
684.705	9086.67
685.053	9060
685.4	9024.3
685.748	8986.56
686.095	9009.83
686.443	8921.47
686.79	9010.74
687.138	8961.02
687.485	8903.4
687.832	8937.52
688.18	8917.18
688.527	8834.92
688.874	8733.23
689.221	8787.92
689.568	8759.22
689.915	8831.08
690.262	8761.03
690.609	8690.75
690.956	8668.37
691.303	8748.15
691.65	8595.16
691.997	8619.11
692.344	8532.11
692.69	8536.4
693.037	8446.91
693.383	8501.37
693.73	8473.12
694.077	8410.98
694.423	8377.08
694.769	8389.51
695.116	8377.31
695.462	8347.03
695.808	8273.36
696.155	8332.79
696.501	8226.35
696.847	8200.14
697.193	8177.77
697.539	8190.87
697.885	8095.51
698.231	8100.93
698.577	8078.56
698.923	8069.75
699.269	7976.64
699.614	7923.53
699.96	7877.89
700.306	7900.03
700.651	7932.57
700.997	7831.33
701.342	7837.66
701.688	7854.16
702.033	7775.29
702.379	7801.96
702.724	7728.06
703.069	7677.44
703.415	7615.75
703.76	7667.95
704.105	7602.19
704.45	7642.86
704.795	7543.43
705.14	7502.98
705.485	7488.97
705.83	7523.55
706.175	7418.01
706.52	7441.74
706.865	7344.57
707.209	7420.05
707.554	7352.48
707.899	7417.11
708.243	7290.78
708.588	7262.76
708.932	7241.97
709.277	7265.7
709.621	7268.18
709.966	7232.03
710.31	7246.94
710.654	7179.37
710.998	7189.09
711.342	7154.29
711.687	7103.9
712.031	7071.58
712.375	7055.08
712.719	7076.33
713.063	7008.98
713.407	7097.34
713.75	7036.33
714.094	7064.12
714.438	6935.99
714.782	6979.6
715.125	6985.03
715.469	6973.73
715.812	6942.77
716.156	6907.74
716.499	6946.16
716.843	6921.75
717.186	6901.64
717.53	6863.22
717.873	6943.9
718.216	6877.91
718.559	6824.81
718.902	6790.91
719.246	6796.78
719.589	6746.62
719.932	6805.6
720.275	6787.75
720.617	6720.18
720.96	6776.22
721.303	6725.15
721.646	6782.77
721.989	6745.71
722.331	6791.13
722.674	6714.98
723.016	6748.2
723.359	6690.8
723.701	6721.31
724.044	6676.56
724.386	6618.03
724.729	6715.2
725.071	6691.25
725.413	6712.72
725.755	6659.61
726.097	6694.19
726.439	6605.83
726.782	6593.63
727.124	6691.02
727.465	6632.04
727.807	6592.04
728.149	6616.22
728.491	6591.59
728.833	6576.9
729.175	6555.21
729.516	6618.03
729.858	6589.78
730.199	6620.97
730.541	6560.18
730.882	6619.16
731.224	6604.25
731.565	6605.38
731.906	6621.87
732.248	6600.86
732.589	6560.63
732.93	6610.35
733.271	6554.08
733.612	6653.74
733.953	6608.99
734.294	6605.6
734.635	6630.91
734.976	6553.18
735.317	6632.04
735.658	6587.3
735.999	6566.06
736.339	6602.21
736.68	6648.99
737.021	6618.03
737.361	6600.41
737.702	6630.24
738.042	6612.38
738.383	6631.82
738.723	6636.34
739.063	6634.08
739.404	6619.16
739.744	6684.92
740.084	6669.33
740.424	6703.91
740.764	6721.08
741.104	6773.28
741.444	6673.85
741.784	6701.42
742.124	6729.22
742.464	6758.14
742.804	6824.13
743.143	6743.23
743.483	6820.51
743.823	6805.37
744.162	6851.7
744.502	6866.84
744.841	6879.04
745.181	6981.41
745.52	6930.34
745.86	6985.03
746.199	7078.59
746.538	7040.39
746.877	7103.22
747.216	7149.09
747.556	7235.19
747.895	7254.4
748.234	7269.54
748.573	7307.51
748.911	7349.76
749.25	7399.93
749.589	7471.34
749.928	7459.59
750.267	7562.19
750.605	7634.73
750.944	7809.64
751.283	7769.64
751.621	7921.73
751.96	7921.95
752.298	8073.14
752.636	8166.69
752.975	8216.18
753.313	8274.49
753.651	8398.1
753.989	8536.63
754.327	8656.85
754.666	8735.72
755.004	8790.86
755.342	8943.85
755.679	9098.42
756.017	9255.48
756.355	9367.11
756.693	9481.69
757.031	9601.91
757.368	9733.2
757.706	9868.34
758.044	10013.2
758.381	10198.05
758.719	10299.52
759.056	10490.25
759.394	10658.6
759.731	10796.91
760.068	10895.21
760.405	11057.01
760.743	11198.25
761.08	11420.39
761.417	11539.26
761.754	11763.43
762.091	11854.73
762.428	12021.73
762.765	12232.57
763.102	12416.75
763.438	12571.1
763.775	12676.18
764.112	12806.57
764.449	12995.72
764.785	13207.46
765.122	13317.97
765.458	13434.35
765.795	13592.31
766.131	13785.53
766.467	13901.91
766.804	13998.4
767.14	14149.13
767.476	14331.05
767.812	14437.04
768.148	14671.83
768.485	14754.54
768.821	14893.75
769.157	14968.55
769.492	15158.15
769.828	15262.32
770.164	15347.07
770.5	15479.72
770.836	15605.37
771.171	15724.69
771.507	15779.83
771.842	15860.28
772.178	15906.38
772.513	16049.2
772.849	16069.08
773.184	16273.82
773.519	16301.39
773.855	16331.22
774.19	16417.1
774.525	16513.82
774.86	16545.91
775.195	16824.32
775.53	16742.06
775.865	16697.54
776.2	16764.66
776.535	16748.39
776.87	16825
777.205	16926.01
777.539	16889.4
777.874	17088.27
778.209	16964.2
778.543	17068.38
778.878	17074.48
779.212	17145.44
779.547	17067.7
779.881	17280.12
780.215	17225.89
780.55	17306.34
780.884	17262.95
781.218	17234.02
781.552	17334.81
781.886	17296.4
782.22	17292.33
782.554	17243.97
782.888	17232.67
783.222	17280.8
783.556	17294.59
783.889	17277.41
784.223	17224.08
784.557	17130.07
784.89	17243.97
785.224	17208.94
785.557	17214.82
785.891	17283.74
786.224	17193.12
786.558	17264.31
786.891	17072.9
787.224	17069.96
787.557	17086.23
787.891	17099.79
788.224	17108.83
788.557	17118.32
788.89	17196.96
789.223	17182.05
789.556	17085.78
789.888	17061.37
790.221	17014.82
790.554	16855.05
790.887	16963.75
791.219	17011.21
791.552	16837.42
791.884	16862.51
792.217	16820.48
792.549	16778.22
792.882	16727.6
793.214	16699.8
793.546	16735.51
793.879	16623.64
794.211	16592.01
794.543	16647.6
794.875	16733.25
795.207	16686.92
795.539	16606.24
795.871	16557.88
796.203	16471.56
796.535	16443.99
796.867	16420.49
797.198	16474.27
797.53	16453.03
797.862	16367.83
798.193	16215.29
798.525	16152.47
798.856	16266.37
799.188	15986.6
799.519	16120.38
799.85	16057.56
800.182	16093.49
800.513	16024.11
800.844	15868.41
801.175	16049.42
801.506	16006.26
801.837	15957.9
802.168	15833.61
802.499	15884.46
802.83	15695.76
803.161	15780.05
803.491	15770.33
803.822	15674.29
804.153	15684.23
804.483	15546.84
804.814	15514.3
805.145	15472.94
805.475	15574.41
805.805	15413.51
806.136	15444.01
806.466	15427.52
806.796	15462.32
807.126	15238.14
807.457	15228.88
807.787	15247.18
808.117	15261.42
808.447	15177.36
808.777	15150.69
809.107	15126.51
809.436	15114.08
809.766	15090.13
810.096	15096.68
810.426	14944.14
810.755	14953.18
811.085	15000.64
811.414	14921.77
811.744	14901.66
812.073	14910.92
812.403	14881.32
812.732	14773.98
813.061	14804.71
813.39	14695.79
813.719	14688.55
814.049	14726.52
814.378	14714.99
814.707	14596.13
815.036	14642
815.365	14463.7
815.693	14460.31
816.022	14477.26
816.351	14370.6
816.68	14297.15
817.008	14430.03
817.337	14303.93
817.665	14266.87
817.994	14271.39
818.322	14354.78
818.651	14239.98
818.979	14263.71
819.307	14221.9
819.636	14246.31
819.964	14138.74
820.292	14182.35
820.62	14230.04
820.948	14148.46
821.276	14195.01
821.604	14155.01
821.932	14110.26
822.259	14199.08
822.587	14069.81
822.915	14098.51
823.243	14106.2
823.57	14050.83
823.898	14107.78
824.225	14079.98
824.553	14074.56
824.88	14060.32
825.207	14173.31
825.535	14167.21
825.862	14229.58
826.189	14116.37
826.516	14158.85
826.843	14211.73
827.17	14167.66
827.497	14230.49
827.824	14237.49
828.151	14093.54
828.478	14172.41
828.805	14218.51
829.131	14142.35
829.458	14177.38
829.785	14058.74
830.111	14162.92
830.438	14300.54
830.764	14195.91
831.09	14126.99
831.417	14078.85
831.743	14199.75
832.069	14200.88
832.395	14137.38
832.722	14043.15
833.048	14016.71
833.374	14127.67
833.7	13955.69
834.026	14124.28
834.351	14083.15
834.677	14061.9
835.003	14079.3
835.329	14053.54
835.654	14086.31
835.98	13925.18
836.306	14038.18
836.631	13924.28
836.956	13967.44
837.282	13995.01
837.607	13884.28
837.932	13850.38
838.258	13904.62
838.583	13901
838.908	13755.92
839.233	13727.9
839.558	13831.4
839.883	13705.3
840.208	13767.22
840.533	13570.62
840.858	13665.98
841.182	13698.75
841.507	13682.25
841.832	13625.98
842.156	13615.36
842.481	13615.81
842.805	13568.13
843.13	13428.47
843.454	13438.87
843.778	13442.71
844.103	13413.79
844.427	13332.43
844.751	13373.56
845.075	13334.01
845.399	13287.46
845.723	13213.34
846.047	13215.6
846.371	13141.02
846.695	13137.41
847.019	13096.73
847.343	12953.01
847.666	12891.09
847.99	12882.5
848.313	12823.07
848.637	12760.92
848.96	12763.41
849.284	12734.48
849.607	12647.48
849.931	12600.02
850.254	12538.78
850.577	12466.01
850.9	12408.61
851.223	12411.78
851.546	12272.12
851.869	12268.28
852.192	12325.9
852.515	12150.99
852.838	12131.11
853.161	12117.32
853.483	12120.94
853.806	12091.56
854.129	12014.73
854.451	11870.55
854.774	11968.17
855.096	11956.42
855.419	11888.85
855.741	11796.88
856.063	11689.99
856.385	11706.94
856.708	11640.5
857.03	11636.66
857.352	11604.79
857.674	11586.94
857.996	11597.79
858.318	11453.84
858.64	11489.09
858.961	11496.55
859.283	11436.21
859.605	11424.46
859.926	11352.82
860.248	11251.13
860.57	11281.41
860.891	11275.08
861.212	11240.51
861.534	11194.86
861.855	11165.48
862.176	11210.68
862.498	11144.01
862.819	11134.75
863.14	11137.69
863.461	11085.71
863.782	11030.8
864.103	11061.08
864.424	11010.01
864.745	11081.64
865.065	10958.48
865.386	10883.46
865.707	10893.63
866.027	10960.74
866.348	10850.46
866.668	10858.15
866.989	10855.43
867.309	10773.4
867.63	10835.77
867.95	10736.12
868.27	10721.88
868.59	10720.98
868.91	10739.51
869.23	10744.25
869.55	10711.03
869.87	10706.74
870.19	10687.53
870.51	10687.3
870.83	10695.89
871.15	10583.58
871.469	10629.23
871.789	10672.16
872.109	10627.19
872.428	10473.07
872.748	10587.42
873.067	10592.84
873.386	10522.34
873.706	10450.7
874.025	10478.95
874.344	10519.4
874.663	10480.98
874.982	10525.5
875.301	10426.97
875.62	10412.96
875.939	10426.75
876.258	10389.68
876.577	10358.27
876.896	10382.45
877.214	10329.12
877.533	10337.26
877.852	10313.08
878.17	10308.56
878.489	10278.5
878.807	10299.74
879.125	10259.97
879.444	10286.18
879.762	10218.84
880.08	10206.86
880.398	10153.53
880.716	10144.72
881.034	10045.06
881.352	10174.1
881.67	10080.77
881.988	10075.79
882.306	10091.84
882.624	10022.24
882.941	9971.62
883.259	9982.92
883.577	9926.65
883.894	9913.54
884.212	9878.74
884.529	9818.85
884.846	9836.03
885.164	9809.36
885.481	9777.05
885.798	9797.16
886.115	9731.62
886.432	9669.03
886.75	9763.49
887.067	9742.02
887.383	9604.17
887.7	9629.7
888.017	9592.19
888.334	9645.3
888.651	9566.66
888.967	9509.93
889.284	9451.63
889.6	9506.09
889.917	9364.17
890.233	9423.16
890.55	9342.03
890.866	9350.62
891.182	9274.23
891.498	9301.8
891.815	9297.28
892.131	9393.55
892.447	9207.34
892.763	9201.69
893.079	9138.42
893.395	9095.93
893.71	9120.11
894.026	9104.07
894.342	9057.29
894.657	8967.12
894.973	8978.65
895.289	8957.18
895.604	8952.43
895.92	8889.38
896.235	8871.08
896.55	8875.37
896.865	8787.92
897.181	8774.13
897.496	8778.2
897.811	8754.25
898.126	8722.84
898.441	8731.65
898.756	8652.55
899.071	8579.34
899.386	8596.06
899.7	8547.92
900.015	8420.47
900.33	8424.99
900.644	8415.95
900.959	8450.07
901.273	8402.84
901.588	8395.61
901.902	8327.82
902.216	8317.87
902.531	8301.6
902.845	8261.83
903.159	8136.18
903.473	8137.99
903.787	8134.38
904.101	8090.54
904.415	8031.1
904.729	8052.12
905.042	8028.16
905.356	8042.4
905.67	7993.14
905.984	7909.3
906.297	7966.47
906.611	7866.36
906.924	7838.34
907.237	7799.02
907.551	7800.15
907.864	7708.62
908.177	7777.1
908.491	7693.94
908.804	7613.26
909.117	7548.86
909.43	7615.75
909.743	7533.04
910.056	7540.72
910.368	7475.64
910.681	7401.06
910.994	7432.25
911.307	7431.12
911.619	7368.97
911.932	7398.35
912.244	7300.73
912.557	7313.61
912.869	7224.8
913.181	7202.2
913.494	7216.89
913.806	7155.65
914.118	7143.22
914.43	7093.05
914.742	7097.34
915.054	7015.76
915.366	7054.86
915.678	6975.76
915.99	6917.91
916.302	6844.24
916.613	6913.62
916.925	6816.67
917.236	6811.7
917.548	6810.34
917.859	6837.46
918.171	6787.97
918.482	6728.99
918.794	6680.18
919.105	6647.86
919.416	6659.16
919.727	6615.09
920.038	6648.09
920.349	6529.22
920.66	6511.59
920.971	6535.77
921.282	6471.82
921.593	6458.71
921.903	6474.53
922.214	6398.83
922.525	6389.11
922.835	6374.87
923.146	6291.04
923.456	6289
923.767	6304.14
924.077	6268.44
924.387	6230.7
924.697	6212.39
925.008	6176.46
925.318	6173.07
925.628	6153.19
925.938	6111.15
926.248	6049.46
926.558	6034.32
926.867	6042.68
927.177	6088.33
927.487	5992.29
927.796	5935.56
928.106	5940.76
928.416	5898.28
928.725	5881.33
929.034	5898.5
929.344	5819.64
929.653	5785.51
929.962	5771.5
930.271	5776.47
930.581	5699.19
930.89	5688.57
931.199	5679.98
931.508	5651.96
931.817	5715.46
932.125	5698.28
932.434	5613.54
932.743	5563.14
933.051	5539.64
933.36	5569.25
933.669	5476.82
933.977	5510.94
934.286	5501.45
934.594	5512.75
934.902	5432.53
935.21	5347.33
935.519	5383.04
935.827	5320.89
936.135	5328.8
936.443	5317.5
936.751	5289.48
937.059	5233.21
937.367	5248.8
937.674	5227.33
937.982	5226.43
938.29	5221.01
938.597	5206.54
938.905	5153.21
939.213	5070.73
939.52	5061.69
939.827	5097.39
940.135	5026.89
940.442	5056.72
940.749	5025.76
941.056	5018.75
941.363	4944.4
941.67	4921.35
941.977	4858.3
942.284	4911.64
942.591	4854.69
942.898	4863.28
943.205	4844.29
943.511	4806.55
943.818	4783.5
944.125	4814.92
944.431	4743.28
944.738	4712.77
945.044	4694.92
945.35	4683.85
945.657	4665.32
945.963	4688.59
946.269	4628.93
946.575	4658.31
946.881	4586.67
947.187	4600.68
947.493	4580.12
947.799	4556.39
948.105	4491.08
948.41	4456.51
948.716	4478.65
949.022	4506.45
949.327	4417.41
949.633	4434.36
949.938	4405.89
950.244	4405.21
950.549	4348.71
950.854	4330.41
951.16	4324.99
951.465	4335.15
951.77	4306.68
952.075	4294.93
952.38	4242.73
952.685	4226
952.99	4206.34
953.294	4213.58
953.599	4157.53
953.904	4161.15
954.209	4141.49
954.513	4104.43
954.818	4101.49
955.122	4136.74
955.426	4082.28
955.731	4084.09
956.035	4100.13
956.339	4022.62
956.643	4045.9
956.948	3952.11
957.252	4009.29
957.556	3970.19
957.86	3932
958.163	3909.63
958.467	3897.2
958.771	3864.21
959.075	3903.98
959.378	3850.65
959.682	3854.49
959.985	3849.29
960.289	3787.37
960.592	3799.8
960.896	3781.5
961.199	3799.12
961.502	3745.57
961.805	3733.59
962.108	3707.6
962.411	3730.42
962.714	3657.88
963.017	3676.87
963.32	3678.9
963.623	3633.7
963.926	3661.27
964.228	3619.24
964.531	3552.35
964.833	3623.31
965.136	3533.37
965.438	3525.01
965.741	3547.83
966.043	3531.79
966.345	3504.89
966.648	3497.44
966.95	3445.46
967.252	3492.92
967.554	3430.55
967.856	3417.89
968.158	3383.54
968.46	3393.48
968.761	3364.78
969.063	3343.54
969.365	3355.29
969.666	3356.42
969.968	3289.53
970.269	3326.82
970.571	3304.22
970.872	3289.53
971.174	3293.15
971.475	3295.41
971.776	3238.01
972.077	3224.22
972.378	3254.28
972.679	3240.04
972.98	3160.5
973.281	3160.5
973.582	3184.22
973.883	3175.86
974.183	3161.63
974.484	3112.36
974.785	3096.09
975.085	3108.29
975.386	3116.2
975.686	3073.27
975.986	3029.43
976.287	3066.04
976.587	2983.78
976.887	2996.66
977.187	2990.1
977.487	3034.17
977.787	2980.61
978.087	2958.02
978.387	2904.46
978.687	2939.94
978.987	2942.42
979.286	2868.98
979.586	2883.22
979.885	2865.81
980.185	2881.18
980.484	2854.29
980.784	2815.65
981.083	2814.97
981.382	2834.63
981.682	2800.96
981.981	2769.55
982.28	2819.71
982.579	2751.47
982.878	2767.51
983.177	2760.73
983.475	2705.37
983.774	2704.24
984.073	2685.03
984.372	2683.67
984.67	2710.11
984.969	2658.59
985.267	2656.78
985.566	2639.38
985.864	2612.71
986.162	2644.35
986.461	2613.62
986.759	2604.35
987.057	2560.51
987.355	2560.51
987.653	2536.78
987.951	2563.45
988.249	2552.15
988.547	2525.48
988.844	2494.07
989.142	2529.55
989.44	2453.17
989.737	2471.7
990.035	2464.7
990.332	2444.81
990.63	2429.22
990.927	2410.91
991.224	2452.04
991.521	2409.33
991.819	2390.8
992.116	2388.99
992.413	2375.88
992.71	2341.53
993.006	2366.62
993.303	2338.82
993.6	2341.53
993.897	2366.39
994.193	2343.79
994.49	2311.25
994.787	2291.82
995.083	2281.65
995.379	2263.8
995.676	2227.87
995.972	2261.31
996.268	2203.23
996.565	2261.99
996.861	2201.88
997.157	2212.5
997.453	2199.39
997.749	2188.54
998.044	2204.36
998.34	2157.58
998.636	2147.19
998.932	2177.25
999.227	2133.86
999.523	2126.4
999.818	2123.01
1000.114	2109.45
1000.409	2070.81
1000.704	2065.61
1001	2076
1001.295	2058.83
1001.59	1991.26
1001.885	2010.02
1002.18	2025.16
1002.475	2024.93
1002.77	2019.51
1003.065	1979.06
1003.359	1980.87
1003.654	1955.56
1003.949	1947.87
1004.243	1937.93
1004.538	1909.68
1004.832	1925.27
1005.127	1909
1005.421	1892.96
1005.715	1871.49
1006.009	1887.08
1006.304	1873.52
1006.598	1899.29
1006.892	1837.82
1007.186	1825.16
1007.48	1830.59
1007.773	1857.03
1008.067	1818.61
1008.361	1760.98
1008.655	1778.84
1008.948	1756.69
1009.242	1748.33
1009.535	1749.23
1009.829	1773.41
1010.122	1733.19
1010.415	1742.45
1010.708	1746.97
1011.001	1696.13
1011.295	1718.95
1011.588	1693.64
1011.881	1663.36
1012.173	1657.03
1012.466	1661.33
1012.759	1635.79
1013.052	1637.82
1013.344	1616.81
1013.637	1650.71
1013.93	1606.41
1014.222	1610.25
1014.514	1581.78
1014.807	1571.16
1015.099	1553.08
1015.391	1558.96
1015.683	1523.25
1015.976	1543.36
1016.268	1532.74
1016.56	1545.62
1016.851	1506.08
1017.143	1530.71
1017.435	1465.85
1017.727	1475.34
1018.018	1496.58
1018.31	1458.39
1018.602	1489.35
1018.893	1454.33
1019.185	1431.05
1019.476	1400.09
1019.767	1415.01
1020.058	1395.8
1020.35	1426.3
1020.641	1388.34
1020.932	1401.45
1021.223	1384.95
1021.514	1386.53
1021.804	1352.63
1022.095	1338.85
1022.386	1336.82
1022.677	1332.07
1022.967	1342.69
1023.258	1286.19
1023.548	1329.58
1023.839	1298.4
1024.129	1291.84
1024.419	1321.45
1024.709	1273.99
1025	1272.86
1025.29	1259.98
1025.58	1263.6
1025.87	1243.71
1026.16	1242.13
1026.449	1231.28
1026.739	1224.5
1027.029	1202.36
1027.319	1183.6
1027.608	1185.41
1027.898	1190.15
1028.187	1191.51
1028.477	1186.99
1028.766	1193.32
1029.055	1174.56
1029.344	1169.14
1029.634	1122.81
1029.923	1135.24
1030.212	1131.85
1030.501	1162.36
1030.79	1105.18
1031.078	1117.39
1031.367	1111.06
1031.656	1095.24
1031.945	1106.54
1032.233	1062.02
1032.522	1067.44
1032.81	1066.99
1033.099	1069.25
1033.387	1072.19
1033.675	1055.69
1033.963	1027.67
1034.251	1029.7
1034.54	1033.09
1034.828	1009.14
1035.116	1016.15
1035.403	1016.37
1035.691	1013.66
1035.979	1002.59
1036.267	969.14
1036.554	965.75
1036.842	988.8
1037.129	983.38
1037.417	954.68
1037.704	973.89
1037.992	927.11
1038.279	945.19
1038.566	953.55
1038.853	953.55
1039.14	953.55
