Data from hue_70_FLMS001491_43.txt Node
Date: Mon Feb 06 15:20:57 GMT 2017
User: dcchb
Spectrometer: FLMS00149
Trigger mode: 0
Integration Time (sec): 2.000000E-2
Scans to average: 10
Electric dark correction enabled: true
Nonlinearity correction enabled: false
Boxcar width: 0
XAxis mode: Wavelengths
Number of Pixels in Spectrum: 2048
>>>>>Begin Spectral Data<<<<<
341.393	-8.98
341.776	-8.98
342.16	-8.98
342.543	-68.64
342.927	-47.17
343.31	-87.17
343.693	-53.5
344.077	-66.38
344.46	-63.9
344.843	-64.12
345.226	-38.59
345.61	-42.65
345.993	-22.77
346.376	25.37
346.759	6.61
347.142	27.85
347.525	30.34
347.908	44.35
348.291	87.96
348.674	111.69
349.057	104.91
349.44	126.61
349.823	134.06
350.206	176.32
350.588	193.95
350.971	207.96
351.354	248.41
351.737	236.21
352.119	251.58
352.502	253.38
352.884	263.78
353.267	292.7
353.65	288.18
354.032	289.31
354.414	302.65
354.797	308.07
355.179	318.24
355.562	311.91
355.944	331.35
356.326	324.79
356.709	337.22
357.091	339.03
357.473	347.62
357.855	345.58
358.238	350.1
358.62	342.19
359.002	312.36
359.384	332.93
359.766	327.51
360.148	336.54
360.53	341.06
360.912	343.1
361.294	339.03
361.676	345.81
362.057	325.47
362.439	318.92
362.821	339.03
363.203	326.83
363.584	340.39
363.966	342.87
364.348	329.77
364.729	301.74
365.111	312.82
365.493	326.38
365.874	313.49
366.256	314.4
366.637	331.12
367.019	319.14
367.4	306.72
367.781	310.1
368.163	302.65
368.544	327.51
368.925	307.85
369.306	336.54
369.688	333.83
370.069	320.27
370.45	320.95
370.831	310.33
371.212	307.85
371.593	317.79
371.974	318.47
372.355	313.49
372.736	289.99
373.117	305.81
373.498	317.56
373.879	303.55
374.26	314.17
374.641	299.48
375.021	302.2
375.402	309.88
375.783	334.06
376.163	339.71
376.544	331.57
376.925	313.27
377.305	306.49
377.686	324.12
378.066	336.32
378.447	313.49
378.827	334.74
379.208	334.51
379.588	317.11
379.968	313.72
380.349	335.87
380.729	317.56
381.109	335.19
381.489	327.73
381.87	334.51
382.25	320.05
382.63	326.15
383.01	363.44
383.39	329.99
383.77	328.86
384.15	341.06
384.53	334.06
384.91	356.66
385.29	338.13
385.67	325.7
386.049	331.12
386.429	345.81
386.809	343.32
387.189	333.38
387.568	334.51
387.948	322.31
388.328	343.78
388.707	359.37
389.087	370.22
389.466	363.66
389.846	369.31
390.225	377.22
390.605	374.51
390.984	338.8
391.363	350.33
391.743	351.69
392.122	383.78
392.501	368.63
392.881	387.39
393.26	368.63
393.639	377.22
394.018	383.1
394.397	351.01
394.776	351.23
395.155	363.89
395.534	361.63
395.913	362.08
396.292	383.55
396.671	381.52
397.05	362.08
397.429	361.18
397.808	367.96
398.186	371.57
398.565	374.51
398.944	397.79
399.323	388.07
399.701	378.58
400.08	373.15
400.458	405.7
400.837	397.56
401.215	384.68
401.594	388.97
401.972	393.27
402.351	402.53
402.729	392.81
403.107	401.63
403.486	398.01
403.864	401.63
404.242	394.62
404.62	399.37
404.999	393.72
405.377	409.99
405.755	415.19
406.133	395.07
406.511	401.4
406.889	392.14
407.267	415.86
407.645	421.97
408.023	417.67
408.401	409.31
408.779	432.14
409.156	421.29
409.534	434.17
409.912	430.78
410.29	443.21
410.667	439.14
411.045	430.1
411.422	448.18
411.8	451.57
412.178	424.68
412.555	463.1
412.933	448.41
413.31	455.41
413.687	445.69
414.065	464.23
414.442	448.86
414.819	472.36
415.197	473.26
415.574	470.55
415.951	469.42
416.328	473.04
416.705	483.43
417.082	478.91
417.46	475.52
417.837	480.5
418.214	476.88
418.591	496.09
418.967	476.43
419.344	517.33
419.721	507.16
420.098	487.05
420.475	492.7
420.852	496.77
421.228	494.96
421.605	503.09
421.982	503.32
422.358	510.33
422.735	523.21
423.111	528.4
423.488	534.28
423.864	517.11
424.241	519.14
424.617	519.59
424.994	534.05
425.37	546.03
425.746	543.55
426.123	535.86
426.499	554.84
426.875	538.12
427.251	552.36
427.627	553.04
428.003	582.41
428.379	558.01
428.756	573.37
429.132	586.71
429.507	585.58
429.883	581.74
430.259	589.65
430.635	611.11
431.011	599.14
431.387	593.26
431.763	602.98
432.138	602.3
432.514	614.96
432.89	631.68
433.265	619.48
433.641	634.39
434.016	607.95
434.392	621.51
434.767	632.58
435.143	638.23
435.518	614.05
435.894	640.49
436.269	665.35
436.644	692.69
437.02	673.03
437.395	660.6
437.77	681.62
438.145	684.11
438.52	696.31
438.895	694.05
439.271	685.91
439.646	698.34
440.021	693.82
440.395	697.44
440.77	696.08
441.145	721.17
441.52	734.5
441.895	722.3
442.27	733.82
442.645	739.7
443.019	720.49
443.394	726.37
443.769	754.61
444.143	731.11
444.518	748.51
444.892	736.31
445.267	733.6
445.641	765.01
446.016	770.88
446.39	758.68
446.764	770.66
447.139	780.83
447.513	785.57
447.887	787.15
448.262	762.75
448.636	803.88
449.01	794.16
449.384	817.44
449.758	800.94
450.132	798.23
450.506	824.89
450.88	822.41
451.254	802.3
451.628	842.75
452.002	828.06
452.376	827.38
452.75	847.49
453.123	853.59
453.497	847.27
453.871	846.81
454.244	869.41
454.618	877.55
454.992	894.27
455.365	904.44
455.739	889.3
456.112	898.79
456.486	940.6
456.859	953.03
457.232	924.55
457.606	952.35
457.979	961.16
458.352	968.17
458.725	978.79
459.099	993.25
459.472	986.25
459.845	1005.91
460.218	1045.23
460.591	1034.38
460.964	1049.75
461.337	1057.43
461.71	1049.07
462.083	1096.3
462.456	1082.51
462.829	1090.2
463.201	1141.72
463.574	1122.51
463.947	1165.22
464.32	1191.44
464.692	1190.08
465.065	1162.06
465.438	1215.39
465.81	1223.98
466.183	1228.05
466.555	1271.21
466.928	1288.84
467.3	1286.8
467.672	1298.1
468.045	1342.39
468.417	1345.11
468.789	1381.04
469.161	1398.89
469.534	1428.72
469.906	1447.02
470.278	1454.93
470.65	1480.92
471.022	1544.42
471.394	1539.68
471.766	1570.41
472.138	1595.95
472.51	1639.34
472.882	1667.58
473.253	1706.68
473.625	1725.21
473.997	1781.25
474.369	1819.67
474.74	1809.05
475.112	1884.07
475.484	1910.97
475.855	1965.88
476.227	2049.49
476.598	2098.53
476.97	2099.66
477.341	2157.74
477.713	2237.29
478.084	2320.45
478.455	2336.72
478.827	2389.37
479.198	2509.14
479.569	2479.31
479.94	2579.42
480.311	2658.52
480.682	2759.53
481.053	2832.07
481.424	2932.86
481.795	2988.9
482.166	3089.01
482.537	3129.47
482.908	3297.37
483.279	3337.6
483.65	3419.63
484.021	3554.31
484.391	3617.59
484.762	3741.43
485.133	3812.84
485.503	3888.09
485.874	4042.89
486.244	4108.2
486.615	4221.87
486.985	4388.87
487.356	4527.62
487.726	4578.69
488.097	4699.82
488.467	4861.62
488.837	4989.3
489.207	5129.41
489.578	5236.08
489.948	5398.56
490.318	5487.6
490.688	5610.76
491.058	5753.35
491.428	5882.84
491.798	6037.86
492.168	6194.02
492.538	6315.6
492.908	6464.97
493.278	6611.86
493.648	6645.98
494.017	6840.1
494.387	6977.73
494.757	7135.46
495.126	7295.46
495.496	7362.12
495.866	7514.21
496.235	7711.49
496.605	7784.26
496.974	7937.25
497.344	8127.98
497.713	8274.42
498.082	8385.15
498.452	8577.23
498.821	8623.11
499.19	8732.93
499.559	8890.9
499.928	9000.5
500.298	9196.2
500.667	9271.45
501.036	9358.45
501.405	9530.43
501.774	9572.23
502.143	9731.33
502.512	9829.18
502.88	10073.01
503.249	10031.21
503.618	10199.34
503.987	10301.71
504.356	10402.72
504.724	10518.2
505.093	10627.12
505.462	10702.83
505.83	10875.48
506.199	11030.27
506.567	11192.08
506.936	11208.12
507.304	11413.32
507.672	11423.03
508.041	11536.02
508.409	11694.21
508.777	11779.63
509.145	11905.28
509.514	11973.3
509.882	12169
510.25	12116.8
510.618	12342.78
510.986	12372.16
511.354	12575.77
511.722	12670.46
512.09	12774.86
512.458	12761.3
512.826	12903.9
513.193	13043.78
513.561	13066.83
513.929	13163.78
514.297	13382.3
514.664	13450.78
515.032	13540.49
515.4	13627.49
515.767	13714.05
516.135	13806.02
516.502	13713.37
516.869	14025.45
517.237	14134.83
517.604	14108.39
517.972	14193.36
518.339	14303.41
518.706	14299.57
519.073	14453.69
519.44	14545.89
519.808	14719.67
520.175	14653.23
520.542	14857.74
520.909	14878.54
521.276	14923.05
521.643	15126.89
522.009	15247.57
522.376	15318.98
522.743	15362.14
523.11	15538.4
523.477	15666.76
523.843	15653.2
524.21	15933.87
524.577	15949.47
524.943	16020.43
525.31	16005.29
525.676	16223.81
526.043	16292.74
526.409	16396.91
526.776	16521.66
527.142	16564.14
527.508	16615.44
527.874	16731.14
528.241	16746.96
528.607	16810.01
528.973	16965.26
529.339	16902.66
529.705	17136.1
530.071	17175.42
530.437	17273.73
530.803	17342.65
531.169	17463.33
531.535	17291.58
531.901	17493.83
532.267	17420.16
532.632	17609.31
532.998	17671.23
533.364	17629.88
533.73	17748.74
534.095	17790.1
534.461	17821.28
534.826	17893.37
535.192	17941.96
535.557	18090.2
535.923	17958.23
536.288	17998
536.653	18133.14
537.019	17923.2
537.384	18078
537.749	18211.78
538.114	18240.93
538.479	18193.02
538.845	18311.44
539.21	18264.44
539.575	18347.37
539.94	18261.05
540.305	18393.92
540.67	18306.47
541.034	18414.26
541.399	18412.68
541.764	18381.72
542.129	18484.54
542.494	18479.34
542.858	18494.94
543.223	18527.03
543.587	18525.22
543.952	18523.19
544.316	18634.14
544.681	18587.14
545.045	18693.58
545.41	18692.45
545.774	18610.64
546.138	18667.14
546.503	18674.59
546.867	18656.06
547.231	18839.34
547.595	18812.44
547.959	18864.42
548.324	18742.84
548.688	18845.44
549.052	18891.31
549.416	18908.71
549.779	18830.97
550.143	18868.03
550.507	18951.65
550.871	19022.61
551.235	18898.09
551.599	19028.93
551.962	19046.11
552.326	18988.94
552.689	19102.38
553.053	19053.57
553.417	19006.11
553.78	19251.98
554.143	19106.22
554.507	19170.85
554.87	19156.39
555.234	19349.15
555.597	19181.47
555.96	19339.21
556.323	19307.35
556.686	19364.52
557.05	19501.69
557.413	19503.27
557.776	19502.82
558.139	19607
558.502	19552.54
558.865	19570.16
559.228	19825.75
559.59	19731.06
559.953	19633.89
560.316	19926.31
560.679	19916.59
561.041	19923.83
561.404	19969.7
561.767	20156.36
562.129	20040.89
562.492	20149.81
562.854	20183.25
563.217	20135.35
563.579	20249.69
563.941	20338.28
564.304	20444.04
564.666	20511.61
565.028	20566.97
565.39	20628.44
565.753	20685.16
566.115	20766.06
566.477	20726.29
566.839	20746.63
567.201	20906.17
567.563	20909.34
567.925	21038.6
568.287	20962.9
568.648	20920.86
569.01	21094.87
569.372	21230.68
569.734	21156.79
570.095	21330.12
570.457	21252.61
570.819	21369.21
571.18	21401.08
571.542	21501.86
571.903	21447.18
572.265	21456.67
572.626	21547.29
572.987	21575.08
573.349	21581.41
573.71	21649.66
574.071	21724.01
574.432	21695.08
574.794	21938.91
575.155	21858.92
575.516	21784.79
575.877	21788.86
576.238	21917.9
576.599	22021.85
576.96	21970.78
577.32	22028.63
577.681	22071.34
578.042	22133.03
578.403	22186.82
578.763	22225.91
579.124	22177.1
579.485	22264.56
579.845	22351.79
580.206	22183.88
580.566	22190.43
580.927	22262.97
581.287	22400.82
581.648	22248.74
582.008	22364.44
582.368	22207.61
582.728	22341.62
583.089	22408.28
583.449	22290.32
583.809	22349.75
584.169	22368.51
584.529	22364.89
584.889	22527.6
585.249	22310.43
585.609	22305.23
585.969	22404.44
586.329	22335.74
586.688	22424.33
587.048	22391.11
587.408	22251.67
587.768	22339.58
588.127	22274.27
588.487	22305.46
588.846	22581.84
589.206	22264.78
589.565	22253.03
589.925	22315.18
590.284	22296.65
590.643	22358.11
591.003	22348.85
591.362	22416.64
591.721	22374.16
592.08	22382.29
592.44	22342.52
592.799	22313.82
593.158	22342.75
593.517	22375.97
593.876	22340.94
594.235	22339.81
594.593	22294.39
594.952	22380.26
595.311	22354.27
595.67	22346.81
596.029	22468.84
596.387	22380.48
596.746	22427.04
597.104	22421.61
597.463	22418
597.822	22515.62
598.18	22372.58
598.538	22396.98
598.897	22622.06
599.255	22382.97
599.613	22561.05
599.972	22512.01
600.33	22474.04
600.688	22425.91
601.046	22604.43
601.404	22626.81
601.762	22513.81
602.12	22583.64
602.478	22621.61
602.836	22661.61
603.194	22505.68
603.552	22582.51
603.91	22589.75
604.268	22680.59
604.625	22610.31
604.983	22678.56
605.341	22494.38
605.698	22624.55
606.056	22719.69
606.413	22676.75
606.771	22707.93
607.128	22724.43
607.485	22636.75
607.843	22719.69
608.2	22898.21
608.557	22918.78
608.914	22904.54
609.272	22997.42
609.629	22839.46
609.986	23047.59
610.343	22968.72
610.7	23073.8
611.057	23041.94
611.414	23048.72
611.771	23111.77
612.127	23223.85
612.484	23223.63
612.841	23286.9
613.198	23291.2
613.554	23138.21
613.911	23330.52
614.267	23375.94
614.624	23380.91
614.98	23392.66
615.337	23455.48
615.693	23396.05
616.05	23483.05
616.406	23572.77
616.762	23450.74
617.118	23571.64
617.475	23484.86
617.831	23578.42
618.187	23566.67
618.543	23671.52
618.899	23747.45
619.255	23677.17
619.611	23637.4
619.967	23735.25
620.323	23853.89
620.678	23709.49
621.034	23655.48
621.39	23718.75
621.746	23592.88
622.101	23922.37
622.457	23628.36
622.812	23714.91
623.168	23850.73
623.523	23809.37
623.879	23851.18
624.234	23741.58
624.589	23834.46
624.945	23920.78
625.3	23798.98
625.655	23816.15
626.01	23834.91
626.365	23910.84
626.72	23957.39
627.075	23883.04
627.43	23953.1
627.785	23854.34
628.14	23941.12
628.495	23932.31
628.85	23897.06
629.205	23915.81
629.559	23970.05
629.914	23802.14
630.269	23900.45
630.623	23850.28
630.978	23778.64
631.332	23914.23
631.687	23836.04
632.041	23792.65
632.396	23800.33
632.75	23739.55
633.104	23828.13
633.459	23669.72
633.813	23672.2
634.167	23644.86
634.521	23728.92
634.875	23793.56
635.229	23679.21
635.583	23571.87
635.937	23534.58
636.291	23561.92
636.645	23632.2
636.999	23389.72
637.352	23564.86
637.706	23502.26
638.06	23559.21
638.413	23386.56
638.767	23397.41
639.121	23387.69
639.474	23268.37
639.828	23213.01
640.181	23258.2
640.534	23318.99
640.888	23226.79
641.241	23188.6
641.594	23239.22
641.947	23252.55
642.301	23209.84
642.654	23304.08
643.007	23269.05
643.36	23069.51
643.713	23122.16
644.066	23268.82
644.419	23170.29
644.771	22923.97
645.124	22732.34
645.477	22751.77
645.83	22624.09
646.182	22452.12
646.535	22473.59
646.888	22444.44
647.24	22340.49
647.593	22575.28
647.945	22435.85
648.298	22305.91
648.65	22264.56
649.002	22293.26
649.355	22410.99
649.707	22317.66
650.059	22397.66
650.411	22621.16
650.763	22688.05
651.115	22933.46
651.467	22796.52
651.819	22806.46
652.171	22723.98
652.523	22792.9
652.875	22868.16
653.227	22667.94
653.578	22806.01
653.93	22809.4
654.282	22737.31
654.633	22618.44
654.985	22763.75
655.337	22736.18
655.688	22731.21
656.039	22919
656.391	22611.67
656.742	22676.75
657.094	22733.24
657.445	22823.19
657.796	22690.99
658.147	22583.87
658.498	22646.47
658.849	22811.89
659.2	22780.93
659.551	22639.46
659.902	22740.02
660.253	22693.7
660.604	22751.32
660.955	22651.66
661.306	22771.44
661.656	22709.97
662.007	22716.07
662.358	22671.55
662.708	22572.57
663.059	22736.41
663.409	22617.54
663.76	22763.53
664.11	22749.06
664.461	22813.24
664.811	22756.52
665.161	22654.83
665.511	22633.81
665.862	22773.92
666.212	22774.15
666.562	22809.17
666.912	22716.3
667.262	22772.57
667.612	22776.86
667.962	22743.41
668.312	22703.87
668.662	22727.37
669.011	22721.72
669.361	22765.79
669.711	22667.71
670.06	22633.13
670.41	22571.21
670.76	22675.62
671.109	22696.18
671.459	22573.25
671.808	22529.18
672.157	22784.99
672.507	22556.98
672.856	22605.34
673.205	22537.77
673.554	22617.54
673.904	22532.8
674.253	22613.7
674.602	22521.27
674.951	22312.46
675.3	22152.02
675.649	22485.34
675.998	22462.74
676.346	22424.1
676.695	22490.76
677.044	22253.93
677.393	22351.11
677.741	22502.06
678.09	22266.36
678.438	22227.49
678.787	22311.11
679.135	22326.93
679.484	22060.95
679.832	22251.45
680.181	22195.63
680.529	22233.37
680.877	22140.94
681.225	22135.52
681.573	22197.66
681.922	22057.78
682.27	21926.26
682.618	22005.13
682.966	21932.36
683.314	21953.15
683.661	21819.37
684.009	21761.74
684.357	21717.9
684.705	21785.7
685.053	21760.16
685.4	21721.07
685.748	21626.83
686.095	21545.03
686.443	21466.38
686.79	21384.35
687.138	21476.33
687.485	21459.38
687.832	21275.66
688.18	21396.33
688.527	21297.8
688.874	21207.18
689.221	21145.72
689.568	21163.79
689.915	21070.24
690.262	21064.81
690.609	21031.14
690.956	20905.95
691.303	20951.82
691.65	20799.74
691.997	20897.36
692.344	20684.03
692.69	20660.98
693.037	20658.5
693.383	20415.56
693.73	20432.06
694.077	20328.79
694.423	20439.97
694.769	20288.79
695.116	20266.42
695.462	20150.71
695.808	20128.79
696.155	20154.33
696.501	20002.02
696.847	20030.49
697.193	19876.82
697.539	19839.53
697.885	19750.95
698.231	19648.58
698.577	19689.26
698.923	19611.29
699.269	19529.03
699.614	19400.68
699.96	19360.68
700.306	19273.67
700.651	19285.2
700.997	19185.54
701.342	19208.36
701.688	19119.33
702.033	19051.76
702.379	18970.86
702.724	18994.36
703.069	18922.5
703.415	18795.95
703.76	18795.49
704.105	18738.09
704.45	18770.86
704.795	18690.19
705.14	18625.78
705.485	18586.46
705.83	18403.64
706.175	18500.14
706.52	18439.35
706.865	18355.51
707.209	18356.41
707.554	18242.97
707.899	18206.13
708.243	18167.49
708.588	18040.49
708.932	18000.26
709.277	17902.41
709.621	18039.36
709.966	17847.5
710.31	17936.99
710.654	17746.03
710.998	17844.56
711.342	17735.18
711.687	17699.48
712.031	17661.74
712.375	17588.75
712.719	17555.53
713.063	17600.95
713.407	17565.7
713.75	17502.87
714.094	17493.61
714.438	17446.6
714.782	17408.41
715.125	17310.11
715.469	17336.78
715.812	17249.77
716.156	17176.1
716.499	17088.65
716.843	17131.13
717.186	17157.8
717.53	17105.14
717.873	17197.12
718.216	17071.25
718.559	16907.41
718.902	16798.48
719.246	16881.42
719.589	16828.31
719.932	16822.21
720.275	16857.24
720.617	16781.76
720.96	16819.5
721.303	16681.88
721.646	16877.13
721.989	16701.76
722.331	16813.63
722.674	16659.05
723.016	16729.11
723.359	16569.11
723.701	16556.23
724.044	16527.53
724.386	16534.09
724.729	16557.14
725.071	16511.49
725.413	16504.93
725.755	16506.06
726.097	16400.76
726.439	16355.78
726.782	16348.1
727.124	16468.78
727.465	16289.12
727.807	16313.98
728.149	16296.58
728.491	16237.37
728.833	16266.3
729.175	16316.92
729.516	16212.29
729.858	16222.68
730.199	16249.35
730.541	16217.26
730.882	16161.44
731.224	16243.02
731.565	16169.57
731.906	16075.34
732.248	16094.1
732.589	16126.86
732.93	15997.15
733.271	16022.69
733.612	16058.84
733.953	16084.61
734.294	15949.24
734.635	16021.56
734.976	16103.36
735.317	16027.43
735.658	16001.9
735.999	16014.78
736.339	15952.41
736.68	15967.55
737.021	16049.58
737.361	15987.66
737.702	16064.04
738.042	16057.94
738.383	16055.91
738.723	15918.28
739.063	15958.73
739.404	15968.68
739.744	15998.51
740.084	15876.02
740.424	15979.75
740.764	15961.67
741.104	15968.22
741.444	15957.38
741.784	15866.53
742.124	15923.93
742.464	15950.15
742.804	15934.1
743.143	15890.03
743.483	15963.03
743.823	15967.55
744.162	15930.94
744.502	15986.53
744.841	15986.53
745.181	16088
745.52	16153.98
745.86	16039.41
746.199	16127.32
746.538	16132.29
746.877	16226.52
747.216	16135.9
747.556	16229.23
747.895	16184.26
748.234	16180.65
748.573	16269.46
748.911	16289.12
749.25	16307.2
749.589	16276.24
749.928	16386.07
750.267	16488.89
750.605	16472.84
750.944	16487.08
751.283	16636.46
751.621	16628.09
751.96	16613.86
752.298	16692.95
752.636	16812.95
752.975	16829.22
753.313	16811.37
753.651	16940.63
753.989	16915.32
754.327	17040.51
754.666	17057.24
755.004	17169.1
755.342	17249.09
755.679	17288.64
756.017	17325.25
756.355	17481.18
756.693	17464.46
757.031	17618.12
757.368	17583.55
757.706	17681.4
758.044	17604.57
758.381	17850.21
758.719	17836.65
759.056	17914.84
759.394	18021.05
759.731	17974.73
760.068	18088.62
760.405	18078.9
760.743	18093.14
761.08	18235.28
761.417	18278.67
761.754	18309.63
762.091	18461.49
762.428	18422.4
762.765	18396.18
763.102	18602.96
763.438	18521.83
763.775	18568.83
764.112	18623.3
764.449	18734.03
764.785	18707.59
765.122	18602.51
765.458	18878.2
765.795	18740.81
766.131	18819.67
766.467	18768.15
766.804	18832.56
767.14	18867.13
767.476	18920.91
767.812	18810.41
768.148	18923.85
768.485	18821.48
768.821	18818.09
769.157	18886.79
769.492	18899.67
769.828	18889.05
770.164	18821.93
770.5	18927.47
770.836	18849.73
771.171	18779.68
771.507	18870.07
771.842	18703.52
772.178	18910.75
772.513	18710.07
772.849	18772.44
773.184	18749.17
773.519	18798.88
773.855	18777.19
774.19	18699.23
774.525	18766.57
774.86	18673.92
775.195	18673.01
775.53	18522.28
775.865	18424.43
776.2	18524.77
776.535	18402.74
776.87	18327.71
777.205	18284.77
777.539	18214.49
777.874	18296.3
778.209	18248.16
778.543	18189.63
778.878	18082.74
779.212	18176.08
779.547	18015.4
779.881	18102.18
780.215	17957.32
780.55	17974.5
780.884	17936.08
781.218	17977.21
781.552	17864.22
781.886	17827.16
782.22	17708.74
782.554	17713.04
782.888	17491.8
783.222	17529.99
783.556	17481.18
783.889	17447.06
784.223	17323.89
784.557	17267.4
784.89	17393.72
785.224	17213.39
785.557	17177.91
785.891	17124.58
786.224	17119.38
786.558	17027.63
786.891	16921.42
787.224	16873.74
787.557	16833.06
787.891	16863.12
788.224	16766.4
788.557	16866.96
788.89	16777.47
789.223	16681.2
789.556	16544.25
789.888	16541.32
790.221	16527.08
790.554	16345.62
790.887	16492.28
791.219	16337.71
791.552	16320.08
791.884	16253.64
792.217	16071.05
792.549	16125.51
792.882	16031.27
793.214	15976.36
793.546	16000.54
793.879	15932.07
794.211	15817.72
794.543	15846.19
794.875	15837.15
795.207	15861.79
795.539	15658.18
795.871	15703.6
796.203	15645.07
796.535	15519.87
796.867	15531.4
797.198	15419.54
797.53	15476.26
797.862	15327.79
798.193	15334.57
798.525	15205.98
798.856	15403.72
799.188	15147.23
799.519	15073.11
799.85	15082.82
800.182	15071.3
800.513	15014.12
800.844	14856.84
801.175	14935.48
801.506	14963.73
801.837	14910.62
802.168	14820.46
802.499	14688.26
802.83	14718.77
803.161	14683.74
803.491	14614.14
803.822	14645.1
804.153	14656.39
804.483	14437.19
804.814	14449.62
805.145	14466.79
805.475	14401.49
805.805	14382.05
806.136	14300.7
806.466	14371.88
806.796	14265.9
807.126	14192.23
807.457	14183.19
807.787	14175.28
808.117	14032.23
808.447	14056.41
808.777	14117.88
809.107	13971.21
809.436	13912.69
809.766	13954.72
810.096	13889.18
810.426	13806.93
810.755	13856.42
811.085	13747.94
811.414	13825
811.744	13674.05
812.073	13644.22
812.403	13644.22
812.732	13549.53
813.061	13515.41
813.39	13462.53
813.719	13396.09
814.049	13533.71
814.378	13436.99
814.707	13385.69
815.036	13405.13
815.365	13324.9
815.693	13257.34
816.022	13214.17
816.351	13106.15
816.68	13138.69
817.008	13095.76
817.337	13055.76
817.665	13003.1
817.994	12993.84
818.322	13051.69
818.651	12938.93
818.979	12943.22
819.307	12995.65
819.636	12877.46
819.964	12930.11
820.292	12858.48
820.62	12836.33
820.948	12800.4
821.276	12870.45
821.604	12823.9
821.932	12811.02
822.259	12765.14
822.587	12787.97
822.915	12800.62
823.243	12788.19
823.57	12791.58
823.898	12853.28
824.225	12645.6
824.553	12775.99
824.88	12710.68
825.207	12819.38
825.535	12749.1
825.862	12836.33
826.189	12668.65
826.516	12829.1
826.843	12818.7
827.17	12877.91
827.497	12875.42
827.824	12749.55
828.151	12826.84
828.478	12751.13
828.805	12808.99
829.131	12726.73
829.458	12723.79
829.785	12585.26
830.111	12688.08
830.438	12785.26
830.764	12773.51
831.09	12670.68
831.417	12694.64
831.743	12667.97
832.069	12649.89
832.395	12663.45
832.722	12632.27
833.048	12652.38
833.374	12653.96
833.7	12516.34
834.026	12572.83
834.351	12598.14
834.677	12637.69
835.003	12612.61
835.329	12576
835.654	12561.53
835.98	12445.15
836.306	12542.78
836.631	12471.37
836.956	12494.19
837.282	12521.99
837.607	12433.18
837.932	12465.94
838.258	12393.63
838.583	12400.41
838.908	12409
839.233	12350.92
839.558	12268.66
839.883	12252.39
840.208	12290.13
840.533	12359.96
840.858	12183.92
841.182	12210.81
841.507	12174.43
841.832	12163.13
842.156	12068.44
842.481	12131.26
842.805	12027.99
843.13	12070.02
843.454	11985.96
843.778	11971.04
844.103	11945.73
844.427	11868.67
844.751	11959.74
845.075	11875.68
845.399	11910.25
845.723	11780.31
846.047	11801.78
846.371	11775.34
846.695	11707.09
847.019	11549.81
847.343	11557.49
847.666	11506.19
847.99	11471.62
848.313	11444.05
848.637	11392.98
848.96	11364.28
849.284	11376.93
849.607	11246.54
849.931	11276.6
850.254	11226.2
850.577	11141.68
850.9	11051.52
851.223	11008.13
851.546	10923.39
851.869	10891.97
852.192	10937.17
852.515	10948.92
852.838	10767.68
853.161	10809.49
853.483	10695.14
853.806	10667.8
854.129	10701.47
854.451	10572.89
854.774	10634.13
855.096	10589.16
855.419	10487.46
855.741	10536.05
856.063	10423.96
856.385	10438.43
856.708	10361.37
857.03	10350.52
857.352	10364.3
857.674	10340.58
857.996	10279.11
858.318	10204.76
858.64	10230.3
858.961	10194.14
859.283	10108.72
859.605	10150.07
859.926	10155.72
860.248	10080.92
860.57	9964.77
860.891	10063.07
861.212	10044.54
861.534	9980.13
861.855	9941.26
862.176	10027.14
862.498	9913.92
862.819	9943.75
863.14	9906.01
863.461	9880.25
863.782	9902.39
864.103	9855.39
864.424	9793.25
864.745	9826.24
865.065	9755.73
865.386	9793.25
865.707	9753.47
866.027	9753.92
866.348	9705.34
866.668	9667.82
866.989	9631.44
867.309	9628.05
867.63	9626.02
867.95	9661.27
868.27	9520.48
868.59	9613.36
868.91	9545.79
869.23	9549.86
869.55	9533.14
869.87	9549.86
870.19	9478.23
870.51	9510.99
870.83	9501.05
871.15	9438.9
871.469	9500.6
871.789	9488.39
872.109	9420.15
872.428	9318.68
872.748	9384.67
873.067	9344.9
873.386	9327.04
873.706	9354.16
874.025	9332.69
874.344	9248.63
874.663	9322.98
874.982	9250.89
875.301	9211.11
875.62	9255.41
875.939	9187.84
876.258	9267.16
876.577	9146.71
876.896	9209.76
877.214	9142.64
877.533	9127.05
877.852	9173.6
878.17	9194.39
878.489	9102.64
878.807	9094.05
879.125	9029.2
879.444	9027.39
879.762	9071.68
880.08	9052.25
880.398	9033.72
880.716	9055.86
881.034	9001.85
881.352	9017.9
881.67	8935.41
881.988	8948.97
882.306	8899.26
882.624	8905.81
882.941	8892.25
883.259	8851.35
883.577	8861.52
883.894	8827.62
884.212	8804.57
884.529	8742.65
884.846	8772.26
885.164	8773.39
885.481	8747.4
885.798	8704.01
886.115	8663.56
886.432	8617.46
886.75	8682.09
887.067	8613.16
887.383	8608.64
887.7	8595.08
888.017	8537.91
888.334	8541.3
888.651	8553.73
888.967	8475.31
889.284	8439.38
889.6	8387.86
889.917	8367.07
890.233	8379.95
890.55	8331.59
890.866	8318.93
891.182	8260.86
891.498	8296.79
891.815	8207.07
892.131	8229.44
892.447	8190.35
892.763	8180.18
893.079	8138.6
893.395	8170.92
893.71	8097.24
894.026	8049.34
894.342	8103.12
894.657	7979.73
894.973	8032.16
895.289	8035.1
895.604	7983.8
895.92	7907.87
896.235	7892.96
896.55	7898.15
896.865	7879.85
897.181	7837.82
897.496	7889.34
897.811	7818.38
898.126	7759.63
898.441	7723.7
898.756	7676.01
899.071	7623.58
899.386	7700.87
899.7	7622.68
900.015	7523.47
900.33	7476.92
900.644	7563.47
900.959	7553.53
901.273	7452.52
901.588	7433.99
901.902	7378.39
902.216	7369.13
902.531	7335.91
902.845	7329.13
903.159	7304.05
903.473	7247.1
903.787	7262.69
904.101	7196.7
904.415	7175.24
904.729	7178.17
905.042	7132.07
905.356	7116.93
905.67	7116.25
905.984	7090.49
906.297	7033.32
906.611	7027.67
906.924	7012.98
907.237	6975.01
907.551	6981.57
907.864	6915.81
908.177	6886.2
908.491	6867.9
908.804	6836.71
909.117	6798.3
909.43	6762.36
909.743	6765.53
910.056	6768.69
910.368	6756.26
910.681	6694.12
910.994	6650.96
911.307	6627.23
911.619	6543.61
911.932	6555.82
912.244	6544.52
912.557	6513.78
912.869	6502.48
913.181	6496.61
913.494	6444.18
913.806	6387.91
914.118	6367.8
914.43	6307.69
914.742	6343.39
915.054	6274.47
915.366	6291.19
915.678	6293.22
915.99	6254.13
916.302	6190.85
916.613	6174.13
916.925	6176.39
917.236	6126.22
917.548	6073.12
917.859	6120.8
918.171	6016.4
918.482	6044.64
918.794	6034.93
919.105	5977.75
919.416	5957.41
919.727	5930.3
920.038	5928.49
920.349	5851.65
920.66	5881.71
920.971	5847.13
921.282	5796.51
921.593	5772.33
921.903	5734.82
922.214	5734.37
922.525	5735.95
922.835	5694.37
923.146	5709.74
923.456	5673.35
923.767	5578.67
924.077	5612.11
924.387	5596.52
924.697	5558.78
925.008	5489.63
925.318	5546.58
925.628	5513.13
925.938	5455.51
926.248	5423.19
926.558	5425.68
926.867	5373.93
927.177	5410.54
927.487	5358.33
927.796	5326.47
928.106	5338.22
928.416	5296.64
928.725	5226.36
929.034	5246.7
929.344	5196.08
929.653	5175.74
929.962	5175.74
930.271	5160.37
930.581	5144.78
930.89	5082.41
931.199	5053.93
931.508	5087.83
931.817	5039.47
932.125	5043.77
932.434	5006.03
932.743	4971.45
933.051	4975.29
933.36	4932.13
933.669	4902.3
933.977	4847.84
934.286	4821.62
934.594	4841.51
934.902	4775.52
935.21	4815.07
935.519	4805.13
935.827	4798.35
936.135	4773.49
936.443	4724
936.751	4683.78
937.059	4676.54
937.367	4672.7
937.674	4677.67
937.982	4603.55
938.29	4594.74
938.597	4605.13
938.905	4547.06
939.213	4561.29
939.52	4554.29
939.827	4516.77
940.135	4512.25
940.442	4478.58
940.749	4481.75
941.056	4402.43
941.363	4456.21
941.67	4386.83
941.977	4375.76
942.284	4347.74
942.591	4391.58
942.898	4312.26
943.205	4302.99
943.511	4237.46
943.818	4270.9
944.125	4235.65
944.431	4202.66
944.738	4234.3
945.044	4222.09
945.35	4203.56
945.657	4184.81
945.963	4135.54
946.269	4163.34
946.575	4108.88
946.881	4106.39
947.187	4091.47
947.493	4079.72
947.799	4042.44
948.105	4041.76
948.41	4005.37
948.716	4001.76
949.022	3966.51
949.327	3946.85
949.633	3953.62
949.938	3943.91
950.244	3925.83
950.549	3879.5
950.854	3880.63
951.16	3889.67
951.465	3858.94
951.77	3836.79
952.075	3814.19
952.38	3815.32
952.685	3787.3
952.99	3776.23
953.294	3772.16
953.599	3676.57
953.904	3697.59
954.209	3715.89
954.513	3727.19
954.818	3675.44
955.122	3685.61
955.426	3641.54
955.731	3617.81
956.035	3596.57
956.339	3597.93
956.643	3589.57
956.948	3575.33
957.252	3559.74
957.556	3562
957.86	3537.14
958.163	3524.71
958.467	3511.38
958.771	3463.47
959.075	3462.79
959.378	3400.42
959.682	3481.09
959.985	3441.1
960.289	3427.31
960.592	3382.57
960.896	3386.86
961.199	3350.48
961.502	3386.18
961.805	3352.28
962.108	3328.1
962.411	3263.47
962.714	3288.11
963.017	3255.79
963.32	3291.95
963.623	3232.06
963.926	3207.88
964.228	3247.43
964.531	3201.55
964.833	3194.32
965.136	3176.47
965.438	3104.16
965.741	3125.85
966.043	3157.26
966.345	3087.43
966.648	3097.38
966.95	3091.73
967.252	3047.21
967.554	3055.34
967.856	3028.68
968.158	3044.5
968.46	3003.14
968.761	2990.03
969.063	2999.98
969.365	2968.57
969.666	2947.32
969.968	2950.49
970.269	2979.87
970.571	2922.01
970.872	2918.62
971.174	2895.12
971.475	2919.75
971.776	2899.87
972.077	2872.07
972.378	2879.75
972.679	2852.64
972.98	2871.39
973.281	2832.07
973.582	2820.32
973.883	2782.36
974.183	2813.09
974.484	2806.08
974.785	2779.19
975.085	2752.3
975.386	2747.33
975.686	2713.43
975.986	2702.58
976.287	2725.63
976.587	2677.27
976.887	2655.81
977.187	2682.02
977.487	2652.87
977.787	2649.25
978.087	2609.25
978.387	2635.69
978.687	2607.9
978.987	2606.77
979.286	2581.91
979.586	2603.6
979.885	2567.9
980.185	2551.63
980.484	2537.39
980.784	2548.24
981.083	2551.18
981.382	2501.23
981.682	2515.92
981.981	2531.06
982.28	2489.71
982.579	2462.82
982.878	2435.25
983.177	2464.62
983.475	2471.63
983.774	2406.55
984.073	2389.6
984.372	2406.09
984.67	2399.54
984.969	2379.65
985.267	2368.58
985.566	2351.41
985.864	2348.92
986.162	2378.98
986.461	2352.54
986.759	2312.31
987.057	2331.07
987.355	2285.42
987.653	2267.12
987.951	2321.8
988.249	2305.31
988.547	2273.67
988.844	2232.99
989.142	2239.32
989.44	2230.05
989.737	2219.43
990.035	2200
990.332	2218.98
990.63	2208.81
990.927	2207.46
991.224	2173.78
991.521	2155.93
991.819	2166.78
992.116	2157.06
992.413	2149.15
992.71	2122.03
993.006	2112.77
993.303	2108.48
993.6	2073.67
993.897	2096.95
994.193	2054.69
994.49	2052.66
994.787	2047.91
995.083	2050.85
995.379	2035.48
995.676	2003.17
995.972	2018.76
996.268	1980.57
996.565	2005.88
996.861	1968.14
997.157	1983.06
997.453	1993
997.749	1962.49
998.044	1945.32
998.34	1931.31
998.636	1908.25
998.932	1894.24
999.227	1913.68
999.523	1892.89
999.818	1908.25
1000.114	1891.53
1000.409	1858.54
1000.704	1887.92
1001	1817.18
1001.295	1851.53
1001.59	1835.26
1001.885	1831.42
1002.18	1833.68
1002.475	1804.75
1002.77	1806.34
1003.065	1784.87
1003.359	1768.15
1003.654	1790.97
1003.949	1777.86
1004.243	1753
1004.538	1719.11
1004.832	1755.26
1005.127	1741.03
1005.421	1716.17
1005.715	1675.49
1006.009	1712.55
1006.304	1692.22
1006.598	1660.13
1006.892	1682.27
1007.186	1689.5
1007.48	1648.6
1007.773	1670.3
1008.067	1662.61
1008.361	1632.78
1008.655	1631.43
1008.948	1604.31
1009.242	1602.95
1009.535	1585.1
1009.829	1571.99
1010.122	1579.68
1010.415	1558.66
1010.708	1528.83
1011.001	1571.54
1011.295	1556.63
1011.588	1535.61
1011.881	1531.99
1012.173	1517.98
1012.466	1481.6
1012.759	1505.1
1013.052	1506.91
1013.344	1453.13
1013.637	1493.8
1013.93	1461.04
1014.222	1451.54
1014.514	1458.78
1014.807	1452.67
1015.099	1428.72
1015.391	1425.56
1015.683	1403.41
1015.976	1386.01
1016.268	1412.22
1016.56	1392.34
1016.851	1376.07
1017.143	1383.75
1017.435	1354.6
1017.727	1365.22
1018.018	1366.35
1018.31	1343.07
1018.602	1332.22
1018.893	1323.19
1019.185	1315.05
1019.476	1298.78
1019.767	1307.14
1020.058	1309.4
1020.35	1269.4
1020.641	1238.67
1020.932	1273.92
1021.223	1254.03
1021.514	1237.76
1021.804	1246.8
1022.095	1243.41
1022.386	1231.89
1022.677	1245.9
1022.967	1223.3
1023.258	1233.92
1023.548	1198.22
1023.839	1183.53
1024.129	1186.92
1024.419	1193.02
1024.709	1158.67
1025	1152.57
1025.29	1164.09
1025.58	1133.13
1025.87	1172.46
1026.16	1109.86
1026.449	1118.9
1026.739	1151.66
1027.029	1080.03
1027.319	1108.05
1027.608	1100.59
1027.898	1095.17
1028.187	1089.75
1028.477	1086.36
1028.766	1070.31
1029.055	1065.79
1029.344	1072.8
1029.634	1050.2
1029.923	1028.96
1030.212	1040.03
1030.501	1042.74
1030.79	1016.75
1031.078	1040.93
1031.367	1012.01
1031.656	1020.14
1031.945	1009.52
1032.233	998.9
1032.522	990.76
1032.81	990.09
1033.099	1006.58
1033.387	965.45
1033.675	977.66
1033.963	975.85
1034.251	973.36
1034.54	952.57
1034.828	971.56
1035.116	946.47
1035.403	917.55
1035.691	946.47
1035.979	938.11
1036.267	908.28
1036.554	904.21
1036.842	905.57
1037.129	910.32
1037.417	895.85
1037.704	904.89
1037.992	909.19
1038.279	880.71
1038.566	858.34
1038.853	858.34
1039.14	858.34
