Data from hue_130_FLMS001491_00034.txt Node
Date: Tue Feb 07 16:57:31 GMT 2017
User: dcchb
Spectrometer: FLMS00149
Trigger mode: 0
Integration Time (sec): 2.000000E-2
Scans to average: 10
Electric dark correction enabled: true
Nonlinearity correction enabled: false
Boxcar width: 0
XAxis mode: Wavelengths
Number of Pixels in Spectrum: 2048
>>>>>Begin Spectral Data<<<<<
341.393	-22.81
341.776	-22.81
342.16	-22.81
342.543	-65.29
342.927	-70.27
343.31	-68.46
343.693	-68.68
344.077	-80.66
344.46	-56.03
344.843	-62.13
345.226	-38.85
345.61	-16.48
345.993	-14.45
346.376	-7.9
346.759	30.97
347.142	29.84
347.525	59.67
347.908	53.12
348.291	65.1
348.674	81.82
349.057	93.12
349.44	128.6
349.823	152.55
350.206	149.39
350.588	188.94
350.971	208.14
351.354	233.23
351.737	234.13
352.119	248.6
352.502	281.36
352.884	280.68
353.267	273
353.65	285.66
354.032	291.08
354.414	280.23
354.797	299.67
355.179	324.3
355.562	294.02
355.944	319.55
356.326	336.95
356.709	325.66
357.091	340.57
357.473	318.65
357.855	322.27
358.238	355.71
358.62	331.76
359.002	345.77
359.384	343.73
359.766	342.15
360.148	319.78
360.53	346.67
360.912	324.53
361.294	331.08
361.676	331.98
362.057	335.37
362.439	315.26
362.821	326.56
363.203	323.85
363.584	350.29
363.966	330.85
364.348	331.98
364.729	316.62
365.111	310.29
365.493	318.65
365.874	309.16
366.256	334.47
366.637	316.39
367.019	307.12
367.4	288.59
367.781	309.61
368.163	296.73
368.544	299.67
368.925	297.86
369.306	303.06
369.688	294.47
370.069	316.84
370.45	319.78
370.831	294.02
371.212	315.71
371.593	299.67
371.974	324.07
372.355	303.28
372.736	307.12
373.117	321.36
373.498	311.42
373.879	315.03
374.26	310.51
374.641	320.91
375.021	301.25
375.402	319.1
375.783	310.06
376.163	314.81
376.544	334.24
376.925	327.69
377.305	336.05
377.686	325.2
378.066	311.87
378.447	304.41
378.827	318.88
379.208	329.72
379.588	324.07
379.968	334.47
380.349	330.4
380.729	322.72
381.109	344.41
381.489	341.02
381.87	326.11
382.25	334.47
382.63	328.82
383.01	325.66
383.39	312.32
383.77	351.87
384.15	311.19
384.53	334.69
384.91	350.74
385.29	343.73
385.67	334.24
386.049	331.98
386.429	348.71
386.809	341.47
387.189	363.62
387.568	348.93
387.948	339.89
388.328	355.26
388.707	336.28
389.087	358.2
389.466	332.89
389.846	349.84
390.225	380.12
390.605	364.52
390.984	365.88
391.363	361.36
391.743	364.07
392.122	373.11
392.501	365.88
392.881	379.67
393.26	398.2
393.639	398.87
394.018	370.85
394.397	391.87
394.776	388.48
395.155	365.88
395.534	388.03
395.913	371.08
396.292	394.13
396.671	376.05
397.05	378.99
397.429	405.88
397.808	373.79
398.186	407.46
398.565	383.73
398.944	376.73
399.323	379.67
399.701	398.2
400.08	394.35
400.458	388.93
400.837	414.24
401.215	409.04
401.594	392.77
401.972	414.24
402.351	398.2
402.729	416.95
403.107	409.72
403.486	416.5
403.864	418.53
404.242	419.44
404.62	408.59
404.999	419.44
405.377	430.74
405.755	415.14
406.133	449.95
406.511	417.86
406.889	436.84
407.267	439.32
407.645	421.25
408.023	442.71
408.401	434.58
408.779	461.92
409.156	443.39
409.534	447.46
409.912	470.51
410.29	459.89
410.667	447.23
411.045	453.79
411.422	468.02
411.8	456.05
412.178	484.52
412.555	473.22
412.933	471.41
413.31	494.69
413.687	479.78
414.065	489.94
414.442	469.61
414.819	500.34
415.197	497.4
415.574	508.93
415.951	488.14
416.328	501.47
416.705	522.49
417.082	508.25
417.46	488.14
417.837	527.91
418.214	520
418.591	508.93
418.967	537.4
419.344	527.23
419.721	510.51
420.098	534.69
420.475	523.62
420.852	535.14
421.228	550.28
421.605	545.08
421.982	539.21
422.358	529.04
422.735	556.84
423.111	568.59
423.488	521.58
423.864	551.19
424.241	565.2
424.617	568.36
424.994	563.39
425.37	582.6
425.746	597.51
426.123	591.86
426.499	583.28
426.875	584.63
427.251	588.7
427.627	594.12
428.003	623.27
428.379	608.59
428.756	598.19
429.132	612.88
429.507	633.67
429.883	649.49
430.259	648.36
430.635	636.16
431.011	638.87
431.387	658.3
431.763	646.32
432.138	672.99
432.514	676.15
432.89	676.61
433.265	687.68
433.641	690.17
434.016	714.57
434.392	718.41
434.767	717.74
435.143	711.41
435.518	717.96
435.894	757.73
436.269	728.58
436.644	734.68
437.02	738.3
437.395	741.46
437.77	747.11
438.145	744.85
438.52	771.97
438.895	772.88
439.271	785.08
439.646	782.14
440.021	795.47
440.395	770.62
440.77	785.53
441.145	819.2
441.52	830.27
441.895	825.98
442.27	834.12
442.645	828.69
443.019	824.17
443.394	829.14
443.769	839.54
444.143	839.31
444.518	876.6
444.892	868.47
445.267	851.74
445.641	879.99
446.016	859.65
446.39	889.48
446.764	896.71
447.139	863.49
447.513	907.33
447.887	890.84
448.262	918.18
448.636	897.39
449.01	928.8
449.384	920.67
449.758	932.19
450.132	955.47
450.506	954.79
450.88	945.98
451.254	929.03
451.628	957.96
452.002	988.69
452.376	968.12
452.75	975.58
453.123	976.03
453.497	1017.84
453.871	1010.16
454.244	1028.24
454.618	1027.78
454.992	1028.01
455.365	1045.41
455.739	1085.64
456.112	1085.86
456.486	1085.86
456.859	1099.42
457.232	1123.37
457.606	1124.05
457.979	1144.62
458.352	1164.5
458.725	1189.59
459.099	1195.91
459.472	1200.89
459.845	1216.48
460.218	1242.02
460.591	1239.3
460.964	1250.83
461.337	1263.48
461.71	1287.44
462.083	1286.31
462.456	1291.28
462.829	1328.11
463.201	1357.27
463.574	1372.86
463.947	1354.33
464.32	1416.25
464.692	1429.58
465.065	1435
465.438	1465.51
465.81	1479.75
466.183	1499.41
466.555	1535.12
466.928	1548.67
467.3	1557.94
467.672	1546.64
468.045	1627.09
468.417	1638.16
468.789	1677.48
469.161	1689.24
469.534	1728.78
469.906	1745.05
470.278	1769.01
470.65	1822.79
471.022	1871.38
471.394	1889
471.766	1914.09
472.138	1972.62
472.51	2000.41
472.882	2010.81
473.253	2014.42
473.625	2066.63
473.997	2164.7
474.369	2206.96
474.74	2195.44
475.112	2266.17
475.484	2353.4
475.855	2403.11
476.227	2426.62
476.598	2523.79
476.97	2541.42
477.341	2621.41
477.713	2703.22
478.084	2736.21
478.455	2820.28
478.827	2890.56
479.198	2989.77
479.569	3006.94
479.94	3165.35
480.311	3186.15
480.682	3293.03
481.053	3398.12
481.424	3507.27
481.795	3574.61
482.166	3658.67
482.537	3737.99
482.908	3894.83
483.279	3952.45
483.65	4091.88
484.021	4230.41
484.391	4282.61
484.762	4376.62
485.133	4475.6
485.503	4590.85
485.874	4743.62
486.244	4816.38
486.615	4951.52
486.985	5088.69
487.356	5258.86
487.726	5329.37
488.097	5476.25
488.467	5584.5
488.837	5716.25
489.207	5877.6
489.578	6022
489.948	6156.01
490.318	6333.41
490.688	6365.04
491.058	6563.01
491.428	6648.65
491.798	6829.44
492.168	7012.71
492.538	7052.48
492.908	7220.84
493.278	7359.82
493.648	7490.66
494.017	7648.85
494.387	7774.5
494.757	7901.05
495.126	8091.1
495.496	8094.49
495.866	8254.94
496.235	8352.34
496.605	8515.5
496.974	8664.42
497.344	8795.04
497.713	8931.53
498.082	8949.61
498.452	9143.28
498.821	9202.71
499.19	9352.08
499.559	9448.81
499.928	9563.15
500.298	9686.31
500.667	9738.52
501.036	9864.84
501.405	9959.3
501.774	10004.72
502.143	10118.39
502.512	10209.46
502.88	10348.44
503.249	10403.81
503.618	10456.01
503.987	10576.23
504.356	10667.08
504.724	10742.78
505.093	10793.63
505.462	10868.43
505.83	11012.61
506.199	11051.25
506.567	11203.79
506.936	11207.18
507.304	11397.68
507.672	11484.68
508.041	11424.8
508.409	11609.2
508.777	11674.51
509.145	11733.49
509.514	11742.3
509.882	11904.11
510.25	11880.15
510.618	11945.01
510.986	11932.36
511.354	12164.67
511.722	12202.63
512.09	12320.82
512.458	12241.95
512.826	12298.9
513.193	12362.4
513.561	12401.5
513.929	12533.7
514.297	12557.2
514.664	12649.4
515.032	12589.06
515.4	12777.53
515.767	12790.64
516.135	12828.6
516.502	12697.31
516.869	13009.62
517.237	12928.71
517.604	12867.47
517.972	13023.17
518.339	13098.88
518.706	13000.35
519.073	13125.54
519.44	13104.3
519.808	13291.64
520.175	13251.64
520.542	13333.67
520.909	13369.38
521.276	13424.07
521.643	13468.81
522.009	13513.78
522.376	13602.14
522.743	13579.77
523.11	13647.11
523.477	13662.48
523.843	13668.81
524.21	13803.72
524.577	13859.54
524.943	13903.38
525.31	13883.04
525.676	13904.28
526.043	14004.39
526.409	14022.24
526.776	14075.35
527.142	14120.32
527.508	14079.42
527.874	14160.09
528.241	14135.46
528.607	14146.08
528.973	14197.38
529.339	14220.66
529.705	14237.15
530.071	14278.51
530.437	14321.22
530.803	14304.27
531.169	14321.67
531.535	14223.82
531.901	14279.19
532.267	14248.68
532.632	14291.84
532.998	14195.12
533.364	14283.48
533.73	14351.05
534.095	14335
534.461	14291.39
534.826	14350.82
535.192	14344.04
535.557	14288.9
535.923	14277.15
536.288	14324.61
536.653	14345.85
537.019	14206.65
537.384	14231.5
537.749	14230.15
538.114	14269.02
538.479	14076.93
538.845	14060.66
539.21	14068.34
539.575	14014.56
539.94	14072.41
540.305	14039.87
540.67	13911.51
541.034	13987.22
541.399	14017.05
541.764	13898.63
542.129	13985.18
542.494	13956.71
542.858	13853.66
543.223	13788.35
543.587	13848.69
543.952	13700.67
544.316	13766.66
544.681	13739.09
545.045	13778.86
545.41	13752.65
545.774	13677.17
546.138	13595.36
546.503	13659.54
546.867	13617.51
547.231	13594.91
547.595	13619.32
547.959	13620.67
548.324	13489.15
548.688	13468.36
549.052	13531.41
549.416	13523.73
549.779	13437.85
550.143	13341.58
550.507	13309.49
550.871	13378.65
551.235	13338.87
551.599	13257.29
551.962	13268.82
552.326	13247.8
552.689	13229.5
553.053	13125.77
553.417	13146.56
553.78	13241.47
554.143	13168.26
554.507	13121.25
554.87	13111.31
555.234	13186.33
555.597	13101.82
555.96	13103.17
556.323	13030.41
556.686	13006.9
557.05	13127.8
557.413	13084.87
557.776	13060.46
558.139	13068.37
558.502	13019.11
558.865	13071.99
559.228	13020.01
559.59	13000.8
559.953	13119.44
560.316	13131.42
560.679	13013.46
561.041	13151.76
561.404	13172.78
561.767	13141.36
562.129	13064.76
562.492	13225.2
562.854	13092.78
563.217	13104.53
563.579	13151.53
563.941	13096.39
564.304	13162.38
564.666	13221.59
565.028	13177.97
565.39	13234.92
565.753	13241.25
566.115	13277.41
566.477	13205.54
566.839	13196.96
567.201	13277.63
567.563	13240.8
567.925	13371.64
568.287	13332.09
568.648	13344.97
569.01	13366.44
569.372	13441.92
569.734	13349.95
570.095	13417.06
570.457	13404.18
570.819	13481.69
571.18	13374.8
571.542	13534.8
571.903	13476.95
572.265	13524.4
572.626	13443.95
572.987	13515.14
573.349	13507
573.71	13538.64
574.071	13514.46
574.432	13535.7
574.794	13660.45
575.155	13523.27
575.516	13582.71
575.877	13622.71
576.238	13647.11
576.599	13651.63
576.96	13592.43
577.32	13572.31
577.681	13655.93
578.042	13710.61
578.403	13602.82
578.763	13609.6
579.124	13560.79
579.485	13644.63
579.845	13659.77
580.206	13664.97
580.566	13596.27
580.927	13700.9
581.287	13634.46
581.648	13628.13
582.008	13671.97
582.368	13562.6
582.728	13676.49
583.089	13580.22
583.449	13679.88
583.809	13691.41
584.169	13694.34
584.529	13541.35
584.889	13723.27
585.249	13513.33
585.609	13560.79
585.969	13624.97
586.329	13494.8
586.688	13555.36
587.048	13515.59
587.408	13525.08
587.768	13528.92
588.127	13470.39
588.487	13395.59
588.846	13570.96
589.206	13459.55
589.565	13417.97
589.925	13477.85
590.284	13437.63
590.643	13531.64
591.003	13495.48
591.362	13469.94
591.721	13497.29
592.08	13487.57
592.44	13463.61
592.799	13500.22
593.158	13401.24
593.517	13427.68
593.876	13422.49
594.235	13307.46
594.593	13438.08
594.952	13415.48
595.311	13409.61
595.67	13397.18
596.029	13484.18
596.387	13343.39
596.746	13412.77
597.104	13312.88
597.463	13336.16
597.822	13339.55
598.18	13294.58
598.538	13313.11
598.897	13354.92
599.255	13325.77
599.613	13447.12
599.972	13304.98
600.33	13318.76
600.688	13244.86
601.046	13351.3
601.404	13371.41
601.762	13404.63
602.12	13470.85
602.478	13383.39
602.836	13417.06
603.194	13287.57
603.552	13286.9
603.91	13222.04
604.268	13276.05
604.625	13255.71
604.983	13401.92
605.341	13214.81
605.698	13451.64
606.056	13373.67
606.413	13405.54
606.771	13377.97
607.128	13436.72
607.485	13332.54
607.843	13352.88
608.2	13400.79
608.557	13449.15
608.914	13393.11
609.272	13487.12
609.629	13420.68
609.986	13450.06
610.343	13390.85
610.7	13570.73
611.057	13506.1
611.414	13499.32
611.771	13515.14
612.127	13620.9
612.484	13519.88
612.841	13603.95
613.198	13549.49
613.554	13495.25
613.911	13582.03
614.267	13587.68
614.624	13518.53
614.98	13718.52
615.337	13649.37
615.693	13614.12
616.05	13666.55
616.406	13625.64
616.762	13622.03
617.118	13641.92
617.475	13721.91
617.831	13700.67
618.187	13632.42
618.543	13730.95
618.899	13744.06
619.255	13711.07
619.611	13721.46
619.967	13747.22
620.323	13773.66
620.678	13764.62
621.034	13730.05
621.39	13726.21
621.746	13664.29
622.101	13845.07
622.457	13673.78
622.812	13711.52
623.168	13773.66
623.523	13735.7
623.879	13806.88
624.234	13658.86
624.589	13731.63
624.945	13806.2
625.3	13751.74
625.655	13755.36
626.01	13748.13
626.365	13847.11
626.72	13680.33
627.075	13758.52
627.43	13848.01
627.785	13674
628.14	13732.08
628.495	13743.83
628.85	13772.53
629.205	13693.89
629.559	13732.76
629.914	13712.65
630.269	13683.5
630.623	13693.67
630.978	13624.29
631.332	13637.4
631.687	13689.82
632.041	13583.16
632.396	13645.08
632.75	13693.21
633.104	13575.25
633.459	13551.75
633.813	13586.55
634.167	13527.12
634.521	13543.39
634.875	13500.9
635.229	13564.63
635.583	13434.92
635.937	13451.41
636.291	13481.69
636.645	13459.32
636.999	13405.31
637.352	13406.22
637.706	13320.79
638.06	13399.66
638.413	13319.89
638.767	13338.87
639.121	13368.93
639.474	13192.44
639.828	13250.97
640.181	13333.22
640.534	13321.7
640.888	13178.88
641.241	13197.41
641.594	13164.64
641.947	13227.69
642.301	13171.19
642.654	13293.68
643.007	13256.84
643.36	13185.88
643.713	13142.72
644.066	13254.81
644.419	13219.78
644.771	13166.9
645.124	13023.63
645.477	12997.19
645.83	12917.64
646.182	12807.59
646.535	12725.33
646.888	12830.64
647.24	12704.99
647.593	12730.53
647.945	12749.74
648.298	12659.34
648.65	12736.85
649.002	12680.81
649.355	12762.62
649.707	12742.5
650.059	12750.19
650.411	12965.1
650.763	12957.87
651.115	13069.95
651.467	13003.29
651.819	12956.51
652.171	12923.74
652.523	12979.56
652.875	13012.55
653.227	12928.04
653.578	13047.35
653.93	12972.1
654.282	12950.63
654.633	12880.13
654.985	12944.53
655.337	12960.13
655.688	12970.75
656.039	12949.05
656.391	12907.02
656.742	12932.1
657.094	12880.13
657.445	13055.49
657.796	13012.1
658.147	12977.07
658.498	12962.39
658.849	13006.68
659.2	13029.28
659.551	12959.45
659.902	13121.03
660.253	12967.36
660.604	13103.62
660.955	12965.1
661.306	13017.3
661.656	13028.37
662.007	13030.86
662.358	13034.02
662.708	13025.89
663.059	13010.07
663.409	12916.28
663.76	13078.31
664.11	12987.24
664.461	13030.63
664.811	12988.6
665.161	13008.94
665.511	12980.24
665.862	13017.52
666.212	13046.68
666.562	13085.55
666.912	13064.08
667.262	13013.46
667.612	13086.45
667.962	13060.24
668.312	13045.32
668.662	13128.93
669.011	13047.35
669.361	12999.9
669.711	13078.09
670.06	13014.59
670.41	12991.31
670.76	12973.01
671.109	12997.19
671.459	13045.77
671.808	12994.02
672.157	12966.23
672.507	12895.49
672.856	12941.82
673.205	12888.71
673.554	12926.91
673.904	12922.61
674.253	12964.87
674.602	12938.21
674.951	12817.3
675.3	12651.66
675.649	12881.03
675.998	12854.37
676.346	12895.27
676.695	12853.01
677.044	12781.15
677.393	12760.36
677.741	12815.95
678.09	12775.05
678.438	12717.42
678.787	12786.12
679.135	12823.18
679.484	12625.22
679.832	12693.01
680.181	12642.85
680.529	12704.31
680.877	12655.05
681.225	12607.14
681.573	12693.01
681.922	12622.96
682.27	12571.21
682.618	12551.77
682.966	12466.35
683.314	12553.36
683.661	12462.29
684.009	12437.88
684.357	12344.77
684.705	12392.23
685.053	12359.92
685.4	12272.91
685.748	12261.84
686.095	12335.73
686.443	12255.29
686.79	12255.51
687.138	12247.15
687.485	12188.39
687.832	12132.8
688.18	12220.03
688.527	12099.81
688.874	12082.63
689.221	11991.79
689.568	11985.46
689.915	12022.75
690.262	11969.42
690.609	11940.49
690.956	11873.6
691.303	11830.89
691.65	11787.95
691.997	11743.43
692.344	11727.84
692.69	11672.93
693.037	11679.93
693.383	11572.59
693.73	11605.58
694.077	11525.36
694.423	11496.44
694.769	11518.58
695.116	11432.26
695.462	11423.89
695.808	11415.53
696.155	11462.09
696.501	11341.41
696.847	11276.78
697.193	11284.46
697.539	11120.17
697.885	11181.64
698.231	11153.17
698.577	11020.06
698.923	11036.56
699.269	10924.02
699.614	10932.38
699.96	10921.53
700.306	10889.67
700.651	10841.31
700.997	10849.9
701.342	10806.74
701.688	10682.9
702.033	10733.74
702.379	10724.7
702.724	10616.91
703.069	10668.66
703.415	10500.3
703.76	10504.37
704.105	10578.72
704.45	10522.45
704.795	10382.34
705.14	10395.22
705.485	10420.53
705.83	10299.4
706.175	10275
706.52	10334.88
706.865	10262.57
707.209	10201.1
707.554	10195.9
707.899	10158.17
708.243	10137.6
708.588	10144.38
708.932	10064.83
709.277	10021.45
709.621	9995.01
709.966	10004.27
710.31	9961.11
710.654	9957.49
710.998	9907.1
711.342	9907.78
711.687	9869.36
712.031	9797.04
712.375	9811.51
712.719	9806.99
713.063	9767.44
713.407	9849.7
713.75	9721.57
714.094	9758.4
714.438	9758.85
714.782	9682.92
715.125	9655.81
715.469	9651.51
715.812	9576.71
716.156	9575.58
716.499	9554.57
716.843	9549.37
717.186	9512.98
717.53	9545.3
717.873	9533.77
718.216	9536.26
718.559	9512.31
718.902	9440.9
719.246	9563.83
719.589	9447
719.932	9427.79
720.275	9349.6
720.617	9398.19
720.96	9342.59
721.303	9346.44
721.646	9406.09
721.989	9255.14
722.331	9356.6
722.674	9271.86
723.016	9291.97
723.359	9335.59
723.701	9296.94
724.044	9175.37
724.386	9233.22
724.729	9252.2
725.071	9234.57
725.413	9208.81
725.755	9288.81
726.097	9192.77
726.439	9132.88
726.782	9129.04
727.124	9237.29
727.465	9155.71
727.807	9190.05
728.149	9165.65
728.491	9201.58
728.833	9208.59
729.175	9117.06
729.516	9155.48
729.858	9080.91
730.199	9086.55
730.541	9098.98
730.882	9165.42
731.224	9125.65
731.565	9139.89
731.906	9103.96
732.248	9110.96
732.589	9075.71
732.93	9057.63
733.271	9072.09
733.612	9110.74
733.953	9110.96
734.294	9044.75
734.635	9018.08
734.976	9053.34
735.317	9072.54
735.658	9017.63
735.999	9077.29
736.339	8956.39
736.68	9088.14
737.021	9043.17
737.361	9038.42
737.702	9098.53
738.042	9092.43
738.383	9023.73
738.723	9112.09
739.063	9070.96
739.404	9092.43
739.744	9158.19
740.084	9131.3
740.424	9148.7
740.764	9080.68
741.104	9153.22
741.444	9187.8
741.784	9102.6
742.124	9137.18
742.464	9186.21
742.804	9215.59
743.143	9180.11
743.483	9327.45
743.823	9212.2
744.162	9336.94
744.502	9295.14
744.841	9341.24
745.181	9360.45
745.52	9401.12
745.86	9410.84
746.199	9496.04
746.538	9484.06
746.877	9550.27
747.216	9579.2
747.556	9602.47
747.895	9701.45
748.234	9691.51
748.573	9773.32
748.911	9841.11
749.25	9916.14
749.589	9888.57
749.928	10002.91
750.267	10090.82
750.605	10086.75
750.944	10182.8
751.283	10196.36
751.621	10262.12
751.96	10343.7
752.298	10470.7
752.636	10554.99
752.975	10622.56
753.313	10762.44
753.651	10814.42
753.989	10950.69
754.327	11028.88
754.666	11059.84
755.004	11217.57
755.342	11377.34
755.679	11492.14
756.017	11627.51
756.355	11779.82
756.693	11797.44
757.031	12046.03
757.368	12044.67
757.706	12274.49
758.044	12385.23
758.381	12540.48
758.719	12651.43
759.056	12763.29
759.394	12979.33
759.731	13087.81
760.068	13259.55
760.405	13321.02
760.743	13472.2
761.08	13674
761.417	13814.11
761.754	13958.97
762.091	14121
762.428	14181.79
762.765	14385.4
763.102	14548.33
763.438	14682.34
763.775	14764.37
764.112	14977.7
764.449	15118.49
764.785	15288.88
765.122	15350.57
765.458	15452.72
765.795	15711.01
766.131	15814.51
766.467	15964.34
766.804	16021.06
767.14	16164.11
767.476	16372.69
767.812	16461.73
768.148	16654.04
768.485	16656.07
768.821	16633.48
769.157	16875.28
769.492	16904.65
769.828	17108.72
770.164	17091.54
770.5	17201.37
770.836	17298.99
771.171	17341.03
771.507	17520.23
771.842	17546.9
772.178	17643.39
772.513	17726.78
772.849	17706.67
773.184	17835.25
773.519	17908.7
773.855	17921.12
774.19	18003.83
774.525	18007.22
774.86	18086.32
775.195	18183.26
775.53	18284.51
775.865	18225.3
776.2	18209.03
776.535	18151.85
776.87	18294.9
777.205	18313.2
777.539	18241.34
777.874	18424.84
778.209	18372.19
778.543	18381.23
778.878	18455.12
779.212	18488.12
779.547	18415.58
779.881	18479.75
780.215	18466.87
780.55	18594.78
780.884	18517.95
781.218	18531.96
781.552	18600.43
781.886	18411.96
782.22	18506.65
782.554	18486.99
782.888	18372.86
783.222	18439.76
783.556	18357.27
783.889	18455.57
784.223	18241.12
784.557	18301.91
784.89	18373.54
785.224	18225.52
785.557	18175.81
785.891	18334.45
786.224	18289.02
786.558	18319.08
786.891	18127.67
787.224	18105.3
787.557	18027.34
787.891	18071.86
788.224	18107.56
788.557	18055.81
788.89	18010.84
789.223	18136.49
789.556	17972.65
789.888	17991.63
790.221	17810.62
790.554	17787.8
790.887	17923.38
791.219	17810.39
791.552	17748.25
791.884	17699.44
792.217	17699.44
792.549	17673.22
792.882	17603.85
793.214	17514.58
793.546	17537.63
793.879	17375.15
794.211	17346.9
794.543	17441.36
794.875	17430.06
795.207	17411.99
795.539	17349.84
795.871	17381.48
796.203	17184.42
796.535	17134.7
796.867	17103.52
797.198	17118.66
797.53	17103.07
797.862	17021.26
798.193	17017.19
798.525	16894.49
798.856	16915.73
799.188	16725
799.519	16767.93
799.85	16670.99
800.182	16705.11
800.513	16764.55
800.844	16559.35
801.175	16657.43
801.506	16675.06
801.837	16523.2
802.168	16647.26
802.499	16387.15
802.83	16420.83
803.161	16362.07
803.491	16393.71
803.822	16432.35
804.153	16176.09
804.483	16151.45
804.814	16179.7
805.145	16100.16
805.475	16143.32
805.805	16095.86
806.136	16145.13
806.466	16040.72
806.796	15931.57
807.126	15928.18
807.457	15883.66
807.787	15958.01
808.117	15828.52
808.447	15819.71
808.777	15861.97
809.107	15795.53
809.436	15722.99
809.766	15674.4
810.096	15595.08
810.426	15585.37
810.755	15511.92
811.085	15492.94
811.414	15487.06
811.744	15466.5
812.073	15420.4
812.403	15473.28
812.732	15348.54
813.061	15349.67
813.39	15213.63
813.719	15136.57
814.049	15265.15
814.378	15221.53
814.707	15169.33
815.036	15160.29
815.365	15012.05
815.693	14923.46
816.022	14930.24
816.351	14901.54
816.68	14952.16
817.008	14949
817.337	14819.06
817.665	14726.41
817.994	14799.62
818.322	14764.15
818.651	14720.08
818.979	14609.35
819.307	14719.63
819.636	14636.92
819.964	14573.87
820.292	14663.13
820.62	14633.75
820.948	14654.77
821.276	14684.6
821.604	14628.33
821.932	14563.7
822.259	14605.51
822.587	14549.69
822.915	14551.72
823.243	14647.09
823.57	14539.29
823.898	14545.62
824.225	14541.55
824.553	14499.07
824.88	14541.1
825.207	14650.93
825.535	14561.44
825.862	14612.29
826.189	14584.26
826.516	14643.7
826.843	14687.31
827.17	14690.25
827.497	14620.87
827.824	14535.9
828.151	14600.53
828.478	14618.84
828.805	14670.14
829.131	14549.69
829.458	14615.45
829.785	14553.08
830.111	14568.67
830.438	14596.92
830.764	14595.11
831.09	14608.44
831.417	14522.12
831.743	14679.18
832.069	14660.19
832.395	14549.46
832.722	14577.94
833.048	14529.8
833.374	14584.49
833.7	14560.76
834.026	14565.28
834.351	14470.59
834.677	14521.21
835.003	14582.91
835.329	14540.65
835.654	14383.36
835.98	14332.97
836.306	14433.08
836.631	14368
836.956	14416.58
837.282	14376.36
837.607	14340.2
837.932	14340.65
838.258	14402.12
838.583	14273.09
838.908	14199.19
839.233	14269.02
839.558	14159.19
839.883	14084.84
840.208	14086.42
840.533	14127.55
840.858	14074.45
841.182	14153.31
841.507	14094.33
841.832	14012.75
842.156	13955.58
842.481	14027.89
842.805	13946.99
843.13	13941.57
843.454	13863.83
843.778	13820.89
844.103	13737.73
844.427	13716.26
844.751	13689.6
845.075	13649.15
845.399	13716.94
845.723	13583.84
846.047	13591.75
846.371	13521.47
846.695	13518.98
847.019	13347.69
847.343	13376.16
847.666	13269.95
847.99	13151.53
848.313	13198.09
848.637	13177.07
848.96	13157.63
849.284	13139.56
849.607	13047.13
849.931	12954.7
850.254	12889.84
850.577	12884.87
850.9	12744.76
851.223	12724.88
851.546	12679
851.869	12611.66
852.192	12625.9
852.515	12538.44
852.838	12393.13
853.161	12457.77
853.483	12408.73
853.806	12275.85
854.129	12349.75
854.451	12219.35
854.774	12226.81
855.096	12126.93
855.419	12178.45
855.741	12109.07
856.063	12022.75
856.385	11988.85
856.708	11990.21
857.03	11969.64
857.352	11977.1
857.674	11924.45
857.996	11836.09
858.318	11734.62
858.64	11789.08
858.961	11741.63
859.283	11680.38
859.605	11587.28
859.926	11692.36
860.248	11662.31
860.57	11684.45
860.891	11602.42
861.212	11512.25
861.534	11527.17
861.855	11464.57
862.176	11453.5
862.498	11496.66
862.819	11440.17
863.14	11437.91
863.461	11443.33
863.782	11379.38
864.103	11362.88
864.424	11275.42
864.745	11333.05
865.065	11291.92
865.386	11153.17
865.707	11257.12
866.027	11322.88
866.348	11203.56
866.668	11157.23
866.989	11173.28
867.309	11039.95
867.63	11070.68
867.95	11136.22
868.27	10987.52
868.59	11029.55
868.91	10997.92
869.23	11046.28
869.55	10947.07
869.87	11034.98
870.19	10999.95
870.51	10975.32
870.83	10868.43
871.15	10879.95
871.469	10867.52
871.789	10847.19
872.109	10947.3
872.428	10882.44
872.748	10815.77
873.067	10818.26
873.386	10839.05
873.706	10723.12
874.025	10752.95
874.344	10699.62
874.663	10697.13
874.982	10693.74
875.301	10713.18
875.62	10692.39
875.939	10652.16
876.258	10627.76
876.577	10580.98
876.896	10637.7
877.214	10556.57
877.533	10596.8
877.852	10613.52
878.17	10544.37
878.489	10468.89
878.807	10464.6
879.125	10495.78
879.444	10468.67
879.762	10419.18
880.08	10496.46
880.398	10413.98
880.716	10488.55
881.034	10350.48
881.352	10341.44
881.67	10304.38
881.988	10363.81
882.306	10394.54
882.624	10209.01
882.941	10229.12
883.259	10164.94
883.577	10160.2
883.894	10098.51
884.212	10202.68
884.529	10148.22
884.846	10116.36
885.164	10112.06
885.481	9995.91
885.798	10047.66
886.115	9907.55
886.432	10002.46
886.75	9949.13
887.067	9938.28
887.383	9895.12
887.7	9884.05
888.017	9860.77
888.334	9854.67
888.651	9808.12
888.967	9779.19
889.284	9698.29
889.6	9734.67
889.917	9689.02
890.233	9662.36
890.55	9617.61
890.866	9658.29
891.182	9606.54
891.498	9583.04
891.815	9523.38
892.131	9442.48
892.447	9478.86
892.763	9476.6
893.079	9418.52
893.395	9398.64
893.71	9355.93
894.026	9341.46
894.342	9289.71
894.657	9302.14
894.973	9235.93
895.289	9240
895.604	9209.94
895.92	9155.48
896.235	9053.56
896.55	9073.67
896.865	9025.31
897.181	9059.21
897.496	9011.98
897.811	9000.23
898.126	8959.78
898.441	8913.68
898.756	8857.63
899.071	8779.67
899.386	8809.27
899.7	8788.48
900.015	8694.25
900.33	8598.66
900.644	8623.74
900.959	8621.71
901.273	8557.3
901.588	8588.94
901.902	8488.38
902.216	8547.36
902.531	8481.37
902.845	8493.58
903.159	8430.98
903.473	8372.22
903.787	8328.16
904.101	8317.08
904.415	8241.15
904.729	8313.47
905.042	8271.66
905.356	8214.04
905.67	8198.67
905.984	8150.76
906.297	8134.26
906.611	8053.81
906.924	8107.15
907.237	8055.62
907.551	8048.62
907.864	7985.34
908.177	7988.5
908.491	7950.31
908.804	7855.85
909.117	7873.48
909.43	7791.67
909.743	7762.97
910.056	7730.88
910.368	7686.14
910.681	7632.13
910.994	7689.98
911.307	7604.56
911.619	7534.28
911.932	7574.96
912.244	7523.21
912.557	7443.66
912.869	7408.63
913.181	7469.2
913.494	7437.11
913.806	7334.96
914.118	7304
914.43	7210.67
914.742	7310.1
915.054	7212.48
915.366	7218.36
915.678	7156.89
915.99	7121.63
916.302	7099.71
916.613	7047.51
916.925	7078.25
917.236	7015.87
917.548	6996.44
917.859	6978.81
918.171	6936.78
918.482	6928.19
918.794	6883.9
919.105	6851.59
919.416	6810.23
919.727	6789.67
920.038	6809.78
920.349	6775.88
920.66	6739.05
920.971	6704.92
921.282	6642.78
921.593	6550.58
921.903	6628.99
922.214	6603.46
922.525	6476.91
922.835	6604.36
923.146	6483.91
923.456	6446.17
923.767	6438.94
924.077	6408.89
924.387	6422.22
924.697	6393.29
925.008	6361.65
925.318	6338.6
925.628	6314.2
925.938	6255.22
926.248	6176.8
926.558	6189.23
926.867	6213.18
927.177	6147.42
927.487	6142.9
927.796	6071.94
928.106	6088.44
928.416	6068.33
928.725	6055.22
929.034	5988.33
929.344	5982
929.653	5959.63
929.962	5926.64
930.271	5850.48
930.581	5896.13
930.89	5895.23
931.199	5892.06
931.508	5832.86
931.817	5818.17
932.125	5803.03
932.434	5824.72
932.743	5706.98
933.051	5659.3
933.36	5671.28
933.669	5636.25
933.977	5611.84
934.286	5608.45
934.594	5617.04
934.902	5581.34
935.21	5558.51
935.519	5518.29
935.827	5479.64
936.135	5474.45
936.443	5420.89
936.751	5398.29
937.059	5407.56
937.367	5346.77
937.674	5374.79
937.982	5317.16
938.29	5348.8
938.597	5337.73
938.905	5208.69
939.213	5206.88
939.52	5224.96
939.827	5271.97
940.135	5161.46
940.442	5151.07
940.749	5150.84
941.056	5102.93
941.363	5071.97
941.67	5098.64
941.977	5046.66
942.284	5017.28
942.591	5017.96
942.898	4975.48
943.205	4987.91
943.511	4964.63
943.818	4907.23
944.125	4884.18
944.431	4862.94
944.738	4877.85
945.044	4812.54
945.35	4845.31
945.657	4787.01
945.963	4753.11
946.269	4763.28
946.575	4719.21
946.881	4734.8
947.187	4689.61
947.493	4621.59
947.799	4679.21
948.105	4658.2
948.41	4616.84
948.716	4648.03
949.022	4583.62
949.327	4551.31
949.633	4533.68
949.938	4511.76
950.244	4534.81
950.549	4451.2
950.854	4447.81
951.16	4385.66
951.465	4408.26
951.77	4428.82
952.075	4369.84
952.38	4342.27
952.685	4328.04
952.99	4288.71
953.294	4341.37
953.599	4277.87
953.904	4241.94
954.209	4198.1
954.513	4208.04
954.818	4204.65
955.122	4174.82
955.426	4202.16
955.731	4164.65
956.035	4132.11
956.339	4152.45
956.643	4129.85
956.948	4096.63
957.252	4084.88
957.556	4102.05
957.86	4041.26
958.163	4007.82
958.467	4042.62
958.771	3971.21
959.075	3996.97
959.378	3947.71
959.682	3968.27
959.985	3923.3
960.289	3881.72
960.592	3916.75
960.896	3876.75
961.199	3841.72
961.502	3869.29
961.805	3795.17
962.108	3808.5
962.411	3748.16
962.714	3752.23
963.017	3778.22
963.32	3735.28
963.623	3734.61
963.926	3707.04
964.228	3692.12
964.531	3671.33
964.833	3681.73
965.136	3644.21
965.438	3642.63
965.741	3592.91
966.043	3607.38
966.345	3592.69
966.648	3564.44
966.95	3557.66
967.252	3492.13
967.554	3498
967.856	3510.88
968.158	3469.53
968.46	3476.98
968.761	3467.04
969.063	3470.88
969.365	3424.33
969.666	3423.43
969.968	3376.65
970.269	3371
970.571	3358.57
970.872	3374.39
971.174	3309.08
971.475	3332.58
971.776	3310.89
972.077	3318.34
972.378	3298.46
972.679	3286.26
972.98	3259.14
973.281	3240.83
973.582	3229.99
973.883	3227.5
974.183	3180.72
974.484	3186.82
974.785	3149.08
975.085	3171.91
975.386	3083.55
975.686	3129.65
975.986	3108.63
976.287	3106.83
976.587	3051.69
976.887	3036.09
977.187	3050.33
977.487	3018.47
977.787	3026.6
978.087	3024.57
978.387	3017.79
978.687	3024.12
978.987	2983.44
979.286	2940.95
979.586	2955.19
979.885	2967.17
980.185	2936.89
980.484	2916.32
980.784	2923.1
981.083	2898.92
981.382	2879.03
981.682	2885.36
981.981	2835.19
982.28	2831.35
982.579	2791.13
982.878	2811.69
983.177	2779.15
983.475	2785.03
983.774	2761.75
984.073	2766.04
984.372	2759.94
984.67	2728.76
984.969	2721.75
985.267	2728.98
985.566	2704.8
985.864	2665.03
986.162	2657.57
986.461	2684.92
986.759	2651.47
987.057	2629.32
987.355	2586.61
987.653	2623
987.951	2593.39
988.249	2578.48
988.547	2621.19
988.844	2574.41
989.142	2554.52
989.44	2516.78
989.737	2507.97
990.035	2502.55
990.332	2507.52
990.63	2481.53
990.927	2464.58
991.224	2484.69
991.521	2459.84
991.819	2466.39
992.116	2462.1
992.413	2450.12
992.71	2417.35
993.006	2407.41
993.303	2370.8
993.6	2395.88
993.897	2362.89
994.193	2359.95
994.49	2370.57
994.787	2307.07
995.083	2331.48
995.379	2298.03
995.676	2289.45
995.972	2290.35
996.268	2269.11
996.565	2273.63
996.861	2244.93
997.157	2241.31
997.453	2250.12
997.749	2224.59
998.044	2204.48
998.34	2217.13
998.636	2186.4
998.932	2203.8
999.227	2166.74
999.523	2145.27
999.818	2157.25
1000.114	2159.51
1000.409	2140.97
1000.704	2113.63
1001	2102.78
1001.295	2074.08
1001.59	2085.61
1001.885	2058.27
1002.18	2064.37
1002.475	2071.15
1002.77	2053.07
1003.065	2054.88
1003.359	2022.11
1003.654	2003.58
1003.949	2005.16
1004.243	1985.72
1004.538	1988.66
1004.832	1962.67
1005.127	1927.65
1005.421	1946.63
1005.715	1912.28
1006.009	1920.19
1006.304	1906.18
1006.598	1920.19
1006.892	1861.21
1007.186	1877.93
1007.48	1873.41
1007.773	1829.34
1008.067	1850.13
1008.361	1817.37
1008.655	1815.56
1008.948	1786.86
1009.242	1843.13
1009.535	1789.57
1009.829	1788.89
1010.122	1755.45
1010.415	1752.51
1010.708	1754.09
1011.001	1739.86
1011.295	1745.28
1011.588	1712.06
1011.881	1687.88
1012.173	1695.34
1012.466	1692.17
1012.759	1656.92
1013.052	1695.79
1013.344	1670.48
1013.637	1652.4
1013.93	1644.26
1014.222	1644.72
1014.514	1615.34
1014.807	1609.69
1015.099	1613.08
1015.391	1628.22
1015.683	1565.85
1015.976	1585.96
1016.268	1561.1
1016.56	1536.02
1016.851	1527.88
1017.143	1546.41
1017.435	1524.49
1017.727	1508
1018.018	1492.18
1018.31	1477.72
1018.602	1490.6
1018.893	1460.54
1019.185	1467.55
1019.476	1471.84
1019.767	1456.92
1020.058	1425.74
1020.35	1446.53
1020.641	1412.18
1020.932	1417.15
1021.223	1395.68
1021.514	1380.54
1021.804	1343.71
1022.095	1406.3
1022.386	1397.27
1022.677	1341.9
1022.967	1341.67
1023.258	1355.46
1023.548	1364.95
1023.839	1328.34
1024.129	1308.68
1024.419	1301.45
1024.709	1315.23
1025	1308.45
1025.29	1304.16
1025.58	1271.39
1025.87	1280.88
1026.16	1261.68
1026.449	1260.55
1026.739	1254.44
1027.029	1229.13
1027.319	1241.34
1027.608	1199.53
1027.898	1202.47
1028.187	1187.78
1028.477	1192.3
1028.766	1188.01
1029.055	1158.18
1029.344	1180.32
1029.634	1187.78
1029.923	1165.86
1030.212	1137.61
1030.501	1159.76
1030.79	1142.13
1031.078	1105.3
1031.367	1121.79
1031.656	1114.34
1031.945	1098.52
1032.233	1096.71
1032.522	1099.42
1032.81	1100.32
1033.099	1066.65
1033.387	1069.14
1033.675	1072.53
1033.963	1068.91
1034.251	1082.7
1034.54	1043.6
1034.828	1015.81
1035.116	1046.54
1035.403	1048.57
1035.691	1023.72
1035.979	1025.07
1036.267	1014.45
1036.554	988.91
1036.842	1009.03
1037.129	1006.99
1037.417	976.71
1037.704	969.71
1037.992	950.05
1038.279	944.4
1038.566	958.63
1038.853	958.63
1039.14	958.63
