Data from hue_350_FLMS001491_74.txt Node
Date: Mon Feb 06 15:38:30 GMT 2017
User: dcchb
Spectrometer: FLMS00149
Trigger mode: 0
Integration Time (sec): 2.000000E-2
Scans to average: 10
Electric dark correction enabled: true
Nonlinearity correction enabled: false
Boxcar width: 0
XAxis mode: Wavelengths
Number of Pixels in Spectrum: 2048
>>>>>Begin Spectral Data<<<<<
341.393	-18.28
341.776	-18.28
342.16	-18.28
342.543	-52.63
342.927	-71.83
343.31	-74.77
343.693	-54.89
344.077	-70.93
344.46	-58.28
344.843	-60.31
345.226	-45.17
345.61	-41.55
345.993	-11.95
346.376	-10.14
346.759	20.82
347.142	21.95
347.525	42.96
347.908	62.17
348.291	80.25
348.674	87.03
349.057	112.79
349.44	147.14
349.823	134.26
350.206	158.89
350.588	169.52
350.971	220.81
351.354	220.36
351.737	240.47
352.119	258.78
352.502	253.35
352.884	263.07
353.267	280.02
353.65	298.1
354.032	292.22
354.414	269.17
354.797	309.62
355.179	326.57
355.562	321.6
355.944	329.06
356.326	324.99
356.709	312.11
357.091	339.91
357.473	333.35
357.855	332.9
358.238	329.96
358.62	332
359.002	326.35
359.384	324.99
359.766	336.52
360.148	335.61
360.53	337.87
360.912	353.24
361.294	322.96
361.676	347.36
362.057	308.95
362.439	351.21
362.821	319.79
363.203	337.19
363.584	338.78
363.966	332.45
364.348	328.83
364.729	328.61
365.111	309.4
365.493	313.01
365.874	308.72
366.256	335.16
366.637	317.99
367.019	303.52
367.4	328.61
367.781	305.78
368.163	329.29
368.544	296.07
368.925	317.76
369.306	316.63
369.688	332.45
370.069	306.23
370.45	321.6
370.831	287.93
371.212	304.43
371.593	291.55
371.974	298.78
372.355	312.11
372.736	319.12
373.117	311.88
373.498	310.3
373.879	305.78
374.26	281.38
374.641	320.25
375.021	285.44
375.402	323.64
375.783	333.58
376.163	325.22
376.544	313.47
376.925	303.52
377.305	321.38
377.686	332.9
378.066	305.56
378.447	328.16
378.827	329.74
379.208	318.21
379.588	330.19
379.968	325.44
380.349	325.67
380.729	321.15
381.109	328.38
381.489	316.63
381.87	329.74
382.25	337.65
382.63	336.74
383.01	340.13
383.39	339.23
383.77	340.81
384.15	350.3
384.53	332
384.91	326.35
385.29	338.1
385.67	357.53
386.049	334.26
386.429	340.36
386.809	355.95
387.189	346.46
387.568	346.46
387.948	347.14
388.328	360.7
388.707	362.05
389.087	341.49
389.466	359.34
389.846	356.86
390.225	344.2
390.605	356.18
390.984	339.45
391.363	348.27
391.743	348.95
392.122	346.91
392.501	353.47
392.881	345.1
393.26	337.42
393.639	355.05
394.018	386.91
394.397	361.6
394.776	371.32
395.155	367.93
395.534	368.61
395.913	377.87
396.292	364.76
396.671	353.01
397.05	365.22
397.429	380.58
397.808	347.82
398.186	367.93
398.565	356.86
398.944	375.39
399.323	371.54
399.701	374.93
400.08	385.78
400.458	360.24
400.837	386.01
401.215	359.79
401.594	387.14
401.972	352.11
402.351	384.2
402.729	378.32
403.107	397.53
403.486	377.19
403.864	389.62
404.242	421.71
404.62	411.54
404.999	415.84
405.377	394.82
405.755	387.14
406.133	407.7
406.511	422.39
406.889	379.23
407.267	416.97
407.645	423.75
408.023	407.93
408.401	432.79
408.779	444.99
409.156	427.59
409.534	411.32
409.912	423.07
410.29	421.94
410.667	434.14
411.045	439.34
411.422	442.95
411.8	445.21
412.178	452.22
412.555	467.81
412.933	446.8
413.31	460.36
413.687	444.76
414.065	461.26
414.442	456.74
414.819	448.6
415.197	471.43
415.574	482.73
415.951	481.15
416.328	484.54
416.705	473.46
417.082	487.02
417.46	481.82
417.837	491.31
418.214	482.73
418.591	480.92
418.967	489.51
419.344	491.09
419.721	499.9
420.098	504.87
420.475	506.23
420.852	511.88
421.228	499.45
421.605	534.03
421.982	514.59
422.358	496.06
422.735	519.11
423.111	501.71
423.488	552.78
423.864	542.39
424.241	555.72
424.617	538.55
424.994	548.26
425.37	547.13
425.746	532.67
426.123	546.45
426.499	548.71
426.875	568.83
427.251	563.86
427.627	560.01
428.003	557.53
428.379	586
428.756	567.7
429.132	606.11
429.507	601.37
429.883	600.69
430.259	608.6
430.635	604.31
431.011	592.78
431.387	609.73
431.763	603.4
432.138	610.63
432.514	626.9
432.89	641.37
433.265	626.68
433.641	628.49
434.016	649.73
434.392	661.93
434.767	652.21
435.143	650.18
435.518	696.06
435.894	689.05
436.269	689.5
436.644	692.21
437.02	676.39
437.395	680.24
437.77	687.69
438.145	689.95
438.52	725.88
438.895	734.47
439.271	720.91
439.646	737.64
440.021	721.14
440.395	737.18
440.77	700.35
441.145	754.58
441.52	753
441.895	758.88
442.27	762.95
442.645	732.89
443.019	732.66
443.394	757.75
443.769	777.41
444.143	758.43
444.518	774.02
444.892	761.59
445.267	761.36
445.641	803.17
446.016	781.7
446.39	754.58
446.764	799.78
447.139	768.37
447.513	790.97
447.887	808.37
448.262	828.48
448.636	789.84
449.01	805.88
449.384	826
449.758	818.31
450.132	829.38
450.506	828.03
450.88	835.71
451.254	845.43
451.628	844.3
452.002	853.34
452.376	873
452.75	869.38
453.123	862.15
453.497	857.41
453.871	870.97
454.244	875.94
454.618	872.1
454.992	897.63
455.365	887.24
455.739	933.79
456.112	920.46
456.486	938.53
456.859	929.27
457.232	943.28
457.606	942.38
457.979	970.17
458.352	971.53
458.725	966.33
459.099	993
459.472	988.93
459.845	982.83
460.218	1017.63
460.591	999.1
460.964	1003.39
461.337	1052.2
461.71	1043.62
462.083	1075.25
462.456	1053.56
462.829	1077.51
463.201	1080.9
463.574	1075.48
463.947	1098.76
464.32	1142.15
464.692	1121.35
465.065	1143.73
465.438	1118.19
465.81	1163.39
466.183	1186.89
466.555	1187.34
466.928	1192.54
467.3	1205.42
467.672	1195.93
468.045	1240.22
468.417	1239.77
468.789	1241.13
469.161	1255.14
469.534	1281.8
469.906	1297.62
470.278	1296.49
470.65	1321.8
471.022	1337.62
471.394	1373.55
471.766	1385.75
472.138	1371.97
472.51	1410.61
472.882	1442.7
473.253	1457.62
473.625	1489.48
473.997	1518.86
474.369	1507.79
474.74	1500.33
475.112	1546.2
475.484	1597.05
475.855	1617.39
476.227	1605.86
476.598	1669.36
476.97	1675.24
477.341	1672.98
477.713	1725.86
478.084	1733.99
478.455	1766.76
478.827	1766.76
479.198	1814.22
479.569	1869.81
479.94	1895.12
480.311	1921.56
480.682	1968.56
481.053	2019.18
481.424	2034.78
481.795	2066.41
482.166	2066.41
482.537	2088.79
482.908	2158.39
483.279	2168.11
483.65	2209.69
484.021	2240.2
484.391	2279.52
484.762	2285.39
485.133	2321.1
485.503	2375.11
485.874	2413.3
486.244	2427.76
486.615	2465.95
486.985	2506.63
487.356	2522.9
487.726	2565.16
488.097	2616.23
488.467	2605.16
488.837	2674.76
489.207	2716.34
489.578	2732.61
489.948	2763.35
490.318	2847.86
490.688	2845.15
491.058	2845.15
491.428	2926.73
491.798	2926.5
492.168	2986.84
492.538	2994.75
492.908	3067.52
493.278	3102.55
493.648	3087.4
494.017	3126.5
494.387	3156.33
494.757	3175.76
495.126	3209.89
495.496	3234.29
495.866	3260.06
496.235	3307.06
496.605	3318.13
496.974	3330.56
497.344	3389.32
497.713	3385.93
498.082	3422.54
498.452	3461.41
498.821	3476.77
499.19	3448.3
499.559	3531.23
499.928	3530.56
500.298	3555.64
500.667	3547.96
501.036	3557.22
501.405	3609.65
501.774	3620.05
502.143	3675.41
502.512	3659.37
502.88	3657.33
503.249	3663.66
503.618	3683.55
503.987	3734.17
504.356	3764.22
504.724	3785.24
505.093	3778.69
505.462	3831.11
505.83	3821.62
506.199	3828.18
506.567	3868.4
506.936	3861.85
507.304	3888.51
507.672	3890.1
508.041	3986.59
508.409	3933.48
508.777	3990.66
509.145	3963.54
509.514	3972.35
509.882	4035.63
510.25	4038.34
510.618	4071.11
510.986	4075.4
511.354	4114.04
511.722	4081.28
512.09	4156.53
512.458	4144.55
512.826	4175.96
513.193	4197.88
513.561	4163.31
513.929	4195.62
514.297	4226.81
514.664	4269.29
515.032	4291.67
515.4	4310.88
515.767	4271.33
516.135	4302.06
516.502	4265.68
516.869	4328.05
517.237	4331.89
517.604	4296.64
517.972	4364.21
518.339	4387.26
518.706	4385
519.073	4368.5
519.44	4446.01
519.808	4447.37
520.175	4446.92
520.542	4464.54
520.909	4457.76
521.276	4499.8
521.643	4534.15
522.009	4576.63
522.376	4539.8
522.743	4561.26
523.11	4609.17
523.477	4714.71
523.843	4683.29
524.21	4702.05
524.577	4744.08
524.943	4691.43
525.31	4741.82
525.676	4820.69
526.043	4847.58
526.409	4846
526.776	4872.22
527.142	4894.36
527.508	4937.07
527.874	4936.62
528.241	4977.52
528.607	4948.82
528.973	5048.26
529.339	5021.14
529.705	5039.22
530.071	5064.53
530.437	5094.13
530.803	5110.18
531.169	5128.25
531.535	5183.39
531.901	5200.57
532.267	5208.93
532.632	5266.56
532.998	5275.6
533.364	5280.12
533.73	5333.67
534.095	5345.88
534.461	5334.58
534.826	5328.93
535.192	5371.19
535.557	5446.66
535.923	5404.63
536.288	5421.58
536.653	5425.2
537.019	5470.84
537.384	5496.38
537.749	5550.39
538.114	5542.71
538.479	5588.13
538.845	5544.06
539.21	5532.31
539.575	5622.48
539.94	5566.21
540.305	5670.39
540.67	5707.22
541.034	5732.53
541.399	5781.57
541.764	5731.85
542.129	5801.01
542.494	5755.81
542.858	5827.67
543.223	5822.02
543.587	5868.12
543.952	5851.17
544.316	5928.01
544.681	5934.34
545.045	5906.31
545.41	5983.6
545.774	6014.11
546.138	6048.46
546.503	6078.74
546.867	5999.64
547.231	6135.69
547.595	6115.8
547.959	6101.34
548.324	6171.17
548.688	6136.82
549.052	6193.99
549.416	6196.7
549.779	6208.68
550.143	6238.06
550.507	6310.6
550.871	6272.63
551.235	6356.02
551.599	6358.73
551.962	6346.3
552.326	6352.4
552.689	6440.99
553.053	6383.82
553.417	6423.59
553.78	6548.1
554.143	6504.26
554.507	6478.5
554.87	6529.35
555.234	6536.13
555.597	6598.05
555.96	6577.26
556.323	6605.5
556.686	6615.45
557.05	6666.75
557.413	6627.65
557.776	6682.11
558.139	6737.48
558.502	6722.34
558.865	6765.05
559.228	6757.59
559.59	6805.27
559.953	6773.86
560.316	6866.06
560.679	6884.14
561.041	6927.08
561.404	6922.33
561.767	6954.65
562.129	6933.63
562.492	6991.93
562.854	6970.69
563.217	7002.33
563.579	7041.2
563.941	7081.65
564.304	7141.99
564.666	7160.97
565.028	7102.44
565.39	7148.99
565.753	7178.14
566.115	7272.15
566.477	7201.19
566.839	7264.47
567.201	7376.11
567.563	7337.24
567.925	7392.83
568.287	7411.13
568.648	7378.37
569.01	7433.73
569.372	7468.76
569.734	7498.81
570.095	7552.37
570.457	7526.38
570.819	7557.8
571.18	7591.92
571.542	7612.71
571.903	7723.22
572.265	7716.66
572.626	7792.59
572.987	7802.53
573.349	7823.1
573.71	7893.83
574.071	7938.35
574.432	7936.54
574.794	8023.55
575.155	8027.61
575.516	8077.33
575.877	8156.88
576.238	8208.17
576.599	8297.89
576.96	8370.43
577.32	8395.74
577.681	8492.46
578.042	8621.27
578.403	8576.98
578.763	8724.32
579.124	8814.71
579.485	8903.97
579.845	9024.65
580.206	9063.97
580.566	9157.08
580.927	9257.64
581.287	9408.59
581.648	9447.69
582.008	9593.9
582.368	9712.54
582.728	9863.95
583.089	9994.79
583.449	10126.77
583.809	10244.96
584.169	10447.66
584.529	10553.65
584.889	10807.88
585.249	10876.35
585.609	11027.99
585.969	11236.12
586.329	11479.73
586.688	11579.61
587.048	11794.75
587.408	12029.99
587.768	12216.2
588.127	12476.54
588.487	12559.02
588.846	12988.61
589.206	13014.38
589.565	13317.42
589.925	13468.37
590.284	13653
590.643	14116.49
591.003	14260.22
591.362	14562.36
591.721	14818.4
592.08	15066.98
592.44	15339.74
592.799	15585.16
593.158	15872.15
593.517	16018.59
593.876	16377
594.235	16611.79
594.593	16981.28
594.952	17247.71
595.311	17512.79
595.67	17859.45
596.029	18073.23
596.387	18392.76
596.746	18751.4
597.104	18945.74
597.463	19183.93
597.822	19606.29
598.18	19719.06
598.538	20045.83
598.897	20386.61
599.255	20590
599.613	21123.77
599.972	21200.6
600.33	21472.68
600.688	21748.16
601.046	22180.24
601.404	22467.01
601.762	22681.24
602.12	23031.29
602.478	23200.55
602.836	23563.7
603.194	23735.45
603.552	24009.57
603.91	24172.95
604.268	24560.96
604.625	24798.47
604.983	25176.77
605.341	25240.49
605.698	25616.08
606.056	25850.42
606.413	26054.26
606.771	26425.55
607.128	26585.32
607.485	26718.65
607.843	26842.03
608.2	27252.42
608.557	27545.07
608.914	27721.33
609.272	28164.03
609.629	28324.26
609.986	28613.29
610.343	28672.04
610.7	29048.76
611.057	29222.08
611.414	29399.71
611.771	29655.97
612.127	29776.42
612.484	29988.84
612.841	30236.3
613.198	30376.63
613.554	30582.95
613.911	30863.85
614.267	30991.3
614.624	31093.22
614.98	31382.03
615.337	31593.55
615.693	31638.97
616.05	31948.79
616.406	32109.47
616.762	32255
617.118	32375.45
617.475	32429.68
617.831	32675.78
618.187	32812.95
618.543	33031.7
618.899	33352.6
619.255	33393.73
619.611	33355.08
619.967	33633.49
620.323	33810.21
620.678	33753.94
621.034	33968.63
621.39	33956.2
621.746	33944.45
622.101	34441.83
622.457	34294.95
622.812	34510.31
623.168	34541.49
623.523	34757.08
623.879	35002.27
624.234	34833.46
624.589	34962.95
624.945	35099.44
625.3	35224.86
625.655	35142.38
626.01	35433.45
626.365	35515.25
626.72	35443.16
627.075	35538.3
627.43	35576.04
627.785	35561.58
628.14	35856.26
628.495	35891.06
628.85	36020.32
629.205	35858.29
629.559	36101.23
629.914	35993.88
630.269	35990.49
630.623	36020.55
630.978	36006.77
631.332	36176.25
631.687	36249.02
632.041	36180.09
632.396	36461.44
632.75	36237.95
633.104	36273.2
633.459	36235.23
633.813	36279.98
634.167	36264.39
634.521	36201.11
634.875	36314.78
635.229	36394.55
635.583	36185.07
635.937	36306.87
636.291	36355.91
636.645	36376.25
636.999	36435.68
637.352	36461.67
637.706	36280.2
638.06	36480.42
638.413	36287.44
638.767	36354.33
639.121	36356.36
639.474	36209.25
639.828	36318.17
640.181	36373.08
640.534	36384.61
640.888	36328.79
641.241	36206.99
641.594	36273.65
641.947	36396.81
642.301	36263.93
642.654	36328.79
643.007	36322.91
643.36	36208.79
643.713	36257.15
644.066	36254.44
644.419	36066.65
644.771	35912.08
645.124	35641.8
645.477	35587.34
645.83	35428.02
646.182	35260.12
646.535	35068.71
646.888	35322.49
647.24	35066.9
647.593	35264.86
647.945	35276.61
648.298	35039.78
648.65	35082.95
649.002	34902.16
649.355	35119.1
649.707	35171.98
650.059	35113
650.411	35606.55
650.763	35604.06
651.115	35971.74
651.467	36002.25
651.819	36019.42
652.171	35923.15
652.523	35815.58
652.875	35817.39
653.227	35745.53
653.578	35935.58
653.93	35869.37
654.282	35696.72
654.633	35750.05
654.985	35824.62
655.337	35742.14
655.688	35698.07
656.039	35869.59
656.391	35543.5
656.742	35634.35
657.094	35593.22
657.445	35785.98
657.796	35798.86
658.147	35665.53
658.498	35601.13
658.849	35745.3
659.2	35646.1
659.551	35588.47
659.902	35692.65
660.253	35724.96
660.604	35644.06
660.955	35506.21
661.306	35526.33
661.656	35540.11
662.007	35510.28
662.358	35584.18
662.708	35602.03
663.059	35566.55
663.409	35204.75
663.76	35600
664.11	35551.18
664.461	35560.9
664.811	35550.28
665.161	35537.17
665.511	35466.44
665.862	35464.18
666.212	35525.65
666.562	35511.86
666.912	35533.33
667.262	35387.35
667.612	35585.53
667.962	35613.56
668.312	35405.42
668.662	35484.74
669.011	35614.46
669.361	35478.64
669.711	35471.86
670.06	35310.06
670.41	35368.82
670.76	35317.52
671.109	35433.22
671.459	35313
671.808	35324.07
672.157	35407.68
672.507	35085.89
672.856	35182.15
673.205	35236.84
673.554	35292.21
673.904	35175.15
674.253	35507.34
674.602	35285.65
674.951	34855.38
675.3	34557.99
675.649	35226.67
675.998	35095.83
676.346	35066.45
676.695	35367.01
677.044	35038.43
677.393	35054.47
677.741	35162.04
678.09	34883.86
678.438	34990.75
678.787	35117.75
679.135	35041.82
679.484	34838.89
679.832	34932.44
680.181	34802.28
680.529	34895.16
680.877	34775.39
681.225	34750.75
681.573	34821.71
681.922	34599.34
682.27	34651.32
682.618	34655.84
682.966	34522.06
683.314	34645.44
683.661	34425.11
684.009	34439.57
684.357	34189.41
684.705	34224.44
685.053	34357.54
685.4	34089.98
685.748	34006.59
686.095	34040.49
686.443	33888.18
686.79	33925.46
687.138	34030.55
687.485	33985.8
687.832	33771.57
688.18	33785.35
688.527	33558.47
688.874	33531.12
689.221	33516.89
689.568	33457.68
689.915	33477.34
690.262	33359.38
690.609	33340.39
690.956	33195.77
691.303	33240.28
691.65	33073.06
691.997	33024.92
692.344	32795.32
692.69	32865.6
693.037	32860.86
693.383	32511.49
693.73	32750.35
694.077	32443.92
694.423	32523.01
694.769	32427.88
695.116	32381.78
695.462	32232.85
695.808	32275.79
696.155	32178.62
696.501	32121.44
696.847	32063.14
697.193	31808.23
697.539	31915.8
697.885	31769.14
698.231	31577.05
698.577	31689.82
698.923	31586.99
699.269	31375.02
699.614	31222.94
699.96	31244.4
700.306	31208.47
700.651	31198.53
700.997	30962.15
701.342	30972.1
701.688	30883.74
702.033	30835.38
702.379	30695.72
702.724	30690.75
703.069	30705.44
703.415	30414.14
703.76	30381.6
704.105	30312
704.45	30410.53
704.795	30104.1
705.14	30079.01
705.485	30118.56
705.83	30003.31
706.175	30050.09
706.52	29972.8
706.865	29864.78
707.209	29730.09
707.554	29580.04
707.899	29718.12
708.243	29497.78
708.588	29638.57
708.932	29291.69
709.277	29228.64
709.621	29332.14
709.966	29098.92
710.31	29135.76
710.654	28824.58
710.998	29032.26
711.342	28996.55
711.687	28927.18
712.031	28771.48
712.375	28856.44
712.719	28729.22
713.063	28705.49
713.407	28842.89
713.75	28623.68
714.094	28682.66
714.438	28489.67
714.782	28483.12
715.125	28341.2
715.469	28360.41
715.812	28204.26
716.156	28103.24
716.499	28102.79
716.843	28124.03
717.186	27962.46
717.53	28132.17
717.873	28126.75
718.216	28028.44
718.559	27846.98
718.902	27776.25
719.246	27792.52
719.589	27695.8
719.932	27548.91
720.275	27538.97
720.617	27501
720.96	27468.01
721.303	27447.89
721.646	27407.67
721.989	27266.66
722.331	27490.6
722.674	27129.71
723.016	27351.85
723.359	27300.78
723.701	27196.15
724.044	27000.22
724.386	27022.14
724.729	27034.35
725.071	26961.35
725.413	26931.07
725.755	27003.39
726.097	26861.92
726.439	26785.31
726.782	26675.26
727.124	26719.78
727.465	26705.99
727.807	26628.25
728.149	26546
728.491	26494.47
728.833	26654.24
729.175	26414.25
729.516	26375.38
729.858	26338.32
730.199	26471.42
730.541	26331.54
730.882	26235.5
731.224	26320.01
731.565	26170.87
731.906	26172
732.248	26101.26
732.589	25901.49
732.93	26012.9
733.271	25948.72
733.612	25981.94
733.953	25978.1
734.294	25907.82
734.635	25781.5
734.976	25902.62
735.317	25749.18
735.658	25730.88
735.999	25736.07
736.339	25601.16
736.68	25720.48
737.021	25601.61
737.361	25573.82
737.702	25676.19
738.042	25608.17
738.383	25461.05
738.723	25553.48
739.063	25438.91
739.404	25479.58
739.744	25398.46
740.084	25233.04
740.424	25261.96
740.764	25283.88
741.104	25379.02
741.444	25164.34
741.784	25047.96
742.124	25134.73
742.464	25112.36
742.804	25005.7
743.143	25017.9
743.483	25016.77
743.823	24845.02
744.162	24835.31
744.502	24982.87
744.841	24797.12
745.181	24904.91
745.52	24775.42
745.86	24662.88
746.199	24568.87
746.538	24610.91
746.877	24616.1
747.216	24707.4
747.556	24569.78
747.895	24666.95
748.234	24399.84
748.573	24454.3
748.911	24286.17
749.25	24514.41
749.589	24350.57
749.928	24325.94
750.267	24371.82
750.605	24281.88
750.944	24208.66
751.283	24090.69
751.621	24115.78
751.96	24078.72
752.298	24017.7
752.636	24038.04
752.975	24088.21
753.313	23784.94
753.651	23946.52
753.989	23800.31
754.327	23824.03
754.666	23649.12
755.004	23623.14
755.342	23683.93
755.679	23612.97
756.017	23549.69
756.355	23502.24
756.693	23334.1
757.031	23489.13
757.368	23261.56
757.706	23288.46
758.044	23231.73
758.381	23204.39
758.719	23139.98
759.056	23184.96
759.394	23021.8
759.731	22825.64
760.068	22877.84
760.405	22803.72
760.743	22873.78
761.08	22826.09
761.417	22630.17
761.754	22693.67
762.091	22628.81
762.428	22518.98
762.765	22394.69
763.102	22416.84
763.438	22257.97
763.775	22202.16
764.112	22141.14
764.449	22148.82
764.785	22108.37
765.122	22011.88
765.458	21794.71
765.795	21849.85
766.131	21723.75
766.467	21787.48
766.804	21605.56
767.14	21618.89
767.476	21584.09
767.812	21448.05
768.148	21480.14
768.485	21289.41
768.821	21186.59
769.157	21195.4
769.492	21164.67
769.828	21059.59
770.164	20932.81
770.5	20926.26
770.836	20888.97
771.171	20789.76
771.507	20715.19
771.842	20582.54
772.178	20646.72
772.513	20518.13
772.849	20443.78
773.184	20386.61
773.519	20281.08
773.855	20171.93
774.19	20179.84
774.525	20060.74
774.86	20078.37
775.195	20037.02
775.53	20002.89
775.865	19840.18
776.2	19639.74
776.535	19517.48
776.87	19459.63
777.205	19582.56
777.539	19378.28
777.874	19439.07
778.209	19247.43
778.543	19204.04
778.878	19128.34
779.212	19112.97
779.547	18981.68
779.881	19006.76
780.215	18840.44
780.55	18927.89
780.884	18701.91
781.218	18692.87
781.552	18757.05
781.886	18535.13
782.22	18489.26
782.554	18442.26
782.888	18346.44
783.222	18237.97
783.556	18174.24
783.889	17966.79
784.223	18048.14
784.557	17912.78
784.89	18030.51
785.224	17874.81
785.557	17807.92
785.891	17783.06
786.224	17624.42
786.558	17673.24
786.891	17549.17
787.224	17555.95
787.557	17426.69
787.891	17417.65
788.224	17477.53
788.557	17434.15
788.89	17294.71
789.223	17251.33
789.556	17220.37
789.888	17078.9
790.221	16960.03
790.554	16927.72
790.887	16907.38
791.219	16805.69
791.552	16704
791.884	16727.72
792.217	16588.74
792.549	16532.47
792.882	16501.97
793.214	16370.22
793.546	16358.69
793.879	16293.16
794.211	16244.57
794.543	16311.92
794.875	16171.35
795.207	16254.74
795.539	16125.71
795.871	16116.21
796.203	15965.03
796.535	15869.44
796.867	15860.63
797.198	15788.54
797.53	15847.75
797.862	15707.19
798.193	15727.07
798.525	15598.26
798.856	15650.46
799.188	15508.32
799.519	15441.66
799.85	15267.88
800.182	15385.39
800.513	15326.63
800.844	15180.65
801.175	15314.65
801.506	15248.21
801.837	15092.06
802.168	15064.49
802.499	15025.62
802.83	14941.78
803.161	14952.18
803.491	14888.9
803.822	14956.7
804.153	14859.75
804.483	14739.08
804.814	14693.65
805.145	14618.85
805.475	14669.25
805.805	14633.54
806.136	14545.18
806.466	14591.06
806.796	14501.79
807.126	14349.93
807.457	14339.76
807.787	14320.56
808.117	14350.61
808.447	14270.39
808.777	14351.74
809.107	14279.2
809.436	14163.72
809.766	14170.5
810.096	14062.48
810.426	13991.98
810.755	14113.56
811.085	13928.93
811.414	14001.47
811.744	13845.54
812.073	13840.34
812.403	13813.68
812.732	13726.22
813.061	13758.54
813.39	13691.65
813.719	13664.98
814.049	13666.56
814.378	13562.38
814.707	13587.69
815.036	13565.55
815.365	13511.09
815.693	13352.9
816.022	13303.41
816.351	13331.43
816.68	13217.99
817.008	13313.35
817.337	13216.86
817.665	13261.37
817.994	13297.08
818.322	13231.32
818.651	13105.9
818.979	13019.12
819.307	13177.76
819.636	13001.27
819.964	13038.1
820.292	13031.32
820.62	12945
820.948	12939.35
821.276	12962.4
821.604	12909.75
821.932	12958.11
822.259	12883.31
822.587	12880.59
822.915	12974.15
823.243	12984.77
823.57	12922.63
823.898	12953.36
824.225	12917.43
824.553	12855.74
824.88	12897.09
825.207	12920.14
825.535	12878.11
825.862	12946.81
826.189	12821.16
826.516	12919.01
826.843	12890.08
827.17	12922.4
827.497	12928.73
827.824	12895.51
828.151	12928.95
828.478	12919.01
828.805	12884.44
829.131	12814.15
829.458	12765.57
829.785	12830.43
830.111	12823.65
830.438	12878.79
830.764	12870.42
831.09	12860.03
831.417	12775.06
831.743	12856.41
832.069	12788.84
832.395	12789.07
832.722	12825.45
833.048	12759.69
833.374	12801.73
833.7	12722.41
834.026	12688.06
834.351	12728.06
834.677	12748.17
835.003	12773.25
835.329	12618
835.654	12707.04
835.98	12639.7
836.306	12596.99
836.631	12654.61
836.956	12627.04
837.282	12601.05
837.607	12582.3
837.932	12460.27
838.258	12554.73
838.583	12544.78
838.908	12446.93
839.233	12429.98
839.558	12404.9
839.883	12353.15
840.208	12365.35
840.533	12413.49
840.858	12390.44
841.182	12344.11
841.507	12378.69
841.832	12342.98
842.156	12244.23
842.481	12209.88
842.805	12175.75
843.13	12163.32
843.454	12212.14
843.778	12001.75
844.103	12064.12
844.427	12070.9
844.751	12058.24
845.075	11993.16
845.399	12005.59
845.723	11911.35
846.047	11946.38
846.371	11771.7
846.695	11775.54
847.019	11776.89
847.343	11588.2
847.666	11661.42
847.99	11575.77
848.313	11514.98
848.637	11458.94
848.96	11502.78
849.284	11440.86
849.607	11338.94
849.931	11353.18
850.254	11307.08
850.577	11230.69
850.9	11203.58
851.223	11087.19
851.546	11082.67
851.869	11057.59
852.192	11033.64
852.515	10948.44
852.838	10886.75
853.161	10959.74
853.483	10826.86
853.806	10811.04
854.129	10759.29
854.451	10708.67
854.774	10716.58
855.096	10620.99
855.419	10661.67
855.741	10595.68
856.063	10477.04
856.385	10509.81
856.708	10503.71
857.03	10496.25
857.352	10469.58
857.674	10417.38
857.996	10391.85
858.318	10280.44
858.64	10366.31
858.961	10314.11
859.283	10195.01
859.605	10179.87
859.926	10223.26
860.248	10191.4
860.57	10159.08
860.891	10178.29
861.212	10103.27
861.534	10110.5
861.855	10034.34
862.176	10028.01
862.498	10086.32
862.819	10011.06
863.14	9944.63
863.461	9976.49
863.782	9884.51
864.103	9872.76
864.424	9845.87
864.745	9866.66
865.065	9838.19
865.386	9857.85
865.707	9786.66
866.027	9822.37
866.348	9767.68
866.668	9804.06
866.989	9723.39
867.309	9700.34
867.63	9686.78
867.95	9679.32
868.27	9662.83
868.59	9704.18
868.91	9631.87
869.23	9704.18
869.55	9630.51
869.87	9650.4
870.19	9590.74
870.51	9633.45
870.83	9565.65
871.15	9520
871.469	9500.57
871.789	9490.4
872.109	9536.5
872.428	9425.32
872.748	9433.23
873.067	9460.34
873.386	9402.72
873.706	9494.47
874.025	9366.34
874.344	9373.12
874.663	9387.8
874.982	9326.34
875.301	9333.79
875.62	9304.64
875.939	9281.37
876.258	9244.08
876.577	9249.73
876.896	9266.45
877.214	9177.87
877.533	9224.19
877.852	9223.29
878.17	9129.73
878.489	9156.17
878.807	9226.9
879.125	9131.09
879.444	9135.61
879.762	9124.76
880.08	9122.5
880.398	9089.28
880.716	9109.39
881.034	9043.63
881.352	9031.2
881.67	8986.23
881.988	9012.67
882.306	8971.77
882.624	8968.15
882.941	8932.67
883.259	8933.58
883.577	8841.83
883.894	8866.46
884.212	8832.79
884.529	8796.63
884.846	8811.1
885.164	8803.41
885.481	8790.76
885.798	8825.78
886.115	8721.83
886.432	8645.22
886.75	8668.95
887.067	8714.15
887.383	8641.16
887.7	8661.27
888.017	8584.66
888.334	8604.1
888.651	8534.04
888.967	8572.91
889.284	8509.18
889.6	8427.6
889.917	8407.26
890.233	8487.49
890.55	8358.68
890.866	8416.98
891.182	8358.45
891.498	8353.03
891.815	8360.94
892.131	8284.78
892.447	8237.78
892.763	8190.55
893.079	8128.63
893.395	8160.49
893.71	8201.17
894.026	8186.71
894.342	8098.12
894.657	8078.69
894.973	8040.04
895.289	8049.31
895.604	8053.6
895.92	7992.36
896.235	7988.74
896.55	7954.62
896.865	7918.92
897.181	7892.93
897.496	7969.54
897.811	7875.53
898.126	7825.36
898.441	7830.78
898.756	7818.81
899.071	7708.53
899.386	7720.28
899.7	7657
900.015	7616.55
900.33	7548.98
900.644	7601.18
900.959	7570.9
901.273	7535.42
901.588	7513.28
901.902	7446.61
902.216	7486.16
902.531	7453.84
902.845	7460.62
903.159	7311.25
903.473	7304.92
903.787	7258.59
904.101	7262.89
904.415	7283.68
904.729	7224.02
905.042	7226.5
905.356	7190.57
905.67	7159.16
905.984	7213.85
906.297	7116.23
906.611	7124.13
906.924	7093.18
907.237	7035.55
907.551	7008.21
907.864	7016.57
908.177	6917.13
908.491	6905.61
908.804	6924.82
909.117	6852.96
909.43	6798.95
909.743	6810.02
910.056	6806.4
910.368	6804.37
910.681	6749.91
910.994	6710.13
911.307	6713.3
911.619	6647.99
911.932	6656.58
912.244	6597.14
912.557	6597.82
912.869	6578.61
913.181	6539.07
913.494	6503.36
913.806	6475.56
914.118	6421.55
914.43	6435.57
914.742	6426.98
915.054	6371.16
915.366	6400.99
915.678	6306.53
915.99	6289.35
916.302	6257.72
916.613	6230.15
916.925	6267.66
917.236	6203.48
917.548	6169.58
917.859	6133.43
918.171	6128.23
918.482	6134.1
918.794	6053.65
919.105	5967.1
919.416	6009.59
919.727	5993.54
920.038	5965.97
920.349	5931.4
920.66	5910.16
920.971	5946.76
921.282	5834.23
921.593	5815.47
921.903	5743.15
922.214	5821.8
922.525	5808.69
922.835	5792.19
923.146	5714.91
923.456	5709.03
923.767	5726.66
924.077	5633.55
924.387	5612.31
924.697	5586.1
925.008	5554.68
925.318	5558.3
925.628	5573.22
925.938	5512.2
926.248	5449.83
926.558	5482.14
926.867	5454.8
927.177	5412.09
927.487	5366.67
927.796	5364.86
928.106	5303.17
928.416	5319.66
928.725	5330.96
929.034	5278.53
929.344	5320.34
929.653	5250.51
929.962	5236.5
930.271	5201.7
930.581	5123.28
930.89	5127.8
931.199	5085.77
931.508	5079.44
931.817	5052.55
932.125	5089.61
932.434	5053.91
932.743	5031.99
933.051	4989.5
933.36	4958.09
933.669	4928.03
933.977	4937.3
934.286	4947.69
934.594	4905.89
934.902	4845.78
935.21	4837.64
935.519	4804.65
935.827	4838.77
936.135	4761.48
936.443	4736.85
936.751	4751.32
937.059	4773.69
937.367	4699.11
937.674	4725.33
937.982	4671.54
938.29	4660.02
938.597	4633.58
938.905	4625.9
939.213	4581.6
939.52	4549.06
939.827	4540.47
940.135	4552.45
940.442	4508.16
940.749	4496.63
941.056	4496.86
941.363	4443.08
941.67	4488.05
941.977	4408.05
942.284	4432.23
942.591	4425.22
942.898	4335.73
943.205	4314.27
943.511	4330.31
943.818	4284.89
944.125	4207.83
944.431	4252.12
944.738	4264.55
945.044	4210.09
945.35	4212.57
945.657	4185.91
945.963	4232.23
946.269	4156.98
946.575	4130.77
946.881	4139.13
947.187	4126.47
947.493	4122.63
947.799	4091.45
948.105	4071.11
948.41	3996.53
948.716	4039.7
949.022	4006.02
949.327	4008.28
949.633	3951.79
949.938	3969.42
950.244	3960.38
950.549	3873.37
950.854	3906.37
951.16	3928.29
951.465	3869.08
951.77	3845.12
952.075	3836.31
952.38	3795.41
952.685	3827.5
952.99	3813.04
953.294	3787.73
953.599	3741.17
953.904	3729.65
954.209	3710.89
954.513	3723.77
954.818	3693.94
955.122	3702.3
955.426	3623.44
955.731	3648.07
956.035	3627.73
956.339	3617.11
956.643	3610.1
956.948	3587.96
957.252	3567.39
957.556	3555.64
957.86	3527.39
958.163	3535.3
958.467	3476.1
958.771	3493.72
959.075	3481.74
959.378	3444.68
959.682	3471.12
959.985	3440.62
960.289	3437.45
960.592	3373.95
960.896	3400.39
961.199	3354.06
961.502	3361.52
961.805	3339.83
962.108	3325.82
962.411	3321.52
962.714	3274.74
963.017	3307.74
963.32	3276.55
963.623	3268.42
963.926	3264.8
964.228	3223.45
964.531	3266.61
964.833	3211.92
965.136	3184.8
965.438	3193.16
965.741	3165.59
966.043	3145.26
966.345	3129.66
966.648	3093.05
966.95	3086.27
967.252	3110.23
967.554	3101.64
967.856	3052.15
968.158	3044.47
968.46	3075.88
968.761	3054.86
969.063	3027.29
969.365	2990.46
969.666	3049.67
969.968	2955.43
970.269	2983.23
970.571	2970.12
970.872	2922.44
971.174	2951.14
971.475	2937.13
971.776	2936
972.077	2889.9
972.378	2908.43
972.679	2873.17
972.98	2876.34
973.281	2825.72
973.582	2856.45
973.883	2835.89
974.183	2804.25
974.484	2797.24
974.785	2766.06
975.085	2754.08
975.386	2751.82
975.686	2743.68
975.986	2773.97
976.287	2747.98
976.587	2714.76
976.887	2678.6
977.187	2656.46
977.487	2668.21
977.787	2630.69
978.087	2640.64
978.387	2653.29
978.687	2611.49
978.987	2617.81
979.286	2635.21
979.586	2611.26
979.885	2618.94
980.185	2536.68
980.484	2568.1
980.784	2544.14
981.083	2544.37
981.382	2543.69
981.682	2533.07
981.981	2480.42
982.28	2493.07
982.579	2489.68
982.878	2450.13
983.177	2448.55
983.475	2472.96
983.774	2437.48
984.073	2439.51
984.372	2416.91
984.67	2409.23
984.969	2408.78
985.267	2394.09
985.566	2401.77
985.864	2388.44
986.162	2405.84
986.461	2366.97
986.759	2303.02
987.057	2334.88
987.355	2307.76
987.653	2280.87
987.951	2304.83
988.249	2319.97
988.547	2287.88
988.844	2268.22
989.142	2247.43
989.44	2226.18
989.737	2230.93
990.035	2222.12
990.332	2228.44
990.63	2204.94
990.927	2219.4
991.224	2187.09
991.521	2167.43
991.819	2139.18
992.116	2130.59
992.413	2164.72
992.71	2133.08
993.006	2122.68
993.303	2104.15
993.6	2109.58
993.897	2121.78
994.193	2122.23
994.49	2079.07
994.787	2104.61
995.083	2068.67
995.379	2046.3
995.676	2023.48
995.972	2020.77
996.268	2019.86
996.565	2016.47
996.861	2014.66
997.157	1967.43
997.453	2016.47
997.749	1971.95
998.044	1992.07
998.34	1943.03
998.636	1946.42
998.932	1944.16
999.227	1932.63
999.523	1905.97
999.818	1903.48
1000.114	1893.54
1000.409	1887.21
1000.704	1898.51
1001	1859.87
1001.295	1841.11
1001.59	1841.79
1001.885	1824.16
1002.18	1845.4
1002.475	1826.19
1002.77	1810.15
1003.065	1817.83
1003.359	1806.08
1003.654	1799.08
1003.949	1778.74
1004.243	1766.76
1004.538	1750.49
1004.832	1767.67
1005.127	1711.62
1005.421	1730.38
1005.715	1751.17
1006.009	1740.55
1006.304	1713.2
1006.598	1667.78
1006.892	1672.75
1007.186	1673.43
1007.48	1641.57
1007.773	1654
1008.067	1640.66
1008.361	1669.36
1008.655	1610.83
1008.948	1636.14
1009.242	1605.18
1009.535	1594.79
1009.829	1577.39
1010.122	1576.03
1010.415	1549.37
1010.708	1539.65
1011.001	1524.51
1011.295	1533.55
1011.588	1558.63
1011.881	1532.64
1012.173	1544.85
1012.466	1500.78
1012.759	1492.19
1013.052	1491.51
1013.344	1465.07
1013.637	1477.73
1013.93	1476.37
1014.222	1482.48
1014.514	1427.34
1014.807	1460.33
1015.099	1447.22
1015.391	1415.36
1015.683	1406.77
1015.976	1426.43
1016.268	1429.82
1016.56	1400.67
1016.851	1389.37
1017.143	1357.73
1017.435	1351.63
1017.727	1356.15
1018.018	1357.51
1018.31	1340.33
1018.602	1344.85
1018.893	1358.41
1019.185	1345.53
1019.476	1323.61
1019.767	1325.87
1020.058	1305.08
1020.35	1285.42
1020.641	1264.18
1020.932	1289.94
1021.223	1241.58
1021.514	1261.69
1021.804	1265.08
1022.095	1223.5
1022.386	1226.89
1022.677	1232.31
1022.967	1229.83
1023.258	1232.31
1023.548	1214.91
1023.839	1206.78
1024.129	1210.39
1024.419	1184.63
1024.709	1174.91
1025	1146.44
1025.29	1142.82
1025.58	1167
1025.87	1157.74
1026.16	1132.88
1026.449	1145.31
1026.739	1141.24
1027.029	1115.93
1027.319	1105.99
1027.608	1096.72
1027.898	1087.01
1028.187	1075.93
1028.477	1088.14
1028.766	1098.08
1029.055	1059.44
1029.344	1082.71
1029.634	1041.13
1029.923	1056.27
1030.212	1029.38
1030.501	1041.81
1030.79	1043.84
1031.078	1036.84
1031.367	1042.71
1031.656	1011.53
1031.945	1011.53
1032.233	997.74
1032.522	1002.26
1032.81	981.02
1033.099	974.47
1033.387	968.14
1033.675	1000
1033.963	980.34
1034.251	970.17
1034.54	950.06
1034.828	953
1035.116	931.53
1035.403	938.76
1035.691	913.68
1035.979	925.43
1036.267	924.07
1036.554	901.02
1036.842	911.64
1037.129	918.42
1037.417	900.8
1037.704	901.93
1037.992	897.63
1038.279	873
1038.566	883.62
1038.853	883.62
1039.14	883.62
