Data from hue_24_FLMS001491_00031.txt Node
Date: Tue Feb 07 17:12:10 GMT 2017
User: dcchb
Spectrometer: FLMS00149
Trigger mode: 0
Integration Time (sec): 2.000000E-2
Scans to average: 10
Electric dark correction enabled: true
Nonlinearity correction enabled: false
Boxcar width: 0
XAxis mode: Wavelengths
Number of Pixels in Spectrum: 2048
>>>>>Begin Spectral Data<<<<<
341.393	-7.19
341.776	-7.19
342.16	-7.19
342.543	-57.36
342.927	-69.33
343.31	-73.18
343.693	-56
344.077	-57.36
344.46	-64.36
344.843	-35.66
345.226	-35.44
345.61	-24.36
345.993	-13.74
346.376	-7.19
346.759	2.3
347.142	26.26
347.525	34.84
347.908	55.86
348.291	62.19
348.674	75.07
349.057	110.77
349.44	136.76
349.823	146.71
350.206	178.34
350.588	197.55
350.971	186.25
351.354	241.62
351.737	258.11
352.119	240.04
352.502	273.26
352.884	267.83
353.267	277.1
353.65	294.5
354.032	302.63
354.414	309.41
354.797	301.73
355.179	336.3
355.562	340.15
355.944	338.11
356.326	329.75
356.709	346.93
357.091	332.69
357.473	346.02
357.855	337.66
358.238	333.37
358.62	331.56
359.002	340.6
359.384	360.94
359.766	339.92
360.148	341.28
360.53	334.5
360.912	329.53
361.294	348.73
361.676	338.11
362.057	340.82
362.439	332.69
362.821	346.47
363.203	353.03
363.584	314.84
363.966	320.03
364.348	336.98
364.729	326.14
365.111	313.71
365.493	334.95
365.874	327.27
366.256	315.74
366.637	339.69
367.019	320.03
367.4	300.37
367.781	311.9
368.163	321.62
368.544	308.51
368.925	305.35
369.306	321.39
369.688	325.68
370.069	313.25
370.45	322.29
370.831	332.46
371.212	329.3
371.593	320.49
371.974	317.55
372.355	332.46
372.736	322.07
373.117	334.95
373.498	328.17
373.879	342.41
374.26	316.19
374.641	331.11
375.021	332.91
375.402	333.59
375.783	339.92
376.163	341.05
376.544	355.51
376.925	324.1
377.305	333.37
377.686	333.82
378.066	332.24
378.447	333.37
378.827	339.02
379.208	334.5
379.588	328.4
379.968	332.69
380.349	339.92
380.729	343.54
381.109	332.91
381.489	328.4
381.87	345.57
382.25	359.35
382.63	350.09
383.01	350.09
383.39	362.07
383.77	348.73
384.15	336.08
384.53	348.51
384.91	355.51
385.29	376.98
385.67	356.64
386.049	354.38
386.429	362.97
386.809	356.64
387.189	363.2
387.568	361.61
387.948	350.32
388.328	377.89
388.707	373.37
389.087	347.38
389.466	362.29
389.846	376.76
390.225	391.67
390.605	374.95
390.984	393.7
391.363	386.02
391.743	369.75
392.122	393.7
392.501	371.56
392.881	381.5
393.26	412.23
393.639	380.37
394.018	396.42
394.397	385.34
394.776	398.22
395.155	397.77
395.534	387.6
395.913	390.99
396.292	405.91
396.671	384.44
397.05	381.95
397.429	409.3
397.808	399.81
398.186	407.94
398.565	399.58
398.944	392.8
399.323	414.27
399.701	435.51
400.08	396.64
400.458	403.65
400.837	419.92
401.215	425.34
401.594	421.27
401.972	426.47
402.351	422.18
402.729	437.77
403.107	410.65
403.486	423.53
403.864	455.17
404.242	423.53
404.62	438
404.999	437.09
405.377	439.8
405.755	450.43
406.133	450.2
406.511	440.03
406.889	461.27
407.267	436.42
407.645	454.72
408.023	459.01
408.401	433.7
408.779	455.4
409.156	452.69
409.534	449.52
409.912	455.62
410.29	473.48
410.667	484.1
411.045	480.26
411.422	452.46
411.8	464.66
412.178	507.83
412.555	511.89
412.933	501.72
413.31	489.07
413.687	525.23
414.065	494.72
414.442	506.7
414.819	508.73
415.197	516.19
415.574	520.48
415.951	533.14
416.328	508.5
416.705	516.64
417.082	528.16
417.46	539.69
417.837	530.65
418.214	536.75
418.591	539.24
418.967	527.71
419.344	544.89
419.721	538.56
420.098	545.56
420.475	559.58
420.852	562.06
421.228	565.9
421.605	571.55
421.982	590.54
422.358	552.57
422.735	563.64
423.111	589.18
423.488	580.59
423.864	562.51
424.241	595.73
424.617	598.44
424.994	595.51
425.37	602.96
425.746	605.68
426.123	600.25
426.499	606.13
426.875	621.95
427.251	607.71
427.627	660.82
428.003	620.82
428.379	635.73
428.756	629.86
429.132	645
429.507	640.48
429.883	642.51
430.259	672.12
430.635	656.97
431.011	660.14
431.387	667.14
431.763	680.25
432.138	697.2
432.514	699.46
432.89	712.11
433.265	715.05
433.641	713.7
434.016	716.86
434.392	744.2
434.767	717.31
435.143	716.86
435.518	740.59
435.894	739.46
436.269	751.89
436.644	747.59
437.02	754.15
437.395	766.35
437.77	788.5
438.145	790.98
438.52	781.04
438.895	789.85
439.271	779.68
439.646	812.22
440.021	822.39
440.395	814.94
440.77	831.88
441.145	823.75
441.52	815.61
441.895	828.72
442.27	827.82
442.645	849.06
443.019	847.48
443.394	843.41
443.769	860.13
444.143	880.47
444.518	855.39
444.892	873.01
445.267	894.71
445.641	889.06
446.016	898.32
446.39	888.83
446.764	899.68
447.139	925.67
447.513	890.41
447.887	927.48
448.262	916.63
448.636	939.68
449.01	937.19
449.384	945.55
449.758	963.41
450.132	946.91
450.506	932.9
450.88	954.59
451.254	977.87
451.628	986.91
452.002	965.67
452.376	1010.19
452.75	999.56
453.123	1000.02
453.497	1010.86
453.871	1033.01
454.244	1045.89
454.618	1044.99
454.992	1051.09
455.365	1054.7
455.739	1085.44
456.112	1078.66
456.486	1107.36
456.859	1095.15
457.232	1108.04
457.606	1119.56
457.979	1149.16
458.352	1173.57
458.725	1153.46
459.099	1161.37
459.472	1183.51
459.845	1188.49
460.218	1213.34
460.591	1212.44
460.964	1233.46
461.337	1249.73
461.71	1276.62
462.083	1251.53
462.456	1323.17
462.829	1296.51
463.201	1301.7
463.574	1288.37
463.947	1319.56
464.32	1375.37
464.692	1383.28
465.065	1371.53
465.438	1425.09
465.81	1397.97
466.183	1424.86
466.555	1485.65
466.928	1458.08
467.3	1452.21
467.672	1485.65
468.045	1522.04
468.417	1526.78
468.789	1555.26
469.161	1571.3
469.534	1599.32
469.906	1615.82
470.278	1638.87
470.65	1638.19
471.022	1687.23
471.394	1712.99
471.766	1698.08
472.138	1741.47
472.51	1771.75
472.882	1818.3
473.253	1855.36
473.625	1868.02
473.997	1897.17
474.369	1916.83
474.74	1933.55
475.112	1977.84
475.484	2018.75
475.855	2065.07
476.227	2085.19
476.598	2142.81
476.97	2135.58
477.341	2213.77
477.713	2237.05
478.084	2264.84
478.455	2342.81
478.827	2340.77
479.198	2432.52
479.569	2422.58
479.94	2519.52
480.311	2507.55
480.682	2583.48
481.053	2647.66
481.424	2649.46
481.795	2716.81
482.166	2782.57
482.537	2795
482.908	2893.53
483.279	2913.64
483.65	2950.25
484.021	3024.14
484.391	3060.53
484.762	3143.24
485.133	3170.58
485.503	3163.58
485.874	3276.11
486.244	3317.92
486.615	3384.59
486.985	3396.34
487.356	3484.7
487.726	3572.15
488.097	3610.57
488.467	3643.34
488.837	3707.97
489.207	3765.14
489.578	3832.71
489.948	3878.81
490.318	3932.37
490.688	3971.01
491.058	4038.35
491.428	4127.84
491.798	4157.45
492.168	4230.44
492.538	4257.11
492.908	4290.1
493.278	4355.63
493.648	4386.82
494.017	4437.89
494.387	4512.01
494.757	4563.09
495.126	4593.82
495.496	4601.5
495.866	4643.99
496.235	4731.22
496.605	4787.71
496.974	4759.01
497.344	4835.62
497.713	4874.04
498.082	4896.64
498.452	4977.99
498.821	5012.79
499.19	5034.03
499.559	5082.17
499.928	5101.6
500.298	5166.91
500.667	5185.89
501.036	5198.78
501.405	5277.64
501.774	5246.01
502.143	5282.16
502.512	5266.8
502.88	5369.39
503.249	5356.74
503.618	5416.85
503.987	5415.04
504.356	5514.02
504.724	5474.7
505.093	5550.86
505.462	5583.62
505.83	5613.45
506.199	5622.27
506.567	5673.11
506.936	5711.98
507.304	5707.01
507.672	5784.52
508.041	5834.69
508.409	5859.78
508.777	5844.63
509.145	5918.08
509.514	5895.48
509.882	5984.07
510.25	5999.66
510.618	6036.04
510.986	6045.99
511.354	6076.72
511.722	6167.56
512.09	6191.97
512.458	6197.39
512.826	6212.31
513.193	6284.85
513.561	6270.61
513.929	6321.68
514.297	6351.97
514.664	6347.45
515.032	6394
515.4	6430.83
515.767	6481.91
516.135	6444.84
516.502	6464.51
516.869	6551.73
517.237	6555.58
517.604	6541.79
517.972	6583.6
518.339	6685.74
518.706	6628.57
519.073	6653.43
519.44	6689.36
519.808	6767.77
520.175	6777.72
520.542	6895.23
520.909	6878.96
521.276	6909.01
521.643	6936.81
522.009	6979.29
522.376	6999.86
522.743	7012.74
523.11	7101.32
523.477	7124.15
523.843	7157.59
524.21	7221.77
524.577	7291.38
524.943	7251.6
525.31	7276.24
525.676	7383.35
526.043	7429.68
526.409	7443.46
526.776	7529.34
527.142	7529.56
527.508	7595.77
527.874	7620.18
528.241	7669.45
528.607	7690.91
528.973	7706.05
529.339	7699.5
529.705	7879.16
530.071	7955.54
530.437	7882.77
530.803	7931.59
531.169	8001.19
531.535	8003.9
531.901	8053.84
532.267	8045.25
532.632	8204.12
532.998	8213.16
533.364	8188.08
533.73	8257.23
534.095	8289.09
534.461	8310.33
534.826	8398.47
535.192	8417.45
535.557	8458.13
535.923	8450.44
536.288	8441.18
536.653	8494.96
537.019	8531.34
537.384	8609.31
537.749	8554.17
538.114	8660.61
538.479	8667.16
538.845	8720.27
539.21	8720.27
539.575	8774.5
539.94	8823.54
540.305	8880.03
540.67	8849.08
541.034	8920.26
541.399	8970.65
541.764	8977.21
542.129	9087.71
542.494	9045.91
542.858	9169.29
543.223	9139.69
543.587	9147.82
543.952	9139.24
544.316	9212.23
544.681	9139.46
545.045	9320.02
545.41	9320.48
545.774	9345.79
546.138	9335.84
546.503	9399.12
546.867	9344.2
547.231	9508.04
547.595	9514.14
547.959	9546.23
548.324	9586.01
548.688	9568.6
549.052	9652.67
549.416	9680.01
549.779	9669.17
550.143	9660.13
550.507	9759.56
550.871	9825.32
551.235	9823.96
551.599	9905.09
551.962	9822.38
552.326	9890.63
552.689	10003.17
553.053	9903.06
553.417	9994.13
553.78	10144.18
554.143	10034.58
554.507	10111.87
554.87	10158.65
555.234	10303.5
555.597	10167.23
555.96	10175.59
556.323	10345.31
556.686	10334.01
557.05	10390.05
557.413	10379.43
557.776	10395.48
558.139	10510.73
558.502	10472.99
558.865	10456.04
559.228	10574.91
559.59	10558.86
559.953	10666.65
560.316	10662.59
560.679	10690.38
561.041	10788.69
561.404	10831.85
561.767	10886.54
562.129	10822.36
562.492	10995.23
562.854	10990.49
563.217	11064.61
563.579	11073.88
563.941	11069.36
564.304	11161.1
564.666	11183.93
565.028	11189.58
565.39	11258.73
565.753	11311.84
566.115	11331.72
566.477	11360.2
566.839	11344.38
567.201	11413.98
567.563	11472.28
567.925	11536.91
568.287	11538.27
568.648	11526.97
569.01	11597.48
569.372	11651.04
569.734	11622.34
570.095	11764.93
570.457	11848.54
570.819	11813.97
571.18	11857.36
571.542	12047.64
571.903	12012.61
572.265	12139.61
572.626	12097.58
572.987	12228.87
573.349	12222.55
573.71	12275.43
574.071	12347.06
574.432	12444.23
574.794	12552.93
575.155	12536.21
575.516	12512.26
575.877	12655.08
576.238	12756.77
576.599	12854.39
576.96	12903.66
577.32	12893.94
577.681	13014.84
578.042	13147.49
578.403	13200.15
578.763	13281.5
579.124	13399.24
579.485	13547.48
579.845	13638.78
580.206	13679
580.566	13818.66
580.927	13901.82
581.287	14123.29
581.648	14205.54
582.008	14379.55
582.368	14500.68
582.728	14696.15
583.089	14716.27
583.449	14917.39
583.809	15120.1
584.169	15393.99
584.529	15464.49
584.889	15744.71
585.249	15829.46
585.609	15987.42
585.969	16248.88
586.329	16412.49
586.688	16648.64
587.048	16931.57
587.408	17028.52
587.768	17289.76
588.127	17572.91
588.487	17739.24
588.846	18211.09
589.206	18291.54
589.565	18494.47
589.925	18883.16
590.284	19144.85
590.643	19432.98
591.003	19720.65
591.362	19983.25
591.721	20198.83
592.08	20599.95
592.44	20810.57
592.799	21163.33
593.158	21414.39
593.517	21724.67
593.876	22118.1
594.235	22349.29
594.593	22764.19
594.952	23038.76
595.311	23313.33
595.67	23652.08
596.029	23998.96
596.387	24376.12
596.746	24656.8
597.104	24783.12
597.463	25083.22
597.822	25535.64
598.18	25703.32
598.538	25995.97
598.897	26572.9
599.255	26618.55
599.613	27183.73
599.972	27351.41
600.33	27543.95
600.688	27844.73
601.046	28270.03
601.404	28683.81
601.762	28852.39
602.12	29319.72
602.478	29669.77
602.836	29777.34
603.194	30020.95
603.552	30405.8
603.91	30478.56
604.268	30879
604.625	31031.99
604.983	31490.74
605.341	31677.18
605.698	32036.94
606.056	32248.69
606.413	32489.81
606.771	32842.57
607.128	33061.77
607.485	33176.12
607.843	33522.55
608.2	33836.67
608.557	34236.66
608.914	34245.24
609.272	34682.97
609.629	34993.25
609.986	35210.19
610.343	35316.4
610.7	35661.7
611.057	35807.24
611.414	36060.79
611.771	36255.59
612.127	36508.69
612.484	36546.2
612.841	37000.88
613.198	37003.36
613.554	37277.93
613.911	37777.58
614.267	37637.47
614.624	37945.94
614.98	37993.62
615.337	38442.65
615.693	38538.92
616.05	38673.15
616.406	39029.75
616.762	39037.66
617.118	39169.41
617.475	39227.94
617.831	39484.2
618.187	39746.57
618.543	39792.44
618.899	40155.82
619.255	40296.38
619.611	40238.08
619.967	40549.03
620.323	40711.74
620.678	40609.14
621.034	40800.1
621.39	40906.54
621.746	40960.55
622.101	41416.35
622.457	41170.49
622.812	41417.26
623.168	41583.36
623.523	41764.37
623.879	41848.21
624.234	41785.16
624.589	41896.12
624.945	42032.38
625.3	42092.27
625.655	42181.08
626.01	42177.92
626.365	42362.77
626.72	42377.69
627.075	42339.04
627.43	42445.48
627.785	42507.4
628.14	42657.45
628.495	42805.7
628.85	42850.67
629.205	42605.93
629.559	43006.6
629.914	42719.15
630.269	42817
630.623	42810.89
630.978	42831.23
631.332	43103.99
631.687	43219.02
632.041	43092.47
632.396	43109.19
632.75	43036.42
633.104	43187.83
633.459	43134.05
633.813	43177.66
634.167	43148.51
634.521	43201.17
634.875	43255.63
635.229	43146.03
635.583	43098.12
635.937	43181.96
636.291	43156.42
636.645	42986.71
636.999	43087.27
637.352	43302.18
637.706	43090.43
638.06	43209.3
638.413	43294.27
638.767	43149.19
639.121	43218.79
639.474	43083.2
639.828	43027.61
640.181	43219.02
640.534	43208.4
640.888	42998.23
641.241	42906.48
641.594	43058.12
641.947	43299.69
642.301	42969.08
642.654	43077.1
643.007	43064.45
643.36	43047.5
643.713	43047.5
644.066	43191.22
644.419	42989.42
644.771	42704.23
645.124	42403.67
645.477	42324.13
645.83	42153.51
646.182	41962.55
646.535	41933.86
646.888	41993.06
647.24	41824.93
647.593	41908.09
647.945	41840.98
648.298	41690.7
648.65	41616.58
649.002	41582.45
649.355	41720.3
649.707	41674.43
650.059	42018.6
650.411	42358.25
650.763	42413.62
651.115	42828.97
651.467	42761.18
651.819	42606.15
652.171	42678.92
652.523	42618.36
652.875	42548.3
653.227	42414.75
653.578	42648.64
653.93	42639.37
654.282	42478.25
654.633	42421.07
654.985	42396.44
655.337	42541.3
655.688	42521.18
656.039	42599.6
656.391	42271.47
656.742	42332.49
657.094	42356.67
657.445	42617.68
657.796	42413.39
658.147	42220.63
658.498	42319.16
658.849	42433.73
659.2	42331.36
659.551	42292.26
659.902	42381.75
660.253	42325.26
660.604	42388.53
660.955	42123
661.306	42416.1
661.656	42401.87
662.007	42315.54
662.358	42400.96
662.708	42211.59
663.059	42270.8
663.409	42104.92
663.76	42354.41
664.11	42359.61
664.461	42408.64
664.811	42271.7
665.161	42269.67
665.511	42221.76
665.862	42155.77
666.212	42242.32
666.562	42235.32
666.912	42188.31
667.262	42233.73
667.612	42135.43
667.962	42288.87
668.312	42169.78
668.662	42467.4
669.011	42306.27
669.361	42039.84
669.711	42113.74
670.06	42118.03
670.41	42140.4
670.76	41889.56
671.109	42078.03
671.459	42097.47
671.808	41977.92
672.157	42020.18
672.507	41862.9
672.856	41890.92
673.205	41962.55
673.554	42014.08
673.904	42026.73
674.253	42092.49
674.602	41899.51
674.951	41463.81
675.3	41214.33
675.649	41993.74
675.998	41798.49
676.346	41792.16
676.695	41956.68
677.044	41615.9
677.393	41749.23
677.741	41730.7
678.09	41715.33
678.438	41657.25
678.787	41761.43
679.135	41589.01
679.484	41382.23
679.832	41613.86
680.181	41338.62
680.529	41440.53
680.877	41304.49
681.225	41246.19
681.573	41424.26
681.922	41136.36
682.27	41139.98
682.618	41092.97
682.966	40968.46
683.314	41004.39
683.661	40972.3
684.009	40747.67
684.357	40776.82
684.705	40831.06
685.053	40750.61
685.4	40744.28
685.748	40709.48
686.095	40602.59
686.443	40544.51
686.79	40485.08
687.138	40423.16
687.485	40402.37
687.832	40373.67
688.18	40325.31
688.527	39976.17
688.874	40285.76
689.221	40000.35
689.568	39872.89
689.915	39882.84
690.262	39843.51
690.609	39650.3
690.956	39554.71
691.303	39627.93
691.65	39389.52
691.997	39422.06
692.344	39190.2
692.69	39026.13
693.037	39055.29
693.383	38806.71
693.73	38928.51
694.077	38658.01
694.423	38701.62
694.769	38610.1
695.116	38588.63
695.462	38396.55
695.808	38237.91
696.155	38486.71
696.501	38159.72
696.847	38071.81
697.193	37829.78
697.539	37977.57
697.885	37784.36
698.231	37769.22
698.577	37703.46
698.923	37587.3
699.269	37503.69
699.614	37390.92
699.96	37068.67
700.306	37351.83
700.651	37076.36
700.997	37051.5
701.342	36960.43
701.688	36861.45
702.033	36732.86
702.379	36665.97
702.724	36688.12
703.069	36760.66
703.415	36237.96
703.76	36328.8
704.105	36264.85
704.45	36216.27
704.795	36001.58
705.14	35981.92
705.485	35912.32
705.83	35731.98
706.175	35767.92
706.52	35700.35
706.865	35646.34
707.209	35743.06
707.554	35488.15
707.899	35516.85
708.243	35252
708.588	35233.47
708.932	35054.94
709.277	35067.37
709.621	35034.15
709.966	34790.77
710.31	34873.93
710.654	34475.75
710.998	34805.91
711.342	34635.97
711.687	34572.69
712.031	34385.58
712.375	34239.14
712.719	34288.41
713.063	34277.33
713.407	34341.96
713.75	34114.17
714.094	34154.62
714.438	33929.77
714.782	34024.46
715.125	33790.57
715.469	33791.02
715.812	33796.44
716.156	33654.52
716.499	33701.76
716.843	33589.44
717.186	33380.41
717.53	33551.48
717.873	33573.85
718.216	33551.02
718.559	33285.27
718.902	33097.25
719.246	33064.71
719.589	33031.94
719.932	33031.49
720.275	32991.72
720.617	32954.43
720.96	32859.97
721.303	32833.76
721.646	32894.32
721.989	32652.74
722.331	32767.77
722.674	32592.41
723.016	32688.9
723.359	32601.9
723.701	32679.86
724.044	32348.34
724.386	32359.87
724.729	32496.14
725.071	32236.26
725.413	32299.98
725.755	32208.69
726.097	32077.39
726.439	31937.06
726.782	31925.08
727.124	32048.69
727.465	31909.94
727.807	31902.71
728.149	31800.56
728.491	31677.63
728.833	31710.17
729.175	31806.66
729.516	31515.37
729.858	31562.15
730.199	31601.47
730.541	31634.46
730.882	31430.63
731.224	31366.68
731.565	31278.09
731.906	31316.96
732.248	31333.23
732.589	31098.43
732.93	31000.13
733.271	31131.88
733.612	31137.08
733.953	31140.47
734.294	31023.63
734.635	31042.62
734.976	31063.63
735.317	30727.14
735.658	30932.11
735.999	30738.22
736.339	30658.67
736.68	30945.44
737.021	30719.23
737.361	30696.41
737.702	30527.15
738.042	30549.97
738.383	30452.12
738.723	30522.4
739.063	30425.23
739.404	30423.42
739.744	30382.52
740.084	30307.27
740.424	30264.56
740.764	30224.11
741.104	30324.44
741.444	30131
741.784	30031.12
742.124	30148.4
742.464	30036.31
742.804	29954.96
743.143	29929.88
743.483	29992.47
743.823	29829.09
744.162	29733.27
744.502	29872.25
744.841	29659.15
745.181	29841.29
745.52	29564.69
745.86	29663.67
746.199	29746.83
746.538	29667.96
746.877	29639.26
747.216	29651.47
747.556	29548.64
747.895	29514.97
748.234	29379.83
748.573	29408.08
748.911	29339.16
749.25	29291.93
749.589	29259.61
749.928	29249.67
750.267	29298.03
750.605	29171.93
750.944	29234.98
751.283	29090.12
751.621	29084.93
751.96	28922.67
752.298	28796.12
752.636	28976
752.975	28791.83
753.313	28654.66
753.651	28788.44
753.989	28622.79
754.327	28643.81
754.666	28504.6
755.004	28477.03
755.342	28536.24
755.679	28447.66
756.017	28351.39
756.355	28321.11
756.693	28216.48
757.031	28307.77
757.368	28068.91
757.706	28013.54
758.044	27955.47
758.381	28033.88
758.719	27873.66
759.056	27950.72
759.394	27847.9
759.731	27574.68
760.068	27620.56
760.405	27643.84
760.743	27522.48
761.08	27455.59
761.417	27357.06
761.754	27334.01
762.091	27298.31
762.428	27145.32
762.765	26958.88
763.102	27094.92
763.438	26955.72
763.775	26800.24
764.112	26858.77
764.449	26892.22
764.785	26722.5
765.122	26570.64
765.458	26476.41
765.795	26370.2
766.131	26395.96
766.467	26273.93
766.804	26089.53
767.14	26047.95
767.476	26044.33
767.812	25990.55
768.148	25948.51
768.485	25732.25
768.821	25624.91
769.157	25610.22
769.492	25642.31
769.828	25542.2
770.164	25320.96
770.5	25278.93
770.836	25297.23
771.171	25020.4
771.507	25050.46
771.842	24873.74
772.178	24810.24
772.513	24738.6
772.849	24814.76
773.184	24650.02
773.519	24522.56
773.855	24536.8
774.19	24390.36
774.525	24283.25
774.86	24370.48
775.195	24144.04
775.53	24134.1
775.865	23930.03
776.2	23838.51
776.535	23703.6
776.87	23681.68
777.205	23607.11
777.539	23444.85
777.874	23506.77
778.209	23260
778.543	23293.89
778.878	23135.03
779.212	23102.71
779.547	22985.65
779.881	22956.73
780.215	22874.7
780.55	22903.17
780.884	22639.9
781.218	22658.88
781.552	22723.29
781.886	22599
782.22	22345.22
782.554	22476.74
782.888	22173.02
783.222	22187.26
783.556	22038.33
783.889	21989.75
784.223	21823.42
784.557	21809.64
784.89	21832.46
785.224	21576.42
785.557	21470.21
785.891	21511.34
786.224	21512.92
786.558	21456.65
786.891	21209.43
787.224	21061.41
787.557	21119.71
787.891	20986.84
788.224	20963.56
788.557	21001.3
788.89	20841.53
789.223	20809.21
789.556	20748.42
789.888	20658.71
790.221	20631.14
790.554	20477.47
790.887	20427.98
791.219	20294.42
791.552	20260.3
791.884	20150.02
792.217	20215.56
792.549	20067.99
792.882	19912.29
793.214	19858.73
793.546	19891.27
793.879	19812.4
794.211	19569.25
794.543	19747.77
794.875	19540.09
795.207	19663.03
795.539	19625.06
795.871	19510.94
796.203	19408.12
796.535	19276.15
796.867	19302.81
797.198	19128.35
797.53	19206.32
797.862	18942.6
798.193	19092.2
798.525	18946.44
798.856	18933.1
799.188	18690.17
799.519	18723.84
799.85	18629.84
800.182	18643.17
800.513	18632.09
800.844	18481.82
801.175	18534.24
801.506	18489.27
801.837	18355.49
802.168	18369.5
802.499	18262.84
802.83	18099.68
803.161	18178.77
803.491	18113.01
803.822	18098.55
804.153	17912.57
804.483	17785.79
804.814	17849.74
805.145	17786.69
805.475	17752.34
805.805	17637.54
806.136	17697.2
806.466	17610.65
806.796	17561.84
807.126	17449.53
807.457	17336.99
807.787	17389.42
808.117	17368.4
808.447	17238.01
808.777	17306.25
809.107	17165.47
809.436	17185.35
809.766	17125.92
810.096	16977.22
810.426	16960.05
810.755	17030.33
811.085	16960.73
811.414	16904.91
811.744	16794.63
812.073	16769.09
812.403	16699.49
812.732	16677.12
813.061	16741.98
813.39	16496.33
813.719	16550.79
814.049	16629.89
814.378	16507.63
814.707	16474.41
815.036	16376.33
815.365	16300.86
815.693	16179.05
816.022	16181.31
816.351	16167.3
816.68	16038.26
817.008	16143.35
817.337	16031.49
817.665	15921.21
817.994	15980.87
818.322	15923.47
818.651	15871.72
818.979	15821.77
819.307	15826.97
819.636	15884.6
819.964	15736.13
820.292	15809.8
820.62	15793.3
820.948	15680.31
821.276	15703.13
821.604	15684.6
821.932	15662
822.259	15744.26
822.587	15663.13
822.915	15646.86
823.243	15633.3
823.57	15554.66
823.898	15591.27
824.225	15629.46
824.553	15519.86
824.88	15606.41
825.207	15598.05
825.535	15565.73
825.862	15603.93
826.189	15643.92
826.516	15673.98
826.843	15736.8
827.17	15704.26
827.497	15676.92
827.824	15603.25
828.151	15713.3
828.478	15569.35
828.805	15688.44
829.131	15571.38
829.458	15572.97
829.785	15450.26
830.111	15668.56
830.438	15640.54
830.764	15655.68
831.09	15660.2
831.417	15517.15
831.743	15572.51
832.069	15534.78
832.395	15475.12
832.722	15593.53
833.048	15392.86
833.374	15380.65
833.7	15407.32
834.026	15472.63
834.351	15485.96
834.677	15351.73
835.003	15401.45
835.329	15356.02
835.654	15350.15
835.98	15258.62
836.306	15335.23
836.631	15282.8
836.956	15304.5
837.282	15328.45
837.607	15207.1
837.932	15168.68
838.258	15169.14
838.583	15194.67
838.908	15044.62
839.233	15146.08
839.558	15035.58
839.883	15018.18
840.208	14985.41
840.533	14999.42
840.858	14867.9
841.182	14901.57
841.507	14915.81
841.832	14767.56
842.156	14805.3
842.481	14786.77
842.805	14662.03
843.13	14674.46
843.454	14655.48
843.778	14641.47
844.103	14643.05
844.427	14570.05
844.751	14605.08
845.075	14484.41
845.399	14467.68
845.723	14450.51
846.047	14438.76
846.371	14257.75
846.695	14324.64
847.019	14261.14
847.343	14067.24
847.666	14064.31
847.99	13994.02
848.313	14014.82
848.637	13912.44
848.96	13920.13
849.284	13835.61
849.607	13709.29
849.931	13693.02
850.254	13583.19
850.577	13645.11
850.9	13450.31
851.223	13483.76
851.546	13346.58
851.869	13361.72
852.192	13367.83
852.515	13316.08
852.838	13167.61
853.161	13161.28
853.483	13093.71
853.806	13161.05
854.129	13004.45
854.451	12953.15
854.774	12890.55
855.096	12929.87
855.419	12828.18
855.741	12844.9
856.063	12718.58
856.385	12728.97
856.708	12687.39
857.03	12651.69
857.352	12618.24
857.674	12573.27
857.996	12563.33
858.318	12478.36
858.64	12460.51
858.961	12464.35
859.283	12376.44
859.605	12291.02
859.926	12377.34
860.248	12387.97
860.57	12265.93
860.891	12275.2
861.212	12173.28
861.534	12181.42
861.855	12153.62
862.176	12083.34
862.498	12089.89
862.819	12081.98
863.14	12056
863.461	12082.21
863.782	12068.65
864.103	11975.32
864.424	12000.18
864.745	11943.91
865.065	11900.52
865.386	11792.05
865.707	11830.47
866.027	11823.91
866.348	11834.53
866.668	11819.84
866.989	11763.12
867.309	11673.18
867.63	11737.81
867.95	11636.8
868.27	11648.1
868.59	11729
868.91	11633.18
869.23	11613.75
869.55	11584.14
869.87	11635.22
870.19	11604.03
870.51	11626.86
870.83	11537.59
871.15	11496.01
871.469	11543.47
871.789	11535.56
872.109	11515.9
872.428	11428.22
872.748	11395.9
873.067	11433.64
873.386	11379.63
873.706	11407.88
874.025	11352.29
874.344	11288.33
874.663	11327.43
874.982	11296.69
875.301	11308.9
875.62	11187.32
875.939	11240.88
876.258	11254.44
876.577	11222.57
876.896	11222.12
877.214	11058.06
877.533	11146.64
877.852	11070.49
878.17	11148.22
878.489	11124.04
878.807	11076.59
879.125	11052.86
879.444	10972.86
879.762	11016.25
880.08	11025.74
880.398	10960.88
880.716	11035.01
881.034	10909.59
881.352	10898.29
881.67	10845.41
881.988	10920.43
882.306	10878.63
882.624	10764.96
882.941	10729.03
883.259	10647.67
883.577	10685.86
883.894	10707.33
884.212	10685.19
884.529	10661.46
884.846	10611.51
885.164	10603.83
885.481	10596.83
885.798	10648.12
886.115	10514.57
886.432	10480.44
886.75	10458.75
887.067	10453.55
887.383	10440.22
887.7	10465.98
888.017	10389.37
888.334	10328.58
888.651	10234.12
888.967	10318.42
889.284	10310.51
889.6	10194.58
889.917	10212.88
890.233	10166.55
890.55	10150.74
890.866	10174.24
891.182	10068.48
891.498	10040
891.815	10035.94
892.131	9999.33
892.447	9898.99
892.763	9940.57
893.079	9947.13
893.395	9869.39
893.71	9870.07
894.026	9814.02
894.342	9862.38
894.657	9753.01
894.973	9645.89
895.289	9695.15
895.604	9697.41
895.92	9618.77
896.235	9528.38
896.55	9654.7
896.865	9564.76
897.181	9506.46
897.496	9505.33
897.811	9449.06
898.126	9464.65
898.441	9405.9
898.756	9372.9
899.071	9311.44
899.386	9323.64
899.7	9245
900.015	9226.24
900.33	9192.8
900.644	9156.41
900.959	9108.28
901.273	9150.31
901.588	9086.81
901.902	9068.73
902.216	9054.27
902.531	9011.33
902.845	8942.63
903.159	8892.46
903.473	8903.54
903.787	8864.67
904.101	8843.43
904.415	8750.77
904.729	8753.26
905.042	8640.95
905.356	8633.94
905.67	8640.49
905.984	8709.42
906.297	8610.89
906.611	8529.08
906.924	8551.46
907.237	8484.57
907.551	8453.15
907.864	8501.97
908.177	8399.37
908.491	8432.36
908.804	8301.07
909.117	8314.17
909.43	8255.64
909.743	8210.45
910.056	8248.87
910.368	8176.78
910.681	8165.03
910.994	8095.87
911.307	8106.95
911.619	7985.14
911.932	8025.14
912.244	7994.18
912.557	7925.48
912.869	7829.67
913.181	7865.15
913.494	7823.34
913.806	7789.89
914.118	7761.42
914.43	7757.58
914.742	7751.03
915.054	7651.59
915.366	7622.44
915.678	7554.87
915.99	7500.64
916.302	7521.65
916.613	7492.95
916.925	7432.39
917.236	7448.21
917.548	7407.08
917.859	7399.85
918.171	7318.95
918.482	7333.63
918.794	7266.07
919.105	7323.47
919.416	7239.17
919.727	7194.66
920.038	7229.91
920.349	7147.88
920.66	7177.71
920.971	7144.04
921.282	7084.38
921.593	7024.04
921.903	6999.18
922.214	6959.86
922.525	6978.84
922.835	6928.67
923.146	6872.63
923.456	6841.9
923.767	6785.4
924.077	6781.11
924.387	6741.56
924.697	6717.15
925.008	6741.11
925.318	6606.2
925.628	6643.03
925.938	6652.07
926.248	6516.03
926.558	6475.35
926.867	6545.86
927.177	6478.97
927.487	6457.5
927.796	6397.61
928.106	6440.33
928.416	6385.86
928.725	6384.73
929.034	6373.43
929.344	6354.23
929.653	6323.49
929.962	6239.88
930.271	6201.46
930.581	6202.37
930.89	6179.99
931.199	6151.29
931.508	6096.15
931.817	6083.72
932.125	6065.65
932.434	6068.58
932.743	6022.93
933.051	6001.92
933.36	5923.95
933.669	5918.98
933.977	5872.43
934.286	5916.5
934.594	5834.47
934.902	5813
935.21	5837.4
935.519	5768.25
935.827	5803.73
936.135	5738.65
936.443	5689.61
936.751	5638.09
937.059	5694.81
937.367	5642.83
937.674	5602.83
937.982	5596.28
938.29	5617.52
938.597	5517.19
938.905	5521.03
939.213	5446.68
939.52	5448.71
939.827	5467.02
940.135	5453.01
940.442	5365.33
940.749	5414.36
941.056	5370.52
941.363	5324.2
941.67	5328.49
941.977	5305.67
942.284	5246.23
942.591	5283.29
942.898	5246.68
943.205	5171.88
943.511	5170.75
943.818	5129.85
944.125	5116.07
944.431	5126.24
944.738	5116.29
945.044	5027.71
945.35	5022.06
945.657	5003.98
945.963	4963.53
946.269	4957.43
946.575	5006.24
946.881	4930.08
947.187	4909.97
947.493	4883.3
947.799	4826.81
948.105	4800.82
948.41	4855.06
948.716	4810.09
949.022	4808.73
949.327	4765.11
949.633	4731.44
949.938	4713.36
950.244	4727.15
950.549	4636.98
950.854	4649.19
951.16	4640.15
951.465	4628.62
951.77	4622.52
952.075	4574.16
952.38	4535.29
952.685	4568.06
952.99	4500.71
953.294	4518.79
953.599	4492.13
953.904	4420.72
954.209	4428.85
954.513	4467.04
954.818	4383.88
955.122	4369.87
955.426	4360.61
955.731	4364.45
956.035	4316.31
956.339	4270.21
956.643	4251.68
956.948	4284.68
957.252	4249.42
957.556	4262.98
957.86	4203.55
958.163	4204.45
958.467	4164
958.771	4188.41
959.075	4136.66
959.378	4124.91
959.682	4149.76
959.985	4062.53
960.289	4070.44
960.592	3981.41
960.896	4019.82
961.199	4049.43
961.502	4009.65
961.805	3937.34
962.108	3955.87
962.411	3952.03
962.714	3899.83
963.017	3881.52
963.32	3888.98
963.623	3900.05
963.926	3883.78
964.228	3854.86
964.531	3822.09
964.833	3818.93
965.136	3780.73
965.438	3771.02
965.741	3767.63
966.043	3724.92
966.345	3714.07
966.648	3692.15
966.95	3715.42
967.252	3668.87
967.554	3667.52
967.856	3652.15
968.158	3634.07
968.46	3615.99
968.761	3584.13
969.063	3566.28
969.365	3594.52
969.666	3572.15
969.968	3528.76
970.269	3519.27
970.571	3526.28
970.872	3477.69
971.174	3451.03
971.475	3474.98
971.776	3445.38
972.077	3433.62
972.378	3439.73
972.679	3421.2
972.98	3414.19
973.281	3420.07
973.582	3386.17
973.883	3392.5
974.183	3330.35
974.484	3312.05
974.785	3292.16
975.085	3283.12
975.386	3331.25
975.686	3269.11
975.986	3233.63
976.287	3262.1
976.587	3227.53
976.887	3232.27
977.187	3189.79
977.487	3183.24
977.787	3164.7
978.087	3122.9
978.387	3167.19
978.687	3088.1
978.987	3093.29
979.286	3101.66
979.586	3100.53
979.885	3049.68
980.185	3051.94
980.484	3013.3
980.784	3045.61
981.083	3005.16
981.382	3014.2
981.682	2961.09
981.981	2971.49
982.28	2958.61
982.579	2929
982.878	2956.35
983.177	2940.98
983.475	2922.45
983.774	2878.16
984.073	2860.53
984.372	2851.72
984.67	2874.09
984.969	2818.73
985.267	2836.8
985.566	2796.58
985.864	2817.6
986.162	2814.66
986.461	2759.52
986.759	2764.26
987.057	2772.85
987.355	2733.53
987.653	2721.55
987.951	2709.58
988.249	2694.21
988.547	2679.97
988.844	2675.23
989.142	2656.24
989.44	2635.23
989.737	2624.15
990.035	2597.71
990.332	2607.43
990.63	2588.9
990.927	2581.44
991.224	2535.57
991.521	2562.46
991.819	2559.98
992.116	2545.29
992.413	2543.48
992.71	2512.07
993.006	2505.29
993.303	2497.6
993.6	2481.56
993.897	2449.47
994.193	2488.34
994.49	2461.45
994.787	2452.86
995.083	2411.73
995.379	2413.54
995.676	2397.27
995.972	2406.31
996.268	2372.41
996.565	2377.16
996.861	2330.15
997.157	2328.57
997.453	2341.68
997.749	2347.55
998.044	2310.26
998.34	2304.84
998.636	2293.99
998.932	2266.65
999.227	2264.39
999.523	2255.12
999.818	2234.33
1000.114	2198.18
1000.409	2206.31
1000.704	2178.74
1001	2171.06
1001.295	2164.73
1001.59	2223.49
1001.885	2169.93
1002.18	2131.96
1002.475	2144.17
1002.77	2124.73
1003.065	2110.95
1003.359	2090.61
1003.654	2075.02
1003.949	2073.89
1004.243	2065.75
1004.538	2043.15
1004.832	2043.15
1005.127	2012.87
1005.421	2039.54
1005.715	1992.98
1006.009	1982.36
1006.304	1969.48
1006.598	1972.19
1006.892	1981.46
1007.186	1964.28
1007.48	1922.25
1007.773	1938.97
1008.067	1900.11
1008.361	1916.6
1008.655	1918.86
1008.948	1884.96
1009.242	1888.35
1009.535	1837.06
1009.829	1876.38
1010.122	1864.85
1010.415	1845.87
1010.708	1846.77
1011.001	1848.36
1011.295	1807.9
1011.588	1781.24
1011.881	1768.13
1012.173	1753.67
1012.466	1778.75
1012.759	1768.13
1013.052	1715.7
1013.344	1759.54
1013.637	1720
1013.93	1699.66
1014.222	1717.96
1014.514	1694.46
1014.807	1675.25
1015.099	1691.98
1015.391	1682.03
1015.683	1696.49
1015.976	1653.78
1016.268	1637.97
1016.56	1620.34
1016.851	1587.57
1017.143	1588.93
1017.435	1594.35
1017.727	1572.88
1018.018	1581.47
1018.31	1554.58
1018.602	1531.75
1018.893	1561.36
1019.185	1515.03
1019.476	1524.52
1019.767	1522.49
1020.058	1509.38
1020.35	1482.26
1020.641	1486.1
1020.932	1465.54
1021.223	1430.97
1021.514	1459.67
1021.804	1422.15
1022.095	1430.97
1022.386	1437.97
1022.677	1440.68
1022.967	1388.71
1023.258	1399.55
1023.548	1399.55
1023.839	1395.03
1024.129	1376.05
1024.419	1372.89
1024.709	1367.24
1025	1333.34
1025.29	1335.83
1025.58	1336.73
1025.87	1311.19
1026.16	1316.17
1026.449	1325.88
1026.739	1308.26
1027.029	1281.59
1027.319	1298.99
1027.608	1261.7
1027.898	1249.5
1028.187	1256.51
1028.477	1222.16
1028.766	1274.13
1029.055	1217.19
1029.344	1240.91
1029.634	1220.8
1029.923	1221.25
1030.212	1190.52
1030.501	1201.82
1030.79	1197.75
1031.078	1164.53
1031.367	1131.09
1031.656	1162.05
1031.945	1154.14
1032.233	1161.14
1032.522	1138.77
1032.81	1134.48
1033.099	1108.04
1033.387	1121.59
1033.675	1108.94
1033.963	1106.91
1034.251	1099.67
1034.54	1070.75
1034.828	1084.99
1035.116	1059.22
1035.403	1055.83
1035.691	1066.91
1035.979	1059.45
1036.267	1022.84
1036.554	1038.89
1036.842	1044.53
1037.129	1029.62
1037.417	1002.73
1037.704	987.36
1037.992	980.36
1038.279	990.3
1038.566	994.14
1038.853	994.14
1039.14	994.14
