Data from hue_250_FLMS001491_00053.txt Node
Date: Tue Feb 07 16:01:10 GMT 2017
User: dcchb
Spectrometer: FLMS00149
Trigger mode: 0
Integration Time (sec): 2.000000E-2
Scans to average: 10
Electric dark correction enabled: true
Nonlinearity correction enabled: false
Boxcar width: 0
XAxis mode: Wavelengths
Number of Pixels in Spectrum: 2048
>>>>>Begin Spectral Data<<<<<
341.393	-25.8
341.776	-25.8
342.16	-25.8
342.543	-35.75
342.927	-42.53
343.31	-65.13
343.693	-71
344.077	-56.31
344.46	-55.63
344.843	-53.15
345.226	-44.33
345.61	-57.22
345.993	-4.79
346.376	4.93
346.759	12.61
347.142	31.6
347.525	36.11
347.908	63.91
348.291	70.01
348.674	85.83
349.057	102.55
349.44	136.45
349.823	155.89
350.206	142.78
350.588	190.24
350.971	192.95
351.354	213.29
351.737	235.66
352.119	244.92
352.502	238.82
352.884	260.29
353.267	281.31
353.65	283.11
354.032	303.9
354.414	315.43
354.797	332.15
355.179	295.77
355.562	341.87
355.944	316.33
356.326	297.12
356.709	320.85
357.091	335.32
357.473	344.58
357.855	322.21
358.238	336.67
358.62	335.32
359.002	326.28
359.384	347.07
359.766	307.29
360.148	319.27
360.53	330.8
360.912	320.63
361.294	340.51
361.676	330.12
362.057	333.51
362.439	333.73
362.821	326.5
363.203	315.66
363.584	343.9
363.966	312.94
364.348	314.07
364.729	324.02
365.111	323.34
365.493	338.03
365.874	296
366.256	324.47
366.637	312.27
367.019	310.23
367.4	311.36
367.781	319.95
368.163	298.25
368.544	312.49
368.925	333.51
369.306	319.27
369.688	292.83
370.069	306.16
370.45	317.92
370.831	303.68
371.212	307.75
371.593	317.46
371.974	279.95
372.355	305.94
372.736	331.02
373.117	301.42
373.498	321.76
373.879	295.54
374.26	305.94
374.641	298.03
375.021	317.69
375.402	310.68
375.783	313.62
376.163	318.59
376.544	323.34
376.925	310.68
377.305	321.31
377.686	337.35
378.066	311.59
378.447	311.14
378.827	319.05
379.208	304.13
379.588	338.71
379.968	330.34
380.349	315.66
380.729	331.25
381.109	338.48
381.489	315.66
381.87	347.97
382.25	328.76
382.63	344.81
383.01	349.55
383.39	347.97
383.77	331.02
384.15	352.26
384.53	359.27
384.91	348.42
385.29	350
385.67	348.42
386.049	350.68
386.429	352.94
386.809	357.69
387.189	332.38
387.568	350.46
387.948	341.19
388.328	359.27
388.707	374.41
389.087	338.25
389.466	361.53
389.846	363.79
390.225	365.15
390.605	365.82
390.984	362.66
391.363	376.22
391.743	383
392.122	374.86
392.501	394.07
392.881	370.57
393.26	377.57
393.639	391.81
394.018	394.07
394.397	392.26
394.776	381.19
395.155	356.33
395.534	396.56
395.913	403.34
396.292	387.07
396.671	415.54
397.05	398.14
397.429	402.88
397.808	394.07
398.186	408.76
398.565	402.43
398.944	402.43
399.323	410.12
399.701	403.79
400.08	410.34
400.458	418.48
400.837	423.68
401.215	417.8
401.594	423.9
401.972	437.91
402.351	423
402.729	420.96
403.107	425.48
403.486	432.71
403.864	437.69
404.242	456.44
404.62	446.95
404.999	444.69
405.377	446.73
405.755	463.22
406.133	451.25
406.511	465.26
406.889	479.04
407.267	481.07
407.645	460.51
408.023	484.46
408.401	496.89
408.779	481.53
409.156	517.46
409.534	487.4
409.912	534.18
410.29	513.62
410.667	520.4
411.045	518.59
411.422	517.23
411.8	515.88
412.178	538.7
412.555	555.2
412.933	546.16
413.31	551.58
413.687	553.84
414.065	570.79
414.442	586.38
414.819	594.74
415.197	580.28
415.574	597
415.951	612.14
416.328	620.96
416.705	622.77
417.082	586.38
417.46	617.34
417.837	621.86
418.214	648.3
418.591	647.85
418.967	636.78
419.344	669.09
419.721	674.29
420.098	679.71
420.475	668.19
420.852	684.69
421.228	706.83
421.605	709.77
421.982	711.8
422.358	733.72
422.735	736.21
423.111	741.86
423.488	769.2
423.864	778.92
424.241	792.03
424.617	786.38
424.994	791.8
425.37	800.84
425.746	812.14
426.123	818.02
426.499	832.48
426.875	839.03
427.251	870.9
427.627	845.13
428.003	885.58
428.379	891.69
428.756	915.19
429.132	888.07
429.507	910.67
429.883	944.11
430.259	930.1
430.635	946.6
431.011	933.49
431.387	983.66
431.763	985.02
432.138	959.25
432.514	1019.59
432.89	1007.39
433.265	1018.46
433.641	1055.98
434.016	1059.36
434.392	1057.56
434.767	1097.78
435.143	1086.71
435.518	1115.86
435.894	1137.1
436.269	1160.61
436.644	1194.95
437.02	1196.31
437.395	1198.34
437.77	1209.42
438.145	1220.72
438.52	1233.82
438.895	1278.79
439.271	1270.66
439.646	1264.78
440.021	1310.66
440.395	1324.67
440.77	1284.67
441.145	1342.97
441.52	1367.61
441.895	1365.12
442.27	1389.3
442.645	1370.09
443.019	1443.76
443.394	1397.66
443.769	1444.89
444.143	1427.72
444.518	1472.69
444.892	1466.59
445.267	1472.46
445.641	1472.69
446.016	1483.76
446.39	1504.1
446.764	1477.21
447.139	1529.63
447.513	1533.25
447.887	1537.77
448.262	1536.87
448.636	1564.89
449.01	1588.16
449.384	1588.39
449.758	1603.53
450.132	1627.03
450.506	1635.85
450.88	1606.02
451.254	1623.87
451.628	1649.86
452.002	1688.73
452.376	1721.72
452.75	1719.23
453.123	1718.78
453.497	1744.54
453.871	1743.19
454.244	1782.96
454.618	1762.17
454.992	1787.03
455.365	1775.05
455.739	1837.88
456.112	1869.29
456.486	1885.56
456.859	1903.64
457.232	1930.53
457.606	1922.17
457.979	1963.07
458.352	2018.44
458.725	1982.73
459.099	2016.85
459.472	2035.16
459.845	2044.65
460.218	2102.95
460.591	2093.24
460.964	2086
461.337	2197.64
461.71	2194.93
462.083	2193.35
462.456	2200.13
462.829	2216.85
463.201	2227.24
463.574	2288.03
463.947	2313.34
464.32	2359.22
464.692	2344.08
465.065	2358.09
465.438	2378.88
465.81	2474.92
466.183	2447.58
466.555	2511.3
466.928	2506.11
467.3	2557.63
467.672	2572.09
468.045	2633.56
468.417	2651.87
468.789	2617.06
469.161	2636.5
469.534	2744.97
469.906	2781.81
470.278	2784.74
470.65	2795.59
471.022	2870.16
471.394	2895.7
471.766	2926.21
472.138	2910.84
472.51	2973.89
472.882	3046.66
473.253	3042.14
473.625	3133.21
473.997	3216.37
474.369	3175.02
474.74	3190.83
475.112	3199.87
475.484	3304.96
475.855	3368.68
476.227	3386.99
476.598	3485.74
476.97	3465.4
477.341	3542.69
477.713	3579.07
478.084	3602.35
478.455	3668.56
478.827	3753.08
479.198	3852.74
479.569	3858.16
479.94	3970.02
480.311	3992.17
480.682	4024.26
481.053	4119.85
481.424	4140.19
481.795	4237.36
482.166	4231.94
482.537	4298.6
482.908	4334.53
483.279	4378.37
483.65	4472.83
484.021	4546.96
484.391	4625.82
484.762	4605.03
485.133	4659.27
485.503	4714.18
485.874	4786.95
486.244	4857.23
486.615	4919.38
486.985	5000.5
487.356	5049.77
487.726	5096.09
488.097	5166.38
488.467	5196.88
488.837	5325.69
489.207	5352.36
489.578	5399.36
489.948	5482.53
490.318	5552.35
490.688	5548.06
491.058	5609.75
491.428	5678
491.798	5711.67
492.168	5797.77
492.538	5810.2
492.908	5854.04
493.278	5879.8
493.648	5958.9
494.017	6030.31
494.387	6102.4
494.757	6120.02
495.126	6111.21
495.496	6181.94
495.866	6229.85
496.235	6253.35
496.605	6298.78
496.974	6346.01
497.344	6372.45
497.713	6418.77
498.082	6496.06
498.452	6532.89
498.821	6538.54
499.19	6491.76
499.559	6600.01
499.928	6690.4
500.298	6619.44
500.667	6667.13
501.036	6664.19
501.405	6760.68
501.774	6770.4
502.143	6840
502.512	6823.06
502.88	6853.79
503.249	6877.06
503.618	6886.1
503.987	6924.52
504.356	6998.42
504.724	6978.53
505.093	7015.37
505.462	6990.28
505.83	7057.17
506.199	7138.3
506.567	7171.29
506.936	7147.79
507.304	7225.3
507.672	7193.21
508.041	7244.51
508.409	7251.97
508.777	7308.92
509.145	7453.32
509.514	7355.02
509.882	7400.22
510.25	7424.85
510.618	7411.29
510.986	7439.08
511.354	7519.76
511.722	7488.8
512.09	7581
512.458	7521.79
512.826	7608.57
513.193	7592.53
513.561	7637.72
513.929	7647.67
514.297	7762.92
514.664	7735.57
515.032	7713.88
515.4	7795.23
515.767	7753.2
516.135	7826.19
516.502	7782.8
516.869	7916.59
517.237	7827.1
517.604	7815.8
517.972	7880.88
518.339	7880.43
518.706	7877.49
519.073	7886.3
519.44	7982.57
519.808	7998.62
520.175	7970.82
520.542	8074.55
520.909	8048.11
521.276	8018.5
521.643	8133.76
522.009	8115.68
522.376	8168.78
522.743	8140.99
523.11	8194.77
523.477	8211.49
523.843	8289.01
524.21	8297.82
524.577	8293.75
524.943	8362.45
525.31	8392.51
525.676	8416.46
526.043	8510.92
526.409	8504.59
526.776	8506.17
527.142	8538.04
527.508	8542.56
527.874	8543.01
528.241	8543.91
528.607	8524.71
528.973	8596.57
529.339	8606.51
529.705	8584.14
530.071	8603.8
530.437	8678.37
530.803	8677.7
531.169	8742.33
531.535	8676.57
531.901	8711.82
532.267	8711.14
532.632	8737.36
532.998	8747.52
533.364	8737.13
533.73	8807.18
534.095	8827.52
534.461	8847.18
534.826	8818.03
535.192	8825.49
535.557	8845.83
535.923	8816.67
536.288	8758.15
536.653	8799.5
537.019	8739.39
537.384	8750.69
537.749	8821.19
538.114	8754.08
538.479	8795.66
538.845	8822.78
539.21	8763.34
539.575	8751.82
539.94	8763.34
540.305	8770.8
540.67	8775.09
541.034	8825.04
541.399	8743.46
541.764	8771.93
542.129	8746.39
542.494	8811.7
542.858	8819.16
543.223	8778.71
543.587	8799.73
543.952	8856.22
544.316	8788.88
544.681	8730.8
545.045	8780.29
545.41	8801.31
545.774	8779.39
546.138	8694.19
546.503	8766.51
546.867	8792.72
547.231	8767.86
547.595	8772.61
547.959	8802.66
548.324	8768.31
548.688	8801.31
549.052	8747.07
549.416	8740.74
549.779	8749.56
550.143	8747.75
550.507	8762.67
550.871	8749.78
551.235	8717.24
551.599	8776.9
551.962	8789.33
552.326	8790.01
552.689	8852.83
553.053	8780.74
553.417	8762.44
553.78	8818.48
554.143	8719.95
554.507	8778.03
554.87	8813.96
555.234	8851.7
555.597	8763.79
555.96	8717.47
556.323	8839.05
556.686	8770.57
557.05	8874.3
557.413	8827.3
557.776	8803.57
558.139	8971.7
558.502	8849.22
558.865	8900.74
559.228	8931.93
559.59	8833.85
559.953	8902.1
560.316	9023
560.679	8935.32
561.041	8981.42
561.404	9027.06
561.767	9027.52
562.129	9009.21
562.492	9118.14
562.854	9086.27
563.217	9073.84
563.579	9068.42
563.941	9156.1
564.304	9160.39
564.666	9175.31
565.028	9215.99
565.39	9181.64
565.753	9248.98
566.115	9309.77
566.477	9279.49
566.839	9334.4
567.201	9299.6
567.563	9423.89
567.925	9467.28
568.287	9406.04
568.648	9377.11
569.01	9438.13
569.372	9484.45
569.734	9489.88
570.095	9468.41
570.457	9571.01
570.819	9538.69
571.18	9562.19
571.542	9583.43
571.903	9582.3
572.265	9636.99
572.626	9677.22
572.987	9690.78
573.349	9710.89
573.71	9706.82
574.071	9739.14
574.432	9761.73
574.794	9832.92
575.155	9838.12
575.516	9754.05
575.877	9883.09
576.238	9928.96
576.599	9920.37
576.96	9931.22
577.32	9933.93
577.681	9951.11
578.042	9975.74
578.403	10005.34
578.763	10031.33
579.124	10105.68
579.485	10098.45
579.845	10092.57
580.206	10143.65
580.566	10077.21
580.927	10156.98
581.287	10197.88
581.648	10152.69
582.008	10241.95
582.368	10234.49
582.728	10304.77
583.089	10189.07
583.449	10269.97
583.809	10321.49
584.169	10236.98
584.529	10305.68
584.889	10355.17
585.249	10349.06
585.609	10300.25
585.969	10398.1
586.329	10336.86
586.688	10387.26
587.048	10382.28
587.408	10382.51
587.768	10389.97
588.127	10381.61
588.487	10404.2
588.846	10451.89
589.206	10455.28
589.565	10406.01
589.925	10471.55
590.284	10527.59
590.643	10537.76
591.003	10549.28
591.362	10569.4
591.721	10543.41
592.08	10591.77
592.44	10572.34
592.799	10554.03
593.158	10556.52
593.517	10516.74
593.876	10618.89
594.235	10563.3
594.593	10634.48
594.952	10583.18
595.311	10565.1
595.67	10621.6
596.029	10656.17
596.387	10657.3
596.746	10711.54
597.104	10673.58
597.463	10683.52
597.822	10716.29
598.18	10654.14
598.538	10612.79
598.897	10773.01
599.255	10657.08
599.613	10770.97
599.972	10653.69
600.33	10740.24
600.688	10700.02
601.046	10738.21
601.404	10761.71
601.762	10760.13
602.12	10815.49
602.478	10812.1
602.836	10776.17
603.194	10772.1
603.552	10788.6
603.91	10785.44
604.268	10768.49
604.625	10745.89
604.983	10834.25
605.341	10837.64
605.698	10755.16
606.056	10932.1
606.413	10870.41
606.771	10851.42
607.128	10884.87
607.485	10876.06
607.843	10899.11
608.2	10949.27
608.557	10965.55
608.914	10898.65
609.272	10906.56
609.629	10978.2
609.986	10996.28
610.343	10980.23
610.7	11038.09
611.057	11013
611.414	10984.98
611.771	10935.04
612.127	11058.65
612.484	11012.32
612.841	11076.28
613.198	11053.23
613.554	10972.1
613.911	11100.46
614.267	11053
614.624	11107.91
614.98	11115.37
615.337	11149.27
615.693	11104.98
616.05	11045.32
616.406	11192.88
616.762	11130.51
617.118	11098.65
617.475	11128.25
617.831	11122.38
618.187	11124.18
618.543	11212.54
618.899	11243.05
619.255	11259.55
619.611	11207.8
619.967	11210.51
620.323	11336.83
620.678	11262.26
621.034	11202.83
621.39	11209.15
621.746	11129.83
622.101	11340
622.457	11230.62
622.812	11276.5
623.168	11238.08
623.523	11266.78
623.879	11282.82
624.234	11250.96
624.589	11226.56
624.945	11219.55
625.3	11321.69
625.655	11275.14
626.01	11279.89
626.365	11259.1
626.72	11261.13
627.075	11248.7
627.43	11221.13
627.785	11170.74
628.14	11161.7
628.495	11226.1
628.85	11229.49
629.205	11189.04
629.559	11189.27
629.914	11246.44
630.269	11208.48
630.623	11148.37
630.978	11104.07
631.332	11197.86
631.687	11132.32
632.041	11183.17
632.396	11140.91
632.75	11119.67
633.104	11043.96
633.459	11064.3
633.813	11038.99
634.167	11014.58
634.521	11029.72
634.875	11079.89
635.229	11033.79
635.583	11055.49
635.937	10948.6
636.291	10983.62
636.645	11046.45
636.999	10948.6
637.352	10982.49
637.706	10867.69
638.06	10931.2
638.413	11007.35
638.767	10843.97
639.121	10933.23
639.474	10824.31
639.828	10782.5
640.181	10906.34
640.534	10807.81
640.888	10769.39
641.241	10714.93
641.594	10810.75
641.947	10801.93
642.301	10703.63
642.654	10819.79
643.007	10731.65
643.36	10758.54
643.713	10690.98
644.066	10766.23
644.419	10680.35
644.771	10685.78
645.124	10535.05
645.477	10562.62
645.83	10429.74
646.182	10395.62
646.535	10370.53
646.888	10391.77
647.24	10387.48
647.593	10332.79
647.945	10348.84
648.298	10311.32
648.65	10334.15
649.002	10298.67
649.355	10333.47
649.707	10384.77
650.059	10341.38
650.411	10415.5
650.763	10479
651.115	10629.06
651.467	10568.27
651.819	10579.34
652.171	10496.4
652.523	10530.53
652.875	10634.48
653.227	10520.58
653.578	10551.32
653.93	10574.37
654.282	10478.33
654.633	10428.61
654.985	10488.27
655.337	10485.78
655.688	10524.43
656.039	10559
656.391	10401.04
656.742	10482.39
657.094	10498.66
657.445	10584.99
657.796	10519.68
658.147	10460.93
658.498	10548.15
658.849	10494.82
659.2	10487.82
659.551	10436.75
659.902	10514.26
660.253	10451.43
660.604	10504.99
660.955	10487.59
661.306	10457.08
661.656	10468.83
662.007	10441.04
662.358	10458.67
662.708	10530.98
663.059	10488.5
663.409	10443.98
663.76	10523.75
664.11	10464.99
664.461	10472
664.811	10554.48
665.161	10542.51
665.511	10521.49
665.862	10525.56
666.212	10544.54
666.562	10510.42
666.912	10499.34
667.262	10456.86
667.612	10429.97
667.962	10451.43
668.312	10536.63
668.662	10571.88
669.011	10466.8
669.361	10422.73
669.711	10550.19
670.06	10451.89
670.41	10450.08
670.76	10515.84
671.109	10465.45
671.459	10448.04
671.808	10429.51
672.157	10553.35
672.507	10458.44
672.856	10413.92
673.205	10360.59
673.554	10474.26
673.904	10375.5
674.253	10446.46
674.602	10396.07
674.951	10267.26
675.3	10146.58
675.649	10314.71
675.998	10345.67
676.346	10276.3
676.695	10311.55
677.044	10253.25
677.393	10292.57
677.741	10286.69
678.09	10192.01
678.438	10211.21
678.787	10240.14
679.135	10209.63
679.484	10210.31
679.832	10192.01
680.181	10200.37
680.529	10260.25
680.877	10081.27
681.225	10104.55
681.573	10131.67
681.922	10089.18
682.27	10069.3
682.618	10079.47
682.966	10018
683.314	10070.2
683.661	10063.65
684.009	10048.06
684.357	10021.39
684.705	9870.66
685.053	9970.32
685.4	10025.91
685.748	9914.05
686.095	9876.31
686.443	9841.05
686.79	9825.24
687.138	9840.15
687.485	9850.32
687.832	9747.27
688.18	9748.63
688.527	9712.7
688.874	9659.36
689.221	9681.28
689.568	9647.39
689.915	9631.34
690.262	9579.14
690.609	9594.51
690.956	9522.42
691.303	9560.84
691.65	9513.61
691.997	9503.89
692.344	9463.21
692.69	9403.1
693.037	9433.38
693.383	9393.61
693.73	9371.46
694.077	9351.58
694.423	9324.23
694.769	9205.59
695.116	9235.65
695.462	9239.26
695.808	9166.5
696.155	9209.43
696.501	9114.07
696.847	9070
697.193	8941.42
697.539	9053.73
697.885	8956.56
698.231	9009.44
698.577	8983.22
698.923	8866.39
699.269	8864.81
699.614	8814.64
699.96	8839.95
700.306	8823
700.651	8698.49
700.997	8769.44
701.342	8705.27
701.688	8668.2
702.033	8658.94
702.379	8677.7
702.724	8659.39
703.069	8631.6
703.415	8554.99
703.76	8509.56
704.105	8479.73
704.45	8517.93
704.795	8518.15
705.14	8431.6
705.485	8426.85
705.83	8371.49
706.175	8403.8
706.52	8312.73
706.865	8275.45
707.209	8313.86
707.554	8215.56
707.899	8294.2
708.243	8236.58
708.588	8218.5
708.932	8179.4
709.277	8109.57
709.621	8156.35
709.966	8078.39
710.31	8123.81
710.654	8053.31
710.998	8079.97
711.342	8041.55
711.687	8016.47
712.031	7952.74
712.375	7970.82
712.719	7911.84
713.063	7954.32
713.407	7988.67
713.75	7875.68
714.094	7882.91
714.438	7829.58
714.782	7917.49
715.125	7858.28
715.469	7876.59
715.812	7828
716.156	7760.88
716.499	7769.7
716.843	7784.61
717.186	7726.08
717.53	7780.32
717.873	7835.46
718.216	7781.45
718.559	7769.02
718.902	7689.7
719.246	7685.86
719.589	7658.74
719.932	7640.66
720.275	7684.95
720.617	7660.55
720.96	7570.61
721.303	7631.85
721.646	7594.79
721.989	7569.02
722.331	7590.04
722.674	7541.68
723.016	7595.69
723.359	7590.72
723.701	7507.78
724.044	7446.32
724.386	7512.53
724.729	7536.48
725.071	7456.26
725.413	7465.75
725.755	7528.57
726.097	7443.38
726.439	7439.54
726.782	7442.7
727.124	7488.57
727.465	7453.09
727.807	7442.47
728.149	7411.74
728.491	7423.49
728.833	7434.11
729.175	7353.66
729.516	7350.95
729.858	7442.7
730.199	7431.85
730.541	7370.61
730.882	7313.44
731.224	7386.88
731.565	7341.46
731.906	7355.24
732.248	7369.48
732.589	7324.06
732.93	7305.75
733.271	7318.41
733.612	7369.48
733.953	7346.66
734.294	7401.8
734.635	7364.74
734.976	7311.4
735.317	7319.77
735.658	7314.57
735.999	7365.41
736.339	7377.62
736.68	7384.85
737.021	7274.57
737.361	7305.08
737.702	7338.07
738.042	7393.44
738.383	7309.6
738.723	7288.58
739.063	7329.26
739.404	7303.49
739.744	7325.19
740.084	7301.23
740.424	7343.27
740.764	7321.35
741.104	7426.43
741.444	7361.35
741.784	7321.57
742.124	7367.22
742.464	7390.95
742.804	7346.88
743.143	7334.91
743.483	7441.34
743.823	7401.34
744.162	7345.98
744.502	7403.15
744.841	7345.98
745.181	7492.87
745.52	7483.15
745.86	7480.89
746.199	7471.63
746.538	7583.94
746.877	7524.96
747.216	7586.65
747.556	7645.41
747.895	7638.63
748.234	7699.87
748.573	7681.56
748.911	7757.95
749.25	7768.57
749.589	7787.32
749.928	7867.55
750.267	7893.54
750.605	7958.39
750.944	7887.89
751.283	8028.45
751.621	8081.33
751.96	8124.26
752.298	8145.96
752.636	8201.32
752.975	8292.17
753.313	8303.24
753.651	8374.88
753.989	8503.69
754.327	8545.5
754.666	8602.9
755.004	8641.54
755.342	8805.38
755.679	8818.93
756.017	8899.61
756.355	9006.27
756.693	9070.91
757.031	9206.04
757.368	9257.79
757.706	9385.25
758.044	9525.36
758.381	9542.76
758.719	9599.93
759.056	9781.85
759.394	9846.03
759.731	9879.02
760.068	10071.78
760.405	10206.92
760.743	10268.61
761.08	10382.06
761.417	10361.27
761.754	10503.18
762.091	10639
762.428	10737.3
762.765	10777.98
763.102	10923.51
763.438	11078.99
763.775	11062.94
764.112	11314.24
764.449	11371.41
764.785	11386.1
765.122	11444.4
765.458	11591.74
765.795	11739.99
766.131	11802.13
766.467	11870.15
766.804	11918.74
767.14	12076.7
767.476	12117.83
767.812	12152.63
768.148	12317.83
768.485	12299.07
768.821	12320.76
769.157	12477.82
769.492	12530.93
769.828	12568.21
770.164	12545.62
770.5	12713.07
770.836	12877.36
771.171	12796.23
771.507	12929.56
771.842	12843.46
772.178	12969.11
772.513	12987.64
772.849	13042.1
773.184	13007.07
773.519	13117.58
773.855	13154.41
774.19	13151.48
774.525	13183.11
774.86	13163.91
775.195	13268.54
775.53	13252.72
775.865	13275.09
776.2	13188.31
776.535	13170.68
776.87	13361.87
777.205	13250
777.539	13328.42
777.874	13359.61
778.209	13302.21
778.543	13286.16
778.878	13295.88
779.212	13342.43
779.547	13307.86
779.881	13402.32
780.215	13390.11
780.55	13433.73
780.884	13343.56
781.218	13318.7
781.552	13437.57
781.886	13305.37
782.22	13306.27
782.554	13303.11
782.888	13262.89
783.222	13172.49
783.556	13214.75
783.889	13145.15
784.223	13099.73
784.557	13071.93
784.89	13199.16
785.224	13141.31
785.557	13047.07
785.891	13128.88
786.224	13065.38
786.558	13064.47
786.891	13019.28
787.224	12954.42
787.557	12933.63
787.891	12987.41
788.224	12963.68
788.557	12936.11
788.89	12941.31
789.223	12963.91
789.556	12944.02
789.888	12850.47
790.221	12826.29
790.554	12858.83
790.887	12744.71
791.219	12785.84
791.552	12692.51
791.884	12646.4
792.217	12655.67
792.549	12539.29
792.882	12668.55
793.214	12600.98
793.546	12615.22
793.879	12452.74
794.211	12400.31
794.543	12542.23
794.875	12469.01
795.207	12500.65
795.539	12389.46
795.871	12515.56
796.203	12311.5
796.535	12280.54
796.867	12310.37
797.198	12184.95
797.53	12244.83
797.862	12200.99
798.193	12123.03
798.525	12091.62
798.856	12179.52
799.188	12027.44
799.519	11962.58
799.85	11928.23
800.182	11949.47
800.513	11961.68
800.844	11895.24
801.175	11948.34
801.506	11901.11
801.837	11808.69
802.168	11873.09
802.499	11754.68
802.83	11702.25
803.161	11737.5
803.491	11699.31
803.822	11641.23
804.153	11594.23
804.483	11552.2
804.814	11548.58
805.145	11568.92
805.475	11598.75
805.805	11491.63
806.136	11510.84
806.466	11457.51
806.796	11478.75
807.126	11337.96
807.457	11321.92
807.787	11311.75
808.117	11299.55
808.447	11213.45
808.777	11301.81
809.107	11266.33
809.436	11232.88
809.766	11265.65
810.096	11168.7
810.426	11132.32
810.755	11130.29
811.085	11136.39
811.414	11035.15
811.744	11007.35
812.073	11028.37
812.403	11040.12
812.732	10968.26
813.061	10920.8
813.39	10957.64
813.719	10898.43
814.049	10934.13
814.378	10860.46
814.707	10907.24
815.036	10789.96
815.365	10783.85
815.693	10717.87
816.022	10652.33
816.351	10760.13
816.68	10675.84
817.008	10716.06
817.337	10646.46
817.665	10556.74
817.994	10614.14
818.322	10577.08
818.651	10552
818.979	10524.88
819.307	10578.66
819.636	10511.32
819.964	10468.16
820.292	10473.35
820.62	10519.68
820.948	10440.59
821.276	10448.72
821.604	10471.55
821.932	10457.76
822.259	10390.19
822.587	10406.24
822.915	10350.42
823.243	10492.56
823.57	10383.64
823.898	10484.65
824.225	10482.39
824.553	10416.63
824.88	10410.76
825.207	10444.2
825.535	10435.62
825.862	10415.28
826.189	10437.42
826.516	10510.64
826.843	10502.73
827.17	10495.27
827.497	10500.02
827.824	10487.14
828.151	10503.64
828.478	10493.92
828.805	10530.08
829.131	10430.87
829.458	10428.84
829.785	10334.83
830.111	10470.42
830.438	10451.43
830.764	10475.61
831.09	10484.65
831.417	10351.1
831.743	10448.5
832.069	10420.25
832.395	10427.03
832.722	10396.97
833.048	10386.58
833.374	10379.35
833.7	10348.16
834.026	10384.09
834.351	10366.24
834.677	10429.74
835.003	10362.85
835.329	10319.46
835.654	10358.33
835.98	10269.97
836.306	10365.79
836.631	10246.47
836.956	10294.83
837.282	10299.57
837.607	10222.06
837.932	10267.03
838.258	10184.77
838.583	10231.55
838.908	10166.47
839.233	10236.3
839.558	10186.36
839.883	10111.78
840.208	10110.65
840.533	10128.73
840.858	10034.04
841.182	10143.65
841.507	10088.28
841.832	10024.78
842.156	9988.4
842.481	10051.44
842.805	9959.47
843.13	9948.4
843.454	9943.88
843.778	9895.97
844.103	9882.64
844.427	9930.32
844.751	9855.52
845.075	9792.92
845.399	9837.89
845.723	9742.98
846.047	9767.61
846.371	9685.13
846.695	9645.35
847.019	9529.65
847.343	9541.85
847.666	9465.25
847.99	9487.62
848.313	9445.58
848.637	9359.03
848.96	9437.68
849.284	9409.65
849.607	9297.57
849.931	9307.51
850.254	9277.23
850.577	9275.65
850.9	9118.59
851.223	9057.12
851.546	9067.29
851.869	9034.52
852.192	9020.06
852.515	9035.88
852.838	8924.47
853.161	8948.42
853.483	8885.6
853.806	8894.19
854.129	8853.28
854.451	8853.51
854.774	8823.45
855.096	8751.37
855.419	8772.16
855.741	8713.4
856.063	8680.63
856.385	8653.52
856.708	8686.73
857.03	8613.97
857.352	8559.28
857.674	8581.2
857.996	8588.66
858.318	8526.74
858.64	8527.64
858.961	8505.04
859.283	8425.95
859.605	8412.62
859.926	8428.44
860.248	8387.76
860.57	8385.05
860.891	8402.45
861.212	8383.24
861.534	8233.41
861.855	8253.98
862.176	8317.71
862.498	8329.68
862.819	8235.45
863.14	8202
863.461	8227.76
863.782	8199.52
864.103	8221.44
864.424	8216.92
864.745	8197.48
865.065	8199.06
865.386	8127.2
865.707	8087.65
866.027	8064.83
866.348	8075.68
866.668	8151.83
866.989	8000.43
867.309	8024.38
867.63	8091.5
867.95	8021.22
868.27	7949.13
868.59	7968.79
868.91	8041.55
869.23	7939.18
869.55	7945.06
869.87	7983.48
870.19	7947.77
870.51	7989.58
870.83	7967.88
871.15	7924.27
871.469	7887.66
871.789	7869.81
872.109	7873.42
872.428	7857.6
872.748	7832.52
873.067	7917.04
873.386	7814.44
873.706	7818.51
874.025	7786.65
874.344	7814.67
874.663	7811.5
874.982	7759.3
875.301	7762.69
875.62	7747.32
875.939	7680.21
876.258	7688.8
876.577	7689.92
876.896	7727.44
877.214	7654.45
877.533	7694.9
877.852	7656.48
878.17	7641.79
878.489	7638.85
878.807	7715.01
879.125	7627.1
879.444	7612.64
879.762	7510.04
880.08	7540.32
880.398	7492.87
880.716	7586.65
881.034	7492.87
881.352	7489.7
881.67	7522.7
881.988	7468.01
882.306	7435.69
882.624	7399.54
882.941	7341.69
883.259	7386.2
883.577	7303.72
883.894	7377.62
884.212	7324.51
884.529	7339.88
884.846	7295.13
885.164	7329.48
885.481	7297.84
885.798	7267.79
886.115	7189.6
886.432	7182.14
886.75	7194.57
887.067	7173.55
887.383	7131.52
887.7	7169.71
888.017	7154.12
888.334	7155.93
888.651	7088.36
888.967	7131.52
889.284	7077.06
889.6	7085.65
889.917	7005.65
890.233	7020.11
890.55	7000.9
890.866	6942.83
891.182	6987.12
891.498	6978.31
891.815	6885.43
892.131	6868.93
892.447	6878.87
892.763	6872.77
893.079	6796.39
893.395	6818.31
893.71	6821.93
894.026	6767.92
894.342	6796.16
894.657	6764.07
894.973	6736.5
895.289	6677.3
895.604	6665.55
895.92	6603.63
896.235	6642.27
896.55	6580.12
896.865	6616.51
897.181	6537.19
897.496	6531.54
897.811	6529.96
898.126	6495.61
898.441	6479.79
898.756	6449.96
899.071	6399.56
899.386	6474.36
899.7	6359.11
900.015	6325.89
900.33	6346.91
900.644	6327.25
900.959	6296.74
901.273	6312.56
901.588	6210.87
901.902	6213.81
902.216	6205.9
902.531	6185.11
902.845	6167.48
903.159	6104.88
903.473	6141.27
903.787	6056.52
904.101	6113.47
904.415	6011.32
904.729	5950.76
905.042	5921.16
905.356	5980.59
905.67	5930.65
905.984	5915.96
906.297	5941.5
906.611	5889.52
906.924	5899.92
907.237	5866.47
907.551	5838.67
907.864	5791.67
908.177	5790.99
908.491	5821.05
908.804	5785.34
909.117	5726.36
909.43	5683.42
909.743	5660.6
910.056	5646.59
910.368	5663.99
910.681	5620.83
910.994	5604.33
911.307	5602.3
911.619	5552.81
911.932	5511.45
912.244	5494.05
912.557	5499.25
912.869	5470.77
913.181	5429.19
913.494	5429.87
913.806	5385.8
914.118	5353.04
914.43	5364.11
914.742	5398.46
915.054	5335.41
915.366	5303.32
915.678	5219.71
915.99	5278.01
916.302	5223.55
916.613	5163.66
916.925	5209.99
917.236	5185.36
917.548	5159.6
917.859	5150.78
918.171	5086.15
918.482	5054.06
918.794	5060.84
919.105	5042.31
919.416	5045.47
919.727	5012.26
920.038	5008.41
920.349	4964.12
920.66	4929.09
920.971	4975.87
921.282	4916.21
921.593	4887.96
921.903	4846.84
922.214	4833.5
922.525	4861.07
922.835	4843.22
923.146	4770.68
923.456	4814.75
923.767	4769.78
924.077	4761.64
924.387	4713.96
924.697	4699.5
925.008	4691.59
925.318	4632.38
925.628	4635.77
925.938	4624.92
926.248	4604.13
926.558	4538.37
926.867	4572.04
927.177	4572.04
927.487	4534.53
927.796	4484.36
928.106	4475.77
928.416	4473.06
928.725	4472.38
929.034	4424.7
929.344	4437.13
929.653	4434.19
929.962	4382.67
930.271	4355.78
930.581	4351.26
930.89	4356
931.199	4290.47
931.508	4272.16
931.817	4291.37
932.125	4288.43
932.434	4258.38
932.743	4219.28
933.051	4189.45
933.36	4182.67
933.669	4196.46
933.977	4165.72
934.286	4158.72
934.594	4146.74
934.902	4086.18
935.21	4099.28
935.519	4108.55
935.827	4093.41
936.135	4058.83
936.443	3996.91
936.751	4021.09
937.059	4006.63
937.367	4013.64
937.674	3976.35
937.982	3970.25
938.29	3950.14
938.597	3940.19
938.905	3888.44
939.213	3882.57
939.52	3892.06
939.827	3879.18
940.135	3837.37
940.442	3802.12
940.749	3824.26
941.056	3795.11
941.363	3767.09
941.67	3772.97
941.977	3777.71
942.284	3709.01
942.591	3749.01
942.898	3725.28
943.205	3694.32
943.511	3645.96
943.818	3637.15
944.125	3603.03
944.431	3629.69
944.738	3604.61
945.044	3618.62
945.35	3522.58
945.657	3569.58
945.963	3577.49
946.269	3516.93
946.575	3508.34
946.881	3522.58
947.187	3476.93
947.493	3484.84
947.799	3445.06
948.105	3433.77
948.41	3412.52
948.716	3436.48
949.022	3422.92
949.327	3381.56
949.633	3365.29
949.938	3333.88
950.244	3354.9
950.549	3324.16
950.854	3327.33
951.16	3280.78
951.465	3312.86
951.77	3282.81
952.075	3250.49
952.38	3278.29
952.685	3231.96
952.99	3191.06
953.294	3229.48
953.599	3171.63
953.904	3193.32
954.209	3143.38
954.513	3178.86
954.818	3106.54
955.122	3161.91
955.426	3107.67
955.731	3114
956.035	3125.98
956.339	3062.7
956.643	3050.27
956.948	3069.71
957.252	3041.23
957.556	3036.49
957.86	2983.38
958.163	2976.15
958.467	2973.21
958.771	3010.05
959.075	2970.5
959.378	2953.33
959.682	2971.4
959.985	2943.16
960.289	2909.94
960.592	2877.62
960.896	2903.16
961.199	2897.51
961.502	2872.2
961.805	2872.65
962.108	2854.35
962.411	2843.5
962.714	2833.1
963.017	2826.78
963.32	2812.54
963.623	2766.21
963.926	2774.8
964.228	2764.4
964.531	2710.39
964.833	2761.01
965.136	2745.65
965.438	2704.97
965.741	2700.23
966.043	2690.06
966.345	2690.73
966.648	2682.6
966.95	2622.71
967.252	2615.26
967.554	2660
967.856	2639.21
968.158	2629.94
968.46	2615.71
968.761	2608.93
969.063	2598.08
969.365	2560.57
969.666	2552.66
969.968	2535.26
970.269	2560.79
970.571	2548.59
970.872	2539.78
971.174	2509.95
971.475	2515.82
971.776	2460.23
972.077	2488.48
972.378	2448.48
972.679	2474.02
972.98	2471.98
973.281	2440.12
973.582	2429.72
973.883	2396.73
974.183	2420.68
974.484	2396.5
974.785	2365.32
975.085	2377.75
975.386	2366.45
975.686	2354.92
975.986	2347.92
976.287	2332.33
976.587	2339.78
976.887	2337.3
977.187	2312.21
977.487	2297.75
977.787	2296.62
978.087	2293
978.387	2248.03
978.687	2272.67
978.987	2266.11
979.286	2232.44
979.586	2240.58
979.885	2221.14
980.185	2240.35
980.484	2181.37
980.784	2211.42
981.083	2197.19
981.382	2223.4
981.682	2191.54
981.981	2140.69
982.28	2146.79
982.579	2104.76
982.878	2152.9
983.177	2158.32
983.475	2129.39
983.774	2109.51
984.073	2103.86
984.372	2093.01
984.67	2086.46
984.969	2071.32
985.267	2061.37
985.566	2054.82
985.864	2063.86
986.162	2033.8
986.461	2034.93
986.759	2032.22
987.057	2006.68
987.355	2006.91
987.653	2006.91
987.951	1991.77
988.249	1986.8
988.547	1947.93
988.844	1969.4
989.142	1939.79
989.44	1911.32
989.737	1943.64
990.035	1954.48
990.332	1902.28
990.63	1909.74
990.927	1889.4
991.224	1867.93
991.521	1886.91
991.819	1854.37
992.116	1866.12
992.413	1857.76
992.71	1848.95
993.006	1842.17
993.303	1799.68
993.6	1828.16
993.897	1797.42
994.193	1792
994.49	1803.3
994.787	1796.75
995.083	1805.79
995.379	1774.6
995.676	1771.21
995.972	1744.54
996.268	1741.83
996.565	1729.86
996.861	1734.15
997.157	1732.79
997.453	1733.25
997.749	1722.4
998.044	1694.15
998.34	1710.87
998.636	1696.18
998.932	1688.27
999.227	1676.3
999.523	1685.79
999.818	1672.91
1000.114	1622.51
1000.409	1604.44
1000.704	1655.51
1001	1615.73
1001.295	1605.11
1001.59	1630.42
1001.885	1604.66
1002.18	1588.84
1002.475	1585.68
1002.77	1557.66
1003.065	1548.62
1003.359	1580.48
1003.654	1568.73
1003.949	1526.47
1004.243	1536.64
1004.538	1522.86
1004.832	1533.25
1005.127	1498.68
1005.421	1485.57
1005.715	1506.13
1006.009	1468.39
1006.304	1482.86
1006.598	1462.07
1006.892	1440.82
1007.186	1424.33
1007.48	1431.33
1007.773	1441.95
1008.067	1403.08
1008.361	1435.17
1008.655	1401.05
1008.948	1395.63
1009.242	1385.68
1009.535	1389.75
1009.829	1382.29
1010.122	1416.64
1010.415	1368.06
1010.708	1372.58
1011.001	1354.72
1011.295	1354.05
1011.588	1349.98
1011.881	1349.75
1012.173	1316.08
1012.466	1357.66
1012.759	1328.74
1013.052	1301.84
1013.344	1312.92
1013.637	1310.43
1013.93	1261.39
1014.222	1258.46
1014.514	1323.31
1014.807	1262.52
1015.099	1259.36
1015.391	1254.39
1015.683	1241.28
1015.976	1259.13
1016.268	1196.54
1016.56	1235.41
1016.851	1210.32
1017.143	1238.57
1017.435	1209.42
1017.727	1196.76
1018.018	1180.94
1018.31	1210.77
1018.602	1194.95
1018.893	1169.19
1019.185	1164.9
1019.476	1179.81
1019.767	1159.25
1020.058	1155.86
1020.35	1130.55
1020.641	1125.13
1020.932	1112.02
1021.223	1127.84
1021.514	1122.19
1021.804	1093.49
1022.095	1102.75
1022.386	1109.31
1022.677	1079.25
1022.967	1083.32
1023.258	1085.13
1023.548	1037.67
1023.839	1055.52
1024.129	1048.07
1024.419	1056.43
1024.709	1027.28
1025	1027.73
1025.29	1021.4
1025.58	1044.68
1025.87	998.58
1026.16	1018.69
1026.449	999.25
1026.739	997.9
1027.029	993.15
1027.319	982.08
1027.608	963.1
1027.898	1004.9
1028.187	979.37
1028.477	946.6
1028.766	953.38
1029.055	935.75
1029.344	954.96
1029.634	922.65
1029.923	931.46
1030.212	941.63
1030.501	909.31
1030.79	909.99
1031.078	907.28
1031.367	915.64
1031.656	889.2
1031.945	887.39
1032.233	882.87
1032.522	909.31
1032.81	883.32
1033.099	868.86
1033.387	872.93
1033.675	861.4
1033.963	851.01
1034.251	855.53
1034.54	841.97
1034.828	851.23
1035.116	832.93
1035.403	841.29
1035.691	837.22
1035.979	820.28
1036.267	813.72
1036.554	818.69
1036.842	800.61
1037.129	823.21
1037.417	814.85
1037.704	791.35
1037.992	802.2
1038.279	798.58
1038.566	764.01
1038.853	764.01
1039.14	764.01
