Data from hue_24_FLMS001491_00022.txt Node
Date: Tue Feb 07 17:12:01 GMT 2017
User: dcchb
Spectrometer: FLMS00149
Trigger mode: 0
Integration Time (sec): 2.000000E-2
Scans to average: 10
Electric dark correction enabled: true
Nonlinearity correction enabled: false
Boxcar width: 0
XAxis mode: Wavelengths
Number of Pixels in Spectrum: 2048
>>>>>Begin Spectral Data<<<<<
341.393	-23.13
341.776	-23.13
342.16	-23.13
342.543	-64.49
342.927	-47.32
343.31	-74.43
343.693	-58.84
344.077	-74.66
344.46	-47.09
344.843	-44.83
345.226	-50.03
345.61	-8.67
345.993	-13.42
346.376	-9.8
346.759	12.8
347.142	32.91
347.525	43.3
347.908	31.33
348.291	86.47
348.674	77.65
349.057	97.31
349.44	133.47
349.823	144.54
350.206	149.29
350.588	198.1
350.971	224.32
351.354	246.24
351.737	241.72
352.119	248.72
352.502	275.84
352.884	276.29
353.267	290.53
353.65	308.83
354.032	330.75
354.414	302.96
354.797	309.51
355.179	321.04
355.562	317.87
355.944	334.14
356.326	330.3
356.709	349.51
357.091	345.22
357.473	352
357.855	351.54
358.238	346.57
358.62	357.87
359.002	348.83
359.384	343.18
359.766	353.13
360.148	354.48
360.53	337.53
360.912	335.05
361.294	323.3
361.676	334.6
362.057	340.25
362.439	345.44
362.821	326.91
363.203	328.27
363.584	317.42
363.966	327.59
364.348	357.19
364.729	331.43
365.111	331.66
365.493	332.34
365.874	318.1
366.256	320.13
366.637	317.65
367.019	315.84
367.4	326.23
367.781	324.2
368.163	326.46
368.544	304.31
368.925	319.68
369.306	325.78
369.688	304.09
370.069	318.78
370.45	334.6
370.831	321.71
371.212	316.74
371.593	311.55
371.974	325.33
372.355	323.3
372.736	331.66
373.117	325.78
373.498	315.84
373.879	320.36
374.26	335.05
374.641	330.53
375.021	327.36
375.402	347.93
375.783	333.69
376.163	325.1
376.544	320.13
376.925	330.08
377.305	334.37
377.686	329.17
378.066	325.56
378.447	333.92
378.827	350.41
379.208	341.6
379.588	351.77
379.968	332.56
380.349	351.09
380.729	329.17
381.109	351.77
381.489	349.28
381.87	354.93
382.25	344.76
382.63	359
383.01	351.32
383.39	350.41
383.77	358.55
384.15	358.78
384.53	340.25
384.91	360.36
385.29	364.65
385.67	344.54
386.049	368.72
386.429	362.84
386.809	345.67
387.189	353.35
387.568	352.67
387.948	364.88
388.328	352.22
388.707	347.02
389.087	379.57
389.466	362.17
389.846	355.16
390.225	342.51
390.605	359.91
390.984	384.31
391.363	372.79
391.743	373.46
392.122	393.13
392.501	371.2
392.881	385.67
393.26	402.16
393.639	404.42
394.018	390.19
394.397	414.14
394.776	379.11
395.155	386.12
395.534	378.21
395.913	392.9
396.292	410.07
396.671	400.13
397.05	399.23
397.429	400.13
397.808	403.07
398.186	403.07
398.565	408.49
398.944	404.88
399.323	398.77
399.701	405.33
400.08	396.74
400.458	427.25
400.837	404.2
401.215	426.12
401.594	421.6
401.972	416.85
402.351	424.31
402.729	417.76
403.107	435.61
403.486	424.76
403.864	436.74
404.242	431.32
404.62	424.76
404.999	418.21
405.377	431.54
405.755	441.94
406.133	439
406.511	445.33
406.889	452.11
407.267	435.61
407.645	451.65
408.023	460.02
408.401	434.25
408.779	459.11
409.156	451.65
409.534	446.01
409.912	462.5
410.29	479.45
410.667	460.02
411.045	484.2
411.422	448.04
411.8	455.04
412.178	501.6
412.555	482.39
412.933	497.98
413.31	474.03
413.687	497.3
414.065	486.23
414.442	485.33
414.819	496.85
415.197	519
415.574	500.02
415.951	496.17
416.328	483.74
416.705	535.95
417.082	506.79
417.46	528.04
417.837	526
418.214	515.83
418.591	541.14
418.967	511.54
419.344	536.4
419.721	524.87
420.098	512.9
420.475	523.52
420.852	526.91
421.228	533.23
421.605	562.16
421.982	569.39
422.358	552.67
422.735	549.96
423.111	567.13
423.488	570.52
423.864	577.75
424.241	580.92
424.617	579.79
424.994	594.02
425.37	558.32
425.746	581.59
426.123	568.49
426.499	596.96
426.875	595.15
427.251	592.44
427.627	570.07
428.003	603.74
428.379	635.83
428.756	620.69
429.132	628.37
429.507	643.06
429.883	641.03
430.259	628.6
430.635	649.39
431.011	654.81
431.387	677.41
431.763	682.61
432.138	672.21
432.514	674.93
432.89	665.43
433.265	685.09
433.641	690.07
434.016	712.66
434.392	694.81
434.767	708.82
435.143	710.86
435.518	717.18
435.894	694.81
436.269	714.47
436.644	733.91
437.02	737.97
437.395	747.69
437.77	733.91
438.145	758.77
438.52	754.92
438.895	752.44
439.271	771.65
439.646	752.44
440.021	769.39
440.395	765.32
440.77	782.49
441.145	766.9
441.52	786.56
441.895	784.75
442.27	797.86
442.645	793.79
443.019	818.65
443.394	788.6
443.769	824.98
444.143	823.4
444.518	830.18
444.892	817.52
445.267	820.01
445.641	853.9
446.016	852.32
446.39	842.38
446.764	859.55
447.139	860.46
447.513	859.33
447.887	878.31
448.262	857.52
448.636	852.77
449.01	867.01
449.384	890.06
449.758	893
450.132	893
450.506	909.5
450.88	913.79
451.254	929.16
451.628	926.67
452.002	942.26
452.376	916.28
452.75	924.18
453.123	927.57
453.497	949.27
453.871	976.39
454.244	980.23
454.618	957.4
454.992	1019.78
455.365	986.1
455.739	1022.49
456.112	1049.15
456.486	1014.8
456.859	1021.13
457.232	1054.8
457.606	1052.54
457.979	1064.29
458.352	1078.53
458.725	1108.13
459.099	1100.45
459.472	1115.82
459.845	1130.28
460.218	1137.51
460.591	1139.09
460.964	1168.92
461.337	1166.21
461.71	1182.26
462.083	1196.04
462.456	1220.45
462.829	1228.81
463.201	1243.72
463.574	1235.14
463.947	1243.72
464.32	1274.46
464.692	1291.41
465.065	1268.13
465.438	1291.41
465.81	1320.78
466.183	1362.37
466.555	1344.74
466.928	1374.79
467.3	1390.16
467.672	1392.2
468.045	1449.82
468.417	1427.67
468.789	1420.67
469.161	1443.72
469.534	1482.14
469.906	1517.84
470.278	1504.51
470.65	1522.14
471.022	1571.85
471.394	1600.55
471.766	1591.96
472.138	1609.36
472.51	1640.55
472.882	1701.79
473.253	1721.45
473.625	1699.08
473.997	1783.37
474.369	1770.94
474.74	1807.33
475.112	1851.39
475.484	1898.85
475.855	1876.02
476.227	1919.41
476.598	1960.54
476.97	1979.52
477.341	2015.46
477.713	2055.68
478.084	2075.79
478.455	2190.82
478.827	2175
479.198	2222.91
479.569	2250.03
479.94	2296.13
480.311	2315.79
480.682	2372.51
481.053	2421.09
481.424	2479.4
481.795	2527.98
482.166	2546.06
482.537	2586.74
482.908	2648.21
483.279	2673.07
483.65	2725.27
484.021	2820.63
484.391	2796.9
484.762	2872.38
485.133	2905.6
485.503	2952.83
485.874	3058.14
486.244	3072.38
486.615	3140.17
486.985	3179.04
487.356	3223.56
487.726	3275.31
488.097	3334.52
488.467	3386.72
488.837	3426.27
489.207	3491.57
489.578	3611.57
489.948	3607.5
490.318	3601.85
490.688	3643.89
491.058	3720.04
491.428	3796.43
491.798	3896.54
492.168	3938.12
492.538	3955.97
492.908	3986.93
493.278	4056.31
493.648	4028.28
494.017	4130.88
494.387	4183.76
494.757	4162.74
495.126	4246.36
495.496	4263.98
495.866	4318.9
496.235	4367.26
496.605	4396.18
496.974	4445.45
497.344	4493.13
497.713	4538.78
498.082	4529.51
498.452	4577.42
498.821	4612.45
499.19	4626.23
499.559	4662.62
499.928	4749.62
500.298	4825.78
500.667	4809.73
501.036	4801.6
501.405	4841.6
501.774	4864.42
502.143	4910.29
502.512	4953.91
502.88	4962.27
503.249	4950.07
503.618	5036.84
503.987	5060.35
504.356	5140.35
504.724	5099.67
505.093	5166.33
505.462	5146.67
505.83	5225.31
506.199	5265.31
506.567	5296.27
506.936	5301.47
507.304	5322.26
507.672	5356.84
508.041	5389.38
508.409	5398.42
508.777	5502.82
509.145	5468.7
509.514	5529.26
509.882	5510.73
510.25	5571.52
510.618	5590.95
510.986	5594.12
511.354	5664.85
511.722	5718.86
512.09	5692.42
512.458	5724.06
512.826	5772.42
513.193	5783.49
513.561	5800.44
513.929	5885.86
514.297	5894
514.664	5917.95
515.032	5939.42
515.4	5939.19
515.767	5982.13
516.135	6012.64
516.502	6006.31
516.869	6098.29
517.237	6091.73
517.604	6118.85
517.972	6138.28
518.339	6163.14
518.706	6150.49
519.073	6192.52
519.44	6210.15
519.808	6265.06
520.175	6303.25
520.542	6374.44
520.909	6377.83
521.276	6361.56
521.643	6409.69
522.009	6454.43
522.376	6512.51
522.743	6540.76
523.11	6609.23
523.477	6629.35
523.843	6644.26
524.21	6681.32
524.577	6730.36
524.943	6743.69
525.31	6782.11
525.676	6810.13
526.043	6875.89
526.409	6977.36
526.776	6998.15
527.142	7028.43
527.508	7027.08
527.874	7064.36
528.241	7129.67
528.607	7142.55
528.973	7180.97
529.339	7164.92
529.705	7235.43
530.071	7278.59
530.437	7348.87
530.803	7383.68
531.169	7469.78
531.535	7394.75
531.901	7400.4
532.267	7532.6
532.632	7573.73
532.998	7500.28
533.364	7600.17
533.73	7630.68
534.095	7678.58
534.461	7733.05
534.826	7757.9
535.192	7769.43
535.557	7834.29
535.923	7902.76
536.288	7806.72
536.653	7889.2
537.019	7911.12
537.384	7965.36
537.749	7999.48
538.114	7987.5
538.479	8023.21
538.845	8032.25
539.21	8046.71
539.575	8099.82
539.94	8160.15
540.305	8155.18
540.67	8176.88
541.034	8262.3
541.399	8242.64
541.764	8284.44
542.129	8298.23
542.494	8431.33
542.858	8405.8
543.223	8451.22
543.587	8534.83
543.952	8529.63
544.316	8529.63
544.681	8555.85
545.045	8630.87
545.41	8622.51
545.774	8671.33
546.138	8709.29
546.503	8720.14
546.867	8693.7
547.231	8747.71
547.595	8830.19
547.959	8879.68
548.324	8867.03
548.688	8833.81
549.052	8891.88
549.416	8954.48
549.779	8947.02
550.143	9015.05
550.507	9126.68
550.871	9070.19
551.235	9078.77
551.599	9117.87
551.962	9259.78
552.326	9264.98
552.689	9221.59
553.053	9260.69
553.417	9277.19
553.78	9340.46
554.143	9332.33
554.507	9420.68
554.87	9414.13
555.234	9475.82
555.597	9514.02
555.96	9486.9
556.323	9539.55
556.686	9620.91
557.05	9616.39
557.413	9650.51
557.776	9693.45
558.139	9697.97
558.502	9766.44
558.865	9677.63
559.228	9871.29
559.59	9842.59
559.953	9843.05
560.316	9990.16
560.679	9959.2
561.041	10031.29
561.404	10004.62
561.767	10032.19
562.129	10031.52
562.492	10201.45
562.854	10127.56
563.217	10157.16
563.579	10168.91
563.941	10322.81
564.304	10326.42
564.666	10363.71
565.028	10340.66
565.39	10386.31
565.753	10522.35
566.115	10474.44
566.477	10525.51
566.839	10524.84
567.201	10615
567.563	10637.6
567.925	10783.81
568.287	10717.37
568.648	10763.02
569.01	10856.35
569.372	10934.32
569.734	10842.79
570.095	10923.7
570.457	10989.23
570.819	11067.65
571.18	11050.02
571.542	11132.73
571.903	11182.45
572.265	11195.78
572.626	11239.85
572.987	11328.2
573.349	11352.61
573.71	11431.48
574.071	11478.94
574.432	11526.39
574.794	11611.59
575.155	11664.69
575.516	11641.19
575.877	11780.4
576.238	11793.28
576.599	11874.63
576.96	11974.06
577.32	12027.17
577.681	12110.56
578.042	12300.16
578.403	12343.77
578.763	12445.46
579.124	12475.29
579.485	12578.34
579.845	12764.33
580.206	12826.02
580.566	12981.27
580.927	13026.69
581.287	13189.62
581.648	13312.11
582.008	13480.46
582.368	13571.31
582.728	13762.94
583.089	13892.88
583.449	13966.1
583.809	14164.74
584.169	14402.93
584.529	14479.31
584.889	14796.14
585.249	14934.44
585.609	15107.31
585.969	15366.97
586.329	15455.1
586.688	15676.34
587.048	15816.67
587.408	16051.92
587.768	16374.4
588.127	16535.98
588.487	16734.62
588.846	17188.84
589.206	17154.94
589.565	17509.06
589.925	17909.05
590.284	18126.22
590.643	18240.57
591.003	18637.84
591.362	19001.22
591.721	19099.53
592.08	19426.52
592.44	19728.44
592.799	19980.41
593.158	20289.55
593.517	20539.26
593.876	20970.66
594.235	21174.95
594.593	21498.11
594.952	21857.87
595.311	22028.49
595.67	22465.99
596.029	22855.13
596.387	23218.97
596.746	23503.93
597.104	23642.01
597.463	23892.39
597.822	24426.62
598.18	24454.41
598.538	24733.5
598.897	25385.69
599.255	25416.2
599.613	26021.15
599.972	26195.84
600.33	26634.7
600.688	26792.88
601.046	27136.6
601.404	27559.42
601.762	27655.23
602.12	28205.73
602.478	28491.14
602.836	28628.32
603.194	28864.02
603.552	29152.37
603.91	29393.27
604.268	29926.81
604.625	29823.99
604.983	30377.42
605.341	30387.36
605.698	30826.45
606.056	31272.09
606.413	31397.96
606.771	31716.6
607.128	31962.46
607.485	32032.52
607.843	32365.39
608.2	32825.72
608.557	32962.44
608.914	33126.5
609.272	33672.7
609.629	33904.11
609.986	34158.34
610.343	34252.35
610.7	34620.47
611.057	34730.53
611.414	35037.19
611.771	35201.93
612.127	35587
612.484	35687.56
612.841	35855.92
613.198	35890.95
613.554	36206.42
613.911	36539.75
614.267	36686.86
614.624	36828.55
614.98	36998.04
615.337	37182.21
615.693	37437.8
616.05	37562.77
616.406	37887.51
616.762	37802.31
617.118	38104.68
617.475	38160.95
617.831	38501.95
618.187	38627.37
618.543	38817.43
618.899	39023.52
619.255	39144.87
619.611	39321.14
619.967	39395.94
620.323	39654.01
620.678	39641.81
621.034	39615.37
621.39	39777.4
621.746	39784.18
622.101	40272.75
622.457	40087.67
622.812	40188.69
623.168	40491.51
623.523	40519.98
623.879	40709.13
624.234	40644.95
624.589	40890.37
624.945	41064.15
625.3	41119.29
625.655	41038.84
626.01	41199.96
626.365	41313.86
626.72	41354.76
627.075	41376.45
627.43	41447.64
627.785	41459.62
628.14	41694.86
628.495	41743.22
628.85	41720.17
629.205	41550.91
629.559	41847.85
629.914	41806.05
630.269	41873.84
630.623	41729.89
630.978	41755.65
631.332	42133.72
631.687	42201.97
632.041	42023.44
632.396	42140.5
632.75	42063.67
633.104	42089.43
633.459	42087.17
633.813	42098.92
634.167	42079.49
634.521	42006.95
634.875	42337.11
635.229	42122.2
635.583	42041.3
635.937	42117.9
636.291	42196.77
636.645	42130.56
636.999	42087.17
637.352	42368.74
637.706	41986.16
638.06	42321.29
638.413	42118.13
638.767	41976.44
639.121	42173.72
639.474	41929.89
639.828	41900.06
640.181	42063.89
640.534	42041.3
640.888	41965.37
641.241	41855.09
641.594	41997.46
641.947	42151.12
642.301	41931.24
642.654	42049.43
643.007	42121.07
643.36	42104.12
643.713	41924.24
644.066	42127.62
644.419	41773.05
644.771	41613.28
645.124	41279.51
645.477	41216.68
645.83	40961.55
646.182	40919.74
646.535	40805.4
646.888	40854.21
647.24	40696.92
647.593	41026.18
647.945	40919.97
648.298	40669.81
648.65	40509.81
649.002	40584.16
649.355	40759.97
649.707	40762.23
650.059	40840.65
650.411	41318.6
650.763	41320.18
651.115	41732.38
651.467	41536.45
651.819	41693.96
652.171	41525.38
652.523	41484.02
652.875	41616.22
653.227	41303.69
653.578	41697.8
653.93	41351.6
654.282	41456.45
654.633	41394.31
654.985	41372.84
655.337	41442.67
655.688	41349.56
656.039	41560.4
656.391	41119.51
656.742	41291.03
657.094	41291.26
657.445	41552.04
657.796	41364.48
658.147	41238.6
658.498	41092.39
658.849	41364.7
659.2	41213.75
659.551	41199.28
659.902	41292.39
660.253	41202.9
660.604	41308.66
660.955	41126.29
661.306	41367.87
661.656	41163.35
662.007	41295.55
662.358	41238.38
662.708	41188.89
663.059	41155.22
663.409	40903.7
663.76	41240.41
664.11	41244.48
664.461	41345.95
664.811	41096.91
665.161	41256.68
665.511	41081.55
665.862	41203.58
666.212	41231.83
666.562	41298.49
666.912	41234.99
667.262	41039.06
667.612	41112.96
667.962	41081.32
668.312	41126.52
668.662	41241.54
669.011	41049.68
669.361	40935.11
669.711	41097.82
670.06	41062.11
670.41	40917.48
670.76	40951.38
671.109	41043.58
671.459	40899.63
671.808	40828.9
672.157	41097.37
672.507	40825.73
672.856	40814.21
673.205	40859.86
673.554	41037.93
673.904	40768.56
674.253	40957.93
674.602	40804.04
674.951	40395.92
675.3	40267.56
675.649	40748.67
675.998	40773.31
676.346	40642.24
676.695	40846.75
677.044	40526.99
677.393	40593.2
677.741	40817.6
678.09	40582.8
678.438	40618.96
678.787	40637.04
679.135	40542.8
679.484	40399.3
679.832	40495.12
680.181	40282.47
680.529	40348.91
680.877	40315.47
681.225	40313.21
681.573	40472.98
681.922	40176.49
682.27	40192.53
682.618	40142.81
682.966	39947.11
683.314	40060.1
683.661	39846.55
684.009	39663.51
684.357	39695.59
684.705	39668.48
685.053	39748.7
685.4	39611.3
685.748	39636.16
686.095	39511.19
686.443	39432.32
686.79	39284.98
687.138	39518.42
687.485	39273.91
687.832	39195.72
688.18	39226.23
688.527	39057.65
688.874	38969.29
689.221	38901.27
689.568	38881.38
689.915	38883.86
690.262	38828.05
690.609	38638.22
690.956	38661.05
691.303	38400.04
691.65	38327.72
691.997	38347.61
692.344	38058.58
692.69	37977
693.037	38178.57
693.383	37819.26
693.73	37966.15
694.077	37657.23
694.423	37698.36
694.769	37616.1
695.116	37539.95
695.462	37492.04
695.808	37157.13
696.155	37421.53
696.501	37110.8
696.847	37207.52
697.193	36903.35
697.539	36957.14
697.885	36692.74
698.231	36640.76
698.577	36736.12
698.923	36624.94
699.269	36493.42
699.614	36363.48
699.96	36169.59
700.306	36290.49
700.651	36049.59
700.997	36002.36
701.342	36045.07
701.688	35894.34
702.033	35789.03
702.379	35761.91
702.724	35594.69
703.069	35707.22
703.415	35306.78
703.76	35321.47
704.105	35274.24
704.45	35247.12
704.795	35153.12
705.14	34997.41
705.485	34981.14
705.83	34748.83
706.175	34908.83
706.52	34777.31
706.865	34727.59
707.209	34596.29
707.554	34484.66
707.899	34488.95
708.243	34328.73
708.588	34296.87
708.932	34115.63
709.277	34094.16
709.621	34116.53
709.966	33926.03
710.31	33991.79
710.654	33774.39
710.998	33756.77
711.342	33732.59
711.687	33650.56
712.031	33564.23
712.375	33328.08
712.719	33507.51
713.063	33426.15
713.407	33482.2
713.75	33274.97
714.094	33174.64
714.438	33136.22
714.782	33090.8
715.125	33087.18
715.469	32970.8
715.812	32837.92
716.156	32632.05
716.499	32683.8
716.843	32635.89
717.186	32541.43
717.53	32734.65
717.873	32557.48
718.216	32599.74
718.559	32371.27
718.902	32188.22
719.246	32376.47
719.589	32248.11
719.932	32053.76
720.275	32030.03
720.617	31981.67
720.96	31882.92
721.303	32002.01
721.646	31983.03
721.989	31726.31
722.331	31826.65
722.674	31772.87
723.016	31777.16
723.359	31731.74
723.701	31716.14
724.044	31467.56
724.386	31361.35
724.729	31618.29
725.071	31489.48
725.413	31372.88
725.755	31357.73
726.097	31120.9
726.439	31108.7
726.782	31069.38
727.124	31234.12
727.465	31015.37
727.807	31037.07
728.149	30902.83
728.491	30787.81
728.833	30981.25
729.175	30734.02
729.516	30772.21
729.858	30753.46
730.199	30658.54
730.541	30660.58
730.882	30543.74
731.224	30833.68
731.565	30435.27
731.906	30543.07
732.248	30421.49
732.589	30360.92
732.93	30246.58
733.271	30166.13
733.612	30326.12
733.953	30348.72
734.294	30067.37
734.635	29918.45
734.976	30089.29
735.317	30077.09
735.658	29939.02
735.999	29961.39
736.339	29939.69
736.68	30077.99
737.021	29903.99
737.361	29785.8
737.702	29957.55
738.042	29771.34
738.383	29733.37
738.723	29772.01
739.063	29695.63
739.404	29759.36
739.744	29483.89
740.084	29571.34
740.424	29364.11
740.764	29420.16
741.104	29482.08
741.444	29389.42
741.784	29248.64
742.124	29392.59
742.464	29365.92
742.804	29052.03
743.143	29102.65
743.483	29172.48
743.823	29095.2
744.162	29026.27
744.502	29117.79
744.841	28873.51
745.181	29075.08
745.52	28994.18
745.86	28811.36
746.199	28833.73
746.538	28774.98
746.877	28803.45
747.216	28844.58
747.556	28706.05
747.895	28760.97
748.234	28675.77
748.573	28532.27
748.911	28601.65
749.25	28671.03
749.589	28391.03
749.928	28467.87
750.267	28447.53
750.605	28406.63
750.944	28313.75
751.283	28277.82
751.621	28183.58
751.96	28180.42
752.298	28174.77
752.636	28130.7
752.975	28009.35
753.313	27908.11
753.651	27960.76
753.989	27886.64
754.327	27914.44
754.666	27664.72
755.004	27579.53
755.342	27777.26
755.679	27735.91
756.017	27423.6
756.355	27587.66
756.693	27458.4
757.031	27490.04
757.368	27415.69
757.706	27322.81
758.044	27299.31
758.381	27262.93
758.719	27156.94
759.056	27225.64
759.394	26980.45
759.731	26955.59
760.068	26946.1
760.405	26841.47
760.743	26743.17
761.08	26756.27
761.417	26577.52
761.754	26555.6
762.091	26538.88
762.428	26334.82
762.765	26369.17
763.102	26302.73
763.438	26202.62
763.775	26205.1
764.112	26175.05
764.449	26079.23
764.785	25981.83
765.122	25852.79
765.458	25720.82
765.795	25756.53
766.131	25627.26
766.467	25567.15
766.804	25391.79
767.14	25417.78
767.476	25324.67
767.812	25142.98
768.148	25196.54
768.485	24977.79
768.821	24886.49
769.157	24920.84
769.492	24914.97
769.828	24917.23
770.164	24593.84
770.5	24502.55
770.836	24569.89
771.171	24458.03
771.507	24346.62
771.842	24087.42
772.178	24284.93
772.513	24171.94
772.849	24114.08
773.184	23945.73
773.519	23812.62
773.855	23784.15
774.19	23685.62
774.525	23681.78
774.86	23647.88
775.195	23474.33
775.53	23570.14
775.865	23299.42
776.2	23271.85
776.535	23047.44
776.87	22987.33
777.205	22934.45
777.539	22857.85
777.874	22986.66
778.209	22638.64
778.543	22637.29
778.878	22412.89
779.212	22466.9
779.547	22356.39
779.881	22455.6
780.215	22233.91
780.55	22328.14
780.884	22114.14
781.218	22053.57
781.552	21955.27
781.886	21845.44
782.22	21803.41
782.554	21707.59
782.888	21681.15
783.222	21470.54
783.556	21375.62
783.889	21332.91
784.223	21179.25
784.557	21213.14
784.89	21182.41
785.224	21046.37
785.557	20962.75
785.891	20858.58
786.224	20778.8
786.558	20830.1
786.891	20653.61
787.224	20566.38
787.557	20646.38
787.891	20586.27
788.224	20542.43
788.557	20437.8
788.89	20396.67
789.223	20286.61
789.556	20206.62
789.888	20142.21
790.221	20061.99
790.554	19861.31
790.887	19883.01
791.219	19718.94
791.552	19769.56
791.884	19650.25
792.217	19610.25
792.549	19560.98
792.882	19522.57
793.214	19421.55
793.546	19434.88
793.879	19248.9
794.211	19158.06
794.543	19181.78
794.875	19103.37
795.207	19119.86
795.539	19064.27
795.871	19013.88
796.203	18837.16
796.535	18732.53
796.867	18693.89
797.198	18635.81
797.53	18580.22
797.862	18535.02
798.193	18504.51
798.525	18432.88
798.856	18339.77
799.188	18109.72
799.519	18164.64
799.85	18108.14
800.182	18121.25
800.513	18075.15
800.844	17878.32
801.175	18034.02
801.506	18036.5
801.837	17860.24
802.168	17788.83
802.499	17852.78
802.83	17673.12
803.161	17665.44
803.491	17630.86
803.822	17553.35
804.153	17505.44
804.483	17343.41
804.814	17327.37
805.145	17280.59
805.475	17358.33
805.805	17275.39
806.136	17263.19
806.466	17204.66
806.796	17085.34
807.126	16909.53
807.457	17016.19
807.787	17039.92
808.117	16780.26
808.447	16816.65
808.777	16832.24
809.107	16694.17
809.436	16607.16
809.766	16718.8
810.096	16635.86
810.426	16600.61
810.755	16624.56
811.085	16513.83
811.414	16509.76
811.744	16389.54
812.073	16370.11
812.403	16260.05
812.732	16225.93
813.061	16259.83
813.39	16072.94
813.719	16088.08
814.049	16156.1
814.378	16018.7
814.707	15993.17
815.036	15993.84
815.365	15935.77
815.693	15700.97
816.022	15754.76
816.351	15737.58
816.68	15702.78
817.008	15642.89
817.337	15533.07
817.665	15459.62
817.994	15568.55
818.322	15486.51
818.651	15506.4
818.979	15469.34
819.307	15531.71
819.636	15406.74
819.964	15382.56
820.292	15405.61
820.62	15344.14
820.948	15293.52
821.276	15307.31
821.604	15223.47
821.932	15347.31
822.259	15222.11
822.587	15263.47
822.915	15151.83
823.243	15237.03
823.57	15098.5
823.898	15296.69
824.225	15218.72
824.553	15137.82
824.88	15145.73
825.207	15225.96
825.535	15223.92
825.862	15267.54
826.189	15183.92
826.516	15260.08
826.843	15237.71
827.17	15225.73
827.497	15278.16
827.824	15305.95
828.151	15243.81
828.478	15191.61
828.805	15220.31
829.131	15180.53
829.458	15173.98
829.785	15032.97
830.111	15202.91
830.438	15202.23
830.764	15196.8
831.09	15257.14
831.417	15110.25
831.743	15146.18
832.069	15082
832.395	14991.16
832.722	14994.1
833.048	15067.77
833.374	14997.94
833.7	15033.64
834.026	15063.47
834.351	15026.19
834.677	15003.36
835.003	14964.49
835.329	14964.49
835.654	14948.9
835.98	14927.66
836.306	14943.7
836.631	14892.63
836.956	14905.06
837.282	14759.98
837.607	14941.67
837.932	14780.77
838.258	14730.38
838.583	14693.99
838.908	14685.63
839.233	14732.86
839.558	14703.03
839.883	14593.2
840.208	14608.57
840.533	14593.43
840.858	14587.78
841.182	14557.95
841.507	14484.28
841.832	14503.49
842.156	14505.75
842.481	14427.78
842.805	14357.28
843.13	14364.96
843.454	14350.72
843.778	14276.38
844.103	14273.44
844.427	14187.34
844.751	14218.07
845.075	14089.04
845.399	14024.63
845.723	14014.91
846.047	14083.84
846.371	13935.14
846.695	13946.22
847.019	13755.26
847.343	13751.42
847.666	13705.09
847.99	13581.03
848.313	13663.28
848.637	13523.4
848.96	13505.32
849.284	13486.34
849.607	13344.2
849.931	13342.62
850.254	13195.73
850.577	13263.07
850.9	13150.76
851.223	13141.49
851.546	13083.64
851.869	12963.19
852.192	12970.87
852.515	12832.57
852.838	12908.28
853.161	12800.26
853.483	12726.36
853.806	12707.38
854.129	12673.03
854.451	12660.15
854.774	12585.57
855.096	12598.68
855.419	12495.41
855.741	12482.3
856.063	12408.85
856.385	12382.64
856.708	12362.75
857.03	12291.57
857.352	12319.14
857.674	12232.59
857.996	12186.94
858.318	12148.75
858.64	12184
858.961	12099.03
859.283	12023.33
859.605	11998.02
859.926	12068.07
860.248	11984.91
860.57	11935.87
860.891	11974.52
861.212	11888.19
861.534	11844.35
861.855	11852.94
862.176	11842.54
862.498	11771.13
862.819	11759.83
863.14	11744.24
863.461	11779.72
863.782	11733.17
864.103	11731.36
864.424	11594.86
864.745	11699.49
865.065	11662.66
865.386	11458.15
865.707	11554.19
866.027	11541.98
866.348	11519.39
866.668	11541.08
866.989	11428.54
867.309	11404.81
867.63	11349.9
867.95	11421.54
868.27	11355.55
868.59	11392.38
868.91	11312.61
869.23	11311.26
869.55	11255.21
869.87	11364.14
870.19	11296.12
870.51	11324.82
870.83	11251.6
871.15	11160.07
871.469	11214.54
871.789	11230.13
872.109	11156.68
872.428	11132.96
872.748	11140.19
873.067	11142.22
873.386	11075.1
873.706	11083.47
874.025	11063.13
874.344	11009.12
874.663	11050.47
874.982	10997.82
875.301	10956.01
875.62	10966.86
875.939	10930.7
876.258	10920.76
876.577	10851.38
876.896	10846.18
877.214	10825.62
877.533	10865.62
877.852	10801.89
878.17	10796.02
878.489	10813.19
878.807	10783.13
879.125	10732.51
879.444	10798.05
879.762	10699.29
880.08	10733.64
880.398	10663.14
880.716	10668.34
881.034	10653.65
881.352	10623.82
881.67	10578.17
881.988	10617.72
882.306	10557.6
882.624	10492.75
882.941	10485.29
883.259	10534.33
883.577	10433.31
883.894	10468.79
884.212	10416.59
884.529	10436.93
884.846	10403.26
885.164	10330.72
885.481	10288.91
885.798	10294.56
886.115	10240.32
886.432	10268.35
886.75	10248.91
887.067	10223.15
887.383	10188.35
887.7	10154.45
888.017	10091.4
888.334	10153.32
888.651	10117.39
888.967	10064.06
889.284	10062.25
889.6	10052.08
889.917	9914.23
890.233	9919.43
890.55	9872.42
890.866	9910.39
891.182	9837.62
891.498	9808.92
891.815	9757.85
892.131	9812.09
892.447	9753.11
892.763	9678.53
893.079	9619.1
893.395	9646.44
893.71	9615.48
894.026	9616.84
894.342	9558.99
894.657	9552.21
894.973	9514.02
895.289	9479.67
895.604	9431.08
895.92	9362.61
896.235	9301.59
896.55	9353.57
896.865	9315.6
897.181	9347.47
897.496	9298.88
897.811	9290.29
898.126	9207.81
898.441	9095.04
898.756	9175.95
899.071	9082.84
899.386	9123.97
899.7	9083.74
900.015	8980.47
900.33	8970.98
900.644	8936.4
900.959	8909.06
901.273	8892.11
901.588	8865.22
901.902	8810.76
902.216	8729.86
902.531	8735.05
902.845	8745.45
903.159	8675.85
903.473	8642.63
903.787	8600.37
904.101	8560.37
904.415	8588.16
904.729	8514.04
905.042	8429.07
905.356	8468.39
905.67	8451.67
905.984	8399.47
906.297	8392.01
906.611	8346.81
906.924	8327.61
907.237	8309.08
907.551	8265.46
907.864	8256.42
908.177	8197.89
908.491	8253.94
908.804	8079.48
909.117	8096.43
909.43	8069.76
909.743	8016.65
910.056	7968.29
910.368	7944.79
910.681	7957.67
910.994	7915.41
911.307	7879.71
911.619	7830.67
911.932	7828.64
912.244	7732.59
912.557	7749.77
912.869	7690.33
913.181	7651.24
913.494	7631.8
913.806	7557.23
914.118	7607.62
914.43	7553.16
914.742	7493.28
915.054	7471.81
915.366	7425.48
915.678	7388.87
915.99	7359.95
916.302	7305.26
916.613	7303.23
916.925	7275.43
917.236	7254.64
917.548	7225.26
917.859	7222.78
918.171	7173.96
918.482	7128.32
918.794	7093.51
919.105	7083.34
919.416	7053.74
919.727	6990.47
920.038	6980.07
920.349	6982.33
920.66	6922.45
920.971	6828.44
921.282	6863.01
921.593	6928.77
921.903	6831.15
922.214	6764.26
922.525	6777.59
922.835	6770.13
923.146	6637.48
923.456	6690.59
923.767	6658.72
924.077	6684.03
924.387	6632.74
924.697	6600.19
925.008	6546.41
925.318	6487.65
925.628	6469.8
925.938	6455.11
926.248	6423.25
926.558	6376.24
926.867	6380.54
927.177	6377.15
927.487	6369.24
927.796	6222.35
928.106	6276.36
928.416	6191.84
928.725	6207.66
929.034	6140.09
929.344	6203.82
929.653	6148.91
929.962	6085.4
930.271	6065.52
930.581	6043.37
930.89	6005.18
931.199	5991.62
931.508	5936.71
931.817	5935.35
932.125	5938.74
932.434	5874.34
932.743	5828.91
933.051	5801.12
933.36	5844.28
933.669	5782.81
933.977	5759.76
934.286	5807.45
934.594	5712.31
934.902	5679.77
935.21	5671.86
935.519	5643.83
935.827	5629.37
936.135	5592.31
936.443	5544.18
936.751	5589.37
937.059	5579.43
937.367	5544.4
937.674	5529.04
937.982	5480.22
938.29	5438.42
938.597	5401.58
938.905	5389.6
939.213	5330.85
939.52	5284.97
939.827	5328.81
940.135	5269.61
940.442	5295.14
940.749	5233.45
941.056	5258.76
941.363	5204.3
941.67	5178.99
941.977	5223.73
942.284	5144.86
942.591	5177.41
942.898	5093.11
943.205	5063.96
943.511	5032.33
943.818	5009.28
944.125	4963.17
944.431	4994.36
944.738	4973.12
945.044	4961.82
945.35	4925.44
945.657	4860.58
945.963	4875.72
946.269	4836.4
946.575	4892.67
946.881	4781.94
947.187	4826.23
947.493	4775.38
947.799	4749.62
948.105	4734.71
948.41	4744.42
948.716	4707.81
949.022	4648.15
949.327	4645.89
949.633	4611.32
949.938	4616.74
950.244	4656.52
950.549	4555.5
950.854	4525.45
951.16	4520.47
951.465	4560.25
951.77	4465.79
952.075	4481.83
952.38	4450.42
952.685	4425.79
952.99	4393.92
953.294	4379.01
953.599	4404.09
953.904	4329.52
954.209	4370.65
954.513	4342.17
954.818	4305.11
955.122	4279.8
955.426	4260.82
955.731	4288.84
956.035	4239.8
956.339	4209.3
956.643	4205.23
956.948	4162.29
957.252	4119.81
957.556	4130.88
957.86	4103.76
958.163	4104.44
958.467	4072.12
958.771	4047.49
959.075	4051.79
959.378	4006.82
959.682	4023.99
959.985	4016.98
960.289	4010.21
960.592	3948.96
960.896	3967.49
961.199	3891.79
961.502	3906.71
961.805	3901.73
962.108	3837.55
962.411	3878.68
962.714	3847.72
963.017	3797.78
963.32	3810.44
963.623	3781.74
963.926	3722.76
964.228	3774.51
964.531	3764.11
964.833	3735.86
965.136	3698.35
965.438	3652.93
965.741	3699.93
966.043	3618.13
966.345	3625.58
966.648	3673.04
966.95	3616.32
967.252	3584.45
967.554	3570.22
967.856	3574.51
968.158	3525.92
968.46	3549.43
968.761	3552.82
969.063	3483.67
969.365	3477.56
969.666	3511.24
969.968	3448.41
970.269	3453.38
970.571	3416.32
970.872	3427.4
971.174	3386.04
971.475	3396.44
971.776	3376.32
972.077	3384.23
972.378	3375.42
972.679	3353.73
972.98	3330.22
973.281	3287.74
973.582	3280.28
973.883	3275.31
974.183	3255.2
974.484	3258.81
974.785	3219.94
975.085	3231.92
975.386	3210.23
975.686	3170.68
975.986	3188.53
976.287	3179.04
976.587	3158.25
976.887	3125.03
977.187	3122.09
977.487	3101.53
977.787	3129.32
978.087	3035.77
978.387	3039.84
978.687	3059.27
978.987	3041.87
979.286	3032.15
979.586	3012.49
979.885	2977.01
980.185	2987.63
980.484	2949.67
980.784	2952.61
981.083	2935.66
981.382	2928.88
981.682	2954.19
981.981	2875.55
982.28	2878.03
982.579	2854.53
982.878	2862.21
983.177	2878.26
983.475	2863.79
983.774	2831.48
984.073	2772.95
984.372	2763.01
984.67	2786.28
984.969	2765.72
985.267	2829.67
985.566	2779.28
985.864	2765.04
986.162	2747.64
986.461	2717.81
986.759	2723.69
987.057	2692.27
987.355	2649.34
987.653	2680.52
987.951	2645.72
988.249	2663.12
988.547	2657.02
988.844	2591.26
989.142	2603.46
989.44	2590.81
989.737	2573.63
990.035	2578.15
990.332	2564.82
990.63	2491.15
990.927	2518.27
991.224	2475.33
991.521	2496.57
991.819	2494.99
992.116	2467.87
992.413	2476.46
992.71	2478.72
993.006	2437.37
993.303	2466.52
993.6	2465.61
993.897	2455.67
994.193	2426.29
994.49	2420.64
994.787	2392.39
995.083	2384.94
995.379	2356.24
995.676	2381.32
995.972	2355.33
996.268	2333.41
996.565	2329.35
996.861	2295.22
997.157	2302.45
997.453	2317.37
997.749	2274.66
998.044	2273.3
998.34	2267.2
998.636	2236.92
998.932	2257.26
999.227	2217.71
999.523	2198.5
999.818	2208.67
1000.114	2186.52
1000.409	2197.15
1000.704	2175.68
1001	2149.24
1001.295	2154.89
1001.59	2164.15
1001.885	2137.49
1002.18	2087.32
1002.475	2090.93
1002.77	2090.03
1003.065	2067.21
1003.359	2052.74
1003.654	2036.7
1003.949	2019.52
1004.243	2033.08
1004.538	2014.1
1004.832	1988.56
1005.127	1996.92
1005.421	1975.23
1005.715	1984.27
1006.009	1961.9
1006.304	1943.14
1006.598	1928
1006.892	1932.52
1007.186	1921.22
1007.48	1895.23
1007.773	1921.45
1008.067	1879.41
1008.361	1861.11
1008.655	1857.27
1008.948	1841.67
1009.242	1835.35
1009.535	1807.55
1009.829	1846.42
1010.122	1811.39
1010.415	1801.22
1010.708	1779.53
1011.001	1761.68
1011.295	1784.05
1011.588	1744.95
1011.881	1722.36
1012.173	1751.06
1012.466	1732.53
1012.759	1728.68
1013.052	1726.2
1013.344	1742.24
1013.637	1686.88
1013.93	1646.2
1014.222	1664.28
1014.514	1666.99
1014.807	1659.76
1015.099	1654.56
1015.391	1640.78
1015.683	1618.86
1015.976	1594.9
1016.268	1605.97
1016.56	1607.56
1016.851	1582.7
1017.143	1553.77
1017.435	1575.47
1017.727	1554.22
1018.018	1577.5
1018.31	1545.19
1018.602	1528.01
1018.893	1525.07
1019.185	1514
1019.476	1495.47
1019.767	1512.42
1020.058	1446.88
1020.35	1467
1020.641	1465.87
1020.932	1474.68
1021.223	1405.08
1021.514	1443.27
1021.804	1415.47
1022.095	1407.11
1022.386	1396.04
1022.677	1392.87
1022.967	1353.1
1023.258	1368.92
1023.548	1346.55
1023.839	1388.35
1024.129	1366.21
1024.419	1370.5
1024.709	1334.12
1025	1315.59
1025.29	1301.58
1025.58	1310.62
1025.87	1281.69
1026.16	1265.42
1026.449	1261.58
1026.739	1281.69
1027.029	1270.39
1027.319	1248.47
1027.608	1240.56
1027.898	1240.56
1028.187	1216.15
1028.477	1238.07
1028.766	1230.84
1029.055	1239.66
1029.344	1209.15
1029.634	1181.35
1029.923	1190.62
1030.212	1186.32
1030.501	1176.38
1030.79	1160.11
1031.078	1163.27
1031.367	1156.95
1031.656	1127.34
1031.945	1139.77
1032.233	1133.9
1032.522	1113.56
1032.81	1101.13
1033.099	1084.63
1033.387	1089.15
1033.675	1069.27
1033.963	1089.15
1034.251	1077.85
1034.54	1076.27
1034.828	1053.67
1035.116	1028.81
1035.403	1010.96
1035.691	1037.63
1035.979	1011.64
1036.267	1027.01
1036.554	1055.93
1036.842	1018.65
1037.129	995.37
1037.417	997.4
1037.704	982.94
1037.992	995.82
1038.279	998.31
1038.566	987.91
1038.853	987.91
1039.14	987.91
