Data from hue_310_FLMS001491_44.txt Node
Date: Mon Feb 06 15:49:44 GMT 2017
User: dcchb
Spectrometer: FLMS00149
Trigger mode: 0
Integration Time (sec): 2.000000E-2
Scans to average: 10
Electric dark correction enabled: true
Nonlinearity correction enabled: false
Boxcar width: 0
XAxis mode: Wavelengths
Number of Pixels in Spectrum: 2048
>>>>>Begin Spectral Data<<<<<
341.393	-15.9
341.776	-15.9
342.16	-15.9
342.543	-76.69
342.927	-65.17
343.31	-70.82
343.693	-54.09
344.077	-60.2
344.46	-74.66
344.843	-70.37
345.226	-38.05
345.61	-27.43
345.993	-15.9
346.376	-1.21
346.759	5.79
347.142	17.77
347.525	41.95
347.908	67.26
348.291	76.3
348.674	96.86
349.057	106.81
349.44	121.04
349.823	129.4
350.206	157.65
350.588	197.88
350.971	206.69
351.354	223.86
351.737	234.71
352.119	252.56
352.502	254.37
352.884	271.32
353.267	281.04
353.65	279.23
354.032	316.07
354.414	310.64
354.797	312.9
355.179	312
355.562	313.35
355.944	308.38
356.326	310.42
356.709	330.98
357.091	311.09
357.473	330.98
357.855	323.97
358.238	335.27
358.62	335.95
359.002	351.54
359.384	337.53
359.766	339.57
360.148	317.87
360.53	316.07
360.912	343.18
361.294	334.37
361.676	309.51
362.057	347.48
362.439	321.71
362.821	310.64
363.203	296.18
363.584	323.97
363.966	309.51
364.348	304.09
364.729	328.72
365.111	314.94
365.493	298.21
365.874	315.16
366.256	315.61
366.637	292.11
367.019	297.31
367.4	302.28
367.781	304.54
368.163	301.83
368.544	306.57
368.925	307.93
369.306	302.28
369.688	307.48
370.069	309.29
370.45	305.67
370.831	302.28
371.212	296.18
371.593	319.68
371.974	298.66
372.355	318.78
372.736	317.42
373.117	310.64
373.498	287.82
373.879	340.25
374.26	312.68
374.641	318.78
375.021	318.78
375.402	293.01
375.783	312.45
376.163	303.41
376.544	319.91
376.925	305.67
377.305	309.74
377.686	328.49
378.066	320.81
378.447	316.74
378.827	326.91
379.208	308.83
379.588	326.69
379.968	343.41
380.349	314.48
380.729	317.65
381.109	345.22
381.489	341.83
381.87	320.13
382.25	346.35
382.63	338.21
383.01	333.24
383.39	354.93
383.77	340.47
384.15	328.95
384.53	341.6
384.91	333.24
385.29	352.45
385.67	347.48
386.049	330.3
386.429	332.79
386.809	375.72
387.189	323.75
387.568	363.07
387.948	340.25
388.328	353.58
388.707	344.09
389.087	351.09
389.466	364.65
389.846	351.32
390.225	369.4
390.605	366.23
390.984	360.58
391.363	357.42
391.743	355.16
392.122	378.66
392.501	363.07
392.881	373.92
393.26	368.72
393.639	353.8
394.018	365.1
394.397	373.01
394.776	381.6
395.155	362.62
395.534	379.79
395.913	369.17
396.292	389.28
396.671	387.25
397.05	372.79
397.429	384.09
397.808	378.89
398.186	384.99
398.565	366.69
398.944	394.26
399.323	388.83
399.701	406.91
400.08	392.9
400.458	391.32
400.837	384.76
401.215	402.39
401.594	409.4
401.972	405.1
402.351	399.23
402.729	420.47
403.107	420.92
403.486	420.02
403.864	414.37
404.242	446.23
404.62	436.06
404.999	433.58
405.377	416.63
405.755	444.42
406.133	432.22
406.511	420.7
406.889	453.91
407.267	446.46
407.645	437.19
408.023	465.44
408.401	464.99
408.779	472.9
409.156	470.86
409.534	479.45
409.912	475.83
410.29	479.9
410.667	500.24
411.045	485.55
411.422	502.05
411.8	497.98
412.178	504.53
412.555	516.96
412.933	531.2
413.31	528.04
413.687	537.08
414.065	540.24
414.442	541.82
414.819	578.88
415.197	566.68
415.574	568.71
415.951	586.34
416.328	587.7
416.705	611.42
417.082	586.11
417.46	614.59
417.837	602.84
418.214	616.17
418.591	647.13
418.967	626.79
419.344	653.68
419.721	643.51
420.098	643.51
420.475	683.29
420.852	682.84
421.228	677.19
421.605	699.11
421.982	719.67
422.358	690.07
422.735	701.59
423.111	721.93
423.488	723.74
423.864	727.81
424.241	723.74
424.617	749.95
424.994	744.53
425.37	758.99
425.746	761.25
426.123	772.78
426.499	789.27
426.875	810.74
427.251	808.48
427.627	821.14
428.003	832.89
428.379	843.28
428.756	812.78
429.132	852.77
429.507	848.93
429.883	848.25
430.259	900.46
430.635	866.56
431.011	889.16
431.387	923.28
431.763	933.45
432.138	922.83
432.514	918.76
432.89	943.17
433.265	944.52
433.641	966.22
434.016	1000.11
434.392	993.56
434.767	996.5
435.143	999.44
435.518	1021.36
435.894	1036.05
436.269	1036.72
436.644	1061.58
437.02	1068.14
437.395	1073.79
437.77	1046.89
438.145	1088.93
438.52	1102.49
438.895	1114.01
439.271	1114.24
439.646	1154.01
440.021	1127.12
440.395	1153.56
440.77	1147.91
441.145	1146.78
441.52	1157.4
441.895	1165.08
442.27	1198.98
442.645	1170.28
443.019	1204.86
443.394	1187.45
443.769	1211.86
444.143	1161.69
444.518	1214.12
444.892	1190.39
445.267	1204.4
445.641	1208.92
446.016	1220.9
446.39	1209.37
446.764	1236.27
447.139	1221.8
447.513	1255.02
447.887	1236.49
448.262	1250.05
448.636	1276.72
449.01	1262.93
449.384	1283.72
449.758	1263.84
450.132	1272.2
450.506	1301.8
450.88	1297.28
451.254	1282.14
451.628	1335.25
452.002	1312.42
452.376	1342.48
452.75	1328.24
453.123	1340.67
453.497	1341.12
453.871	1342.93
454.244	1367.79
454.618	1336.83
454.992	1376.38
455.365	1397.39
455.739	1422.25
456.112	1401.69
456.486	1407.56
456.859	1423.15
457.232	1462.25
457.606	1427.9
457.979	1460.44
458.352	1497.95
458.725	1482.36
459.099	1497.28
459.472	1497.28
459.845	1497.73
460.218	1502.47
460.591	1542.25
460.964	1558.52
461.337	1530.95
461.71	1584.96
462.083	1606.88
462.456	1627.44
462.829	1582.92
463.201	1629.25
463.574	1624.51
463.947	1617.95
464.32	1666.76
464.692	1659.31
465.065	1662.7
465.438	1678.52
465.81	1697.95
466.183	1720.77
466.555	1725.52
466.928	1762.81
467.3	1728.91
467.672	1779.08
468.045	1793.77
468.417	1798.51
468.789	1795.8
469.161	1830.15
469.534	1838.51
469.906	1864.05
470.278	1880.09
470.65	1896.14
471.022	1914.22
471.394	1924.61
471.766	1951.28
472.138	1969.35
472.51	1959.19
472.882	1999.86
473.253	2024.72
473.625	2015.23
473.997	2030.37
474.369	2063.36
474.74	2075.79
475.112	2127.99
475.484	2111.5
475.855	2159.63
476.227	2163.7
476.598	2209.57
476.97	2201.44
477.341	2272.17
477.713	2283.47
478.084	2278.73
478.455	2354.88
478.827	2336.35
479.198	2363.24
479.569	2407.31
479.94	2440.53
480.311	2431.94
480.682	2491.38
481.053	2520.3
481.424	2556.01
481.795	2565.27
482.166	2591.71
482.537	2608.89
482.908	2643.91
483.279	2640.3
483.65	2696.12
484.021	2724.59
484.391	2746.06
484.762	2771.82
485.133	2771.59
485.503	2802.55
485.874	2849.78
486.244	2856.34
486.615	2930.01
486.985	2930.46
487.356	2946.73
487.726	2979.72
488.097	2976.33
488.467	3035.32
488.837	3054.75
489.207	3105.14
489.578	3137.69
489.948	3167.06
490.318	3195.31
490.688	3179.49
491.058	3243.22
491.428	3288.19
491.798	3273.95
492.168	3319.38
492.538	3315.08
492.908	3360.96
493.278	3377.91
493.648	3392.37
494.017	3410.22
494.387	3439.6
494.757	3456.55
495.126	3507.85
495.496	3485.93
495.866	3532.03
496.235	3544.45
496.605	3586.71
496.974	3586.26
497.344	3568.63
497.713	3599.14
498.082	3643.44
498.452	3650.21
498.821	3671.46
499.19	3685.92
499.559	3711.68
499.928	3709.2
500.298	3732.92
500.667	3755.07
501.036	3765.01
501.405	3776.77
501.774	3773.83
502.143	3818.12
502.512	3798.91
502.88	3838.46
503.249	3824.9
503.618	3859.93
503.987	3890.89
504.356	3847.05
504.724	3895.86
505.093	3907.16
505.462	3926.37
505.83	3944.44
506.199	3935.86
506.567	4001.84
506.936	3990.32
507.304	3986.7
507.672	4004.78
508.041	4032.13
508.409	4031
508.777	4002.52
509.145	4061.05
509.514	4096.98
509.882	4076.42
510.25	4056.08
510.618	4144.89
510.986	4142.63
511.354	4107.83
511.722	4137.66
512.09	4189.64
512.458	4228.5
512.826	4205.23
513.193	4214.04
513.561	4186.25
513.929	4253.59
514.297	4277.99
514.664	4293.14
515.032	4277.99
515.4	4283.87
515.767	4277.99
516.135	4301.05
516.502	4280.03
516.869	4345.11
517.237	4350.08
517.604	4365.45
517.972	4335.39
518.339	4397.54
518.706	4351.44
519.073	4405.45
519.44	4396.41
519.808	4414.71
520.175	4397.09
520.542	4446.35
520.909	4427.6
521.276	4419.69
521.643	4457.88
522.009	4507.82
522.376	4543.75
522.743	4576.74
523.11	4590.08
523.477	4605.9
523.843	4625.56
524.21	4608.61
524.577	4636.86
524.943	4673.92
525.31	4689.74
525.676	4671.88
526.043	4710.07
526.409	4759.56
526.776	4762.73
527.142	4770.86
527.508	4851.09
527.874	4821.48
528.241	4845.21
528.607	4841.14
528.973	4856.51
529.339	4863.06
529.705	4918.43
530.071	4957.75
530.437	4996.17
530.803	5020.8
531.169	5058.31
531.535	5038.2
531.901	5031.2
532.267	5063.74
532.632	5101.02
532.998	5151.87
533.364	5118.2
533.73	5153.9
534.095	5216.05
534.461	5232.55
534.826	5290.62
535.192	5226.67
535.557	5251.98
535.923	5273.45
536.288	5322.49
536.653	5394.58
537.019	5321.13
537.384	5324.3
537.749	5371.98
538.114	5378.76
538.479	5461.24
538.845	5470.73
539.21	5457.62
539.575	5483.16
539.94	5481.35
540.305	5557.74
540.67	5535.59
541.034	5591.63
541.399	5620.33
541.764	5581.69
542.129	5654
542.494	5661.69
542.858	5703.49
543.223	5666.43
543.587	5737.17
543.952	5753.44
544.316	5766.09
544.681	5760.44
545.045	5880.66
545.41	5869.14
545.774	5861.91
546.138	5893.77
546.503	5869.59
546.867	5896.48
547.231	5940.78
547.595	6007.67
547.959	6012.19
548.324	5978.29
548.688	5975.8
549.052	6055.35
549.416	6085.86
549.779	6071.17
550.143	6133.54
550.507	6163.59
550.871	6174.44
551.235	6171.73
551.599	6219.86
551.962	6227.77
552.326	6265.74
552.689	6265.74
553.053	6296.47
553.417	6282.69
553.78	6355.68
554.143	6284.95
554.507	6339.64
554.87	6382.8
555.234	6389.35
555.597	6348.9
555.96	6396.58
556.323	6427.32
556.686	6399.97
557.05	6450.14
557.413	6509.12
557.776	6467.99
558.139	6529.46
558.502	6518.61
558.865	6545.05
559.228	6572.62
559.59	6602.45
559.953	6571.04
560.316	6699.4
560.679	6683.81
561.041	6710.25
561.404	6718.61
561.767	6756.35
562.129	6706.86
562.492	6787.53
562.854	6786.63
563.217	6796.12
563.579	6818.94
563.941	6880.41
564.304	6872.05
564.666	6889.68
565.028	6900.3
565.39	6943.01
565.753	7022.33
566.115	6976.23
566.477	7018.04
566.839	7041.76
567.201	7075.21
567.563	7109.11
567.925	7102.33
568.287	7078.37
568.648	7144.13
569.01	7177.13
569.372	7203.57
569.734	7186.39
570.095	7290.35
570.457	7291.7
570.819	7346.61
571.18	7326.95
571.542	7400.17
571.903	7402.43
572.265	7478.59
572.626	7503.22
572.987	7543.22
573.349	7552.71
573.71	7585.93
574.071	7627.74
574.432	7687.85
574.794	7802.65
575.155	7847.39
575.516	7869.31
575.877	7893.94
576.238	7991.12
576.599	8090.32
576.96	8110.21
577.32	8199.02
577.681	8302.3
578.042	8378.68
578.403	8470.2
578.763	8569.86
579.124	8679.01
579.485	8686.69
579.845	8906.57
580.206	8957.19
580.566	9046.46
580.927	9221.14
581.287	9338.88
581.648	9423.4
582.008	9564.86
582.368	9687.8
582.728	9785.65
583.089	9942.25
583.449	10112.87
583.809	10328.23
584.169	10463.37
584.529	10634.21
584.889	10869.46
585.249	11067.19
585.609	11184.71
585.969	11427.86
586.329	11572.49
586.688	11854.97
587.048	12053.61
587.408	12291.57
587.768	12522.98
588.127	12763.65
588.487	12910.76
588.846	13280.47
589.206	13410.86
589.565	13750.51
589.925	13959.1
590.284	14210.62
590.643	14532.19
591.003	14787.78
591.362	15103.92
591.721	15361.55
592.08	15637.02
592.44	15991.59
592.799	16130.79
593.158	16351.12
593.517	16724
593.876	17001.28
594.235	17324.66
594.593	17594.93
594.952	17864.08
595.311	18157.18
595.67	18517.39
596.029	18893.88
596.387	19103.59
596.746	19452.06
597.104	19692.05
597.463	19932.05
597.822	20356.22
598.18	20480.05
598.538	20896.31
598.897	21087.04
599.255	21222.63
599.613	21927.47
599.972	22025.1
600.33	22339.67
600.688	22540.34
601.046	22927.67
601.404	23280.89
601.762	23348
602.12	23779.63
602.478	24064.82
602.836	24274.08
603.194	24461.19
603.552	24750
603.91	24925.59
604.268	25325.35
604.625	25473.6
604.983	25756.53
605.341	25982.51
605.698	26403.97
606.056	26585.66
606.413	26767.8
606.771	27089.37
607.128	27308.12
607.485	27359.87
607.843	27651.84
608.2	27986.3
608.557	28338.61
608.914	28357.59
609.272	28776.33
609.629	28930.23
609.986	29198.24
610.343	29210.22
610.7	29716.2
611.057	29775.86
611.414	30023.08
611.771	30229.4
612.127	30364.77
612.484	30497.19
612.841	30790.74
613.198	30868.26
613.554	31144.18
613.911	31320.9
614.267	31375.59
614.624	31570.84
614.98	31756.59
615.337	32047.43
615.693	32128.56
616.05	32213.53
616.406	32525.84
616.762	32585.95
617.118	32629.11
617.475	32855.1
617.831	33098.71
618.187	33287.18
618.543	33326.04
618.899	33756.32
619.255	33705.02
619.611	33718.12
619.967	33985.46
620.323	34160.82
620.678	34149.98
621.034	34209.64
621.39	34327.37
621.746	34416.64
622.101	34835.84
622.457	34729.4
622.812	34879.9
623.168	35012.1
623.523	34982.95
623.879	35233.79
624.234	35257.07
624.589	35221.14
624.945	35392.66
625.3	35467.68
625.655	35577.06
626.01	35614.8
626.365	35822.7
626.72	35627.91
627.075	35698.64
627.43	35838.29
627.785	36014.34
628.14	36024.05
628.495	36076.03
628.85	36039.19
629.205	36096.37
629.559	36321.22
629.914	36157.83
630.269	36299.75
630.623	36293.2
630.978	36231.28
631.332	36356.47
631.687	36533.64
632.041	36439.18
632.396	36536.81
632.75	36372.52
633.104	36430.14
633.459	36379.75
633.813	36549.24
634.167	36645.96
634.521	36551.5
634.875	36579.07
635.229	36467.43
635.583	36482.57
635.937	36410.71
636.291	36541.78
636.645	36586.07
636.999	36508.79
637.352	36585.85
637.706	36511.72
638.06	36531.38
638.413	36619.52
638.767	36382.91
639.121	36596.69
639.474	36416.58
639.828	36464.95
640.181	36535.9
640.534	36555.56
640.888	36467.66
641.241	36378.39
641.594	36378.17
641.947	36470.59
642.301	36323.03
642.654	36480.31
643.007	36469.92
643.36	36395.12
643.713	36357.6
644.066	36514.44
644.419	36247.1
644.771	36214.56
645.124	35795.81
645.477	35705.42
645.83	35452.09
646.182	35348.82
646.535	35267.24
646.888	35509.26
647.24	35186.79
647.593	35471.3
647.945	35370.96
648.298	35182.04
648.65	35231.98
649.002	35207.8
649.355	35323.05
649.707	35266.56
650.059	35477.17
650.411	35765.75
650.763	35857.28
651.115	36321.45
651.467	36195.8
651.819	36170.49
652.171	36084.16
652.523	36045.3
652.875	36070.38
653.227	35897.95
653.578	36240.77
653.93	36037.84
654.282	35971.62
654.633	35868.12
654.985	35818.86
655.337	35810.27
655.688	35954.22
656.039	36104.5
656.391	35912.42
656.742	35799.65
657.094	35897.73
657.445	35904.73
657.796	35798.75
658.147	35767.79
658.498	35840.78
658.849	35861.57
659.2	35838.29
659.551	35747.22
659.902	35898.63
660.253	35769.82
660.604	35843.72
660.955	35689.82
661.306	35726.21
661.656	35610.73
662.007	35690.73
662.358	35783.61
662.708	35625.42
663.059	35755.36
663.409	35489.38
663.76	35680.33
664.11	35748.13
664.461	35715.13
664.811	35598.3
665.161	35749.03
665.511	35567.79
665.862	35676.94
666.212	35822.48
666.562	35663.61
666.912	35829.03
667.262	35641.92
667.612	35562.82
667.962	35704.51
668.312	35577.51
668.662	35832.19
669.011	35749.26
669.361	35553.1
669.711	35535.7
670.06	35568.7
670.41	35557.62
670.76	35470.62
671.109	35634.23
671.459	35534.57
671.808	35388.82
672.157	35570.73
672.507	35349.72
672.856	35317.4
673.205	35313.79
673.554	35420.45
673.904	35324.86
674.253	35613.44
674.602	35404.41
674.951	34944.76
675.3	34701.83
675.649	35405.31
675.998	35214.58
676.346	35335.94
676.695	35455.25
677.044	35094.59
677.393	35363.96
677.741	35342.04
678.09	35240.12
678.438	35061.14
678.787	35099.11
679.135	35202.61
679.484	34991.09
679.832	35143.62
680.181	34938.21
680.529	35128.03
680.877	34973.23
681.225	34984.98
681.573	35099.33
681.922	34824.76
682.27	34766.23
682.618	34749.74
682.966	34670.19
683.314	34776.85
683.661	34541.83
684.009	34449.18
684.357	34432.23
684.705	34443.98
685.053	34455.05
685.4	34311.1
685.748	34233.14
686.095	34200.15
686.443	33952.24
686.79	33978.68
687.138	34036.99
687.485	34082.41
687.832	33834.05
688.18	33972.81
688.527	33809.2
688.874	33853.26
689.221	33724.9
689.568	33634.51
689.915	33570.56
690.262	33598.81
690.609	33503.67
690.956	33297.8
691.303	33269.1
691.65	33189.1
691.997	33202.88
692.344	33044.7
692.69	33020.52
693.037	32968.99
693.383	32744.59
693.73	32942.78
694.077	32656.68
694.423	32782.78
694.769	32735.33
695.116	32590.24
695.462	32542.34
695.808	32455.56
696.155	32461.66
696.501	32216.24
696.847	32105.06
697.193	32002.46
697.539	32153.87
697.885	31896.93
698.231	31849.7
698.577	31889.47
698.923	31850.6
699.269	31600.44
699.614	31449.03
699.96	31365.19
700.306	31428.69
700.651	31255.82
700.997	31258.75
701.342	31090.62
701.688	30973.56
702.033	30941.25
702.379	31013.79
702.724	30846.11
703.069	30895.37
703.415	30480.47
703.76	30600.47
704.105	30546.23
704.45	30498.32
704.795	30296.97
705.14	30277.54
705.485	30228.05
705.83	30144.21
706.175	30178.56
706.52	30072.12
706.865	29914.83
707.209	29898.11
707.554	29774.05
707.899	29824.67
708.243	29635.07
708.588	29554.62
708.932	29442.3
709.277	29471
709.621	29513.49
709.966	29295.42
710.31	29380.39
710.654	29273.95
710.998	29240.73
711.342	29244.12
711.687	28986.05
712.031	28963.45
712.375	28895.2
712.719	28845.48
713.063	28889.55
713.407	29071.24
713.75	28772.49
714.094	28786.05
714.438	28699.95
714.782	28604.13
715.125	28553.97
715.469	28628.99
715.812	28398.72
716.156	28363.69
716.499	28403.69
716.843	28338.15
717.186	28165.05
717.53	28317.81
717.873	28434.65
718.216	28125.73
718.559	28065.17
718.902	27798.73
719.246	27991.95
719.589	27848.9
719.932	27840.09
720.275	27891.16
720.617	27749.92
720.96	27647.78
721.303	27678.06
721.646	27583.37
721.989	27497.72
722.331	27592.64
722.674	27501.79
723.016	27459.98
723.359	27428.57
723.701	27468.57
724.044	27262.7
724.386	27209.6
724.729	27266.77
725.071	27236.26
725.413	27158.3
725.755	27132.76
726.097	27014.35
726.439	26907.68
726.782	26890.06
727.124	26940.45
727.465	26874.01
727.807	26803.28
728.149	26786.1
728.491	26690.96
728.833	26759.21
729.175	26639.44
729.516	26662.27
729.858	26505.88
730.199	26491.2
730.541	26444.19
730.882	26391.09
731.224	26575.71
731.565	26328.04
731.906	26259.79
732.248	26273.35
732.589	26081.72
732.93	26072.68
733.271	26092.56
733.612	26223.41
733.953	26120.13
734.294	26091.88
734.635	25993.58
734.976	26047.82
735.317	26058.44
735.658	25900.93
735.999	25895.28
736.339	25842.63
736.68	25966.46
737.021	25769.41
737.361	25674.49
737.702	25836.52
738.042	25775.73
738.383	25743.42
738.723	25673.36
739.063	25510.2
739.404	25651.44
739.744	25509.75
740.084	25385.46
740.424	25503.88
740.764	25427.5
741.104	25603.08
741.444	25301.85
741.784	25316.54
742.124	25264.56
742.464	25217.33
742.804	25129.65
743.143	25057.34
743.483	25215.3
743.823	25075.64
744.162	25014.4
744.502	25114.51
744.841	24934.4
745.181	25092.81
745.52	24942.99
745.86	25021.86
746.199	24947.06
746.538	24883.55
746.877	24866.38
747.216	24702.54
747.556	24721.98
747.895	24712.71
748.234	24616.67
748.573	24636.33
748.911	24555.65
749.25	24585.71
749.589	24470.23
749.928	24389.78
750.267	24442.89
750.605	24386.39
750.944	24192.95
751.283	24195.21
751.621	24299.84
751.96	24144.82
752.298	24198.83
752.636	24066.4
752.975	24014.43
753.313	23924.94
753.651	24028.44
753.989	23886.52
754.327	23922.9
754.666	23783.24
755.004	23736.47
755.342	23782.34
755.679	23633.19
756.017	23543.48
756.355	23633.42
756.693	23374.44
757.031	23520.88
757.368	23298.29
757.706	23376.93
758.044	23215.8
758.381	23343.71
758.719	23145.07
759.056	23096.94
759.394	23053.09
759.731	22941.68
760.068	22920.22
760.405	22805.42
760.743	22658.75
761.08	22798.41
761.417	22708.92
761.754	22718.64
762.091	22578.08
762.428	22523.62
762.765	22294.92
763.102	22382.15
763.438	22239.78
763.775	22129.28
764.112	22083.18
764.449	22296.28
764.785	22035.72
765.122	21951.2
765.458	21915.72
765.795	21895.61
766.131	21857.87
766.467	21789.62
766.804	21591.21
767.14	21459.24
767.476	21572.68
767.812	21356.64
768.148	21512.12
768.485	21390.77
768.821	21207.72
769.157	21063.54
769.492	21060.83
769.828	21030.32
770.164	20920.27
770.5	20831.23
770.836	20798.01
771.171	20617.45
771.507	20657.68
771.842	20553.5
772.178	20596.89
772.513	20520.96
772.849	20393.05
773.184	20260.17
773.519	20302.43
773.855	20236.67
774.19	20142.89
774.525	20053.63
774.86	19959.16
775.195	20007.07
775.53	19896.79
775.865	19805.72
776.2	19653.86
776.535	19523.7
776.87	19547.88
777.205	19389.46
777.539	19307.43
777.874	19448.9
778.209	19242.8
778.543	19212.52
778.878	19137.94
779.212	19070.15
779.547	18888.23
779.881	18925.29
780.215	18937.27
780.55	18913.77
780.884	18739.99
781.218	18676.49
781.552	18607.11
781.886	18529.82
782.22	18477.62
782.554	18357.17
782.888	18302.71
783.222	18180.45
783.556	18086.45
783.889	18200.79
784.223	18026.79
784.557	17967.8
784.89	17973.91
785.224	17792.44
785.557	17822.95
785.891	17729.62
786.224	17714.7
786.558	17713.8
786.891	17513.35
787.224	17368.27
787.557	17444.88
787.891	17418.44
788.224	17334.15
788.557	17249.18
788.89	17222.74
789.223	17136.64
789.556	17090.99
789.888	16929.19
790.221	16940.71
790.554	16839.92
790.887	16851.9
791.219	16804.22
791.552	16710.89
791.884	16761.28
792.217	16653.94
792.549	16543.44
792.882	16441.74
793.214	16322.88
793.546	16282.42
793.879	16290.33
794.211	16159.72
794.543	16312.48
794.875	16053.73
795.207	16168.53
795.539	16003.79
795.871	15987.74
796.203	15955.65
796.535	15761.76
796.867	15816.45
797.198	15691.48
797.53	15693.29
797.862	15606.06
798.193	15670.92
798.525	15593.18
798.856	15532.39
799.188	15324.03
799.519	15389.57
799.85	15263.92
800.182	15315.22
800.513	15278.84
800.844	15209.23
801.175	15300.76
801.506	15198.16
801.837	15132.85
802.168	15057.37
802.499	14995.91
802.83	14932.4
803.161	14922.91
803.491	14850.15
803.822	14929.47
804.153	14810.37
804.483	14763.14
804.814	14538.06
805.145	14585.07
805.475	14542.58
805.805	14522.7
806.136	14490.38
806.466	14562.47
806.796	14488.35
807.126	14373.77
807.457	14414.23
807.787	14287.45
808.117	14248.13
808.447	14247.68
808.777	14223.5
809.107	14166.32
809.436	14124.06
809.766	14150.73
810.096	14049.94
810.426	14008.81
810.755	14047.68
811.085	14014.24
811.414	13877.52
811.744	13875.93
812.073	13816.05
812.403	13807.69
812.732	13713
813.061	13720.68
813.39	13619.22
813.719	13571.99
814.049	13682.72
814.378	13575.6
814.707	13499.22
815.036	13582.61
815.365	13448.6
815.693	13335.84
816.022	13346.23
816.351	13247.48
816.68	13238.21
817.008	13292.67
817.337	13156.86
817.665	13159.34
817.994	13165.67
818.322	13224.88
818.651	13095.39
818.979	13040.48
819.307	13056.97
819.636	13002.29
819.964	13001.38
820.292	13021.49
820.62	12944.21
820.948	12891.78
821.276	12974.49
821.604	12843.19
821.932	13010.19
822.259	12905.11
822.587	12876.86
822.915	12882.06
823.243	12858.79
823.57	12852.46
823.898	12865.57
824.225	12797.09
824.553	12822.85
824.88	12826.92
825.207	12861.95
825.535	12764.55
825.862	12855.85
826.189	12788.73
826.516	12843.19
826.843	12891.33
827.17	12874.38
827.497	12919.58
827.824	12862.18
828.151	12825.57
828.478	12794.16
828.805	12927.26
829.131	12819.47
829.458	12781.27
829.785	12746.47
830.111	12728.85
830.438	12779.92
830.764	12742.63
831.09	12793.48
831.417	12704.89
831.743	12804.32
832.069	12809.3
832.395	12697.21
832.722	12802.74
833.048	12678
833.374	12701.05
833.7	12691.11
834.026	12739.69
834.351	12659.24
834.677	12742.18
835.003	12713.48
835.329	12666.25
835.654	12739.69
835.98	12608.4
836.306	12580.6
836.631	12572.47
836.956	12600.71
837.282	12518.23
837.607	12512.58
837.932	12475.75
838.258	12397.78
838.583	12471
838.908	12427.39
839.233	12429.42
839.558	12442.98
839.883	12375.86
840.208	12333.83
840.533	12321.63
840.858	12296.09
841.182	12344.68
841.507	12322.53
841.832	12250.89
842.156	12127.05
842.481	12172.02
842.805	12177.9
843.13	12117.34
843.454	12104.23
843.778	12096.77
844.103	12104.46
844.427	12055.64
844.751	11946.95
845.075	11990.79
845.399	11881.86
845.723	11766.39
846.047	11903.78
846.371	11767.74
846.695	11757.35
847.019	11616.78
847.343	11629.21
847.666	11541.98
847.99	11522.1
848.313	11464.47
848.637	11427.86
848.96	11414.76
849.284	11395.55
849.607	11345.15
849.931	11246.85
850.254	11176.34
850.577	11191.03
850.9	11089.57
851.223	11026.74
851.546	11014.99
851.869	10931.38
852.192	10981.55
852.515	10903.36
852.838	10869.01
853.161	10813.87
853.483	10784.49
853.806	10781.55
854.129	10723.25
854.451	10631.27
854.774	10582.46
855.096	10633.99
855.419	10540.88
855.741	10540.88
856.063	10508.34
856.385	10493.42
856.708	10404.16
857.03	10394.9
857.352	10399.64
857.674	10334.11
857.996	10313.32
858.318	10271.28
858.64	10257.5
858.961	10269.48
859.283	10161.91
859.605	10155.58
859.926	10135.24
860.248	10145.19
860.57	10073.32
860.891	10139.08
861.212	10087.56
861.534	10000.56
861.855	10025.64
862.176	10017.96
862.498	9997.39
862.819	9963.04
863.14	9941.8
863.461	10022.25
863.782	9837.62
864.103	9850.5
864.424	9829.94
864.745	9887.11
865.065	9733.22
865.386	9781.8
865.707	9773.44
866.027	9775.93
866.348	9736.16
866.668	9738.64
866.989	9745.65
867.309	9648.93
867.63	9644.86
867.95	9631.98
868.27	9592.21
868.59	9577.52
868.91	9541.81
869.23	9541.36
869.55	9571.19
869.87	9555.14
870.19	9560.12
870.51	9502.94
870.83	9552.43
871.15	9446.9
871.469	9478.76
871.789	9425.43
872.109	9444.41
872.428	9418.2
872.748	9392.89
873.067	9415.49
873.386	9477.63
873.706	9452.32
874.025	9391.31
874.344	9342.95
874.663	9390.18
874.982	9295.26
875.301	9295.26
875.62	9262.95
875.939	9311.99
876.258	9348.6
876.577	9208.71
876.896	9215.27
877.214	9203.06
877.533	9225.44
877.852	9240.8
878.17	9170.07
878.489	9158.77
878.807	9123.29
879.125	9084.65
879.444	9095.72
879.762	9124.2
880.08	9060.92
880.398	9051.2
880.716	9031.32
881.034	9027.7
881.352	8994.03
881.67	8925.1
881.988	8959.91
882.306	8948.15
882.624	8888.04
882.941	8883.3
883.259	8816.41
883.577	8806.46
883.894	8886.91
884.212	8801.04
884.529	8814.15
884.846	8771.44
885.164	8735.96
885.481	8740.25
885.798	8691.66
886.115	8658.22
886.432	8611.89
886.75	8604.43
887.067	8663.87
887.383	8639.91
887.7	8618.67
888.017	8556.3
888.334	8560.37
888.651	8566.92
888.967	8520.37
889.284	8432.46
889.6	8415.51
889.917	8370.54
890.233	8372.8
890.55	8367.38
890.866	8368.51
891.182	8331
891.498	8293.03
891.815	8289.19
892.131	8267.27
892.447	8260.71
892.763	8209.19
893.079	8172.36
893.395	8159.25
893.71	8166.48
894.026	8121.06
894.342	8025.47
894.657	8109.76
894.973	8075.64
895.289	8053.04
895.604	7987.73
895.92	7980.04
896.235	7915.64
896.55	7964.9
896.865	7907.28
897.181	7844.23
897.496	7890.1
897.811	7820.05
898.126	7797
898.441	7745.02
898.756	7753.61
899.071	7666.61
899.386	7659.15
899.7	7659.37
900.015	7663.89
900.33	7555.2
900.644	7578.25
900.959	7550.23
901.273	7518.36
901.588	7534.86
901.902	7417.35
902.216	7438.82
902.531	7438.36
902.845	7420.06
903.159	7301.42
903.473	7273.17
903.787	7310.01
904.101	7300.51
904.415	7254.19
904.729	7275.2
905.042	7218.03
905.356	7161.31
905.67	7206.05
905.984	7110.91
906.297	7111.14
906.611	7043.57
906.924	7026.62
907.237	7037.92
907.551	6954.08
907.864	6949.56
908.177	6907.08
908.491	6900.98
908.804	6820.98
909.117	6823.24
909.43	6794.54
909.743	6777.14
910.056	6740.53
910.368	6711.38
910.681	6694.65
910.994	6668.21
911.307	6669.57
911.619	6626.18
911.932	6615.11
912.244	6611.49
912.557	6567.43
912.869	6544.38
913.181	6496.92
913.494	6446.53
913.806	6422.12
914.118	6384.38
914.43	6395.68
914.742	6340.77
915.054	6318.62
915.366	6278.85
915.678	6327.21
915.99	6269.81
916.302	6209.7
916.613	6168.79
916.925	6158.85
917.236	6112.3
917.548	6176.25
917.859	6151.62
918.171	6073.65
918.482	6052.86
918.794	6013.54
919.105	6028.01
919.416	5988.91
919.727	6000.44
920.038	5920.44
920.349	5886.99
920.66	5932.64
920.971	5898.52
921.282	5839.54
921.593	5850.61
921.903	5769.93
922.214	5780.33
922.525	5756.6
922.835	5734.91
923.146	5649.94
923.456	5670.5
923.767	5652.42
924.077	5643.38
924.387	5628.47
924.697	5548.24
925.008	5546.66
925.318	5546.44
925.628	5487.45
925.938	5508.47
926.248	5425.08
926.558	5461.92
926.867	5424.86
927.177	5388.47
927.487	5350.74
927.796	5313.9
928.106	5299.66
928.416	5328.81
928.725	5288.59
929.034	5289.72
929.344	5191.19
929.653	5192.77
929.962	5171.53
930.271	5128.14
930.581	5135.37
930.89	5091.98
931.199	5097.18
931.508	5103.74
931.817	5082.72
932.125	5050.4
932.434	5013.34
932.743	5027.35
933.051	4917.98
933.36	4956.4
933.669	4968.82
933.977	4885.21
934.286	4869.39
934.594	4856.51
934.902	4821.71
935.21	4781.94
935.519	4816.96
935.827	4770.86
936.135	4742.16
936.443	4699
936.751	4715.05
937.059	4755.27
937.367	4676.4
937.674	4695.39
937.982	4636.4
938.29	4675.95
938.597	4601.15
938.905	4561.83
939.213	4576.97
939.52	4540.59
939.827	4578.33
940.135	4471.21
940.442	4455.17
940.749	4457.43
941.056	4527.93
941.363	4423.08
941.67	4406.35
941.977	4379.24
942.284	4360.25
942.591	4364.32
942.898	4340.14
943.205	4374.49
943.511	4296.53
943.818	4279.12
944.125	4280.03
944.431	4284.32
944.738	4259.24
945.044	4190.09
945.35	4232.35
945.657	4198.22
945.963	4174.72
946.269	4143.54
946.575	4109.86
946.881	4096.08
947.187	4091.56
947.493	4054.27
947.799	4059.24
948.105	4045.46
948.41	4037.78
948.716	3977.66
949.022	4019.24
949.327	4037.32
949.633	3947.16
949.938	3990.09
950.244	3898.57
950.549	3910.32
950.854	3889.98
951.16	3845.69
951.465	3838.91
951.77	3853.83
952.075	3834.84
952.38	3827.16
952.685	3805.92
952.99	3765.47
953.294	3735.18
953.599	3732.7
953.904	3744
954.209	3657.67
954.513	3702.64
954.818	3672.59
955.122	3676.88
955.426	3664.68
955.731	3600.27
956.035	3594.4
956.339	3605.47
956.643	3600.05
956.948	3566.38
957.252	3530.9
957.556	3528.18
957.86	3505.81
958.163	3523.89
958.467	3465.59
958.771	3519.37
959.075	3482.31
959.378	3456.55
959.682	3429.66
959.985	3409.77
960.289	3396.44
960.592	3396.21
960.896	3422.88
961.199	3358.25
961.502	3330.9
961.805	3276.89
962.108	3304.24
962.411	3301.52
962.714	3250.23
963.017	3282.54
963.32	3280.05
963.623	3243.22
963.926	3216.55
964.228	3238.7
964.531	3210.23
964.833	3211.36
965.136	3174.3
965.438	3159.61
965.741	3123.45
966.043	3120.74
966.345	3108.76
966.648	3131.81
966.95	3101.75
967.252	3060.63
967.554	3066.05
967.856	3059.95
968.158	3072.15
968.46	3054.3
968.761	3044.13
969.063	3033.51
969.365	3027.18
969.666	3015.88
969.968	2969.55
970.269	2934.75
970.571	2950.35
970.872	2972.27
971.174	2891.59
971.475	2910.35
971.776	2861.53
972.077	2859.95
972.378	2840.74
972.679	2850.24
972.98	2807.75
973.281	2851.14
973.582	2836
973.883	2834.87
974.183	2791.03
974.484	2765.72
974.785	2749
975.085	2786.28
975.386	2779.96
975.686	2733.18
975.986	2709
976.287	2700.18
976.587	2673.52
976.887	2710.58
977.187	2693.18
977.487	2652.05
977.787	2593.52
978.087	2613.41
978.387	2620.86
978.687	2647.08
978.987	2624.48
979.286	2601.43
979.586	2597.14
979.885	2605.5
980.185	2525.72
980.484	2513.3
980.784	2530.92
981.083	2546.06
981.382	2506.52
981.682	2507.19
981.981	2471.49
982.28	2489.34
982.579	2450.92
982.878	2473.3
983.177	2436.01
983.475	2449.79
983.774	2436.69
984.073	2409.12
984.372	2372.28
984.67	2382.45
984.969	2406.63
985.267	2381.1
985.566	2368.44
985.864	2368.21
986.162	2370.25
986.461	2368.21
986.759	2299.29
987.057	2289.8
987.355	2323.92
987.653	2318.95
987.951	2263.36
988.249	2281.21
988.547	2264.26
988.844	2259.74
989.142	2275.79
989.44	2219.97
989.737	2217.26
990.035	2241.44
990.332	2213.19
990.63	2170.93
990.927	2188.11
991.224	2153.08
991.521	2164.6
991.819	2153.3
992.116	2172.51
992.413	2146.75
992.71	2153.08
993.006	2096.36
993.303	2114.44
993.6	2075.34
993.897	2085.28
994.193	2080.09
994.49	2080.09
994.787	2079.63
995.083	2068.56
995.379	2017.04
995.676	2023.36
995.972	2017.49
996.268	1997.6
996.565	1974.55
996.861	2002.12
997.157	1997.38
997.453	1942.92
997.749	1973.2
998.044	1952.86
998.34	1953.76
998.636	1911.28
998.932	1929.58
999.227	1895.68
999.523	1917.38
999.818	1895.68
1000.114	1884.16
1000.409	1859.53
1000.704	1873.31
1001	1857.27
1001.295	1857.27
1001.59	1823.82
1001.885	1842.8
1002.18	1821.11
1002.475	1804.61
1002.77	1818.17
1003.065	1794.67
1003.359	1773.88
1003.654	1779.08
1003.949	1757.16
1004.243	1783.82
1004.538	1730.27
1004.832	1727.33
1005.127	1727.33
1005.421	1713.54
1005.715	1718.97
1006.009	1703.6
1006.304	1663.6
1006.598	1667.89
1006.892	1670.38
1007.186	1699.53
1007.48	1673.77
1007.773	1648.23
1008.067	1633.54
1008.361	1603.49
1008.655	1626.99
1008.948	1612.75
1009.242	1635.8
1009.535	1581.57
1009.829	1591.74
1010.122	1587.44
1010.415	1587.67
1010.708	1563.72
1011.001	1516.71
1011.295	1535.24
1011.588	1518.52
1011.881	1531.63
1012.173	1505.19
1012.466	1528.24
1012.759	1483.04
1013.052	1515.81
1013.344	1462.25
1013.637	1496.6
1013.93	1456.15
1014.222	1476.49
1014.514	1454.79
1014.807	1450.5
1015.099	1424.06
1015.391	1426.77
1015.683	1429.71
1015.976	1422.48
1016.268	1392.2
1016.56	1372.99
1016.851	1385.87
1017.143	1380.67
1017.435	1348.81
1017.727	1342.7
1018.018	1349.94
1018.31	1376.6
1018.602	1337.51
1018.893	1334.34
1019.185	1302.71
1019.476	1283.72
1019.767	1278.07
1020.058	1283.95
1020.35	1281.69
1020.641	1268.81
1020.932	1267
1021.223	1288.24
1021.514	1267.68
1021.804	1238.3
1022.095	1265.42
1022.386	1257.06
1022.677	1228.58
1022.967	1193.33
1023.258	1221.58
1023.548	1214.12
1023.839	1208.7
1024.129	1182.48
1024.419	1179.55
1024.709	1152.65
1025	1142.71
1025.29	1148.13
1025.58	1171.18
1025.87	1149.72
1026.16	1150.85
1026.449	1135.03
1026.739	1136.38
1027.029	1144.97
1027.319	1102.49
1027.608	1094.8
1027.898	1109.26
1028.187	1092.99
1028.477	1084.86
1028.766	1088.47
1029.055	1072.66
1029.344	1058.64
1029.634	1076.72
1029.923	1062.03
1030.212	1028.59
1030.501	1049.61
1030.79	1017.97
1031.078	1020.91
1031.367	995.14
1031.656	1003.5
1031.945	997.4
1032.233	1008.02
1032.522	988.36
1032.81	969.38
1033.099	972.77
1033.387	963.05
1033.675	948.14
1033.963	934.58
1034.251	957.63
1034.54	963.05
1034.828	948.59
1035.116	917.41
1035.403	940
1035.691	931.87
1035.979	934.58
1036.267	915.82
1036.554	945.65
1036.842	904.3
1037.129	893.23
1037.417	892.1
1037.704	890.51
1037.992	883.06
1038.279	880.8
1038.566	891.87
1038.853	891.87
1039.14	891.87
