Data from hue_38_FLMS001491_00052.txt Node
Date: Tue Feb 07 17:31:40 GMT 2017
User: dcchb
Spectrometer: FLMS00149
Trigger mode: 0
Integration Time (sec): 2.000000E-2
Scans to average: 10
Electric dark correction enabled: true
Nonlinearity correction enabled: false
Boxcar width: 0
XAxis mode: Wavelengths
Number of Pixels in Spectrum: 2048
>>>>>Begin Spectral Data<<<<<
341.393	-17.4
341.776	-17.4
342.16	-17.4
342.543	-70.28
342.927	-69.83
343.31	-61.47
343.693	-81.81
344.077	-64.86
344.46	-52.88
344.843	-66.21
345.226	-54.91
345.61	-35.93
345.993	-7.91
346.376	-4.29
346.759	13.78
347.142	54.46
347.525	39.1
347.908	66.66
348.291	55.14
348.674	91.3
349.057	109.83
349.44	133.78
349.823	127.23
350.206	167.68
350.588	208.13
350.971	244.97
351.354	239.32
351.737	220.11
352.119	249.26
352.502	265.3
352.884	262.14
353.267	265.53
353.65	301.91
354.032	295.36
354.414	293.33
354.797	327.22
355.179	315.02
355.562	337.17
355.944	335.36
356.326	341.69
356.709	359.99
357.091	343.27
357.473	359.99
357.855	338.07
358.238	328.35
358.62	349.82
359.002	351.4
359.384	335.58
359.766	362.25
360.148	342.82
360.53	354.57
360.912	335.58
361.294	328.58
361.676	331.29
362.057	332.65
362.439	351.4
362.821	320.67
363.203	332.65
363.584	351.86
363.966	336.71
364.348	342.14
364.729	338.07
365.111	329.26
365.493	322.48
365.874	331.52
366.256	322.93
366.637	328.13
367.019	317.96
367.4	317.96
367.781	319.54
368.163	312.08
368.544	321.8
368.925	314.57
369.306	333.1
369.688	331.52
370.069	317.51
370.45	339.65
370.831	306.21
371.212	331.52
371.593	323.16
371.974	315.92
372.355	321.12
372.736	331.29
373.117	325.19
373.498	331.52
373.879	325.64
374.26	305.75
374.641	338.07
375.021	308.01
375.402	323.61
375.783	319.54
376.163	338.52
376.544	334.45
376.925	324.29
377.305	312.76
377.686	336.04
378.066	353.66
378.447	326.09
378.827	331.52
379.208	335.36
379.588	351.63
379.968	353.21
380.349	351.4
380.729	323.61
381.109	340.33
381.489	340.1
381.87	328.13
382.25	353.66
382.63	329.48
383.01	334.23
383.39	362.48
383.77	373.55
384.15	329.03
384.53	356.83
384.91	354.79
385.29	357.73
385.67	360.67
386.049	369.03
386.429	379.65
386.809	364.96
387.189	371.06
387.568	357.28
387.948	345.53
388.328	349.37
388.707	378.52
389.087	368.35
389.466	357.73
389.846	358.86
390.225	389.59
390.605	379.43
390.984	368.13
391.363	384.4
391.743	369.93
392.122	390.27
392.501	367.22
392.881	384.4
393.26	368.13
393.639	387.11
394.018	384.4
394.397	383.49
394.776	373.1
395.155	387.11
395.534	399.76
395.913	392.98
396.292	410.38
396.671	404.06
397.05	394.11
397.429	399.31
397.808	409.71
398.186	387.56
398.565	397.73
398.944	409.03
399.323	413.32
399.701	402.93
400.08	405.87
400.458	416.26
400.837	432.53
401.215	421.68
401.594	420.78
401.972	416.26
402.351	428.01
402.729	437.05
403.107	424.4
403.486	407.22
403.864	421.68
404.242	426.2
404.62	432.31
404.999	432.76
405.377	430.5
405.755	438.18
406.133	446.77
406.511	424.62
406.889	418.75
407.267	440.44
407.645	450.16
408.023	432.31
408.401	442.47
408.779	458.97
409.156	445.41
409.534	447.45
409.912	457.39
410.29	476.82
410.667	466.43
411.045	465.07
411.422	480.89
411.8	468.69
412.178	471.4
412.555	489.03
412.933	499.65
413.31	471.63
413.687	499.2
414.065	493.55
414.442	506.2
414.819	508.01
415.197	481.34
415.574	516.6
415.951	490.16
416.328	513.88
416.705	515.01
417.082	540.32
417.46	532.87
417.837	523.83
418.214	524.05
418.591	529.03
418.967	528.8
419.344	542.81
419.721	546.43
420.098	544.62
420.475	538.29
420.852	543.71
421.228	541.68
421.605	561.12
421.982	552.08
422.358	554.34
422.735	558.86
423.111	569.7
423.488	589.82
423.864	585.3
424.241	580.55
424.617	587.56
424.994	582.36
425.37	576.71
425.746	581.68
426.123	584.17
426.499	634.11
426.875	611.74
427.251	621.45
427.627	626.65
428.003	611.28
428.379	616.93
428.756	630.04
429.132	638.63
429.507	638.4
429.883	649.7
430.259	660.1
430.635	662.13
431.011	688.34
431.387	676.14
431.763	698.51
432.138	677.27
432.514	697.83
432.89	681.11
433.265	717.95
433.641	710.72
434.016	713.2
434.392	729.92
434.767	724.05
435.143	719.3
435.518	725.18
435.894	755.91
436.269	731.73
436.644	739.87
437.02	763.14
437.395	746.87
437.77	767.21
438.145	766.76
438.52	756.36
438.895	773.09
439.271	780.32
439.646	797.95
440.021	796.59
440.395	796.59
440.77	807.66
441.145	822.8
441.52	831.16
441.895	851.28
442.27	839.75
442.645	848.57
443.019	849.47
443.394	851.73
443.769	853.08
444.143	839.98
444.518	839.53
444.892	839.98
445.267	851.05
445.641	875.23
446.016	849.02
446.39	892.63
446.764	863.71
447.139	902.58
447.513	917.49
447.887	883.59
448.262	906.64
448.636	904.83
449.01	900.54
449.384	927.43
449.758	922.69
450.132	952.52
450.506	926.3
450.88	943.48
451.254	962.23
451.628	947.55
452.002	955
452.376	960.43
452.75	996.13
453.123	974.89
453.497	1001.78
453.871	1016.47
454.244	1002.01
454.618	1028.22
454.992	1021.22
455.365	1048.33
455.739	1061.67
456.112	1057.6
456.486	1077.94
456.859	1084.27
457.232	1101.21
457.606	1087.43
457.979	1142.34
458.352	1119.07
458.725	1157.71
459.099	1150.7
459.472	1156.35
459.845	1194.54
460.218	1195.67
460.591	1188.67
460.964	1211.04
461.337	1238.84
461.71	1222.79
462.083	1250.59
462.456	1286.75
462.829	1283.36
463.201	1290.14
463.574	1314.09
463.947	1312.96
464.32	1349.8
464.692	1340.76
465.065	1359.06
465.438	1380.08
465.81	1430.92
466.183	1423.01
466.555	1452.84
466.928	1447.42
467.3	1476.8
467.672	1513.41
468.045	1535.55
468.417	1560.86
468.789	1550.92
469.161	1588.43
469.534	1621.43
469.906	1624.14
470.278	1651.26
470.65	1692.61
471.022	1739.16
471.394	1737.58
471.766	1797.69
472.138	1818.94
472.51	1861.19
472.882	1910.01
473.253	1944.36
473.625	1909.1
473.997	2001.98
474.369	2028.65
474.74	2055.09
475.112	2086.5
475.484	2162.65
475.855	2202.88
476.227	2206.95
476.598	2333.05
476.97	2330.79
477.341	2379.6
477.713	2432.93
478.084	2502.08
478.455	2550.89
478.827	2568.29
479.198	2699.36
479.569	2760.61
479.94	2798.8
480.311	2856.2
480.682	2970.54
481.053	3049.64
481.424	3132.8
481.795	3140.71
482.166	3289.63
482.537	3361.49
482.908	3430.42
483.279	3498.21
483.65	3565.33
484.021	3711.99
484.391	3781.82
484.762	3837.64
485.133	3887.36
485.503	4012.1
485.874	4097.52
486.244	4178.87
486.615	4289.15
486.985	4456.15
487.356	4492.31
487.726	4603.27
488.097	4682.36
488.467	4832.42
488.837	4947.89
489.207	5061.11
489.578	5156.93
489.948	5289.58
490.318	5393.3
490.688	5447.09
491.058	5578.61
491.428	5722.11
491.798	5770.7
492.168	5968.2
492.538	6050.24
492.908	6142.44
493.278	6299.5
493.648	6319.61
494.017	6433.28
494.387	6553.95
494.757	6671.46
495.126	6785.13
495.496	6849.31
495.866	6952.59
496.235	7089.31
496.605	7224.44
496.974	7260.6
497.344	7367.49
497.713	7452.46
498.082	7579.46
498.452	7635.96
498.821	7762.06
499.19	7783.07
499.559	7915.95
499.928	8011.99
500.298	8100.13
500.667	8225.77
501.036	8277.07
501.405	8351.87
501.774	8468.93
502.143	8515.71
502.512	8644.29
502.88	8744.85
503.249	8752.54
503.618	8891.29
503.987	8905.08
504.356	9054.23
504.724	9096.71
505.093	9180.55
505.462	9288.57
505.83	9314.78
506.199	9424.16
506.567	9536.02
506.936	9569.01
507.304	9733.3
507.672	9782.57
508.041	9836.58
508.409	9971.04
508.777	10068.21
509.145	10083.58
509.514	10198.6
509.882	10199.05
510.25	10284.93
510.618	10433.62
510.986	10467.75
511.354	10526.73
511.722	10571.7
512.09	10810.34
512.458	10791.81
512.826	10889.43
513.193	10926.49
513.561	10992.03
513.929	11115.87
514.297	11100.73
514.664	11236.54
515.032	11320.61
515.4	11305.47
515.767	11488.74
516.135	11504.33
516.502	11432.47
516.869	11587.49
517.237	11654.16
517.604	11730.09
517.972	11793.81
518.339	11868.84
518.706	11962.62
519.073	12014.37
519.44	12089.17
519.808	12201.04
520.175	12199.45
520.542	12344.76
520.909	12417.75
521.276	12473.34
521.643	12521.25
522.009	12589.5
522.376	12693.68
522.743	12749.04
523.11	12912.65
523.477	13019.32
523.843	13041.01
524.21	13129.82
524.577	13278.75
524.943	13349.03
525.31	13404.62
525.676	13423.6
526.043	13625.63
526.409	13697.72
526.776	13823.14
527.142	13818.39
527.508	13867.88
527.874	14078.05
528.241	14031.5
528.607	14100.19
528.973	14224.48
529.339	14162.34
529.705	14335.22
530.071	14466.51
530.437	14580.63
530.803	14698.82
531.169	14707.41
531.535	14645.72
531.901	14683.46
532.267	14892.04
532.632	14919.83
532.998	15021.3
533.364	15026.05
533.73	15145.14
534.095	15289.54
534.461	15320.5
534.826	15367.73
535.192	15464.23
535.557	15657.22
535.923	15633.94
536.288	15542.42
536.653	15706.71
537.019	15679.59
537.384	15770.66
537.749	15871.67
538.114	15874.61
538.479	15975.4
538.845	16057.2
539.21	16011.33
539.575	16185.79
539.94	16141.95
540.305	16303.98
540.67	16261.95
541.034	16374.03
541.399	16414.26
541.764	16492
542.129	16551.66
542.494	16594.14
542.858	16626.68
543.223	16692.22
543.587	16807.69
543.952	16768.37
544.316	16829.39
544.681	16962.04
545.045	17126.33
545.41	17157.06
545.774	17192.32
546.138	17233.67
546.503	17356.83
546.867	17271.18
547.231	17470.05
547.595	17485.42
547.959	17595.24
548.324	17539.2
548.688	17587.11
549.052	17670.27
549.416	17769.02
549.779	17773.54
550.143	17784.84
550.507	17991.39
550.871	18030.71
551.235	17888.34
551.599	18108.22
551.962	18137.15
552.326	18150.71
552.689	18290.37
553.053	18323.13
553.417	18292.85
553.78	18543.92
554.143	18460.76
554.507	18531.04
554.87	18690.36
555.234	18794.08
555.597	18729.23
555.96	18816.23
556.323	18926.96
556.686	18859.62
557.05	19104.13
557.413	19098.93
557.776	19097.12
558.139	19254.86
558.502	19297.12
558.865	19359.94
559.228	19449.43
559.59	19490.79
559.953	19526.04
560.316	19784.56
560.679	19752.25
561.041	19791.34
561.404	20000.15
561.767	20020.26
562.129	20023.65
562.492	20149.53
562.854	20172.12
563.217	20183.65
563.579	20213.03
563.941	20299.81
564.304	20493.92
564.666	20532.12
565.028	20553.58
565.39	20688.95
565.753	20854.37
566.115	20925.33
566.477	20965.55
566.839	20893.69
567.201	21088.49
567.563	21146.34
567.925	21384.52
568.287	21304.52
568.648	21366.9
569.01	21442.15
569.372	21597.17
569.734	21578.64
570.095	21800.1
570.457	21835.58
570.819	21864.28
571.18	21913.55
571.542	22122.13
571.903	22144.73
572.265	22216.59
572.626	22389.92
572.987	22327.77
573.349	22513.98
573.71	22617.26
574.071	22679.86
574.432	22826.97
574.794	23022.67
575.155	23015.44
575.516	23003.69
575.877	23207.98
576.238	23218.37
576.599	23372.49
576.96	23614.52
577.32	23609.55
577.681	23791.24
578.042	23857.45
578.403	24115.75
578.763	24145.35
579.124	24229.42
579.485	24492.01
579.845	24731.33
580.206	24731.33
580.566	24800.48
580.927	25081.83
581.287	25215.16
581.648	25279.34
582.008	25612.43
582.368	25660.57
582.728	25884.97
583.089	26033.89
583.449	26137.17
583.809	26414.67
584.169	26529.02
584.529	26716.13
584.889	27221.66
585.249	27092.39
585.609	27268.21
585.969	27670.01
586.329	27626.84
586.688	27958.81
587.048	28269.54
587.408	28303.66
587.768	28446.48
588.127	28674.27
588.487	28898.45
588.846	29408.27
589.206	29331.43
589.565	29548.38
589.925	29950.4
590.284	30046.89
590.643	30358.98
591.003	30601.46
591.362	30861.34
591.721	30923.03
592.08	31217.48
592.44	31454.99
592.799	31656.79
593.158	31810.01
593.517	32043.23
593.876	32287.51
594.235	32339.71
594.593	32698.8
594.952	32928.17
595.311	33116.64
595.67	33311.67
596.029	33746.68
596.387	33974.25
596.746	34226.44
597.104	34225.09
597.463	34443.39
597.822	34835.47
598.18	34797.73
598.538	35003.15
598.897	35418.5
599.255	35232.97
599.613	35885.61
599.972	35756.8
600.33	36090.58
600.688	36072.05
601.046	36567.63
601.404	36675.87
601.762	36748.64
602.12	37169.64
602.478	37154.5
602.836	37225.91
603.194	37461.61
603.552	37548.84
603.91	37600.82
604.268	37930.98
604.625	37947.93
604.983	38199
605.341	38283.74
605.698	38379.33
606.056	38596.95
606.413	38780.68
606.771	39119.42
607.128	39340.43
607.485	39197.84
607.843	39413.43
608.2	39599.18
608.557	39961.66
608.914	39751.27
609.272	40054.99
609.629	40367.3
609.986	40417.02
610.343	40405.72
610.7	40661.98
611.057	40747.86
611.414	40749.89
611.771	41002.54
612.127	41246.15
612.484	41270.78
612.841	41582.86
613.198	41443.66
613.554	41622.63
613.911	41795.29
614.267	41858.56
614.624	42012.68
614.98	42235.27
615.337	42310.75
615.693	42272.11
616.05	42437.98
616.406	42623.06
616.762	42569.5
617.118	42721.36
617.475	42831.64
617.831	42832.32
618.187	43108.47
618.543	43035.7
618.899	43296.49
619.255	43337.84
619.611	43296.71
619.967	43453.55
620.323	43590.49
620.678	43709.13
621.034	43523.83
621.39	43590.49
621.746	43585.29
622.101	44145.28
622.457	43938.28
622.812	43936.7
623.168	44165.84
623.523	44061.21
623.879	44371.94
624.234	44070.25
624.589	44246.07
624.945	44211.72
625.3	44506.17
625.655	44405.84
626.01	44508.89
626.365	44421.66
626.72	44339.63
627.075	44490.36
627.43	44518.38
627.785	44484.03
628.14	44599.51
628.495	44583.91
628.85	44665.27
629.205	44484.71
629.559	44827.3
629.914	44599.96
630.269	44750.69
630.623	44604.25
630.978	44627.75
631.332	44779.84
631.687	44876.11
632.041	44622.78
632.396	44868.88
632.75	44555.89
633.104	44777.81
633.459	44579.39
633.813	44660.29
634.167	44652.39
634.521	44793.62
634.875	44756.79
635.229	44673.63
635.583	44505.72
635.937	44695.55
636.291	44620.75
636.645	44557.47
636.999	44577.81
637.352	44726.73
637.706	44324.94
638.06	44582.56
638.413	44641.31
638.767	44447.42
639.121	44547.76
639.474	44348.44
639.828	44505.95
640.181	44321.09
640.534	44403.13
640.888	44303.47
641.241	44189.35
641.594	44193.19
641.947	44377.36
642.301	44360.87
642.654	44204.71
643.007	44305.73
643.36	44251.94
643.713	44094.89
644.066	44331.49
644.419	43957.04
644.771	43764.5
645.124	43396.15
645.477	43539.87
645.83	43103.73
646.182	43087.23
646.535	42919.1
646.888	43071.41
647.24	42788.03
647.593	43155.7
647.945	43049.49
648.298	42847.69
648.65	42797.07
649.002	42717.29
649.355	42880
649.707	42945.99
650.059	43076.61
650.411	43454.9
650.763	43478.4
651.115	43896.7
651.467	43826.64
651.819	43829.36
652.171	43662.35
652.523	43638.17
652.875	43672.3
653.227	43462.81
653.578	43651.28
653.93	43568.35
654.282	43572.87
654.633	43397.05
654.985	43431.63
655.337	43513.66
655.688	43448.58
656.039	43552.75
656.391	43180.56
656.742	43372.87
657.094	43337.84
657.445	43575.58
657.796	43390.5
658.147	43372.42
658.498	43299.65
658.849	43270.05
659.2	43318.86
659.551	43161.58
659.902	43372.64
660.253	43219.2
660.604	43358.18
660.955	43025.08
661.306	43247.22
661.656	43105.31
662.007	43190.05
662.358	43207.68
662.708	43254.68
663.059	43093.56
663.409	42925.88
663.76	43344.85
664.11	43182.59
664.461	43177.4
664.811	43248.81
665.161	43128.81
665.511	43065.08
665.862	43027.34
666.212	43159.77
666.562	43146.21
666.912	43064.86
667.262	43040.45
667.612	43044.74
667.962	43177.85
668.312	43107.12
668.662	43283.83
669.011	43141.92
669.361	43121.35
669.711	43103.05
670.06	43032.31
670.41	42768.82
670.76	42930.17
671.109	43044.07
671.459	42922.94
671.808	42822.83
672.157	42880.91
672.507	42653.57
672.856	42681.36
673.205	42799.55
673.554	42985.08
673.904	42696.5
674.253	43071.64
674.602	42874.35
674.951	42331.54
675.3	42135.16
675.649	42679.1
675.998	42693.79
676.346	42669.61
676.695	42940.57
677.044	42607.92
677.393	42673.68
677.741	42734.92
678.09	42398.89
678.438	42404.99
678.787	42564.76
679.135	42446.34
679.484	42177.2
679.832	42464.42
680.181	42094.26
680.529	42280.47
680.877	42154.37
681.225	42187.14
681.573	42343.97
681.922	42153.47
682.27	41969.52
682.618	41986.47
682.966	41893.14
683.314	41887.26
683.661	41713.48
684.009	41654.27
684.357	41600.49
684.705	41511.22
685.053	41630.09
685.4	41479.14
685.748	41392.58
686.095	41337.9
686.443	41156.21
686.79	41138.35
687.138	41203.89
687.485	41260.38
687.832	41178.58
688.18	41012.93
688.527	40823.33
688.874	40911.69
689.221	40895.42
689.568	40833.28
689.915	40720.51
690.262	40644.81
690.609	40558.93
690.956	40432.38
691.303	40384.47
691.65	40142.9
691.997	40217.93
692.344	39998.72
692.69	39916.01
693.037	40107.19
693.383	39703.14
693.73	39681.44
694.077	39456.36
694.423	39674.21
694.769	39479.41
695.116	39422.47
695.462	39369.36
695.808	39164.85
696.155	39233.77
696.501	38934.8
696.847	38939.54
697.193	38738.87
697.539	38927.34
697.885	38633.79
698.231	38483.51
698.577	38483.28
698.923	38477.18
699.269	38338.2
699.614	38169.62
699.96	37990.19
700.306	38145.89
700.651	38036.06
700.997	37775.28
701.342	37648.73
701.688	37689.4
702.033	37522.63
702.379	37424.55
702.724	37436.3
703.069	37433.37
703.415	37193.6
703.76	37187.5
704.105	37109.76
704.45	37002.19
704.795	36713.61
705.14	36777.56
705.485	36660.05
705.83	36578.02
706.175	36565.14
706.52	36427.29
706.865	36344.58
707.209	36326.28
707.554	36069.79
707.899	36316.56
708.243	36050.35
708.588	36046.74
708.932	35745.05
709.277	35695.78
709.621	35752.28
709.966	35595.45
710.31	35560.19
710.654	35327.66
710.998	35275
711.342	35413.08
711.687	35405.17
712.031	35121.56
712.375	34954.79
712.719	34951.85
713.063	34970.38
713.407	35061.68
713.75	34876.37
714.094	34887.22
714.438	34670.05
714.782	34679.09
715.125	34619.2
715.469	34717.73
715.812	34465.31
716.156	34216.05
716.499	34385.76
716.843	34295.37
717.186	34167.46
717.53	34283.39
717.873	34255.37
718.216	34083.85
718.559	33976.06
718.902	33708.27
719.246	33853.35
719.589	33768.83
719.932	33550.76
720.275	33538.1
720.617	33712.33
720.96	33546.01
721.303	33642.51
721.646	33519.57
721.989	33307.82
722.331	33406.81
722.674	33227.15
723.016	33342.63
723.359	33216.3
723.701	33256.07
724.044	33067.38
724.386	32859.7
724.729	33088.17
725.071	32983.31
725.413	32882.98
725.755	32749.42
726.097	32775.18
726.439	32668.29
726.782	32633.27
727.124	32705.35
727.465	32477.11
727.807	32527.73
728.149	32436.66
728.491	32313.5
728.833	32453.84
729.175	32219.94
729.516	32216.55
729.858	32185.14
730.199	32300.17
730.541	32019.5
730.882	32120.06
731.224	32153.73
731.565	31936.34
731.906	31973.85
732.248	31976.79
732.589	31677.36
732.93	31694.31
733.271	31812.27
733.612	31809.56
733.953	31808.43
734.294	31667.87
734.635	31669.9
734.976	31712.16
735.317	31438.04
735.658	31446.63
735.999	31407.54
736.339	31273.53
736.68	31439.85
737.021	31306.97
737.361	31156.92
737.702	31219.74
738.042	31061.78
738.383	31152.18
738.723	31171.16
739.063	30962.35
739.404	30955.8
739.744	30897.94
740.084	30847.1
740.424	30726.65
740.764	30768.91
741.104	30923.25
741.444	30743.82
741.784	30658.4
742.124	30650.04
742.464	30609.82
742.804	30521.01
743.143	30504.96
743.483	30458.86
743.823	30279.88
744.162	30390.61
744.502	30394.91
744.841	30352.65
745.181	30435.36
745.52	30209.6
745.86	30311.29
746.199	30157.63
746.538	30047.12
746.877	30210.05
747.216	29994.92
747.556	30046.67
747.895	30077.4
748.234	29866.56
748.573	29895.49
748.911	29825.2
749.25	29782.04
749.589	29790.18
749.928	29627.02
750.267	29734.81
750.605	29771.87
750.944	29470.41
751.283	29533.01
751.621	29547.7
751.96	29386.12
752.298	29404.42
752.636	29369.17
752.975	29145.9
753.313	29073.81
753.651	29038.56
753.989	29101.83
754.327	29002.18
754.666	28942.06
755.004	28925.34
755.342	29005.11
755.679	28786.59
756.017	28811.22
756.355	28846.7
756.693	28577.33
757.031	28660.04
757.368	28507.95
757.706	28469.08
758.044	28411.68
758.381	28357.45
758.719	28191.58
759.056	28366.26
759.394	28157.23
759.731	27941.64
760.068	27933.73
760.405	27839.49
760.743	27825.48
761.08	27867.52
761.417	27680.85
761.754	27595.43
762.091	27656.9
762.428	27600.86
762.765	27307.98
763.102	27321.32
763.438	27285.38
763.775	27149.79
764.112	27202.9
764.449	27154.31
764.785	27072.96
765.122	26865.51
765.458	26741.67
765.795	26815.57
766.131	26666.87
766.467	26638.62
766.804	26456.25
767.14	26237.95
767.476	26295.35
767.812	26251.97
768.148	26318.4
768.485	26102.59
768.821	25851.98
769.157	25870.05
769.492	25869.15
769.828	25792.77
770.164	25623.28
770.5	25567.46
770.836	25611.08
771.171	25343.51
771.507	25354.81
771.842	25047.03
772.178	25137.87
772.513	25063.52
772.849	24869.85
773.184	24932
773.519	24826.69
773.855	24605
774.19	24666.92
774.525	24482.52
774.86	24362.07
775.195	24474.38
775.53	24341.96
775.865	24132.02
776.2	24029.2
776.535	23925.7
776.87	23946.71
777.205	23880.05
777.539	23695.65
777.874	23824.68
778.209	23535.65
778.543	23484.58
778.878	23349.22
779.212	23320.52
779.547	23227.86
779.881	23242.55
780.215	23066.06
780.55	23162.1
780.884	22967.53
781.218	22893.86
781.552	22816.35
781.886	22821.77
782.22	22593.08
782.554	22480.31
782.888	22275.57
783.222	22259.75
783.556	22258.85
783.889	22191.05
784.223	21953.32
784.557	21914.9
784.89	21978.63
785.224	21870.61
785.557	21725.53
785.891	21724.17
786.224	21568.7
786.558	21689.37
786.891	21462.03
787.224	21307.91
787.557	21237.41
787.891	21211.87
788.224	21147.69
788.557	21106.79
788.89	21064.76
789.223	21011.2
789.556	20744.09
789.888	20783.86
790.221	20773.92
790.554	20622.06
790.887	20693.69
791.219	20590.65
791.552	20482.17
791.884	20314.49
792.217	20363.31
792.549	20259.35
792.882	20059.59
793.214	20106.14
793.546	20111.56
793.879	19942.98
794.211	19890.1
794.543	20009.87
794.875	19775.75
795.207	19771.46
795.539	19715.87
795.871	19634.74
796.203	19512.48
796.535	19363.11
796.867	19375.08
797.198	19307.29
797.53	19323.79
797.862	19221.64
798.193	19170.8
798.525	19169.89
798.856	19103
799.188	18877.24
799.519	18887.64
799.85	18698.72
800.182	18765.61
800.513	18683.35
800.844	18624.6
801.175	18710.47
801.506	18636.8
801.837	18495.33
802.168	18437.48
802.499	18393.41
802.83	18366.75
803.161	18239.52
803.491	18223.25
803.822	18209.01
804.153	18202.69
804.483	17959.3
804.814	17956.14
805.145	18007.44
805.475	17893.77
805.805	17814.9
806.136	17784.62
806.466	17788.68
806.796	17703.72
807.126	17631.85
807.457	17671.4
807.787	17574.68
808.117	17570.16
808.447	17422.82
808.777	17488.35
809.107	17344.18
809.436	17237.06
809.766	17303.73
810.096	17204.29
810.426	17190.51
810.755	17141.92
811.085	17042.26
811.414	17038.42
811.744	16927.92
812.073	16836.85
812.403	16896.28
812.732	16804.98
813.061	16818.77
813.39	16735.83
813.719	16652.44
814.049	16696.06
814.378	16602.05
814.707	16609.51
815.036	16577.42
815.365	16477.08
815.693	16256.3
816.022	16275.73
816.351	16355.73
816.68	16291.1
817.008	16288.16
817.337	16108.28
817.665	16124.32
817.994	16087.71
818.322	16023.31
818.651	15991.67
818.979	15950.09
819.307	15906.7
819.636	15955.96
819.964	15798.45
820.292	15907.83
820.62	15886.59
820.948	15894.95
821.276	15839.81
821.604	15825.12
821.932	15935.85
822.259	15831.67
822.587	15762.98
822.915	15797.78
823.243	15727.27
823.57	15613.37
823.898	15793.94
824.225	15656.31
824.553	15697.44
824.88	15721.62
825.207	15771.56
825.535	15639.81
825.862	15758
826.189	15706.93
826.516	15732.02
826.843	15749.19
827.17	15673.03
827.497	15791
827.824	15767.04
828.151	15791.9
828.478	15687.5
828.805	15776.31
829.131	15645.92
829.458	15711.68
829.785	15589.42
830.111	15741.28
830.438	15710.77
830.764	15717.1
831.09	15735.41
831.417	15557.56
831.743	15652.47
832.069	15627.61
832.395	15581.96
832.722	15653.6
833.048	15482.76
833.374	15633.94
833.7	15536.31
834.026	15483.21
834.351	15555.3
834.677	15610.66
835.003	15586.71
835.329	15496.54
835.654	15529.99
835.98	15405.92
836.306	15428.29
836.631	15345.36
836.956	15391.46
837.282	15441.85
837.607	15331.12
837.932	15232.37
838.258	15265.59
838.583	15217.68
838.908	15236.21
839.233	15173.16
839.558	15192.37
839.883	15092.71
840.208	15045.71
840.533	15032.37
840.858	15066.5
841.182	15012.94
841.507	15030.57
841.832	14889.78
842.156	14996.22
842.481	14906.73
842.805	14816.11
843.13	14833.06
843.454	14818.14
843.778	14743.79
844.103	14701.99
844.427	14692.5
844.751	14743.79
845.075	14712.83
845.399	14627.41
845.723	14508.55
846.047	14518.26
846.371	14414.76
846.695	14420.86
847.019	14295.9
847.343	14219.29
847.666	14227.87
847.99	14148.33
848.313	14088.9
848.637	13953.98
848.96	14047.54
849.284	13989.24
849.607	13934.55
849.931	13893.42
850.254	13714.89
850.577	13596.48
850.9	13590.6
851.223	13483.49
851.546	13495.24
851.869	13404.39
852.192	13482.58
852.515	13358.74
852.838	13322.36
853.161	13245.98
853.483	13203.95
853.806	13135.02
854.129	13137.28
854.451	13097.28
854.774	13047.79
855.096	12991.07
855.419	12831.98
855.741	12902.71
856.063	12886.44
856.385	12781.81
856.708	12720.12
857.03	12713.34
857.352	12705.2
857.674	12608.48
857.996	12632.44
858.318	12558.31
858.64	12509.5
858.961	12502.72
859.283	12406
859.605	12452.1
859.926	12358.32
860.248	12398.54
860.57	12304.99
860.891	12370.52
861.212	12303.63
861.534	12286.23
861.855	12234.71
862.176	12175.27
862.498	12205.33
862.819	12195.39
863.14	12149.51
863.461	12114.03
863.782	12118.55
864.103	12140.25
864.424	12066.35
864.745	12123.98
865.065	12007.82
865.386	11910.2
865.707	11918.33
866.027	11944.54
866.348	11959.01
866.668	11844.66
866.989	11907.71
867.309	11760.82
867.63	11787.03
867.95	11803.53
868.27	11648.96
868.59	11700.26
868.91	11696.64
869.23	11653.03
869.55	11593.82
869.87	11727.6
870.19	11626.81
870.51	11644.89
870.83	11622.75
871.15	11585.91
871.469	11579.58
871.789	11612.8
872.109	11559.47
872.428	11487.38
872.748	11466.82
873.067	11412.58
873.386	11479.02
873.706	11464.56
874.025	11369.87
874.344	11328.29
874.663	11369.87
874.982	11342.75
875.301	11348.18
875.62	11366.93
875.939	11232.02
876.258	11349.76
876.577	11227.05
876.896	11209.87
877.214	11137.79
877.533	11249.42
877.852	11218.69
878.17	11239.25
878.489	11187.73
878.807	11102.08
879.125	11081.06
879.444	11097.11
879.762	11089.43
880.08	11037.9
880.398	11054.4
880.716	11018.47
881.034	11015.08
881.352	10995.64
881.67	10937.79
881.988	10906.83
882.306	10890.11
882.624	10851.01
882.941	10882.88
883.259	10807.17
883.577	10792.71
883.894	10733.28
884.212	10739.6
884.529	10717.68
884.846	10736.21
885.164	10635.88
885.481	10687.4
885.798	10668.65
886.115	10486.96
886.432	10568.99
886.75	10565.6
887.067	10528.76
887.383	10454.19
887.7	10502.32
888.017	10490.8
888.334	10425.04
888.651	10426.17
888.967	10467.3
889.284	10283.8
889.6	10307.53
889.917	10154.76
890.233	10232.27
890.55	10192.27
890.866	10195.44
891.182	10199.28
891.498	10184.14
891.815	10132.39
892.131	10113.86
892.447	10093.75
892.763	10023.01
893.079	9915.45
893.395	9956.35
893.71	9981.21
894.026	9979.62
894.342	9907.08
894.657	9835.67
894.973	9844.26
895.289	9787.09
895.604	9799.74
895.92	9719.97
896.235	9637.49
896.55	9704.38
896.865	9630.71
897.181	9505.74
897.496	9560.88
897.811	9503.93
898.126	9468.23
898.441	9495.8
898.756	9416.02
899.071	9354.33
899.386	9352.52
899.7	9247.21
900.015	9241.34
900.33	9250.38
900.644	9236.14
900.959	9173.09
901.273	9159.53
901.588	9075.02
901.902	9092.42
902.216	9062.13
902.531	9030.5
902.845	9032.53
903.159	8986.43
903.473	9009.93
903.787	8884.51
904.101	8777.85
904.415	8950.95
904.729	8808.13
905.042	8753.22
905.356	8779.88
905.67	8711.86
905.984	8777.17
906.297	8635.71
906.611	8616.95
906.924	8634.35
907.237	8543.05
907.551	8502.15
907.864	8452.21
908.177	8452.66
908.491	8442.49
908.804	8380.12
909.117	8289.73
909.43	8288.37
909.743	8296.96
910.056	8329.05
910.368	8199.33
910.681	8121.14
910.994	8138.77
911.307	8109.39
911.619	8053.12
911.932	8013.57
912.244	8019.45
912.557	7970.86
912.869	7957.76
913.181	7958.21
913.494	7878.21
913.806	7815.39
914.118	7797.76
914.43	7719.12
914.742	7796.41
915.054	7721.83
915.366	7683.41
915.678	7675.96
915.99	7623.98
916.302	7557.77
916.613	7518.9
916.925	7539.24
917.236	7504.89
917.548	7455.17
917.859	7427.6
918.171	7380.14
918.482	7349.64
918.794	7316.87
919.105	7341.28
919.416	7214.27
919.727	7292.69
920.038	7232.58
920.349	7141.96
920.66	7142.86
920.971	7097.67
921.282	7020.38
921.593	7055.18
921.903	7031.68
922.214	6971.57
922.525	6953.26
922.835	6927.95
923.146	6852.7
923.456	6914.85
923.767	6824.45
924.077	6829.65
924.387	6772.7
924.697	6753.27
925.008	6753.72
925.318	6726.38
925.628	6713.04
925.938	6614.52
926.248	6674.4
926.558	6596.66
926.867	6514.86
927.177	6533.16
927.487	6525.25
927.796	6437.57
928.106	6482.99
928.416	6367.29
928.725	6405.26
929.034	6355.99
929.344	6386.95
929.653	6365.71
929.962	6311.7
930.271	6266.5
930.581	6217.69
930.89	6196
931.199	6192.15
931.508	6146.05
931.817	6164.81
932.125	6087.75
932.434	6109.67
932.743	6045.94
933.051	6003.91
933.36	6006.85
933.669	5998.26
933.977	5890.24
934.286	5880.98
934.594	5931.6
934.902	5849.79
935.21	5800.75
935.519	5873.52
935.827	5791.94
936.135	5750.13
936.443	5768.21
936.751	5703.35
937.059	5731.15
937.367	5699.51
937.674	5659.51
937.982	5643.92
938.29	5645.73
938.597	5665.84
938.905	5507.2
939.213	5552.17
939.52	5459.29
939.827	5503.81
940.135	5448.22
940.442	5378.62
940.749	5373.64
941.056	5448.22
941.363	5351.05
941.67	5324.38
941.977	5313.98
942.284	5211.84
942.591	5302.46
942.898	5250.94
943.205	5223.37
943.511	5225.63
943.818	5191.28
944.125	5185.85
944.431	5156.93
944.738	5136.14
945.044	5090.94
945.35	5077.38
945.657	5031.05
945.963	5029.47
946.269	4980.66
946.575	4993.09
946.881	4929.14
947.187	4980.43
947.493	4924.62
947.799	4887.56
948.105	4869.02
948.41	4850.04
948.716	4859.08
949.022	4837.84
949.327	4810.04
949.633	4730.05
949.938	4803.72
950.244	4784.51
950.549	4689.14
950.854	4699.09
951.16	4643.95
951.465	4605.98
951.77	4596.94
952.075	4610.05
952.38	4572.76
952.685	4579.77
952.99	4511.52
953.294	4528.24
953.599	4515.59
953.904	4464.29
954.209	4441.69
954.513	4428.81
954.818	4425.87
955.122	4413.44
955.426	4412.54
955.731	4374.57
956.035	4334.12
956.339	4348.59
956.643	4334.58
956.948	4262.71
957.252	4316.5
957.556	4272.66
957.86	4272.88
958.163	4275.59
958.467	4215.93
958.771	4180.68
959.075	4167.35
959.378	4122.83
959.682	4120.12
959.985	4072.89
960.289	4064.53
960.592	4044.87
960.896	4093.23
961.199	4065.88
961.502	4021.14
961.805	4030.4
962.108	3936.62
962.411	3969.39
962.714	3979.78
963.017	3905.21
963.32	3964.42
963.623	3905.89
963.926	3891.42
964.228	3825.44
964.531	3822.05
964.833	3851.88
965.136	3784.08
965.438	3767.58
965.741	3773.69
966.043	3762.61
966.345	3772.56
966.648	3749.51
966.95	3708.83
967.252	3663.86
967.554	3701.15
967.856	3675.84
968.158	3618.66
968.46	3631.99
968.761	3623.41
969.063	3641.71
969.365	3611.66
969.666	3599.68
969.968	3581.37
970.269	3554.93
970.571	3532.79
970.872	3505.22
971.174	3495.28
971.475	3478.55
971.776	3454.6
972.077	3460.02
972.378	3458.89
972.679	3426.12
972.98	3394.71
973.281	3397.2
973.582	3330.99
973.883	3403.07
974.183	3352.23
974.484	3361.27
974.785	3332.34
975.085	3313.81
975.386	3312.46
975.686	3273.59
975.986	3280.37
976.287	3250.31
976.587	3222.74
976.887	3227.71
977.187	3201.27
977.487	3180.26
977.787	3161.5
978.087	3199.92
978.387	3152.46
978.687	3156.98
978.987	3108.84
979.286	3113.59
979.586	3102.97
979.885	3062.74
980.185	3049.19
980.484	3024.78
980.784	3057.77
981.083	3043.99
981.382	3021.16
981.682	3015.51
981.981	2965.35
982.28	2975.29
982.579	2952.69
982.878	2989.07
983.177	2950.66
983.475	2941.62
983.774	2889.64
984.073	2866.82
984.372	2847.61
984.67	2865.01
984.969	2867.04
985.267	2858.68
985.566	2822.3
985.864	2823.43
986.162	2805.12
986.461	2789.08
986.759	2773.49
987.057	2785.01
987.355	2752.47
987.653	2754.96
987.951	2719.02
988.249	2722.41
988.547	2728.97
988.844	2711.57
989.142	2710.89
989.44	2660.04
989.737	2655.52
990.035	2648.74
990.332	2670.21
990.63	2630.21
990.927	2614.17
991.224	2575.07
991.521	2585.47
991.819	2572.81
992.116	2533.04
992.413	2539.82
992.71	2551.12
993.006	2543.44
993.303	2536.66
993.6	2489.65
993.897	2474.51
994.193	2474.51
994.49	2486.26
994.787	2446.72
995.083	2445.81
995.379	2445.36
995.676	2428.64
995.972	2415.98
996.268	2371.92
996.565	2420.95
996.861	2392.93
997.157	2362.42
997.453	2299.83
997.749	2314.29
998.044	2296.89
998.34	2326.94
998.636	2323.55
998.932	2286.95
999.227	2305.93
999.523	2239.04
999.818	2232.71
1000.114	2226.83
1000.409	2224.35
1000.704	2208.08
1001	2198.59
1001.295	2187.29
1001.59	2209.89
1001.885	2203.11
1002.18	2150
1002.475	2147.74
1002.77	2151.58
1003.065	2093.96
1003.359	2087.63
1003.654	2107.97
1003.949	2086.27
1004.243	2076.33
1004.538	2069.1
1004.832	2065.03
1005.127	2066.16
1005.421	2019.38
1005.715	2014.18
1006.009	1999.04
1006.304	2025.71
1006.598	2013.51
1006.892	1985.71
1007.186	1962.66
1007.48	1972.6
1007.773	1934.41
1008.067	1947.97
1008.361	1916.79
1008.655	1889.44
1008.948	1903.45
1009.242	1891.48
1009.535	1900.51
1009.829	1871.59
1010.122	1832.49
1010.415	1867.97
1010.708	1836.34
1011.001	1832.27
1011.295	1811.48
1011.588	1802.21
1011.881	1800.63
1012.173	1751.59
1012.466	1782.78
1012.759	1731.48
1013.052	1741.65
1013.344	1743.91
1013.637	1757.02
1013.93	1737.13
1014.222	1690.13
1014.514	1713.18
1014.807	1700.52
1015.099	1697.81
1015.391	1687.87
1015.683	1682.22
1015.976	1664.36
1016.268	1645.38
1016.56	1620.07
1016.851	1612.16
1017.143	1587.75
1017.435	1606.96
1017.727	1595.89
1018.018	1568.09
1018.31	1563.8
1018.602	1562.22
1018.893	1553.86
1019.185	1539.85
1019.476	1551.15
1019.767	1519.96
1020.058	1511.15
1020.35	1507.76
1020.641	1502.33
1020.932	1491.94
1021.223	1473.86
1021.514	1454.43
1021.804	1435.89
1022.095	1434.76
1022.386	1435.44
1022.677	1465.72
1022.967	1399.96
1023.258	1404.93
1023.548	1404.48
1023.839	1385.73
1024.129	1373.52
1024.419	1348.89
1024.709	1382.79
1025	1383.24
1025.29	1328.1
1025.58	1339.63
1025.87	1351.6
1026.16	1320.19
1026.449	1293.75
1026.739	1300.3
1027.029	1288.55
1027.319	1252.17
1027.608	1280.42
1027.898	1284.49
1028.187	1279.06
1028.477	1235.45
1028.766	1263.24
1029.055	1219.4
1029.344	1219.4
1029.634	1211.04
1029.923	1208.78
1030.212	1194.32
1030.501	1192.06
1030.79	1192.74
1031.078	1162.23
1031.367	1171.27
1031.656	1162.46
1031.945	1183.47
1032.233	1171.49
1032.522	1157.71
1032.81	1145.51
1033.099	1141.89
1033.387	1129.46
1033.675	1101.89
1033.963	1090.59
1034.251	1099.63
1034.54	1070.93
1034.828	1105.73
1035.116	1072.51
1035.403	1035.9
1035.691	1067.77
1035.979	1064.6
1036.267	1047.88
1036.554	1049.24
1036.842	1034.1
1037.129	1021.67
1037.417	1023.25
1037.704	1012.4
1037.992	1010.14
1038.279	970.37
1038.566	985.06
1038.853	985.06
1039.14	985.06
