Data from hue_110_FLMS001491_00010.txt Node
Date: Tue Feb 07 17:00:50 GMT 2017
User: dcchb
Spectrometer: FLMS00149
Trigger mode: 0
Integration Time (sec): 2.000000E-2
Scans to average: 10
Electric dark correction enabled: true
Nonlinearity correction enabled: false
Boxcar width: 0
XAxis mode: Wavelengths
Number of Pixels in Spectrum: 2048
>>>>>Begin Spectral Data<<<<<
341.393	-1.75
341.776	-1.75
342.16	-1.75
342.543	-59.83
342.927	-77.46
343.31	-76.55
343.693	-65.03
344.077	-67.96
344.46	-81.07
344.843	-46.72
345.226	-45.14
345.61	-34.74
345.993	-7.17
346.376	-7.17
346.759	14.52
347.142	39.15
347.525	35.54
347.908	65.37
348.291	85.03
348.674	96.33
349.057	95.65
349.44	115.31
349.823	127.28
350.206	182.2
350.588	184.68
350.971	187.4
351.354	215.64
351.737	239.82
352.119	244.34
352.502	251.8
352.884	278.02
353.267	277.79
353.65	280.05
354.032	312.59
354.414	314.4
354.797	324.12
355.179	315.98
355.562	306.26
355.944	334.28
356.326	325.7
356.709	345.58
357.091	345.58
357.473	347.62
357.855	329.99
358.238	360.05
358.62	330.22
359.002	338.35
359.384	346.26
359.766	342.65
360.148	337.67
360.53	341.74
360.912	337.67
361.294	349.2
361.676	345.36
362.057	334.28
362.439	346.49
362.821	362.98
363.203	345.58
363.584	322.53
363.966	315.98
364.348	320.27
364.729	326.6
365.111	322.76
365.493	315.08
365.874	323.44
366.256	322.08
366.637	326.38
367.019	308.97
367.4	306.72
367.781	315.3
368.163	317.56
368.544	312.14
368.925	317.79
369.306	305.59
369.688	322.99
370.069	326.38
370.45	312.14
370.831	299.71
371.212	331.35
371.593	327.28
371.974	302.42
372.355	300.61
372.736	338.58
373.117	320.95
373.498	315.08
373.879	312.59
374.26	334.06
374.641	340.61
375.021	329.99
375.402	316.88
375.783	330.44
376.163	322.08
376.544	323.66
376.925	321.86
377.305	346.49
377.686	320.73
378.066	321.4
378.447	342.19
378.827	345.13
379.208	305.81
379.588	329.54
379.968	334.28
380.349	316.88
380.729	322.31
381.109	329.99
381.489	348.97
381.87	330.44
382.25	348.75
382.63	337.22
383.01	344.23
383.39	337.45
383.77	351.69
384.15	351.01
384.53	338.35
384.91	338.58
385.29	345.36
385.67	343.1
386.049	361.4
386.429	332.7
386.809	346.94
387.189	344.91
387.568	362.31
387.948	363.89
388.328	340.39
388.707	364.11
389.087	367.5
389.466	350.56
389.846	358.01
390.225	351.69
390.605	357.79
390.984	368.86
391.363	368.63
391.743	379.26
392.122	362.53
392.501	379.71
392.881	389.65
393.26	385.13
393.639	383.1
394.018	369.99
394.397	370.44
394.776	390.1
395.155	387.62
395.534	383.1
395.913	388.97
396.292	382.19
396.671	380.16
397.05	402.31
397.429	392.81
397.808	368.63
398.186	397.56
398.565	401.4
398.944	398.69
399.323	399.59
399.701	372.7
400.08	394.4
400.458	395.07
400.837	429.65
401.215	403.66
401.594	400.05
401.972	393.49
402.351	406.6
402.729	410.22
403.107	421.51
403.486	412.7
403.864	425.81
404.242	416.54
404.62	426.71
404.999	407.05
405.377	426.49
405.755	433.72
406.133	425.13
406.511	437.33
406.889	428.07
407.267	415.64
407.645	420.61
408.023	453.15
408.401	472.59
408.779	443.43
409.156	447.05
409.534	466.71
409.912	455.64
410.29	466.03
410.667	464.9
411.045	449.54
411.422	475.98
411.8	474.85
412.178	474.39
412.555	479.59
412.933	489.54
413.31	487.95
413.687	475.07
414.065	477.56
414.442	482.76
414.819	483.66
415.197	493.83
415.574	506.26
415.951	509.87
416.328	512.81
416.705	501.29
417.082	525.01
417.46	521.85
417.837	520.72
418.214	532.47
418.591	528.86
418.967	531.57
419.344	553.04
419.721	529.76
420.098	520.27
420.475	532.92
420.852	545.13
421.228	549.42
421.605	545.58
421.982	544.22
422.358	559.36
422.735	572.47
423.111	568.18
423.488	561.4
423.864	573.15
424.241	579.02
424.617	583.09
424.994	576.31
425.37	585.13
425.746	612.02
426.123	588.52
426.499	598.68
426.875	593.26
427.251	600.27
427.627	639.81
428.003	599.81
428.379	616.09
428.756	633.03
429.132	623.77
429.507	633.49
429.883	654.95
430.259	651.79
430.635	642.3
431.011	666.93
431.387	664.45
431.763	655.63
432.138	674.16
432.514	681.62
432.89	709.64
433.265	705.12
433.641	714.84
434.016	708.29
434.392	729.53
434.767	715.97
435.143	722.98
435.518	730.88
435.894	723.2
436.269	729.75
436.644	733.6
437.02	772.92
437.395	758.91
437.77	765.01
438.145	779.02
438.52	780.15
438.895	783.99
439.271	776.76
439.646	775.18
440.021	814.72
440.395	815.4
440.77	800.94
441.145	819.24
441.52	812.46
441.895	821.96
442.27	809.98
442.645	848.85
443.019	849.07
443.394	841.84
443.769	844.78
444.143	860.6
444.518	871.9
444.892	866.93
445.267	869.19
445.641	897.43
446.016	879.81
446.39	878
446.764	910.32
447.139	903.08
447.513	910.77
447.887	915.29
448.262	914.38
448.636	910.54
449.01	946.47
449.384	946.02
449.758	931.33
450.132	967.49
450.506	979.24
450.88	982.86
451.254	987.6
451.628	988.28
452.002	966.81
452.376	1009.97
452.75	986.47
453.123	1021.5
453.497	1021.05
453.871	1005.91
454.244	1040.71
454.618	1056.07
454.992	1070.54
455.365	1095.85
455.739	1117.54
456.112	1093.36
456.486	1109.18
456.859	1106.69
457.232	1136.3
457.606	1136.3
457.979	1138.56
458.352	1187.14
458.725	1184.43
459.099	1191.89
459.472	1210.19
459.845	1222.62
460.218	1234.15
460.591	1276.18
460.964	1258.78
461.337	1310.76
461.71	1307.37
462.083	1328.84
462.456	1373.35
462.829	1321.38
463.201	1347.37
463.574	1385.78
463.947	1417.42
464.32	1445.67
464.692	1486.35
465.065	1431.88
465.438	1466.68
465.81	1495.61
466.183	1506.68
466.555	1553.69
466.928	1589.39
467.3	1567.02
467.672	1633.01
468.045	1670.75
468.417	1667.13
468.789	1662.39
469.161	1708.94
469.534	1734.02
469.906	1762.72
470.278	1796.62
470.65	1826.68
471.022	1879.78
471.394	1944.86
471.766	1947.35
472.138	1953.23
472.51	2020.12
472.882	2066.67
473.253	2083.17
473.625	2132.2
473.997	2180.56
474.369	2233.9
474.74	2253.33
475.112	2321.13
475.484	2344.18
475.855	2436.38
476.227	2440.67
476.598	2545.75
476.97	2575.36
477.341	2684.51
477.713	2705.52
478.084	2745.3
478.455	2846.99
478.827	2914.78
479.198	3032.29
479.569	3077.04
479.94	3151.16
480.311	3214.66
480.682	3357.93
481.053	3458.5
481.424	3538.72
481.795	3599.96
482.166	3693.52
482.537	3738.94
482.908	3886.96
483.279	3963.34
483.65	4097.58
484.021	4209.21
484.391	4313.84
484.762	4416.21
485.133	4481.97
485.503	4567.39
485.874	4730.1
486.244	4825.24
486.615	4961.51
486.985	5100.94
487.356	5244.66
487.726	5315.62
488.097	5476.07
488.467	5589.74
488.837	5740.24
489.207	5821.82
489.578	5994.48
489.948	6138.88
490.318	6279.67
490.688	6336.16
491.058	6514.24
491.428	6698.64
491.798	6819.09
492.168	6945.86
492.538	7091.62
492.908	7251.84
493.278	7377.26
493.648	7439.86
494.017	7642.12
494.387	7744.71
494.757	7843.92
495.126	7998.72
495.496	8120.97
495.866	8175.89
496.235	8415.65
496.605	8539.27
496.974	8593.5
497.344	8799.83
497.713	8869.2
498.082	8933.15
498.452	9146.93
498.821	9169.98
499.19	9313.48
499.559	9414.5
499.928	9591.89
500.298	9645
500.667	9808.39
501.036	9822.85
501.405	10003.64
501.774	10041.6
502.143	10160.92
502.512	10277.75
502.88	10369.5
503.249	10421.03
503.618	10513.45
503.987	10578.08
504.356	10726.78
504.724	10720
505.093	10850.84
505.462	10937.62
505.83	11029.37
506.199	11112.31
506.567	11278.4
506.936	11276.82
507.304	11361.79
507.672	11474.11
508.041	11574.22
508.409	11641.11
508.777	11726.53
509.145	11865.51
509.514	11863.02
509.882	11944.15
510.25	12038.16
510.618	12089
510.986	12149.12
511.354	12247.19
511.722	12326.29
512.09	12423.46
512.458	12417.58
512.826	12504.59
513.193	12578.93
513.561	12566.28
513.929	12700.51
514.297	12755.65
514.664	12884.24
515.032	12788.19
515.4	12905.03
515.767	12992.26
516.135	12971.01
516.502	12943.44
516.869	13208.52
517.237	13161.52
517.604	13134.63
517.972	13260.05
518.339	13283.32
518.706	13345.24
519.073	13394.28
519.44	13393.83
519.808	13481.74
520.175	13505.69
520.542	13652.58
520.909	13687.61
521.276	13663.43
521.643	13751.56
522.009	13714.72
522.376	13793.14
522.743	13861.61
523.11	13959.92
523.477	13997.2
523.843	14014.15
524.21	14148.61
524.577	14223.41
524.943	14175.28
525.31	14243.98
525.676	14345.44
526.043	14347.25
526.409	14344.76
526.776	14389.73
527.142	14366.68
527.508	14491.65
527.874	14530.75
528.241	14541.82
528.607	14539.56
528.973	14645.32
529.339	14522.61
529.705	14670.86
530.071	14720.12
530.437	14678.09
530.803	14770.06
531.169	14671.54
531.535	14634.47
531.901	14672.89
532.267	14623.63
532.632	14741.59
532.998	14803.06
533.364	14710.63
533.73	14693
534.095	14820.68
534.461	14762.61
534.826	14759.44
535.192	14787.01
535.557	14836.28
535.923	14792.89
536.288	14769.16
536.653	14778.88
537.019	14699.56
537.384	14681.03
537.749	14771.87
538.114	14616.85
538.479	14615.72
538.845	14648.48
539.21	14614.59
539.575	14597.86
539.94	14537.98
540.305	14589.05
540.67	14484.65
541.034	14567.36
541.399	14495.27
541.764	14398.1
542.129	14449.85
542.494	14434.93
542.858	14475.16
543.223	14401.26
543.587	14413.69
543.952	14402.84
544.316	14376.4
544.681	14224.32
545.045	14252.11
545.41	14287.59
545.774	14297.76
546.138	14172.34
546.503	14202.85
546.867	14130.76
547.231	14169.63
547.595	14093.47
547.959	14178.44
548.324	14051.89
548.688	13999.01
549.052	14076.07
549.416	13987.26
549.779	14060.93
550.143	13956.75
550.507	13982.29
550.871	13956.98
551.235	13898.67
551.599	13996.07
551.962	13866.36
552.326	13865.45
552.689	13831.11
553.053	13746.36
553.417	13728.74
553.78	13901.39
554.143	13775.29
554.507	13771.67
554.87	13779.81
555.234	13883.08
555.597	13703.65
555.96	13757.21
556.323	13786.59
556.686	13682.86
557.05	13789.3
557.413	13777.77
557.776	13789.52
558.139	13731.67
558.502	13769.19
558.865	13666.59
559.228	13748.17
559.59	13767.15
559.953	13706.59
560.316	13865.68
560.679	13701.84
561.041	13757.66
561.404	13693.03
561.767	13716.98
562.129	13696.42
562.492	13844.21
562.854	13767.38
563.217	13698.91
563.579	13775.29
563.941	13780.94
564.304	13817.32
564.666	13924.21
565.028	13885.79
565.39	13852.12
565.753	14008.73
566.115	13884.21
566.477	13981.16
566.839	14002.4
567.201	13989.97
567.563	13998.56
567.925	14057.77
568.287	13942.74
568.648	14009.41
569.01	14069.29
569.372	14127.59
569.734	14076.3
570.095	14142.74
570.457	14188.38
570.819	14151.77
571.18	14139.57
571.542	14182.06
571.903	14194.49
572.265	14190.87
572.626	14282.39
572.987	14301.15
573.349	14249.17
573.71	14305.67
574.071	14279.23
574.432	14327.14
574.794	14342.28
575.155	14317.87
575.516	14248.04
575.877	14267.93
576.238	14322.62
576.599	14314.71
576.96	14388.6
577.32	14311.09
577.681	14348.15
578.042	14450.98
578.403	14407.14
578.763	14341.83
579.124	14457.98
579.485	14410.07
579.845	14422.5
580.206	14455.95
580.566	14385.21
580.927	14394.71
581.287	14425.44
581.648	14333.01
582.008	14499.79
582.368	14460.02
582.728	14452.11
583.089	14409.4
583.449	14264.54
583.809	14387.7
584.169	14372.33
584.529	14329.4
584.889	14415.95
585.249	14306.35
585.609	14233.81
585.969	14358.1
586.329	14406.68
586.688	14329.17
587.048	14322.62
587.408	14248.04
587.768	14214.15
588.127	14264.77
588.487	14319.68
588.846	14322.62
589.206	14174.37
589.565	14201.04
589.925	14284.65
590.284	14231.32
590.643	14220.93
591.003	14278.1
591.362	14233.58
591.721	14220.93
592.08	14193.13
592.44	14196.97
592.799	14204.2
593.158	14131.66
593.517	14173.47
593.876	14123.98
594.235	14092.34
594.593	14091.44
594.952	14084.88
595.311	14147.03
595.67	14164.88
596.029	14208.04
596.387	14127.37
596.746	14162.85
597.104	14095.96
597.463	14168.95
597.822	14161.04
598.18	14102.74
598.538	14082.85
598.897	14160.36
599.255	14062.96
599.613	14227.03
599.972	14186.35
600.33	14173.7
600.688	14138.89
601.046	14201.27
601.404	14256.4
601.762	14121.04
602.12	14163.3
602.478	14242.17
602.836	14257.99
603.194	14055.28
603.552	14079.01
603.91	14088.5
604.268	14123.3
604.625	14134.6
604.983	14172.34
605.341	14128.95
605.698	14073.81
606.056	14120.36
606.413	14099.8
606.771	14220.93
607.128	14131.21
607.485	14118.1
607.843	14132.79
608.2	14239.68
608.557	14197.65
608.914	14217.08
609.272	14190.42
609.629	14254.37
609.986	14307.02
610.343	14229.06
610.7	14307.93
611.057	14269.06
611.414	14259.12
611.771	14287.14
612.127	14323.52
612.484	14245.56
612.841	14350.64
613.198	14286.91
613.554	14331.21
613.911	14395.61
614.267	14347.02
614.624	14347.93
614.98	14302.96
615.337	14475.83
615.693	14363.97
616.05	14359.9
616.406	14511.77
616.762	14485.78
617.118	14424.08
617.475	14479.9
617.831	14506.34
618.187	14542.27
618.543	14475.83
618.899	14559.67
619.255	14507.47
619.611	14502.27
619.967	14585.66
620.323	14639.22
620.678	14506.57
621.034	14589.5
621.39	14539.56
621.746	14519.22
622.101	14756.28
622.457	14543.4
622.812	14581.82
623.168	14600.8
623.523	14606.45
623.879	14612.55
624.234	14528.71
624.589	14585.21
624.945	14648.71
625.3	14651.2
625.655	14577.53
626.01	14665.21
626.365	14581.37
626.72	14559.22
627.075	14659.11
627.43	14575.72
627.785	14545.89
628.14	14597.41
628.495	14629.5
628.85	14505.66
629.205	14474.93
629.559	14574.59
629.914	14495.04
630.269	14503.86
630.623	14450.98
630.978	14344.99
631.332	14461.37
631.687	14568.26
632.041	14464.53
632.396	14392.45
632.75	14460.24
633.104	14409.17
633.459	14401.03
633.813	14307.25
634.167	14348.83
634.521	14340.24
634.875	14393.12
635.229	14332.56
635.583	14268.38
635.937	14325.33
636.291	14238.33
636.645	14238.78
636.999	14152.45
637.352	14178.44
637.706	14120.14
638.06	14281.26
638.413	14185.22
638.767	14049.4
639.121	14156.52
639.474	14068.16
639.828	14064.09
640.181	14097.09
640.534	14119.01
640.888	14049.63
641.241	13973.02
641.594	14031.1
641.947	14136.41
642.301	14048.27
642.654	14056.64
643.007	14078.78
643.36	14006.47
643.713	13921.95
644.066	13984.1
644.419	13946.13
644.771	13871.1
645.124	13745.91
645.477	13741.84
645.83	13613.26
646.182	13590.21
646.535	13522.19
646.888	13569.87
647.24	13462.3
647.593	13411.46
647.945	13455.3
648.298	13397.9
648.65	13371
649.002	13452.58
649.355	13485.58
649.707	13458.69
650.059	13530.32
650.411	13749.07
650.763	13686.25
651.115	13843.53
651.467	13741.16
651.819	13789.75
652.171	13703.42
652.523	13675.4
652.875	13763.76
653.227	13726.7
653.578	13771.22
653.93	13631.56
654.282	13620.04
654.633	13694.16
654.985	13770.54
655.337	13753.82
655.688	13768.06
656.039	13790.65
656.391	13741.39
656.742	13744.78
657.094	13719.47
657.445	13829.3
657.796	13786.81
658.147	13712.24
658.498	13658.23
658.849	13807.15
659.2	13782.07
659.551	13764.67
659.902	13725.35
660.253	13750.43
660.604	13807.83
660.955	13738.68
661.306	13842.4
661.656	13746.36
662.007	13792.69
662.358	13774.38
662.708	13822.29
663.059	13744.78
663.409	13773.03
663.76	13846.7
664.11	13813.7
664.461	13837.66
664.811	13818.22
665.161	13778.45
665.511	13844.21
665.862	13780.03
666.212	13843.53
666.562	13929.18
666.912	13817.77
667.262	13874.72
667.612	13840.14
667.962	13808.96
668.312	13861.16
668.662	13834.49
669.011	13874.27
669.361	13831.56
669.711	13801.95
670.06	13749.07
670.41	13808.06
670.76	13754.72
671.109	13782.29
671.459	13764.21
671.808	13690.32
672.157	13700.94
672.507	13674.27
672.856	13665.23
673.205	13748.17
673.554	13778
673.904	13627.72
674.253	13809.86
674.602	13667.27
674.951	13495.29
675.3	13440.61
675.649	13609.42
675.998	13617.78
676.346	13575.52
676.695	13634.27
677.044	13558.34
677.393	13661.17
677.741	13626.82
678.09	13518.8
678.438	13511.34
678.787	13555.18
679.135	13557.67
679.484	13417.78
679.832	13468.18
680.181	13443.32
680.529	13492.81
680.877	13401.96
681.225	13398.35
681.573	13462.3
681.922	13379.82
682.27	13209.2
682.618	13312.25
682.966	13223.66
683.314	13289.2
683.661	13225.92
684.009	13184.57
684.357	13091.24
684.705	13129.43
685.053	13067.51
685.4	13127.17
685.748	13040.84
686.095	13041.3
686.443	13027.28
686.79	13001.75
687.138	12990
687.485	13006.04
687.832	12860.74
688.18	12939.38
688.527	12808.99
688.874	12807.63
689.221	12761.53
689.568	12784.35
689.915	12726.73
690.262	12669.1
690.609	12626.39
690.956	12520.86
691.303	12565.6
691.65	12485.38
691.997	12472.04
692.344	12461.88
692.69	12417.81
693.037	12374.65
693.383	12291.26
693.73	12273.18
694.077	12268.66
694.423	12286.97
694.769	12174.88
695.116	12140.3
695.462	12096.46
695.808	12086.52
696.155	12043.13
696.501	12001.77
696.847	11961.55
697.193	11839.52
697.539	11871.38
697.885	11809.24
698.231	11726.53
698.577	11730.14
698.923	11746.64
699.269	11620.54
699.614	11635.46
699.96	11558.85
700.306	11500.55
700.651	11430.49
700.997	11435.01
701.342	11428
701.688	11399.3
702.033	11366.31
702.379	11352.3
702.724	11216.48
703.069	11263.72
703.415	11114.57
703.76	11193.89
704.105	11115.02
704.45	11115.92
704.795	11052.2
705.14	10991.63
705.485	10961.58
705.83	10921.8
706.175	10954.57
706.52	10938.75
706.865	10806.78
707.209	10792.32
707.554	10707.8
707.899	10815.82
708.243	10695.14
708.588	10719.77
708.932	10680.23
709.277	10641.58
709.621	10610.85
709.966	10517.97
710.31	10592.09
710.654	10465.77
710.998	10433.23
711.342	10491.08
711.687	10392.1
712.031	10459.89
712.375	10425.77
712.719	10373.57
713.063	10342.61
713.407	10378.77
713.75	10331.99
714.094	10329.05
714.438	10323.63
714.782	10245.66
715.125	10224.87
715.469	10167.47
715.812	10157.08
716.156	10123.86
716.499	10097.87
716.843	10127.47
717.186	10091.09
717.53	10101.49
717.873	10116.17
718.216	10070.75
718.559	9990.53
718.902	9934.03
719.246	9983.97
719.589	9946.46
719.932	9939.91
720.275	9950.08
720.617	9882.06
720.96	9864.2
721.303	9955.05
721.646	9889.06
721.989	9800.02
722.331	9824.88
722.674	9838.22
723.016	9811.55
723.359	9780.14
723.701	9857.2
724.044	9821.27
724.386	9762.29
724.729	9729.74
725.071	9794.15
725.413	9761.16
725.755	9823.98
726.097	9718.45
726.439	9673.47
726.782	9723.64
727.124	9717.09
727.465	9687.94
727.807	9690.65
728.149	9708.5
728.491	9694.49
728.833	9691.1
729.175	9614.04
729.516	9679.35
729.858	9596.64
730.199	9620.82
730.541	9624.44
730.882	9599.8
731.224	9667.15
731.565	9579.69
731.906	9599.58
732.248	9655.4
732.589	9643.64
732.93	9577.43
733.271	9562.06
733.612	9596.87
733.953	9670.76
734.294	9577.66
734.635	9581.27
734.976	9513.48
735.317	9555.51
735.658	9546.92
735.999	9590.54
736.339	9561.39
736.68	9608.84
737.021	9583.31
737.361	9564.55
737.702	9645
738.042	9561.61
738.383	9550.99
738.723	9605.45
739.063	9576.75
739.404	9583.76
739.744	9677.09
740.084	9623.98
740.424	9652.23
740.764	9657.88
741.104	9650.2
741.444	9662.4
741.784	9727.03
742.124	9674.6
742.464	9757.99
742.804	9758.44
743.143	9788.73
743.483	9783.98
743.823	9774.26
744.162	9809.52
744.502	9869.63
744.841	9899.46
745.181	10014.26
745.52	10010.19
745.86	9900.81
746.199	9976.52
746.538	10009.51
746.877	10136.06
747.216	10133.35
747.556	10139.68
747.895	10260.8
748.234	10235.04
748.573	10313.46
748.911	10339.45
749.25	10454.47
749.589	10440.46
749.928	10530.63
750.267	10661.7
750.605	10599.78
750.944	10743.5
751.283	10818.3
751.621	10920
751.96	10985.76
752.298	11067.79
752.636	11159.54
752.975	11228.69
753.313	11312.3
753.651	11489.25
753.989	11426.87
754.327	11649.24
754.666	11665.29
755.004	11811.72
755.342	11967.2
755.679	12129.91
756.017	12222.79
756.355	12359.05
756.693	12456.45
757.031	12650.12
757.368	12745.03
757.706	12890.79
758.044	12985.25
758.381	13171.24
758.719	13293.04
759.056	13502.75
759.394	13672.92
759.731	13696.42
760.068	13892.57
760.405	13971.44
760.743	14159.23
761.08	14377.31
761.417	14458.21
761.754	14623.17
762.091	14704.53
762.428	14912.43
762.765	14986.56
763.102	15235.81
763.438	15294.34
763.775	15405.3
764.112	15573.21
764.449	15888.23
764.785	16006.42
765.122	16060.65
765.458	16084.38
765.795	16318.72
766.131	16395.11
766.467	16569.56
766.804	16576.8
767.14	16768.66
767.476	16913.74
767.812	16981.98
768.148	17186.95
768.485	17207.97
768.821	17238.47
769.157	17422.65
769.492	17511.01
769.828	17663.77
770.164	17647.05
770.5	17763.43
770.836	17890.21
771.171	17849.76
771.507	18070.32
771.842	17928.62
772.178	18114.83
772.513	18107.83
772.849	18191.22
773.184	18283.87
773.519	18447.93
773.855	18376.75
774.19	18463.3
774.525	18498.33
774.86	18647.93
775.195	18668.27
775.53	18657.87
775.865	18646.35
776.2	18600.92
776.535	18605.44
776.87	18713.01
777.205	18738.09
777.539	18799.34
777.874	18851.76
778.209	18679.34
778.543	18794.82
778.878	18763.86
779.212	18896.28
779.547	18753.69
779.881	18821.71
780.215	18810.41
780.55	18883.63
780.884	18843.18
781.218	18874.81
781.552	18828.94
781.886	18779.9
782.22	18825.32
782.554	18804.76
782.888	18693.35
783.222	18685.89
783.556	18645.89
783.889	18640.92
784.223	18580.13
784.557	18595.95
784.89	18665.33
785.224	18584.43
785.557	18539.23
785.891	18572.68
786.224	18403.87
786.558	18566.35
786.891	18427.14
787.224	18326.81
787.557	18279.8
787.891	18327.48
788.224	18388.5
788.557	18405.22
788.89	18311.89
789.223	18320.93
789.556	18207.26
789.888	18115.96
790.221	18111.9
790.554	18077.1
790.887	18049.53
791.219	18018.11
791.552	18060.15
791.884	18012.01
792.217	17893.37
792.549	17949.64
792.882	17740.83
793.214	17708.97
793.546	17757.56
793.879	17627.62
794.211	17689.08
794.543	17651.8
794.875	17623.55
795.207	17736.77
795.539	17628.29
795.871	17562.31
796.203	17400.5
796.535	17379.26
796.867	17391.69
797.198	17337.68
797.53	17386.49
797.862	17205.48
798.193	17304.46
798.525	17208.42
798.856	17121.64
799.188	16997.12
799.519	17009.33
799.85	16863.12
800.182	16849.78
800.513	16976.79
800.844	16805.94
801.175	16923.23
801.506	16782.44
801.837	16760.29
802.168	16685.72
802.499	16661.54
802.83	16582.22
803.161	16615.44
803.491	16533.41
803.822	16509.45
804.153	16438.72
804.483	16381.55
804.814	16362.56
805.145	16337.25
805.475	16254.77
805.805	16176.81
806.136	16204.15
806.466	16174.09
806.796	16166.19
807.126	16113.08
807.457	16008.68
807.787	16019.52
808.117	15984.95
808.447	15926.64
808.777	16010.03
809.107	15820.21
809.436	15832.63
809.766	15798.29
810.096	15775.01
810.426	15728.68
810.755	15689.36
811.085	15702.69
811.414	15709.47
811.744	15570.27
812.073	15511.97
812.403	15598.52
812.732	15409.59
813.061	15537.73
813.39	15396.94
813.719	15388.8
814.049	15502.25
814.378	15343.61
814.707	15361.91
815.036	15332.31
815.365	15288.92
815.693	15154.23
816.022	15177.06
816.351	15073.78
816.68	15025.2
817.008	15018.19
817.337	14929.83
817.665	14936.16
817.994	14936.61
818.322	14957.86
818.651	14861.81
818.979	14776.39
819.307	14812.32
819.636	14862.72
819.964	14735.26
820.292	14806.9
820.62	14796.5
820.948	14809.16
821.276	14816.62
821.604	14721.48
821.932	14667.92
822.259	14739.56
822.587	14748.14
822.915	14697.3
823.243	14819.33
823.57	14660.91
823.898	14712.66
824.225	14550.41
824.553	14616.4
824.88	14683.06
825.207	14709.95
825.535	14656.85
825.862	14720.35
826.189	14626.34
826.516	14759.44
826.843	14759.44
827.17	14786.56
827.497	14717.41
827.824	14820.68
828.151	14751.98
828.478	14713.12
828.805	14791.98
829.131	14673.79
829.458	14699.11
829.785	14529.84
830.111	14678.54
830.438	14701.82
830.764	14702.49
831.09	14754.02
831.417	14693.91
831.743	14660.24
832.069	14704.08
832.395	14564.65
832.722	14681.48
833.048	14563.52
833.374	14618.88
833.7	14560.58
834.026	14611.42
834.351	14593.35
834.677	14549.28
835.003	14587.02
835.329	14555.83
835.654	14569.39
835.98	14427.93
836.306	14464.31
836.631	14383.41
836.956	14440.35
837.282	14536.4
837.607	14396.97
837.932	14394.71
838.258	14395.16
838.583	14405.33
838.908	14309.51
839.233	14314.48
839.558	14280.81
839.883	14287.59
840.208	14254.14
840.533	14258.21
840.858	14241.72
841.182	14206.69
841.507	13991.78
841.832	14067.48
842.156	14077.43
842.481	13989.75
842.805	14090.31
843.13	13997.88
843.454	13928.05
843.778	13857.09
844.103	13828.17
844.427	13836.75
844.751	13880.37
845.075	13805.8
845.399	13774.84
845.723	13675.4
846.047	13646.93
846.371	13600.38
846.695	13570.55
847.019	13517.22
847.343	13431.79
847.666	13358.8
847.99	13270.44
848.313	13374.62
848.637	13251.01
848.96	13331.01
849.284	13100.28
849.607	13081.97
849.931	13101.86
850.254	12947.51
850.577	12921.07
850.9	12892.37
851.223	12850.11
851.546	12808.76
851.869	12697.35
852.192	12686.95
852.515	12571.03
852.838	12614.19
853.161	12556.34
853.483	12485.6
853.806	12417.36
854.129	12392.95
854.451	12338.26
854.774	12283.8
855.096	12275.89
855.419	12192.96
855.741	12183.01
856.063	12188.66
856.385	12115.9
856.708	12109.57
857.03	12018.27
857.352	12091.49
857.674	12038.61
857.996	11949.35
858.318	11797.94
858.64	11948.44
858.961	11869.35
859.283	11783.7
859.605	11691.5
859.926	11742.12
860.248	11751.61
860.57	11635
860.891	11659.18
861.212	11565.63
861.534	11592.52
861.855	11649.69
862.176	11585.74
862.498	11577.38
862.819	11536.48
863.14	11495.35
863.461	11374.9
863.782	11402.02
864.103	11435.69
864.424	11371.06
864.745	11401.79
865.065	11375.8
865.386	11287.22
865.707	11275.92
866.027	11313.21
866.348	11235.24
866.668	11275.92
866.989	11293.09
867.309	11141.91
867.63	11157.28
867.95	11190.95
868.27	11058.97
868.59	11176.71
868.91	11108.46
869.23	11066.66
869.55	11153.89
869.87	11105.53
870.19	11076.38
870.51	11020.33
870.83	11055.81
871.15	10979.2
871.469	10956.83
871.789	10989.37
872.109	10924.29
872.428	10924.74
872.748	10950.95
873.067	10902.59
873.386	10885.19
873.706	10941.69
874.025	10785.54
874.344	10771.52
874.663	10797.74
874.982	10817.4
875.301	10734.01
875.62	10713
875.939	10725.88
876.258	10718.87
876.577	10673.45
876.896	10659.44
877.214	10674.35
877.533	10662.15
877.852	10639.78
878.17	10637.52
878.489	10657.18
878.807	10566.11
879.125	10522.49
879.444	10549.38
879.762	10515.03
880.08	10540.8
880.398	10495.83
880.716	10489.5
881.034	10466.67
881.352	10480.46
881.67	10479.55
881.988	10415.38
882.306	10407.01
882.624	10345.77
882.941	10332.21
883.259	10262.61
883.577	10138.32
883.894	10313.91
884.212	10206.57
884.529	10128.15
884.846	10160.02
885.164	10179
885.481	10102.84
885.798	10105.55
886.115	10004.54
886.432	10037.08
886.75	9892.23
887.067	10016.29
887.383	9975.16
887.7	10005.44
888.017	10005.22
888.334	9956.4
888.651	9919.34
888.967	9782.62
889.284	9799.35
889.6	9783.75
889.917	9720.03
890.233	9765.45
890.55	9729.97
890.866	9618.56
891.182	9654.49
891.498	9623.08
891.815	9589.63
892.131	9510.77
892.447	9514.38
892.763	9469.41
893.079	9479.58
893.395	9439.58
893.71	9381.5
894.026	9414.95
894.342	9337.21
894.657	9314.39
894.973	9244.79
895.289	9265.58
895.604	9235.29
895.92	9234.84
896.235	9184.22
896.55	9115.3
896.865	9160.72
897.181	9049.31
897.496	9055.64
897.811	9067.16
898.126	9038.69
898.441	8913.95
898.756	8996.88
899.071	8841.86
899.386	8807.73
899.7	8815.64
900.015	8834.63
900.33	8729.54
900.644	8786.94
900.959	8780.39
901.273	8669.89
901.588	8700.62
901.902	8617.91
902.216	8619.72
902.531	8518.7
902.845	8510.12
903.159	8452.72
903.473	8463.34
903.787	8379.05
904.101	8390.57
904.415	8399.38
904.729	8328.88
905.042	8273.51
905.356	8207.52
905.67	8243.23
905.984	8203.91
906.297	8215.89
906.611	8205.49
906.924	8131.82
907.237	8059.96
907.551	8039.85
907.864	8026.06
908.177	8014.31
908.491	7978.6
908.804	7922.79
909.117	7880.53
909.43	7790.36
909.743	7763.24
910.056	7790.81
910.368	7789
910.681	7763.92
910.994	7646.64
911.307	7655.22
911.619	7595.34
911.932	7614.32
912.244	7577.03
912.557	7609.57
912.869	7488.67
913.181	7462.23
913.494	7410.26
913.806	7376.81
914.118	7354.44
914.43	7375.91
914.742	7359.86
915.054	7305.63
915.366	7268.79
915.678	7218.17
915.99	7163.71
916.302	7217.27
916.613	7095.01
916.925	7092.53
917.236	7132.52
917.548	7039.19
917.859	7048.01
918.171	6990.61
918.482	7019.53
918.794	6907.67
919.105	6957.16
919.416	6878.75
919.727	6863.6
920.038	6889.82
920.349	6751.52
920.66	6757.62
920.971	6708.35
921.282	6722.14
921.593	6658.19
921.903	6628.58
922.214	6626.77
922.525	6601.69
922.835	6558.08
923.146	6515.59
923.456	6541.13
923.767	6495.48
924.077	6465.65
924.387	6461.58
924.697	6423.62
925.008	6347.01
925.318	6331.87
925.628	6373.45
925.938	6295.03
926.248	6266.33
926.558	6231.08
926.867	6202.38
927.177	6223.85
927.487	6179.1
927.796	6092.78
928.106	6165.77
928.416	6094.81
928.725	6078.77
929.034	6049.61
929.344	6059.11
929.653	6019.33
929.962	5966
930.271	6002.16
930.581	5917.42
930.89	5923.74
931.199	5857.08
931.508	5851.2
931.817	5887.59
932.125	5858.89
932.434	5837.64
932.743	5780.7
933.051	5716.06
933.36	5702.05
933.669	5681.72
933.977	5655.95
934.286	5646.91
934.594	5615.5
934.902	5600.14
935.21	5586.12
935.519	5523.98
935.827	5558.33
936.135	5475.62
936.443	5483.08
936.751	5490.08
937.059	5476.97
937.367	5452.34
937.674	5391.33
937.982	5391.1
938.29	5330.76
938.597	5353.14
938.905	5308.39
939.213	5294.38
939.52	5275.62
939.827	5293.48
940.135	5228.39
940.442	5190.88
940.749	5209.86
941.056	5197.21
941.363	5102.07
941.67	5065.46
941.977	5051.45
942.284	5020.72
942.591	5051
942.898	5004.9
943.205	4976.87
943.511	4968.97
943.818	4957.21
944.125	4939.14
944.431	4923.54
944.738	4926.48
945.044	4876.31
945.35	4822.75
945.657	4784.56
945.963	4780.72
946.269	4774.39
946.575	4763.77
946.881	4723.1
947.187	4689.88
947.493	4695.53
947.799	4720.84
948.105	4632.93
948.41	4654.17
948.716	4625.7
949.022	4592.93
949.327	4623.66
949.633	4540.05
949.938	4522.88
950.244	4524.91
950.549	4490.11
950.854	4472.93
951.16	4469.32
951.465	4444.23
951.77	4386.83
952.075	4383.22
952.38	4363.78
952.685	4320.62
952.99	4342.99
953.294	4344.35
953.599	4294.41
953.904	4298.25
954.209	4266.16
954.513	4218.7
954.818	4219.61
955.122	4258.7
955.426	4218.02
955.731	4163.34
956.035	4138.48
956.339	4124.47
956.643	4108.88
956.948	4075.66
957.252	4081.98
957.556	4084.69
957.86	4059.16
958.163	4032.72
958.467	4065.26
958.771	4011.93
959.075	3972.83
959.378	3988.43
959.682	3987.3
959.985	3914.53
960.289	3913.63
960.592	3878.82
960.896	3907.3
961.199	3871.82
961.502	3877.02
961.805	3867.3
962.108	3841.09
962.411	3816.23
962.714	3760.86
963.017	3782.1
963.32	3784.14
963.623	3746.4
963.926	3727.42
964.228	3711.82
964.531	3695.1
964.833	3677.7
965.136	3629.34
965.438	3642.22
965.741	3621.88
966.043	3599.06
966.345	3593.41
966.648	3606.74
966.95	3578.49
967.252	3589.11
967.554	3536.23
967.856	3509.79
968.158	3484.26
968.46	3499.85
968.761	3465.28
969.063	3507.99
969.365	3471.83
969.666	3437.03
969.968	3395.67
970.269	3382.57
970.571	3415.56
970.872	3394.32
971.174	3342.57
971.475	3317.48
971.776	3350.7
972.077	3303.47
972.378	3286.52
972.679	3267.32
972.98	3280.87
973.281	3280.2
973.582	3221.89
973.883	3247.2
974.183	3189.13
974.484	3220.31
974.785	3213.53
975.085	3173.08
975.386	3165.4
975.686	3110.26
975.986	3131.73
976.287	3160.43
976.587	3097.6
976.887	3091.73
977.187	3060.99
977.487	3029.58
977.787	3048.34
978.087	3038.62
978.387	2985.51
978.687	3014.89
978.987	2987.77
979.286	2984.61
979.586	2973.09
979.885	2923.37
980.185	2935.8
980.484	2938.06
980.784	2915.91
981.083	2918.17
981.382	2899.64
981.682	2902.35
981.981	2887.44
982.28	2859.42
982.579	2811.06
982.878	2889.47
983.177	2819.87
983.475	2779.42
983.774	2789.59
984.073	2793.43
984.372	2784.16
984.67	2786.2
984.969	2762.24
985.267	2731.28
985.566	2739.19
985.864	2705.97
986.162	2667.78
986.461	2692.19
986.759	2655.35
987.057	2625.75
987.355	2651.51
987.653	2642.7
987.951	2628.24
988.249	2634.11
988.547	2616.03
988.844	2593.89
989.142	2595.69
989.44	2560.67
989.737	2563.38
990.035	2574.45
990.332	2514.34
990.63	2539.88
990.927	2509.6
991.224	2481.12
991.521	2459.2
991.819	2471.4
992.116	2508.92
992.413	2442.7
992.71	2443.61
993.006	2404.97
993.303	2389.6
993.6	2418.07
993.897	2403.61
994.193	2422.59
994.49	2392.08
994.787	2345.08
995.083	2321.35
995.379	2324.52
995.676	2331.75
995.972	2280.9
996.268	2340.11
996.565	2284.29
996.861	2272.31
997.157	2261.24
997.453	2264.18
997.749	2236.61
998.044	2244.29
998.34	2206.33
998.636	2230.28
998.932	2208.13
999.227	2172.88
999.523	2144.63
999.818	2141.24
1000.114	2126.33
1000.409	2127.91
1000.704	2078.65
1001	2121.36
1001.295	2115.48
1001.59	2073.67
1001.885	2096.05
1002.18	2052.66
1002.475	2050.85
1002.77	2041.81
1003.065	2022.6
1003.359	2044.3
1003.654	2023.73
1003.949	2026.9
1004.243	1982.83
1004.538	2006.11
1004.832	1929.95
1005.127	1966.56
1005.421	1934.47
1005.715	1939.89
1006.009	1927.92
1006.304	1922.72
1006.598	1877.07
1006.892	1863.51
1007.186	1867.8
1007.48	1892.44
1007.773	1839.78
1008.067	1884.3
1008.361	1841.82
1008.655	1807.47
1008.948	1842.04
1009.242	1817.41
1009.535	1820.8
1009.829	1789.61
1010.122	1808.37
1010.415	1804.98
1010.708	1788.03
1011.001	1738.32
1011.295	1736.73
1011.588	1738.77
1011.881	1729.95
1012.173	1707.58
1012.466	1691.54
1012.759	1688.6
1013.052	1675.94
1013.344	1650.41
1013.637	1664.42
1013.93	1648.37
1014.222	1617.42
1014.514	1645.44
1014.807	1633.46
1015.099	1607.02
1015.391	1602.95
1015.683	1616.29
1015.976	1587.59
1016.268	1566.12
1016.56	1545.78
1016.851	1549.85
1017.143	1543.29
1017.435	1514.14
1017.727	1547.13
1018.018	1508.72
1018.31	1522.05
1018.602	1507.59
1018.893	1515.72
1019.185	1467.36
1019.476	1475.72
1019.767	1454.93
1020.058	1453.35
1020.35	1412.45
1020.641	1406.57
1020.932	1415.16
1021.223	1404.77
1021.514	1387.14
1021.804	1384.43
1022.095	1364.54
1022.386	1365.44
1022.677	1375.61
1022.967	1357.76
1023.258	1349.85
1023.548	1358.44
1023.839	1352.34
1024.129	1324.32
1024.419	1341.72
1024.709	1303.75
1025	1289.29
1025.29	1300.59
1025.58	1270.98
1025.87	1290.64
1026.16	1260.81
1026.449	1247.48
1026.739	1260.14
1027.029	1266.92
1027.319	1243.64
1027.608	1233.02
1027.898	1234.83
1028.187	1212.68
1028.477	1227.59
1028.766	1194.15
1029.055	1153.7
1029.344	1183.3
1029.634	1169.52
1029.923	1157.54
1030.212	1177.88
1030.501	1153.25
1030.79	1118.22
1031.078	1138.78
1031.367	1138.78
1031.656	1079.35
1031.945	1121.16
1032.233	1116.41
1032.522	1101.95
1032.81	1118.22
1033.099	1113.47
1033.387	1086.81
1033.675	1069.63
1033.963	1057.66
1034.251	1074.83
1034.54	1038
1034.828	1023.31
1035.116	1055.4
1035.403	1054.72
1035.691	1041.84
1035.979	1009.07
1036.267	1000.03
1036.554	1009.3
1036.842	993.48
1037.129	995.28
1037.417	979.24
1037.704	959.13
1037.992	956.87
1038.279	978.11
1038.566	977.43
1038.853	977.43
1039.14	977.43
