Data from hue_22_FLMS001491_00096.txt Node
Date: Tue Feb 07 17:10:58 GMT 2017
User: dcchb
Spectrometer: FLMS00149
Trigger mode: 0
Integration Time (sec): 2.000000E-2
Scans to average: 10
Electric dark correction enabled: true
Nonlinearity correction enabled: false
Boxcar width: 0
XAxis mode: Wavelengths
Number of Pixels in Spectrum: 2048
>>>>>Begin Spectral Data<<<<<
341.393	-22.58
341.776	-22.58
342.16	-22.58
342.543	-54.22
342.927	-56.93
343.31	-69.36
343.693	-54.22
344.077	-74.11
344.46	-54.22
344.843	-48.12
345.226	-45.18
345.61	-51.96
345.993	-24.17
346.376	-14
346.759	8.83
347.142	34.59
347.525	30.07
347.908	67.81
348.291	75.72
348.674	107.13
349.057	111.2
349.44	131.08
349.823	140.58
350.206	173.79
350.588	193.68
350.971	197.07
351.354	209.27
351.737	232.32
352.119	258.99
352.502	262.61
352.884	285.43
353.267	297.18
353.65	301.48
354.032	308.71
354.414	328.59
354.797	309.16
355.179	325.2
355.562	320.46
355.944	314.81
356.326	368.59
356.709	351.64
357.091	332.43
357.473	344.41
357.855	342.38
358.238	348.03
358.62	338.31
359.002	333.34
359.384	359.78
359.766	341.93
360.148	337.41
360.53	341.25
360.912	337.18
361.294	334.24
361.676	330.63
362.057	348.03
362.439	331.08
362.821	333.79
363.203	323.17
363.584	319.78
363.966	328.59
364.348	342.38
364.729	319.1
365.111	313.68
365.493	318.2
365.874	317.52
366.256	313
366.637	323.4
367.019	334.24
367.4	325.43
367.781	319.55
368.163	330.85
368.544	310.51
368.925	310.51
369.306	318.42
369.688	307.8
370.069	305.32
370.45	333.56
370.831	317.75
371.212	300.12
371.593	301.48
371.974	312.32
372.355	334.69
372.736	314.36
373.117	314.36
373.498	307.35
373.879	316.62
374.26	315.71
374.641	336.95
375.021	300.35
375.402	313.23
375.783	322.94
376.163	329.27
376.544	339.21
376.925	334.47
377.305	326.33
377.686	333.79
378.066	318.65
378.447	349.61
378.827	329.72
379.208	328.59
379.588	328.37
379.968	318.2
380.349	330.4
380.729	343.73
381.109	350.06
381.489	336.05
381.87	342.38
382.25	336.73
382.63	352.55
383.01	350.97
383.39	341.7
383.77	332.89
384.15	366.11
384.53	353.45
384.91	359.1
385.29	351.42
385.67	353.23
386.049	362.94
386.429	353
386.809	348.25
387.189	353.45
387.568	376.95
387.948	379.67
388.328	382.15
388.707	367.91
389.087	355.71
389.466	370.4
389.846	362.72
390.225	363.85
390.605	384.86
390.984	369.95
391.363	378.31
391.743	376.5
392.122	381.7
392.501	369.95
392.881	362.04
393.26	371.53
393.639	395.26
394.018	391.19
394.397	364.52
394.776	359.1
395.155	377.86
395.534	376.05
395.913	391.42
396.292	386.67
396.671	374.92
397.05	385.09
397.429	376.5
397.808	365.2
398.186	385.31
398.565	371.08
398.944	405.88
399.323	393.22
399.701	411.3
400.08	388.48
400.458	404.52
400.837	379.44
401.215	425.31
401.594	401.59
401.972	408.59
402.351	398.87
402.729	382.6
403.107	416.73
403.486	416.95
403.864	403.39
404.242	412.88
404.62	424.18
404.999	415.14
405.377	405.88
405.755	388.48
406.133	413.79
406.511	424.18
406.889	425.31
407.267	435.26
407.645	407.01
408.023	422.6
408.401	432.77
408.779	433.9
409.156	419.66
409.534	448.14
409.912	433.22
410.29	438.65
410.667	439.55
411.045	468.7
411.422	452.43
411.8	446.56
412.178	454.69
412.555	471.19
412.933	468.7
413.31	456.05
413.687	467.12
414.065	450.17
414.442	463.28
414.819	484.75
415.197	472.09
415.574	464.86
415.951	479.55
416.328	491.3
416.705	477.97
417.082	489.27
417.46	489.72
417.837	499.44
418.214	481.13
418.591	490.85
418.967	509.83
419.344	522.26
419.721	508.7
420.098	491.53
420.475	508.93
420.852	514.12
421.228	504.41
421.605	508.48
421.982	502.15
422.358	530.17
422.735	520.23
423.111	521.13
423.488	544.41
423.864	510.51
424.241	534.01
424.617	537.18
424.994	540.56
425.37	524.52
425.746	547.12
426.123	532.66
426.499	552.32
426.875	559.32
427.251	547.8
427.627	553.67
428.003	579.66
428.379	559.32
428.756	570.62
429.132	593.44
429.507	575.59
429.883	581.24
430.259	594.57
430.635	607.46
431.011	594.35
431.387	601.13
431.763	603.61
432.138	598.64
432.514	599.09
432.89	614.24
433.265	635.7
433.641	611.98
434.016	625.99
434.392	650.17
434.767	656.49
435.143	640.9
435.518	627.12
435.894	667.57
436.269	658.53
436.644	691.3
437.02	688.58
437.395	659.21
437.77	685.19
438.145	671.41
438.52	698.98
438.895	691.3
439.271	705.08
439.646	698.98
440.021	687.68
440.395	707.11
440.77	702.59
441.145	701.69
441.52	721.8
441.895	701.69
442.27	737.17
442.645	724.51
443.019	722.93
443.394	723.61
443.769	755.7
444.143	739.2
444.518	749.37
444.892	746.66
445.267	756.38
445.641	764.97
446.016	741.46
446.39	770.62
446.764	769.71
447.139	772.2
447.513	762.71
447.887	787.79
448.262	760.67
448.636	793.89
449.01	816.26
449.384	810.39
449.758	810.16
450.132	818.07
450.506	819.65
450.88	802.25
451.254	824.4
451.628	814.91
452.002	851.07
452.376	837.05
452.75	856.94
453.123	850.61
453.497	851.97
453.871	862.59
454.244	874.34
454.618	877.96
454.992	891.06
455.365	917.96
455.739	898.3
456.112	922.02
456.486	929.48
456.859	948.24
457.232	942.81
457.606	922.02
457.979	955.47
458.352	975.81
458.725	949.37
459.099	996.37
459.472	1006.99
459.845	990.5
460.218	1013.77
460.591	998.86
460.964	1015.58
461.337	1044.51
461.71	1028.69
462.083	1040.21
462.456	1067.33
462.829	1066.43
463.201	1095.58
463.574	1097.61
463.947	1099.19
464.32	1131.96
464.692	1152.75
465.065	1150.49
465.438	1152.53
465.81	1196.14
466.183	1187.33
466.555	1190.94
466.928	1213.77
467.3	1211.96
467.672	1227.1
468.045	1254.67
468.417	1273.43
468.789	1286.31
469.161	1277.49
469.534	1312.52
469.906	1305.29
470.278	1328.57
470.65	1330.83
471.022	1386.87
471.394	1388.68
471.766	1384.84
472.138	1447.89
472.51	1462.35
472.882	1485.17
473.253	1516.13
473.625	1499.41
473.997	1564.27
474.369	1563.14
474.74	1597.26
475.112	1596.81
475.484	1631.84
475.855	1667.31
476.227	1670.25
476.598	1722
476.97	1755.9
477.341	1768.78
477.713	1813.07
478.084	1816.92
478.455	1854.88
478.827	1885.84
479.198	1955.89
479.569	1974.2
479.94	2012.39
480.311	2023.01
480.682	2080.41
481.053	2161.31
481.424	2196.57
481.795	2192.05
482.166	2232.72
482.537	2279.28
482.908	2312.95
483.279	2370.12
483.65	2433.4
484.021	2473.62
484.391	2480.63
484.762	2536.67
485.133	2575.31
485.503	2592.94
485.874	2652.83
486.244	2731.69
486.615	2748.19
486.985	2760.62
487.356	2847.17
487.726	2902.54
488.097	2958.13
488.467	2981.4
488.837	3056.66
489.207	3088.52
489.578	3133.04
489.948	3181.85
490.318	3231.12
490.688	3246.48
491.058	3324.9
491.428	3345.01
491.798	3391.11
492.168	3475.4
492.538	3502.07
492.908	3540.94
493.278	3585.46
493.648	3601.5
494.017	3605.8
494.387	3676.75
494.757	3760.59
495.126	3779.12
495.496	3770.54
495.866	3846.01
496.235	3863.42
496.605	3934.83
496.974	3907.71
497.344	4001.49
497.713	4015.5
498.082	4058.66
498.452	4044.88
498.821	4095.27
499.19	4120.81
499.559	4163.97
499.928	4198.32
500.298	4218.66
500.667	4246.46
501.036	4280.35
501.405	4317.87
501.774	4354.7
502.143	4395.6
502.512	4386.34
502.88	4394.47
503.249	4461.59
503.618	4502.72
503.987	4458.65
504.356	4595.83
504.724	4561.02
505.093	4551.08
505.462	4600.35
505.83	4672.66
506.199	4698.65
506.567	4710.4
506.936	4698.87
507.304	4754.92
507.672	4772.54
508.041	4785.43
508.409	4809.15
508.777	4859.77
509.145	4945.65
509.514	4931.18
509.882	4875.59
510.25	4987.91
510.618	4961.01
510.986	4980.22
511.354	4962.14
511.722	5032.42
512.09	5054.34
512.458	5090.5
512.826	5099.99
513.193	5172.08
513.561	5125.76
513.929	5149.26
514.297	5243.94
514.664	5223.15
515.032	5261.34
515.4	5300.44
515.767	5336.15
516.135	5343.83
516.502	5317.84
516.869	5362.13
517.237	5351.06
517.604	5360.33
517.972	5395.58
518.339	5467.22
518.706	5418.63
519.073	5515.12
519.44	5501.34
519.808	5520.77
520.175	5531.17
520.542	5561
520.909	5608.68
521.276	5579.75
521.643	5643.26
522.009	5652.29
522.376	5665.4
522.743	5755.12
523.11	5740.88
523.477	5779.3
523.843	5800.09
524.21	5793.08
524.577	5928.67
524.943	5913.76
525.31	5923.02
525.676	5981.78
526.043	6018.39
526.409	6007.54
526.776	6092.06
527.142	6132.06
527.508	6129.34
527.874	6187.87
528.241	6171.83
528.607	6195.11
528.973	6250.92
529.339	6266.29
529.705	6315.78
530.071	6364.37
530.437	6405.04
530.803	6367.53
531.169	6469
531.535	6459.51
531.901	6473.29
532.267	6468.77
532.632	6526.62
532.998	6514.42
533.364	6580.41
533.73	6636
534.095	6637.81
534.461	6661.53
534.826	6730.68
535.192	6753.96
535.557	6840.29
535.923	6832.38
536.288	6839.16
536.653	6920.74
537.019	6886.84
537.384	6920.06
537.749	6944.46
538.114	6965.25
538.479	6908.76
538.845	7007.51
539.21	7022.88
539.575	7067.17
539.94	7037.12
540.305	7156.21
540.67	7163.44
541.034	7191.69
541.399	7144.69
541.764	7209.32
542.129	7220.62
542.494	7262.42
542.858	7307.17
543.223	7333.61
543.587	7381.29
543.952	7368.41
544.316	7389.42
544.681	7352.14
545.045	7427.84
545.41	7496.77
545.774	7531.79
546.138	7576.99
546.503	7552.36
546.867	7562.08
547.231	7627.16
547.595	7655.18
547.959	7628.06
548.324	7698.34
548.688	7721.39
549.052	7721.84
549.416	7774.95
549.779	7816.98
550.143	7782.41
550.507	7868.51
550.871	7867.15
551.235	7879.13
551.599	8006.13
551.962	7944.89
552.326	7995.51
552.689	8037.09
553.053	8004.1
553.417	8023.53
553.78	8145.11
554.143	8125.9
554.507	8132.68
554.87	8173.36
555.234	8280.02
555.597	8250.87
555.96	8276.41
556.323	8255.39
556.686	8318.67
557.05	8354.82
557.413	8392.34
557.776	8442.5
558.139	8431.43
558.502	8381.71
558.865	8460.81
559.228	8529.06
559.59	8582.16
559.953	8499.68
560.316	8657.19
560.679	8595.27
561.041	8654.25
561.404	8692.21
561.767	8684.08
562.129	8678.88
562.492	8836.17
562.854	8793.23
563.217	8782.61
563.579	8809.05
563.941	8884.3
564.304	8897.18
564.666	8913.68
565.028	8927.46
565.39	9045.65
565.753	9004.52
566.115	9076.16
566.477	9172.88
566.839	9189.6
567.201	9196.16
567.563	9237.06
567.925	9279.32
568.287	9242.03
568.648	9295.14
569.01	9381.91
569.372	9448.58
569.734	9364.97
570.095	9468.47
570.457	9534.45
570.819	9460.33
571.18	9615.35
571.542	9591.63
571.903	9670.49
572.265	9730.15
572.626	9743.26
572.987	9782.13
573.349	9871.17
573.71	9900.32
574.071	9886.76
574.432	10105.29
574.794	10089.47
575.155	10114.32
575.516	10184.61
575.877	10277.48
576.238	10278.39
576.599	10358.39
576.96	10422.79
577.32	10546.18
577.681	10642.67
578.042	10752.5
578.403	10754.08
578.763	10880.63
579.124	10974.19
579.485	11060.74
579.845	11291.47
580.206	11358.36
580.566	11413.73
580.927	11523.78
581.287	11726.71
581.648	11859.82
582.008	12035.18
582.368	12151.11
582.728	12331.67
583.089	12519.23
583.449	12542.28
583.809	12827.7
584.169	13029.28
584.529	13155.6
584.889	13419.55
585.249	13614.8
585.609	13807.56
585.969	13980.89
586.329	14160.09
586.688	14509.24
587.048	14674.66
587.408	14856.8
587.768	15181.08
588.127	15430.57
588.487	15638.92
588.846	16031.68
589.206	16206.59
589.565	16514.83
589.925	16892
590.284	17140.35
590.643	17412.89
591.003	17718.42
591.362	18180.55
591.721	18381.23
592.08	18610.37
592.44	18997.48
592.799	19264.82
593.158	19608.31
593.517	19991.13
593.876	20226.37
594.235	20534.39
594.593	20936.64
594.952	21361.26
595.311	21503.4
595.67	21961.7
596.029	22457.95
596.387	22783.37
596.746	23177.26
597.104	23369.34
597.463	23678.94
597.822	24244.57
598.18	24374.51
598.538	24714.39
598.897	25241.16
599.255	25338.78
599.613	26047.46
599.972	26164.98
600.33	26682.02
600.688	26818.74
601.046	27319.97
601.404	27734.65
601.762	27959.73
602.12	28443.56
602.478	28683.55
602.836	29039.25
603.194	29153.15
603.552	29513.81
603.91	29839.46
604.268	30273.12
604.625	30352.89
604.983	30954.45
605.341	31021.35
605.698	31628.34
606.056	31750.59
606.413	31996.46
606.771	32365.26
607.128	32783.56
607.485	32855.42
607.843	33233.04
608.2	33618.11
608.557	33880.48
608.914	34040.02
609.272	34437.07
609.629	34590.52
609.986	35078.41
610.343	35150.05
610.7	35601.11
611.057	35826.87
611.414	35868.9
611.771	36199.97
612.127	36486.74
612.484	36603.12
612.841	37066.16
613.198	37098.02
613.554	37283.55
613.911	37734.39
614.267	37945.01
614.624	38034.04
614.98	38231.55
615.337	38481.04
615.693	38692.33
616.05	38768.49
616.406	39169.15
616.762	39193.33
617.118	39358.08
617.475	39682.59
617.831	39874.45
618.187	39988.34
618.543	40248
618.899	40616.35
619.255	40716.01
619.611	40631.26
619.967	40985.6
620.323	41083.45
620.678	41282.77
621.034	40971.82
621.39	41297.23
621.746	41461.75
622.101	41895.41
622.457	41829.65
622.812	41899.48
623.168	42205.01
623.523	42197.55
623.879	42441.38
624.234	42177.21
624.589	42453.81
624.945	42571.32
625.3	42805.22
625.655	42684.99
626.01	42805.89
626.365	42992.33
626.72	42840.24
627.075	43147.35
627.43	43087.69
627.785	42942.16
628.14	43263.51
628.495	43342.83
628.85	43273.68
629.205	43274.81
629.559	43487.68
629.914	43496.5
630.269	43490.4
630.623	43406.56
630.978	43456.05
631.332	43743.5
631.687	43749.37
632.041	43713.44
632.396	43795.92
632.75	43617.62
633.104	43864.4
633.459	43651.52
633.813	43713.67
634.167	43826.66
634.521	43840.44
634.875	43898.29
635.229	43750.28
635.583	43750.05
635.937	43762.03
636.291	43783.04
636.645	43828.24
636.999	43779.2
637.352	43869.82
637.706	43724.06
638.06	43898.07
638.413	43865.3
638.767	43680.9
639.121	43723.16
639.474	43649.71
639.828	43638.41
640.181	43935.58
640.534	43777.62
640.888	43634.12
641.241	43618.08
641.594	43573.33
641.947	43751.86
642.301	43669.83
642.654	43632.54
643.007	43628.7
643.36	43625.99
643.713	43742.37
644.066	43741.46
644.419	43582.15
644.771	43242.72
645.124	42887.02
645.477	42871.88
645.83	42684.99
646.182	42560.25
646.535	42422.18
646.888	42532.23
647.24	42289.07
647.593	42559.8
647.945	42412.46
648.298	42261.95
648.65	42205.23
649.002	42122.97
649.355	42371.78
649.707	42391.44
650.059	42569.06
650.411	42916.4
650.763	43017.87
651.115	43363.85
651.467	43362.04
651.819	43322.49
652.171	43150.07
652.523	43094.7
652.875	43110.07
653.227	42876.4
653.578	43259.44
653.93	43221.93
654.282	42945.33
654.633	42906.46
654.985	42937.64
655.337	43039.56
655.688	43128.37
656.039	43160.01
656.391	42839.79
656.742	42897.64
657.094	42909.62
657.445	43052.89
657.796	42994.14
658.147	42967.02
658.498	42729.29
658.849	42982.61
659.2	42871.66
659.551	42811.54
659.902	42934.03
660.253	42778.78
660.604	43008.6
660.955	42748.95
661.306	42856.06
661.656	42792.79
662.007	42740.81
662.358	43011.31
662.708	42830.98
663.059	42787.82
663.409	42624.88
663.76	42806.57
664.11	42811.09
664.461	42754.82
664.811	42892.9
665.161	42772
665.511	42501.72
665.862	42624.43
666.212	42766.8
666.562	42758.89
666.912	42695.39
667.262	42690.87
667.612	42677.08
667.962	42807.7
668.312	42456.3
668.662	42781.49
669.011	42697.65
669.361	42682.96
669.711	42683.64
670.06	42574.49
670.41	42686.12
670.76	42585.11
671.109	42616.29
671.459	42560.25
671.808	42408.16
672.157	42644.09
672.507	42359.58
672.856	42344.89
673.205	42449.07
673.554	42574.26
673.904	42205.68
674.253	42579.69
674.602	42452.68
674.951	41857.9
675.3	41729.54
675.649	42348.05
675.998	42205.01
676.346	42302.18
676.695	42359.35
677.044	42057.44
677.393	42155.06
677.741	42218.79
678.09	42114.61
678.438	42071.68
678.787	42054.73
679.135	42168.62
679.484	41936.31
679.832	41979.7
680.181	41758.46
680.529	41855.64
680.877	41678.24
681.225	41651.35
681.573	41993.94
681.922	41601.18
682.27	41519.83
682.618	41507.4
682.966	41429.43
683.314	41519.15
683.661	41325.48
684.009	41184.02
684.357	41097.69
684.705	41097.46
685.053	41245.71
685.4	41090.01
685.748	40949.22
686.095	41053.17
686.443	40836.91
686.79	40696.12
687.138	40831.71
687.485	40926.85
687.832	40685.72
688.18	40818.15
688.527	40637.14
688.874	40643.92
689.221	40358.73
689.568	40358.95
689.915	40318.95
690.262	40154.21
690.609	40205.51
690.956	40040.77
691.303	39879.42
691.65	39778.4
691.997	39707.67
692.344	39485.76
692.69	39662.47
693.037	39523.95
693.383	39157.4
693.73	39175.93
694.077	39090.96
694.423	39113.56
694.769	38945.88
695.116	38906.56
695.462	38831.54
695.808	38744.76
696.155	38761.03
696.501	38511.77
696.847	38564.65
697.193	38359.91
697.539	38398.55
697.885	38123.08
698.231	38209.86
698.577	38136.64
698.923	37926.25
699.269	37860.71
699.614	37652.36
699.96	37592.25
700.306	37584.34
700.651	37366.94
700.997	37347.96
701.342	37300.05
701.688	37142.54
702.033	37055.31
702.379	37021.41
702.724	37084.69
703.069	37006.5
703.415	36639.95
703.76	36614.64
704.105	36717.01
704.45	36597.24
704.795	36480.64
705.14	36335.56
705.485	36291.04
705.83	36188.89
706.175	36290.36
706.52	36064.83
706.865	35954.1
707.209	35883.59
707.554	35674.56
707.899	35806.3
708.243	35691.96
708.588	35598.4
708.932	35352.3
709.277	35409.48
709.621	35294.23
709.966	35180.33
710.31	35398.86
710.654	34897.63
710.998	35058.08
711.342	35032.77
711.687	34874.35
712.031	34789.83
712.375	34542.16
712.719	34666.22
713.063	34569.73
713.407	34793.45
713.75	34425.78
714.094	34556.17
714.438	34441.82
714.782	34504.42
715.125	34191.43
715.469	34282.5
715.812	34118.89
716.156	33996.18
716.499	33840.71
716.843	33956.18
717.186	33780.37
717.53	33883.19
717.873	33846.58
718.216	33734.95
718.559	33451.56
718.902	33357.78
719.246	33450.66
719.589	33274.85
719.932	33225.58
720.275	33144.68
720.617	33175.19
720.96	33121.4
721.303	33181.51
721.646	33182.42
721.989	32873.73
722.331	32974.06
722.674	32855.65
723.016	32874.86
723.359	32822.65
723.701	32896.78
724.044	32635.31
724.386	32402.78
724.729	32688.65
725.071	32693.84
725.413	32636.22
725.755	32561.64
726.097	32399.16
726.439	32190.58
726.782	32101.77
727.124	32351.25
727.465	32200.52
727.807	32092.73
728.149	32007.99
728.491	32087.53
728.833	32008.44
729.175	31911.94
729.516	31854.54
729.858	31891.6
730.199	31877.59
730.541	31824.49
730.882	31767.77
731.224	31797.14
731.565	31546.76
731.906	31613.19
732.248	31642.8
732.589	31391.96
732.93	31248.68
733.271	31441.45
733.612	31307.67
733.953	31229.93
734.294	31231.51
734.635	31162.13
734.976	31229.93
735.317	31066.32
735.658	31243.71
735.999	31039.2
736.339	31046.66
736.68	31045.75
737.021	30832.88
737.361	30859.09
737.702	30972.76
738.042	30814.8
738.383	30617.06
738.723	30650.06
739.063	30625.42
739.404	30657.29
739.744	30505.2
740.084	30580.68
740.424	30537.29
740.764	30414.36
741.104	30598.76
741.444	30273.34
741.784	30334.36
742.124	30352.21
742.464	30269.5
742.804	30202.84
743.143	30163.06
743.483	30213.91
743.823	29935.72
744.162	29959.45
744.502	30210.52
744.841	29963.07
745.181	30102.5
745.52	29956.74
745.86	29958.32
746.199	29842.85
746.538	29871.32
746.877	29859.57
747.216	29807.82
747.556	29808.5
747.895	29737.31
748.234	29602.85
748.573	29552.23
748.911	29465.91
749.25	29520.59
749.589	29370.77
749.928	29314.72
750.267	29441.05
750.605	29284.89
750.944	29208.74
751.283	29079.02
751.621	29161.51
751.96	29084.22
752.298	28984.34
752.636	29002.87
752.975	28811.23
753.313	28722.65
753.651	28792.25
753.989	28646.94
754.327	28692.82
754.666	28574.86
755.004	28572.37
755.342	28636.78
755.679	28556.33
756.017	28357.69
756.355	28344.81
756.693	28264.58
757.031	28376.9
757.368	28013.51
757.706	28087.41
758.044	28028.2
758.381	28050.58
758.719	28098.71
759.056	27964.02
759.394	27821.88
759.731	27613.53
760.068	27644.94
760.405	27583.92
760.743	27413.98
761.08	27432.06
761.417	27288.56
761.754	27290.14
762.091	27329.01
762.428	27255.79
762.765	26963.37
763.102	27094.44
763.438	26971.96
763.775	26821
764.112	26907.1
764.449	26900.32
764.785	26777.16
765.122	26541.69
765.458	26471.86
765.795	26403.39
766.131	26428.7
766.467	26335.59
766.804	26162.49
767.14	26111.64
767.476	26074.81
767.812	25807.47
768.148	25905.1
768.485	25808.6
768.821	25535.84
769.157	25518.44
769.492	25554.6
769.828	25485.67
770.164	25410.87
770.5	25241.84
770.836	25223.76
771.171	24988.74
771.507	25016.98
771.842	24861.51
772.178	24768.63
772.513	24784.22
772.849	24605.47
773.184	24576.54
773.519	24557.56
773.855	24419.49
774.19	24388.98
774.525	24278.92
774.86	24290.45
775.195	24255.87
775.53	24066.73
775.865	23896.79
776.2	23837.58
776.535	23601.43
776.87	23532.5
777.205	23611.6
777.539	23433.07
777.874	23507.64
778.209	23208.67
778.543	23169.12
778.878	23040.99
779.212	23062.68
779.547	22867.21
779.881	22983.36
780.215	22781.56
780.55	22916.47
780.884	22736.37
781.218	22573.66
781.552	22701.34
781.886	22487.78
782.22	22328.69
782.554	22315.59
782.888	22071.07
783.222	22080.34
783.556	22047.57
783.889	21958.98
784.223	21759.89
784.557	21804.64
784.89	21784.53
785.224	21697.07
785.557	21387.25
785.891	21409.62
786.224	21411.2
786.558	21360.36
786.891	21130.76
787.224	21126.46
787.557	21121.72
787.891	21051.21
788.224	20929.41
788.557	20898.9
788.89	20908.84
789.223	20798.11
789.556	20695.52
789.888	20504.11
790.221	20575.74
790.554	20394.28
790.887	20353.38
791.219	20294.62
791.552	20210.56
791.884	20096.43
792.217	20163.1
792.549	20139.6
792.882	19929.21
793.214	19799.04
793.546	19893.05
793.879	19679.27
794.211	19660.51
794.543	19763.11
794.875	19597.69
795.207	19581.42
795.539	19467.07
795.871	19492.38
796.203	19285.38
796.535	19187.53
796.867	19132.62
797.198	19194.31
797.53	19117.7
797.862	18939.86
798.193	19055.11
798.525	18843.36
798.856	18937.14
799.188	18758.62
799.519	18663.93
799.85	18597.49
800.182	18652.18
800.513	18515.01
800.844	18439.08
801.175	18499.41
801.506	18351.4
801.837	18254.68
802.168	18249.7
802.499	18211.06
802.83	18141.46
803.161	18043.83
803.491	18008.13
803.822	17950.05
804.153	17878.41
804.483	17858.3
804.814	17734.92
805.145	17774.24
805.475	17783.5
805.805	17651.53
806.136	17682.26
806.466	17561.13
806.796	17497.41
807.126	17433.91
807.457	17411.76
807.787	17356.17
808.117	17314.14
808.447	17245.66
808.777	17249.28
809.107	17229.39
809.436	17126.12
809.766	17045.22
810.096	17028.49
810.426	16914.6
810.755	16912.56
811.085	16896.07
811.414	16844.77
811.744	16755.51
812.073	16779.23
812.403	16778.56
812.732	16640.71
813.061	16593.7
813.39	16453.14
813.719	16520.71
814.049	16541.5
814.378	16454.04
814.707	16365.46
815.036	16419.7
815.365	16277.55
815.693	16161.62
816.022	16234.84
816.351	16167.5
816.68	16115.52
817.008	16088.4
817.337	15896.77
817.665	15923.66
817.994	15871.91
818.322	15912.36
818.651	15810.9
818.979	15774.74
819.307	15762.09
819.636	15838.47
819.964	15677.79
820.292	15737.23
820.62	15760.96
820.948	15654.97
821.276	15663.11
821.604	15557.12
821.932	15641.41
822.259	15683.9
822.587	15673.95
822.915	15585.14
823.243	15636.67
823.57	15480.96
823.898	15542.2
824.225	15467.63
824.553	15610
824.88	15610.23
825.207	15607.29
825.535	15555.99
825.862	15609.77
826.189	15605.93
826.516	15621.52
826.843	15574.29
827.17	15613.39
827.497	15629.89
827.824	15579.04
828.151	15673.05
828.478	15532.71
828.805	15687.29
829.131	15495.2
829.458	15478.93
829.785	15475.54
830.111	15531.13
830.438	15624.69
830.764	15530.91
831.09	15536.78
831.417	15539.94
831.743	15552.37
832.069	15632.82
832.395	15418.82
832.722	15500.4
833.048	15452.72
833.374	15482.54
833.7	15345.6
834.026	15402.77
834.351	15378.37
834.677	15350.8
835.003	15356.22
835.329	15278.71
835.654	15283.23
835.98	15270.35
836.306	15246.39
836.631	15232.61
836.956	15289.33
837.282	15193.96
837.607	15165.04
837.932	15128.88
838.258	15160.07
838.583	15174.98
838.908	14930.47
839.233	15095.44
839.558	15113.74
839.883	14937.93
840.208	14949
840.533	14983.57
840.858	14898.38
841.182	14874.43
841.507	14855.44
841.832	14748.33
842.156	14650.93
842.481	14769.12
842.805	14701.32
843.13	14664.04
843.454	14709.46
843.778	14628.33
844.103	14508.56
844.427	14493.64
844.751	14574.32
845.075	14468.33
845.399	14452.52
845.723	14442.57
846.047	14341.78
846.371	14244.61
846.695	14308.56
847.019	14169.36
847.343	14001.45
847.666	14027.67
847.99	13946.99
848.313	13891.63
848.637	13878.29
848.96	13704.51
849.284	13819.09
849.607	13669.26
849.931	13670.16
850.254	13554.46
850.577	13529.15
850.9	13375.71
851.223	13382.26
851.546	13327.35
851.869	13237.86
852.192	13330.74
852.515	13172.55
852.838	13181.36
853.161	13256.16
853.483	13154.92
853.806	12999.67
854.129	13001.48
854.451	12964.64
854.774	12910.64
855.096	12916.28
855.419	12762.16
855.741	12796.74
856.063	12773.69
856.385	12807.59
856.708	12659.34
857.03	12615.28
857.352	12572.11
857.674	12549.29
857.996	12619.12
858.318	12458.44
858.64	12432
858.961	12412.8
859.283	12353.14
859.605	12223.65
859.926	12299.35
860.248	12315.62
860.57	12211.22
860.891	12178.68
861.212	12110.66
861.534	12192.24
861.855	12103.2
862.176	12088.06
862.498	12093.26
862.819	12072.01
863.14	12018.46
863.461	11990.43
863.782	11984.78
864.103	11964.67
864.424	11963.99
864.745	11919.02
865.065	11864.79
865.386	11842.19
865.707	11842.19
866.027	11802.87
866.348	11709.54
866.668	11792.7
866.989	11797.67
867.309	11665.24
867.63	11698.01
867.95	11777.78
868.27	11571.01
868.59	11607.39
868.91	11580.73
869.23	11598.35
869.55	11454.63
869.87	11542.31
870.19	11584.79
870.51	11506.83
870.83	11544.12
871.15	11464.12
871.469	11406.95
871.789	11440.84
872.109	11405.82
872.428	11433.61
872.748	11344.8
873.067	11371.01
873.386	11328.76
873.706	11401.07
874.025	11265.03
874.344	11224.58
874.663	11278.14
874.982	11275.65
875.301	11193.17
875.62	11194.97
875.939	11211.47
876.258	11096.45
876.577	11126.05
876.896	11093.96
877.214	11027.52
877.533	11116.33
877.852	11022.55
878.17	11101.64
878.489	11013.51
878.807	11039.05
879.125	11004.02
879.444	11025.26
879.762	10932.38
880.08	10981.42
880.398	10868.88
880.716	10850.12
881.034	10898.03
881.352	10898.48
881.67	10872.04
881.988	10820.75
882.306	10758.83
882.624	10777.13
882.941	10686.29
883.259	10743.69
883.577	10696.46
883.894	10679.51
884.212	10637.7
884.529	10595.22
884.846	10572.39
885.164	10552.96
885.481	10579.4
885.798	10592.05
886.115	10475.67
886.432	10486.07
886.75	10446.29
887.067	10461.66
887.383	10396.58
887.7	10401.1
888.017	10352.51
888.334	10317.26
888.651	10317.71
888.967	10235.23
889.284	10238.39
889.6	10214.89
889.917	10132.86
890.233	10193.87
890.55	10066.87
890.866	10118.17
891.182	10071.84
891.498	9976.25
891.815	10026.42
892.131	9984.16
892.447	9961.79
892.763	9957.04
893.079	9856.93
893.395	9829.13
893.71	9780.77
894.026	9784.62
894.342	9829.36
894.657	9710.95
894.973	9749.14
895.289	9727.89
895.604	9654.22
895.92	9605.86
896.235	9584.17
896.55	9537.62
896.865	9547.11
897.181	9534.9
897.496	9530.39
897.811	9464.4
898.126	9384.17
898.441	9305.76
898.756	9385.53
899.071	9313.22
899.386	9268.02
899.7	9167.46
900.015	9195.48
900.33	9196.38
900.644	9140.11
900.959	9149.15
901.273	9050.85
901.588	9017.86
901.902	8963.62
902.216	8982.6
902.531	8935.6
902.845	8898.31
903.159	8815.15
903.473	8836.39
903.787	8777.64
904.101	8848.6
904.415	8784.87
904.729	8682.27
905.042	8678.88
905.356	8695.38
905.67	8674.36
905.984	8653.8
906.297	8569.96
906.611	8555.95
906.924	8562.27
907.237	8499.9
907.551	8527.93
907.864	8322.28
908.177	8379
908.491	8341.72
908.804	8321.83
909.117	8286.35
909.43	8230.31
909.743	8249.51
910.056	8229.18
910.368	8147.37
910.681	8139.01
910.994	8103.76
911.307	8059.92
911.619	7990.31
911.932	8030.31
912.244	7887.26
912.557	7931.33
912.869	7861.73
913.181	7813.37
913.494	7833.03
913.806	7732.47
914.118	7775.18
914.43	7692.02
914.742	7726.36
915.054	7677.33
915.366	7587.16
915.678	7604.33
915.99	7626.48
916.302	7459.48
916.613	7476.88
916.925	7478.01
917.236	7462.19
917.548	7412.02
917.859	7426.49
918.171	7349.65
918.482	7224.68
918.794	7258.35
919.105	7245.47
919.416	7164.35
919.727	7250.9
920.038	7132.26
920.349	7115.53
920.66	7079.6
920.971	7094.74
921.282	7007.74
921.593	6972.71
921.903	6972.26
922.214	6971.13
922.525	6926.84
922.835	6857.91
923.146	6865.14
923.456	6774.53
923.767	6761.64
924.077	6743.79
924.387	6734.53
924.697	6676
925.008	6666.05
925.318	6604.81
925.628	6640.74
925.938	6590.8
926.248	6513.06
926.558	6550.12
926.867	6488.21
927.177	6487.98
927.487	6456.79
927.796	6468.09
928.106	6399.17
928.416	6355.33
928.725	6373.63
929.034	6288.21
929.344	6351.71
929.653	6291.83
929.962	6219.74
930.271	6169.8
930.581	6152.17
930.89	6166.41
931.199	6107.65
931.508	6107.65
931.817	6082.57
932.125	6076.69
932.434	5985.39
932.743	5984.26
933.051	5944.26
933.36	5925.06
933.669	5859.3
933.977	5858.17
934.286	5886.19
934.594	5876.24
934.902	5796.7
935.21	5760.54
935.519	5786.98
935.827	5778.17
936.135	5721.9
936.443	5678.96
936.751	5680.99
937.059	5682.8
937.367	5626.98
937.674	5606.65
937.982	5586.08
938.29	5527.33
938.597	5503.82
938.905	5457.72
939.213	5448.23
939.52	5405.75
939.827	5466.99
940.135	5431.51
940.442	5387.67
940.749	5421.11
941.056	5378.86
941.363	5250.27
941.67	5306.09
941.977	5217.05
942.284	5234
942.591	5212.53
942.898	5189.26
943.205	5187.22
943.511	5104.96
943.818	5139.09
944.125	5120.78
944.431	5101.12
944.738	5047.11
945.044	5044.63
945.35	5037.4
945.657	5013.67
945.963	4979.77
946.269	4947.68
946.575	4929.38
946.881	4960.79
947.187	4906.55
947.493	4885.08
947.799	4835.82
948.105	4828.81
948.41	4812.77
948.716	4797.18
949.022	4756.95
949.327	4754.24
949.633	4725.54
949.938	4688.48
950.244	4718.99
950.549	4646.22
950.854	4627.24
951.16	4611.19
951.465	4598.09
951.77	4570.97
952.075	4563.51
952.38	4532.78
952.685	4538.43
952.99	4477.41
953.294	4502.27
953.599	4426.56
953.904	4477.18
954.209	4415.27
954.513	4420.01
954.818	4384.53
955.122	4368.71
955.426	4362.16
955.731	4344.76
956.035	4313.35
956.339	4269.05
956.643	4289.39
956.948	4239
957.252	4258.21
957.556	4221.15
957.86	4164.65
958.163	4173.69
958.467	4165.55
958.771	4191.32
959.075	4160.58
959.378	4112.9
959.682	4143.86
959.985	4054.37
960.289	4073.35
960.592	4030.42
960.896	4075.61
961.199	3976.18
961.502	3995.39
961.805	4013.47
962.108	3904.54
962.411	3900.48
962.714	3950.42
963.017	3888.27
963.32	3902.06
963.623	3846.47
963.926	3867.03
964.228	3852.12
964.531	3778.67
964.833	3814.6
965.136	3746.81
965.438	3760.37
965.741	3698.45
966.043	3730.31
966.345	3722.4
966.648	3700.26
966.95	3665.68
967.252	3649.64
967.554	3615.74
967.856	3658.67
968.158	3592.46
968.46	3590.65
968.761	3573.03
969.063	3580.94
969.365	3580.71
969.666	3544.33
969.968	3527.83
970.269	3513.59
970.571	3509.07
970.872	3516.08
971.174	3453.93
971.475	3467.95
971.776	3425.01
972.077	3414.84
972.378	3384.78
972.679	3389.08
972.98	3405.12
973.281	3335.97
973.582	3368.97
973.883	3338.23
974.183	3312.92
974.484	3280.61
974.785	3265.69
975.085	3272.02
975.386	3261.62
975.686	3251.23
975.986	3275.86
976.287	3236.31
976.587	3214.17
976.887	3152.7
977.187	3177.78
977.487	3142.08
977.787	3141.17
978.087	3098.69
978.387	3135.07
978.687	3135.52
978.987	3087.84
979.286	3102.08
979.586	3061.85
979.885	3037.67
980.185	3041.52
980.484	3039.48
980.784	3040.84
981.083	2980.95
981.382	2945.25
981.682	2968.3
981.981	2948.19
982.28	2959.03
982.579	2928.52
982.878	2921.52
983.177	2878.13
983.475	2886.49
983.774	2851.24
984.073	2849.88
984.372	2831.35
984.67	2851.92
984.969	2857.57
985.267	2836.78
985.566	2814.86
985.864	2796.32
986.162	2780.51
986.461	2760.62
986.759	2760.62
987.057	2754.52
987.355	2761.07
987.653	2686.05
987.951	2718.36
988.249	2670.9
988.547	2667.74
988.844	2659.61
989.142	2649.44
989.44	2644.46
989.737	2649.44
990.035	2631.81
990.332	2590
990.63	2584.13
990.927	2569.89
991.224	2575.54
991.521	2574.86
991.819	2529.67
992.116	2546.39
992.413	2533.51
992.71	2511.36
993.006	2492.6
993.303	2517.01
993.6	2494.64
993.897	2455.09
994.193	2475.88
994.49	2446.05
994.787	2448.09
995.083	2406.96
995.379	2427.97
995.676	2382.55
995.972	2401.53
996.268	2367.64
996.565	2373.29
996.861	2358.14
997.157	2342.78
997.453	2293.74
997.749	2313.63
998.044	2307.07
998.34	2296
998.636	2279.95
998.932	2251.93
999.227	2252.84
999.523	2244.02
999.818	2227.53
1000.114	2192.5
1000.409	2183.91
1000.704	2190.24
1001	2177.81
1001.295	2177.36
1001.59	2139.39
1001.885	2164.48
1002.18	2131.94
1002.475	2127.87
1002.77	2116.79
1003.065	2079.73
1003.359	2090.35
1003.654	2078.6
1003.949	2078.6
1004.243	2068.89
1004.538	2033.86
1004.832	2022.56
1005.127	2037.7
1005.421	2014.88
1005.715	1997.02
1006.009	2026.85
1006.304	1967.87
1006.598	1972.17
1006.892	1962
1007.186	1975.33
1007.48	1922.9
1007.773	1918.83
1008.067	1913.86
1008.361	1907.53
1008.655	1909.34
1008.948	1887.2
1009.242	1870.93
1009.535	1851.49
1009.829	1834.09
1010.122	1860.08
1010.415	1799.97
1010.708	1838.84
1011.001	1812.4
1011.295	1810.59
1011.588	1806.97
1011.881	1786.63
1012.173	1763.36
1012.466	1771.72
1012.759	1773.98
1013.052	1753.19
1013.344	1733.08
1013.637	1750.7
1013.93	1705.28
1014.222	1694.66
1014.514	1693.98
1014.807	1670.93
1015.099	1628.9
1015.391	1632.06
1015.683	1640.2
1015.976	1624.38
1016.268	1618.73
1016.56	1618.95
1016.851	1592.29
1017.143	1622.8
1017.435	1596.13
1017.727	1575.79
1018.018	1591.16
1018.31	1542.57
1018.602	1578.05
1018.893	1517.71
1019.185	1531.27
1019.476	1532.4
1019.767	1506.64
1020.058	1505.74
1020.35	1507.32
1020.641	1493.76
1020.932	1498.05
1021.223	1450.37
1021.514	1460.99
1021.804	1433.65
1022.095	1430.03
1022.386	1428.23
1022.677	1381.45
1022.967	1407.89
1023.258	1397.04
1023.548	1368.11
1023.839	1360.66
1024.129	1366.98
1024.419	1329.24
1024.709	1333.99
1025	1310.71
1025.29	1323.6
1025.58	1299.87
1025.87	1317.95
1026.16	1275.69
1026.449	1307.32
1026.739	1293.77
1027.029	1255.35
1027.319	1288.12
1027.608	1265.07
1027.898	1260.77
1028.187	1251.73
1028.477	1212.64
1028.766	1229.59
1029.055	1226.42
1029.344	1227.1
1029.634	1184.16
1029.923	1183.49
1030.212	1188.46
1030.501	1210.6
1030.79	1184.16
1031.078	1149.81
1031.367	1159.53
1031.656	1165.86
1031.945	1130.61
1032.233	1159.31
1032.522	1115.92
1032.81	1117.95
1033.099	1138.74
1033.387	1105.97
1033.675	1115.69
1033.963	1089.93
1034.251	1085.64
1034.54	1070.49
1034.828	1071.17
1035.116	1072.53
1035.403	1061.68
1035.691	1068.01
1035.979	1034.34
1036.267	1050.38
1036.554	1017.16
1036.842	1029.82
1037.129	1037.05
1037.417	1018.52
1037.704	1016.03
1037.992	993.21
1038.279	1000.44
1038.566	977.84
1038.853	977.84
1039.14	977.84
