Data from hue_110_FLMS001491_00077.txt Node
Date: Tue Feb 07 17:01:48 GMT 2017
User: dcchb
Spectrometer: FLMS00149
Trigger mode: 0
Integration Time (sec): 2.000000E-2
Scans to average: 10
Electric dark correction enabled: true
Nonlinearity correction enabled: false
Boxcar width: 0
XAxis mode: Wavelengths
Number of Pixels in Spectrum: 2048
>>>>>Begin Spectral Data<<<<<
341.393	-8.95
341.776	-8.95
342.16	-8.95
342.543	-70.42
342.927	-84.66
343.31	-60.48
343.693	-76.75
344.077	-60.48
344.46	-76.75
344.843	-53.02
345.226	-34.94
345.61	-34.49
345.993	-13.7
346.376	-6.92
346.759	15.23
347.142	19.97
347.525	41.44
347.908	59.29
348.291	61.55
348.674	97.71
349.057	122.34
349.44	135
349.823	147.88
350.206	160.31
350.588	196.69
350.971	206.18
351.354	208.67
351.737	228.55
352.119	258.16
352.502	250.7
352.884	261.32
353.267	294.09
353.65	300.87
354.032	297.25
354.414	296.57
354.797	314.65
355.179	307.87
355.562	317.59
355.944	349.45
356.326	330.7
356.709	316.91
357.091	335.22
357.473	337.48
357.855	349.68
358.238	319.62
358.62	348.1
359.002	338.83
359.384	339.96
359.766	347.19
360.148	336.12
360.53	339.51
360.912	360.3
361.294	342.45
361.676	309.46
362.057	305.16
362.439	322.11
362.821	314.43
363.203	326.63
363.584	333.41
363.966	339.28
364.348	339.51
364.729	345.16
365.111	306.29
365.493	314.88
365.874	330.02
366.256	294.09
366.637	318.95
367.019	327.53
367.4	334.99
367.781	323.24
368.163	320.53
368.544	307.42
368.925	316.46
369.306	332.73
369.688	298.83
370.069	315.33
370.45	306.97
370.831	327.31
371.212	333.64
371.593	328.89
371.974	308.78
372.355	320.53
372.736	316.23
373.117	333.18
373.498	312.84
373.879	319.4
374.26	323.01
374.641	330.47
375.021	305.61
375.402	306.29
375.783	325.73
376.163	314.88
376.544	323.01
376.925	344.93
377.305	339.96
377.686	322.79
378.066	343.13
378.447	298.16
378.827	336.8
379.208	329.57
379.588	334.31
379.968	327.08
380.349	349
380.729	353.97
381.109	337.7
381.489	336.35
381.87	332.28
382.25	362.56
382.63	356.91
383.01	356.69
383.39	327.08
383.77	346.74
384.15	332.51
384.53	332.05
384.91	348.55
385.29	364.59
385.67	335.67
386.049	343.35
386.429	368.89
386.809	355.1
387.189	369.79
387.568	372.96
387.948	387.87
388.328	374.09
388.707	379.74
389.087	372.28
389.466	392.62
389.846	375.67
390.225	372.96
390.605	383.8
390.984	378.15
391.363	383.8
391.743	377.7
392.122	389.91
392.501	389
392.881	392.39
393.26	390.58
393.639	383.8
394.018	390.13
394.397	390.81
394.776	386.74
395.155	394.2
395.534	386.29
395.913	388.32
396.292	393.97
396.671	417.02
397.05	415.89
397.429	403.92
397.808	397.36
398.186	418.15
398.565	392.62
398.944	412.96
399.323	418.83
399.701	424.93
400.08	393.07
400.458	424.48
400.837	413.86
401.215	437.36
401.594	427.87
401.972	424.25
402.351	418.6
402.729	443.69
403.107	435.1
403.486	441.66
403.864	443.46
404.242	457.7
404.62	449.56
404.999	442.11
405.377	463.8
405.755	463.8
406.133	457.25
406.511	461.99
406.889	456.12
407.267	449.11
407.645	468.1
408.023	479.85
408.401	482.33
408.779	465.38
409.156	486.63
409.534	471.48
409.912	484.37
410.29	516.68
410.667	493.86
411.045	497.25
411.422	490.02
411.8	488.21
412.178	511.94
412.555	527.98
412.933	520.07
413.31	531.6
413.687	532.73
414.065	547.64
414.442	533.18
414.819	514.87
415.197	521.65
415.574	530.24
415.951	535.44
416.328	553.52
416.705	563.01
417.082	563.69
417.46	557.36
417.837	559.17
418.214	551.93
418.591	558.04
418.967	584.7
419.344	551.26
419.721	610.69
420.098	578.37
420.475	578.83
420.852	593.06
421.228	599.17
421.605	622.22
421.982	615.89
422.358	584.02
422.735	600.07
423.111	610.92
423.488	611.82
423.864	614.53
424.241	633.97
424.617	623.12
424.994	599.62
425.37	673.29
425.746	623.12
426.123	644.36
426.499	668.99
426.875	643.01
427.251	647.07
427.627	684.59
428.003	673.74
428.379	695.66
428.756	671.71
429.132	684.36
429.507	702.89
429.883	714.19
430.259	712.16
430.635	715.77
431.011	754.87
431.387	737.24
431.763	753.74
432.138	741.31
432.514	735.88
432.89	729.56
433.265	736.79
433.641	763
434.016	776.11
434.392	781.08
434.767	801.65
435.143	811.81
435.518	786.96
435.894	808.43
436.269	818.59
436.644	819.27
437.02	827.86
437.395	855.88
437.77	833.51
438.145	862.43
438.52	861.76
438.895	879.84
439.271	878.25
439.646	887.97
440.021	886.84
440.395	886.39
440.77	875.54
441.145	910.12
441.52	922.55
441.895	928.42
442.27	925.71
442.645	943.34
443.019	932.26
443.394	941.08
443.769	939.72
444.143	960.51
444.518	988.08
444.892	983.34
445.267	994.41
445.641	998.7
446.016	982.43
446.39	1014.52
446.764	990.34
447.139	982.43
447.513	1031.02
447.887	1026.05
448.262	1043
448.636	1027.4
449.01	1050.68
449.384	1065.59
449.758	1052.71
450.132	1054.07
450.506	1075.08
450.88	1045.03
451.254	1107.17
451.628	1103.78
452.002	1125.03
452.376	1107.17
452.75	1156.66
453.123	1113.05
453.497	1150.79
453.871	1159.6
454.244	1188.3
454.618	1184.01
454.992	1201.18
455.365	1184.69
455.739	1234.18
456.112	1242.54
456.486	1252.03
456.859	1272.37
457.232	1267.62
457.606	1307.62
457.979	1295.42
458.352	1304.68
458.725	1346.94
459.099	1352.37
459.472	1365.7
459.845	1393.72
460.218	1404.34
460.591	1440.95
460.964	1402.08
461.337	1477.33
461.71	1446.6
462.083	1482.76
462.456	1500.38
462.829	1530.21
463.201	1540.84
463.574	1578.8
463.947	1579.7
464.32	1619.7
464.692	1620.83
465.065	1651.79
465.438	1649.53
465.81	1689.98
466.183	1705.35
466.555	1746.93
466.928	1770.43
467.3	1783.09
467.672	1798
468.045	1868.28
468.417	1881.62
468.789	1888.17
469.161	1920.71
469.534	1948.73
469.906	2010.2
470.278	2042.29
470.65	2103.08
471.022	2120.71
471.394	2135.4
471.766	2216.75
472.138	2235.73
472.51	2275.96
472.882	2331.77
473.253	2375.84
473.625	2426.69
473.997	2472.34
474.369	2470.75
474.74	2536.29
475.112	2599.34
475.484	2687.47
475.855	2725.44
476.227	2769.05
476.598	2874.13
476.97	2903.29
477.341	2977.63
477.713	3099.44
478.084	3122.71
478.455	3232.99
478.827	3311.86
479.198	3398.64
479.569	3459.43
479.94	3549.14
480.311	3654.45
480.682	3753.66
481.053	3847.44
481.424	3957.04
481.795	4036.36
482.166	4207.88
482.537	4298.73
482.908	4407.43
483.279	4467.31
483.65	4574.2
484.021	4741.88
484.391	4836.79
484.762	4979.84
485.133	5039.27
485.503	5200.17
485.874	5330.79
486.244	5491.69
486.615	5682.2
486.985	5758.58
487.356	5898.91
487.726	6007.16
488.097	6213.25
488.467	6334.38
488.837	6483.53
489.207	6633.58
489.578	6792.45
489.948	6919.45
490.318	7110.63
490.688	7155.6
491.058	7432.21
491.428	7542.94
491.798	7729.83
492.168	7970.95
492.538	7978.41
492.908	8184.95
493.278	8347.44
493.648	8432.41
494.017	8619.29
494.387	8756.01
494.757	8857.93
495.126	9080.75
495.496	9211.14
495.866	9310.12
496.235	9511.25
496.605	9654.29
496.974	9763.9
497.344	9878.24
497.713	9979.71
498.082	10188.97
498.452	10275.75
498.821	10320.94
499.19	10425.8
499.559	10703.31
499.928	10754.38
500.298	10901.49
500.667	11024.65
501.036	11043.86
501.405	11249.96
501.774	11316.17
502.143	11439.33
502.512	11496.28
502.88	11701.25
503.249	11730.4
503.618	11866.89
503.987	11939.43
504.356	11974.23
504.724	12116.6
505.093	12200.89
505.462	12279.08
505.83	12418.29
506.199	12477.27
506.567	12754.33
506.936	12745.96
507.304	12877.03
507.672	12979.18
508.041	12951.16
508.409	13147.08
508.777	13264.37
509.145	13351.82
509.514	13274.76
509.882	13391.37
510.25	13469.11
510.618	13596.56
510.986	13630.91
511.354	13735.32
511.722	13815.77
512.09	13953.16
512.458	13868.87
512.826	14059.6
513.193	14065.93
513.561	14176.21
513.929	14228.64
514.297	14347.96
514.664	14460.5
515.032	14465.69
515.4	14460.95
515.767	14578.01
516.135	14580.04
516.502	14514.28
516.869	14761.73
517.237	14799.92
517.604	14713.14
517.972	14817.77
518.339	14879.47
518.706	14942.97
519.073	15027.94
519.44	15037.43
519.808	15272.9
520.175	15120.59
520.542	15209.4
520.909	15297.54
521.276	15300.7
521.643	15360.13
522.009	15479.45
522.376	15449.17
522.743	15570.3
523.11	15615.27
523.477	15840.12
523.843	15743.4
524.21	15969.83
524.577	15940
524.943	16011.19
525.31	15968.7
525.676	16048.02
526.043	16227
526.409	16187.68
526.776	16311.75
527.142	16170.51
527.508	16336.6
527.874	16384.74
528.241	16386.09
528.607	16424.74
528.973	16435.58
529.339	16448.69
529.705	16492.98
530.071	16580.21
530.437	16581.12
530.803	16602.59
531.169	16665.18
531.535	16528.01
531.901	16490.95
532.267	16531.4
532.632	16639.2
532.998	16642.13
533.364	16685.97
533.73	16621.57
534.095	16632.19
534.461	16697.72
534.826	16669.25
535.192	16749.93
535.557	16691.85
535.923	16608.69
536.288	16680.78
536.653	16667.22
537.019	16593.32
537.384	16556.71
537.749	16608.01
538.114	16561.46
538.479	16505.87
538.845	16430.61
539.21	16427.22
539.575	16536.83
539.94	16453.44
540.305	16423.16
540.67	16399.65
541.034	16482.59
541.399	16405.98
541.764	16377.96
542.129	16361.24
542.494	16348.58
542.858	16383.16
543.223	16306.32
543.587	16276.72
543.952	16211.64
544.316	16207.57
544.681	16063.62
545.045	16245.53
545.41	16224.97
545.774	16083.73
546.138	16081.7
546.503	16078.53
546.867	15951.98
547.231	16070.62
547.595	16092.09
547.959	16026.56
548.324	16006.44
548.688	15983.17
549.052	15926.22
549.416	15785.88
549.779	15929.61
550.143	15858.42
550.507	15837.86
550.871	15852.1
551.235	15857.07
551.599	15879.89
551.962	15903.17
552.326	15751.31
552.689	15808.26
553.053	15683.74
553.417	15682.16
553.78	15859.33
554.143	15778.88
554.507	15703.17
554.87	15667.24
555.234	15784.3
555.597	15615.04
555.96	15731.65
556.323	15597.41
556.686	15611.43
557.05	15647.13
557.413	15659.33
557.776	15717.86
558.139	15682.38
558.502	15639
558.865	15663.63
559.228	15706.79
559.59	15687.81
559.953	15652.55
560.316	15672.44
560.679	15697.07
561.041	15746.34
561.404	15700.46
561.767	15764.64
562.129	15782.04
562.492	15786.56
562.854	15733.91
563.217	15670.63
563.579	15740.24
563.941	15787.47
564.304	15859.78
564.666	15850.97
565.028	15868.14
565.39	15879.89
565.753	15994.47
566.115	15935.94
566.477	15970.74
566.839	16022.26
567.201	16097.74
567.563	15998.76
567.925	16078.53
568.287	16135.25
568.648	16023.39
569.01	16112.43
569.372	16091.41
569.734	16043.28
570.095	16137.06
570.457	16197.85
570.819	16257.74
571.18	16186.55
571.542	16206.44
571.903	16178.42
572.265	16282.37
572.626	16299.77
572.987	16304.06
573.349	16252.09
573.71	16248.92
574.071	16382.48
574.432	16355.36
574.794	16526.43
575.155	16341.35
575.516	16386.09
575.877	16447.34
576.238	16373.44
576.599	16488.46
576.96	16467
577.32	16456.6
577.681	16464.28
578.042	16550.84
578.403	16544.51
578.763	16448.69
579.124	16504.28
579.485	16544.73
579.845	16640.33
580.206	16539.31
580.566	16609.14
580.927	16446.66
581.287	16578.18
581.648	16511.52
582.008	16545.41
582.368	16463.15
582.728	16588.58
583.089	16507.22
583.449	16429.94
583.809	16537.5
584.169	16504.06
584.529	16463.15
584.889	16477.62
585.249	16365.76
585.609	16365.98
585.969	16313.1
586.329	16272.88
586.688	16434.23
587.048	16401.46
587.408	16373.67
587.768	16377.06
588.127	16454.57
588.487	16238.98
588.846	16384.96
589.206	16273.1
589.565	16349.03
589.925	16279.66
590.284	16271.07
590.643	16332.08
591.003	16362.82
591.362	16327.57
591.721	16305.64
592.08	16266.32
592.44	16305.87
592.799	16300.9
593.158	16132.99
593.517	16259.09
593.876	16234.69
594.235	16164.86
594.593	16184.97
594.952	16342.03
595.311	16174.57
595.67	16172.99
596.029	16300.45
596.387	16307
596.746	16255.25
597.104	16153.11
597.463	16225.42
597.822	16318.3
598.18	16232.65
598.538	16138.19
598.897	16244.18
599.255	16117.18
599.613	16390.84
599.972	16167.57
600.33	16230.17
600.688	16110.17
601.046	16236.95
601.404	16330.28
601.762	16173.44
602.12	16230.84
602.478	16155.59
602.836	16267.91
603.194	16160.34
603.552	16155.82
603.91	16061.58
604.268	16267.68
604.625	16134.35
604.983	16135.71
605.341	16084.41
605.698	16165.76
606.056	16225.65
606.413	16131.64
606.771	16234.23
607.128	16248.92
607.485	16236.04
607.843	16138.19
608.2	16333.21
608.557	16254.57
608.914	16224.52
609.272	16342.93
609.629	16346.32
609.986	16472.19
610.343	16332.08
610.7	16435.81
611.057	16401.91
611.414	16384.96
611.771	16354.68
612.127	16417.05
612.484	16436.94
612.841	16440.33
613.198	16405.76
613.554	16320.79
613.911	16491.4
614.267	16473.55
614.624	16455.92
614.98	16463.61
615.337	16513.1
615.693	16515.58
616.05	16540.89
616.406	16550.16
616.762	16551.97
617.118	16538.63
617.475	16555.58
617.831	16504.96
618.187	16638.74
618.543	16602.59
618.899	16685.97
619.255	16669.93
619.611	16685.52
619.967	16745.63
620.323	16772.07
620.678	16626.31
621.034	16632.42
621.39	16680.78
621.746	16571.85
622.101	16828.12
622.457	16684.84
622.812	16669.25
623.168	16662.02
623.523	16731.85
623.879	16753.54
624.234	16628.35
624.589	16695.92
624.945	16703.83
625.3	16733.66
625.655	16787.44
626.01	16716.26
626.365	16783.82
626.72	16744.28
627.075	16643.71
627.43	16699.53
627.785	16616.6
628.14	16705.63
628.495	16673.09
628.85	16605.52
629.205	16636.94
629.559	16769.59
629.914	16616.15
630.269	16597.16
630.623	16569.82
630.978	16522.81
631.332	16614.79
631.687	16586.54
632.041	16489.82
632.396	16547.67
632.75	16409.14
633.104	16524.4
633.459	16425.19
633.813	16437.39
634.167	16371.18
634.521	16340.67
634.875	16396.26
635.229	16370.95
635.583	16288.7
635.937	16254.12
636.291	16309.94
636.645	16341.58
636.999	16242.37
637.352	16272.88
637.706	16131.41
638.06	16290.28
638.413	16188.13
638.767	16167.12
639.121	16107.23
639.474	16092.77
639.828	16149.26
640.181	16087.12
640.534	16108.81
640.888	15984.07
641.241	15994.69
641.594	15978.65
641.947	15962.6
642.301	16013.22
642.654	16005.99
643.007	15908.59
643.36	15959.89
643.713	15923.06
644.066	15999.66
644.419	15877.63
644.771	15854.13
645.124	15786.79
645.477	15681.93
645.83	15539.56
646.182	15402.84
646.535	15440.13
646.888	15432.9
647.24	15396.29
647.593	15460.7
647.945	15420.47
648.298	15417.31
648.65	15384.76
649.002	15297.08
649.355	15452.33
649.707	15402.39
650.059	15452.79
650.411	15672.67
650.763	15736.39
651.115	15844.64
651.467	15775.72
651.819	15786.56
652.171	15769.16
652.523	15693.46
652.875	15655.72
653.227	15653.01
653.578	15763.29
653.93	15722.84
654.282	15627.7
654.633	15731.2
654.985	15699.78
655.337	15749.5
655.688	15660.92
656.039	15809.61
656.391	15633.57
656.742	15693.23
657.094	15739.11
657.445	15685.1
657.796	15693.01
658.147	15614.82
658.498	15743.85
658.849	15698.2
659.2	15755.15
659.551	15730.74
659.902	15716.73
660.253	15730.29
660.604	15789.27
660.955	15701.82
661.306	15780.69
661.656	15767.58
662.007	15743.4
662.358	15838.76
662.708	15760.12
663.059	15763.96
663.409	15698.88
663.76	15754.25
664.11	15754.92
664.461	15733.23
664.811	15780.46
665.161	15837.86
665.511	15661.37
665.862	15714.02
666.212	15778.65
666.562	15786.11
666.912	15761.25
667.262	15740.69
667.612	15741.14
667.962	15881.7
668.312	15757.64
668.662	15921.93
669.011	15711.54
669.361	15686.45
669.711	15725.32
670.06	15718.77
670.41	15676.28
670.76	15605.78
671.109	15726.45
671.459	15675.15
671.808	15626.34
672.157	15709.5
672.507	15567.13
672.856	15638.77
673.205	15653.46
673.554	15634.93
673.904	15620.46
674.253	15658.43
674.602	15691.65
674.951	15367.36
675.3	15330.98
675.649	15584.99
675.998	15454.82
676.346	15526.46
676.695	15584.53
677.044	15426.8
677.393	15432
677.741	15427.02
678.09	15347.25
678.438	15390.64
678.787	15453.69
679.135	15449.4
679.484	15342.73
679.832	15320.59
680.181	15206.92
680.529	15333.69
680.877	15253.92
681.225	15138.22
681.573	15363.52
681.922	15233.13
682.27	15145.68
682.618	15193.81
682.966	15137.09
683.314	15117.88
683.661	14987.49
684.009	15016.87
684.357	14887.83
684.705	14930.31
685.053	14957.88
685.4	14921.5
685.748	14829.07
686.095	14764.67
686.443	14813.71
686.79	14698.91
687.138	14740.49
687.485	14748.85
687.832	14721.73
688.18	14637.89
688.527	14528.74
688.874	14546.14
689.221	14568.74
689.568	14478.8
689.915	14425.69
690.262	14454.17
690.609	14358.8
690.956	14249.43
691.303	14356.09
691.65	14272.7
691.997	14234.29
692.344	14174.4
692.69	14058.7
693.037	14059.6
693.383	13947.74
693.73	13979.15
694.077	13983.22
694.423	13926.95
694.769	13877.91
695.116	13736.45
695.462	13779.84
695.808	13768.76
696.155	13702.32
696.501	13634.75
696.847	13576.68
697.193	13514.98
697.539	13605.38
697.885	13459.39
698.231	13378.04
698.577	13431.6
698.923	13302.79
699.269	13264.14
699.614	13134.88
699.96	13093.07
700.306	13077.48
700.651	13077.48
700.997	12954.55
701.342	13004.94
701.688	12944.83
702.033	12933.08
702.379	12877.49
702.724	12812.86
703.069	12869.12
703.415	12695.12
703.76	12673.42
704.105	12771.27
704.45	12657.83
704.795	12581.67
705.14	12558.85
705.485	12582.13
705.83	12462.58
706.175	12506.65
706.52	12405.41
706.865	12379.42
707.209	12280.67
707.554	12270.95
707.899	12274.56
708.243	12234.34
708.588	12159.99
708.932	12078.64
709.277	12045.19
709.621	11977.4
709.966	11974.46
710.31	12025.08
710.654	11879.32
710.998	11978.3
711.342	11889.72
711.687	11904.18
712.031	11789.38
712.375	11783.28
712.719	11770.62
713.063	11726.1
713.407	11791.64
713.75	11696.73
714.094	11684.3
714.438	11641.36
714.782	11644.52
715.125	11631.19
715.469	11668.48
715.812	11585.99
716.156	11487.47
716.499	11463.96
716.843	11502.38
717.186	11402.72
717.53	11501.93
717.873	11472.1
718.216	11494.47
718.559	11397.53
718.902	11356.85
719.246	11398.66
719.589	11324.08
719.932	11306.68
720.275	11338.77
720.617	11300.13
720.96	11253.35
721.303	11205.44
721.646	11228.49
721.989	11181.49
722.331	11242.05
722.674	11171.09
723.016	11214.71
723.359	11213.12
723.701	11199.34
724.044	11173.8
724.386	11056.52
724.729	11098.32
725.071	11181.26
725.413	11088.15
725.755	11103.52
726.097	11029.4
726.439	11028.5
726.782	10999.12
727.124	11085.67
727.465	11001.38
727.807	11031.43
728.149	11057.87
728.491	10980.59
728.833	10992.34
729.175	11026.91
729.516	10932.68
729.858	10878.44
730.199	10959.8
730.541	10906.69
730.882	10892.45
731.224	10950.53
731.565	10939.23
731.906	10877.31
732.248	10952.34
732.589	10883.19
732.93	10900.14
733.271	10840.25
733.612	10961.6
733.953	10877.09
734.294	10896.07
734.635	10827.6
734.976	10868.05
735.317	10832.12
735.658	10807.71
735.999	10822.4
736.339	10889.06
736.68	10910.31
737.021	10897.43
737.361	10827.37
737.702	10879.57
738.042	10887.71
738.383	10833.7
738.723	10940.14
739.063	10879.35
739.404	10939.23
739.744	10911.44
740.084	10900.14
740.424	11003.41
740.764	10887.93
741.104	10985.33
741.444	11000.93
741.784	10974.49
742.124	10957.31
742.464	11047.93
742.804	10968.61
743.143	11115.72
743.483	11114.37
743.823	11058.33
744.162	11116.18
744.502	11107.14
744.841	11135.84
745.181	11251.77
745.52	11204.08
745.86	11274.36
746.199	11334.93
746.538	11289.05
746.877	11430.52
747.216	11467.13
747.556	11477.3
747.895	11603.85
748.234	11550.52
748.573	11607.24
748.911	11778.53
749.25	11664.64
749.589	11829.83
749.928	11956.38
750.267	12039.09
750.605	12119.31
750.944	12162.93
751.283	12210.61
751.621	12335.13
751.96	12404.73
752.298	12432.98
752.636	12584.61
752.975	12613.31
753.313	12720.88
753.651	12869.35
753.989	12938.5
754.327	13119.06
754.666	13270.02
755.004	13392.95
755.342	13465.72
755.679	13549.33
756.017	13637.92
756.355	13894.18
756.693	14017.12
757.031	14107.06
757.368	14258.92
757.706	14311.8
758.044	14508.4
758.381	14781.62
758.719	14784.55
759.056	14957.66
759.394	15136.41
759.731	15163.53
760.068	15380.92
760.405	15504.99
760.743	15656.17
761.08	15843.28
761.417	15921.25
761.754	16108.14
762.091	16292.31
762.428	16448.69
762.765	16596.26
763.102	16862.47
763.438	16977.72
763.775	17041.44
764.112	17243.47
764.449	17524.6
764.785	17481.21
765.122	17599.17
765.458	17775.44
765.795	17955.54
766.131	18041.19
766.467	18190.34
766.804	18280.73
767.14	18323.44
767.476	18525.47
767.812	18598.24
768.148	18714.62
768.485	18809.53
768.821	18922.53
769.157	19029.64
769.492	19198
769.828	19336.98
770.164	19315.28
770.5	19449.29
770.836	19626.01
771.171	19506.92
771.507	19687.25
771.842	19759.11
772.178	19838.21
772.513	19855.83
772.849	19897.87
773.184	20030.97
773.519	20051.53
773.855	20186.67
774.19	20148.48
774.525	20233
774.86	20359.55
775.195	20411.98
775.53	20394.8
775.865	20381.7
776.2	20289.95
776.535	20315.48
776.87	20335.14
777.205	20335.37
777.539	20426.21
777.874	20563.16
778.209	20408.36
778.543	20435.71
778.878	20404.29
779.212	20469.83
779.547	20377.4
779.881	20592.09
780.215	20557.74
780.55	20604.97
780.884	20557.28
781.218	20372.88
781.552	20476.83
781.886	20416.5
782.22	20438.19
782.554	20430.28
782.888	20319.1
783.222	20226.45
783.556	20353.9
783.889	20231.19
784.223	20131.98
784.557	20159.33
784.89	20233.23
785.224	20136.73
785.557	20152.55
785.891	20131.08
786.224	20040.01
786.558	20061.03
786.891	19947.13
787.224	19945.55
787.557	19861.03
787.891	19927.47
788.224	19862.61
788.557	19805.67
788.89	19803.18
789.223	19868.26
789.556	19663.52
789.888	19757.76
790.221	19656.74
790.554	19529.74
790.887	19606.8
791.219	19544.2
791.552	19536.29
791.884	19441.16
792.217	19437.54
792.549	19388.28
792.882	19412.46
793.214	19286.81
793.546	19370.87
793.879	19224.21
794.211	19182.41
794.543	19282.29
794.875	19103.09
795.207	19225.57
795.539	19087.72
795.871	19110.32
796.203	18868.74
796.535	18959.36
796.867	18818.8
797.198	18805.69
797.53	18897.21
797.862	18711.46
798.193	18719.14
798.525	18671.68
798.856	18515.53
799.188	18444.12
799.519	18372.93
799.85	18412.03
800.182	18334.29
800.513	18457.68
800.844	18213.17
801.175	18382.65
801.506	18270.79
801.837	18071.93
802.168	18125.71
802.499	18109.67
802.83	17999.84
803.161	17999.16
803.491	17987.18
803.822	17931.82
804.153	17876.68
804.483	17792.84
804.814	17721.43
805.145	17680.3
805.475	17640.98
805.805	17580.19
806.136	17587.19
806.466	17653.63
806.796	17575.22
807.126	17382.23
807.457	17450.02
807.787	17410.93
808.117	17212.74
808.447	17359.63
808.777	17303.81
809.107	17181.33
809.436	17128.9
809.766	17178.62
810.096	16989.69
810.426	17025.17
810.755	16988.11
811.085	17042.12
811.414	17023.37
811.744	16875.12
812.073	16859.53
812.403	16869.47
812.732	16735.01
813.061	16761.9
813.39	16711.96
813.719	16563.72
814.049	16651.85
814.378	16612.76
814.707	16576.15
815.036	16586.09
815.365	16478.3
815.693	16402.82
816.022	16386.09
816.351	16394
816.68	16245.31
817.008	16274.91
817.337	16311.97
817.665	16134.58
817.994	16245.31
818.322	16171.41
818.651	16081.02
818.979	16038.99
819.307	16135.25
819.636	16095.71
819.964	16084.63
820.292	16034.47
820.62	15996.27
820.948	15919.21
821.276	16043.28
821.604	15851.19
821.932	16021.13
822.259	15922.15
822.587	15946.56
822.915	15912.21
823.243	15903.17
823.57	15993.56
823.898	15899.55
824.225	15804.87
824.553	15887.35
824.88	15892.55
825.207	15941.59
825.535	15892.1
825.862	16004.41
826.189	15885.09
826.516	15973.9
826.843	16021.13
827.17	15883.06
827.497	15953.11
827.824	15942.26
828.151	15958.54
828.478	15885.09
828.805	16049.83
829.131	15859.78
829.458	15906.11
829.785	15893
830.111	15971.64
830.438	16015.03
830.764	15989.27
831.09	15958.54
831.417	15842.15
831.743	15922.38
832.069	15928.93
832.395	15892.32
832.722	15949.27
833.048	15840.8
833.374	15911.53
833.7	15722.61
834.026	15768.71
834.351	15820.46
834.677	15743.85
835.003	15784.3
835.329	15753.34
835.654	15782.95
835.98	15690.07
836.306	15757.18
836.631	15598.09
836.956	15716.28
837.282	15678.99
837.607	15619.11
837.932	15571.65
838.258	15597.41
838.583	15596.28
838.908	15479.45
839.233	15461.15
839.558	15448.72
839.883	15380.25
840.208	15366.01
840.533	15297.99
840.858	15285.33
841.182	15291.66
841.507	15319.68
841.832	15224.54
842.156	15273.58
842.481	15192.23
842.805	15155.17
843.13	15160.59
843.454	15136.18
843.778	15077.65
844.103	15001.72
844.427	14962.86
844.751	14954.49
845.075	14922.18
845.399	14853.71
845.723	14857.32
846.047	14836.76
846.371	14695.07
846.695	14709.98
847.019	14621.4
847.343	14574.39
847.666	14451.46
847.99	14438.58
848.313	14421.17
848.637	14287.62
848.96	14270.22
849.284	14234.74
849.607	14176.89
849.931	14107.51
850.254	14007.85
850.577	13996.55
850.9	13858.48
851.223	13845.82
851.546	13812.83
851.869	13732.38
852.192	13711.81
852.515	13627.07
852.838	13552.27
853.161	13631.82
853.483	13512.95
853.806	13396.79
854.129	13461.65
854.451	13403.57
854.774	13288.77
855.096	13296.68
855.419	13225.5
855.741	13129.46
856.063	13143.92
856.385	13173.3
856.708	13056.92
857.03	13005.84
857.352	13038.84
857.674	12939.41
857.996	12954.32
858.318	12874.1
858.64	12830.26
858.961	12847.66
859.283	12772.86
859.605	12687.21
859.926	12769.24
860.248	12717.04
860.57	12652.63
860.891	12722.91
861.212	12602.47
861.534	12571.96
861.855	12551.17
862.176	12520.43
862.498	12496.93
862.819	12464.62
863.14	12395.69
863.461	12385.07
863.782	12369.25
864.103	12429.81
864.424	12281.57
864.745	12378.97
865.065	12220.33
865.386	12247.67
865.707	12186.21
866.027	12163.38
866.348	12227.11
866.668	12159.54
866.989	12080.9
867.309	12068.69
867.63	12137.84
867.95	12007.23
868.27	12015.36
868.59	12085.87
868.91	11960.9
869.23	11908.25
869.55	11881.81
869.87	11923.16
870.19	12015.59
870.51	11958.87
870.83	11942.82
871.15	11826.89
871.469	11745.31
871.789	11951.63
872.109	11780.34
872.428	11796.84
872.748	11814.69
873.067	11711.87
873.386	11748.25
873.706	11788.7
874.025	11713.45
874.344	11683.17
874.663	11666.67
874.982	11626.45
875.301	11611.53
875.62	11610.17
875.939	11571.08
876.258	11522.95
876.577	11520.01
876.896	11503.74
877.214	11458.09
877.533	11483.85
877.852	11430.07
878.17	11496.05
878.489	11456.73
878.807	11435.04
879.125	11449.73
879.444	11354.36
879.762	11348.49
880.08	11381.71
880.398	11353.23
880.716	11333.8
881.034	11292.67
881.352	11284.31
881.67	11160.47
881.988	11190.07
882.306	11159.34
882.624	11151.88
882.941	11126.8
883.259	11049.74
883.577	11096.97
883.894	11049.29
884.212	11045.44
884.529	10987.82
884.846	10937.2
885.164	10967.03
885.481	10945.33
885.798	10914.15
886.115	10838.9
886.432	10825.34
886.75	10864.21
887.067	10874.15
887.383	10781.04
887.7	10781.95
888.017	10727.03
888.334	10740.37
888.651	10647.71
888.967	10688.62
889.284	10583.54
889.6	10550.77
889.917	10457.21
890.233	10549.19
890.55	10464.67
890.866	10405.01
891.182	10383.31
891.498	10381.05
891.815	10296.31
892.131	10394.16
892.447	10259.25
892.763	10230.78
893.079	10222.87
893.395	10185.35
893.71	10212.02
894.026	10136.32
894.342	10104.68
894.657	10054.51
894.973	10002.76
895.289	10039.59
895.604	10049.54
895.92	9997.11
896.235	9898.58
896.55	9852.71
896.865	9832.59
897.181	9802.31
897.496	9740.17
897.811	9702.2
898.126	9691.13
898.441	9632.83
898.756	9648.42
899.071	9520.29
899.386	9647.51
899.7	9517.57
900.015	9513.51
900.33	9395.77
900.644	9382.66
900.959	9403
901.273	9351.93
901.588	9259.73
901.902	9259.73
902.216	9291.59
902.531	9221.99
902.845	9171.6
903.159	9126.17
903.473	9106.96
903.787	9056.57
904.101	9040.3
904.415	9051.6
904.729	9003.92
905.042	8953.52
905.356	8904.03
905.67	8904.26
905.984	8836.01
906.297	8851.15
906.611	8763.02
906.924	8757.37
907.237	8734.32
907.551	8711.49
907.864	8625.62
908.177	8678.27
908.491	8594.21
908.804	8567.54
909.117	8482.8
909.43	8492.29
909.743	8414.33
910.056	8369.13
910.368	8369.81
910.681	8333.65
910.994	8297.72
911.307	8336.36
911.619	8179.08
911.932	8208.23
912.244	8189.47
912.557	8128.01
912.869	8110.61
913.181	8098.85
913.494	8003.72
913.806	8012.98
914.118	7986.09
914.43	7860.22
914.742	7876.71
915.054	7902.7
915.366	7824.29
915.678	7781.35
915.99	7757.85
916.302	7695.48
916.613	7735.02
916.925	7621.35
917.236	7656.83
917.548	7572.99
917.859	7574.12
918.171	7504.97
918.482	7469.72
918.794	7513.11
919.105	7458.87
919.416	7402.83
919.727	7409.16
920.038	7404.41
920.349	7247.8
920.66	7266.33
920.971	7322.15
921.282	7220.01
921.593	7191.08
921.903	7102.04
922.214	7192.44
922.525	7146.56
922.835	7063.63
923.146	7111.76
923.456	7055.04
923.767	7027.24
924.077	6988.6
924.387	6994.48
924.697	6895.95
925.008	6962.61
925.318	6860.7
925.628	6823.41
925.938	6751.55
926.248	6742.96
926.558	6717.2
926.867	6732.79
927.177	6663.86
927.487	6658.44
927.796	6597.43
928.106	6594.49
928.416	6620.25
928.725	6549.07
929.034	6489.41
929.344	6570.53
929.653	6461.84
929.962	6427.71
930.271	6421.38
930.581	6407.83
930.89	6349.07
931.199	6341.61
931.508	6309.75
931.817	6276.76
932.125	6242.18
932.434	6280.37
932.743	6192.01
933.051	6132.13
933.36	6118.79
933.669	6086.03
933.977	6037.44
934.286	6096.65
934.594	6099.59
934.902	6005.12
935.21	6021.85
935.519	6001.73
935.827	5965.8
936.135	5893.26
936.443	5891.91
936.751	5845.58
937.059	5872.92
937.367	5851.46
937.674	5819.59
937.982	5848.74
938.29	5760.39
938.597	5753.15
938.905	5698.01
939.213	5622.54
939.52	5652.14
939.827	5670.67
940.135	5611.01
940.442	5631.35
940.749	5527.85
941.056	5575.98
941.363	5495.08
941.67	5548.19
941.977	5441.07
942.284	5383.67
942.591	5435.42
942.898	5399.04
943.205	5394.29
943.511	5323.33
943.818	5276.78
944.125	5270.68
944.431	5257.12
944.738	5283.79
945.044	5230
945.35	5190.46
945.657	5158.59
945.963	5166.05
946.269	5160.85
946.575	5104.36
946.881	5093.51
947.187	5083.79
947.493	5034.98
947.799	5056.9
948.105	4984.59
948.41	4973.51
948.716	5023.91
949.022	4949.33
949.327	4944.81
949.633	4878.6
949.938	4897.36
950.244	4886.74
950.549	4853.97
950.854	4782.56
951.16	4825.95
951.465	4766.74
951.77	4733.52
952.075	4704.82
952.38	4707.31
952.685	4745.04
952.99	4655.1
953.294	4671.6
953.599	4599.96
953.904	4599.51
954.209	4533.07
954.513	4569.46
954.818	4537.59
955.122	4540.98
955.426	4525.62
955.731	4467.76
956.035	4486.52
956.339	4450.82
956.643	4448.78
956.948	4382.12
957.252	4397.94
957.556	4419.86
957.86	4402
958.163	4351.61
958.467	4331.95
958.771	4294.21
959.075	4292.18
959.378	4326.52
959.682	4263.48
959.985	4250.37
960.289	4248.56
960.592	4171.73
960.896	4158.85
961.199	4148.45
961.502	4136.47
961.805	4122.69
962.108	4117.04
962.411	4086.08
962.714	4041.79
963.017	4013.31
963.32	4057.38
963.623	4040.66
963.926	4052.41
964.228	3975.57
964.531	3986.42
964.833	3959.98
965.136	3916.59
965.438	3913.43
965.741	3865.52
966.043	3872.98
966.345	3871.62
966.648	3842.02
966.95	3845.18
967.252	3792.98
967.554	3785.07
967.856	3766.99
968.158	3742.36
968.46	3702.13
968.761	3696.03
969.063	3721.34
969.365	3713.43
969.666	3688.8
969.968	3655.81
970.269	3643.15
970.571	3679.76
970.872	3633.89
971.174	3540.33
971.475	3592.08
971.776	3536.04
972.077	3533.78
972.378	3577.84
972.679	3536.49
972.98	3529.26
973.281	3473.89
973.582	3470.95
973.883	3446.77
974.183	3499.65
974.484	3390.73
974.785	3418.75
975.085	3404.97
975.386	3430.5
975.686	3390.96
975.986	3373.1
976.287	3368.13
976.587	3317.06
976.887	3292.43
977.187	3315.7
977.487	3263.95
977.787	3267.57
978.087	3247.01
978.387	3234.58
978.687	3238.19
978.987	3224.63
979.286	3190.96
979.586	3178.76
979.885	3168.81
980.185	3121.81
980.484	3128.82
980.784	3139.89
981.083	3119.32
981.382	3051.76
981.682	3073.22
981.981	3061.7
982.28	3048.82
982.579	3061.93
982.878	3060.8
983.177	2999.55
983.475	2995.03
983.774	2988.48
984.073	2992.32
984.372	2966.79
984.67	2952.32
984.969	2954.13
985.267	2917.07
985.566	2872.55
985.864	2881.59
986.162	2869.84
986.461	2839.56
986.759	2846.11
987.057	2816.96
987.355	2795.49
987.653	2790.29
987.951	2795.27
988.249	2796.62
988.547	2779.45
988.844	2721.14
989.142	2760.24
989.44	2724.98
989.737	2698.32
990.035	2692.9
990.332	2667.59
990.63	2653.57
990.927	2684.99
991.224	2668.04
991.521	2653.8
991.819	2646.79
992.116	2657.87
992.413	2587.81
992.71	2591.43
993.006	2596.63
993.303	2562.96
993.6	2574.48
993.897	2570.19
994.193	2529.96
994.49	2515.72
994.787	2529.51
995.083	2500.36
995.379	2494.93
995.676	2456.29
995.972	2463.07
996.268	2479.34
996.565	2424.88
996.861	2429.4
997.157	2436.63
997.453	2399.8
997.749	2380.59
998.044	2401.6
998.34	2367.71
998.636	2343.75
998.932	2327.26
999.227	2307.59
999.523	2324.32
999.818	2327.26
1000.114	2326.58
1000.409	2288.61
1000.704	2252.23
1001	2281.61
1001.295	2234.6
1001.59	2221.27
1001.885	2254.04
1002.18	2197.09
1002.475	2273.7
1002.77	2193.7
1003.065	2182.85
1003.359	2182.4
1003.654	2160.71
1003.949	2130.42
1004.243	2119.35
1004.538	2077.54
1004.832	2121.16
1005.127	2071.22
1005.421	2063.99
1005.715	2097.2
1006.009	2074.61
1006.304	2050.65
1006.598	2041.61
1006.892	2014.95
1007.186	2007.72
1007.48	1989.41
1007.773	1970.88
1008.067	1977.21
1008.361	1994.16
1008.655	1922.29
1008.948	1956.19
1009.242	1923.88
1009.535	1939.24
1009.829	1911.9
1010.122	1883.43
1010.415	1871.67
1010.708	1878.68
1011.001	1862.63
1011.295	1851.56
1011.588	1816.31
1011.881	1831
1012.173	1790.32
1012.466	1798.68
1012.759	1815.4
1013.052	1767.27
1013.344	1774.05
1013.637	1762.3
1013.93	1762.07
1014.222	1754.39
1014.514	1760.26
1014.807	1706.03
1015.099	1715.52
1015.391	1701.96
1015.683	1677.55
1015.976	1677.1
1016.268	1672.81
1016.56	1662.19
1016.851	1659.48
1017.143	1622.41
1017.435	1622.19
1017.727	1609.76
1018.018	1599.14
1018.31	1604.56
1018.602	1603.88
1018.893	1583.77
1019.185	1552.81
1019.476	1567.05
1019.767	1550.55
1020.058	1533.38
1020.35	1505.36
1020.641	1528.86
1020.932	1509.42
1021.223	1496.54
1021.514	1480.72
1021.804	1510.1
1022.095	1500.16
1022.386	1440.05
1022.677	1435.3
1022.967	1458.13
1023.258	1418.8
1023.548	1410.44
1023.839	1396.43
1024.129	1414.28
1024.419	1405.47
1024.709	1402.99
1025	1375.42
1025.29	1332.48
1025.58	1346.26
1025.87	1341.74
1026.16	1329.99
1026.449	1355.98
1026.739	1308.75
1027.029	1323.44
1027.319	1313.04
1027.608	1281.63
1027.898	1273.05
1028.187	1246.38
1028.477	1242.99
1028.766	1276.44
1029.055	1249.09
1029.344	1262.42
1029.634	1232.14
1029.923	1254.74
1030.212	1220.17
1030.501	1232.59
1030.79	1189.66
1031.078	1192.14
1031.367	1198.7
1031.656	1190.34
1031.945	1187.62
1032.233	1165.93
1032.522	1166.38
1032.81	1158.7
1033.099	1134.52
1033.387	1151.47
1033.675	1122.32
1033.963	1125.48
1034.251	1118.47
1034.54	1122.09
1034.828	1086.84
1035.116	1101.75
1035.403	1060.4
1035.691	1069.44
1035.979	1066.27
1036.267	1079.6
1036.554	1071.92
1036.842	1020.62
1037.129	1043.67
1037.417	1017.46
1037.704	1040.51
1037.992	1005.48
1038.279	974.97
1038.566	994.18
1038.853	994.18
1039.14	994.18
