Data from hue_50_FLMS001491_84.txt Node
Date: Mon Feb 06 15:11:09 GMT 2017
User: dcchb
Spectrometer: FLMS00149
Trigger mode: 0
Integration Time (sec): 2.000000E-2
Scans to average: 10
Electric dark correction enabled: true
Nonlinearity correction enabled: false
Boxcar width: 0
XAxis mode: Wavelengths
Number of Pixels in Spectrum: 2048
>>>>>Begin Spectral Data<<<<<
341.393	18.08
341.776	18.08
342.16	18.08
342.543	-56.27
342.927	-87.46
343.31	-67.12
343.693	-80.68
344.077	-78.42
344.46	-42.94
344.843	-64.18
345.226	-46.33
345.61	-30.06
345.993	-26.89
346.376	-1.58
346.759	32.09
347.142	15.14
347.525	32.32
347.908	61.92
348.291	78.87
348.674	99.43
349.057	118.41
349.44	123.61
349.823	146.89
350.206	160
350.588	190.28
350.971	217.62
351.354	224.4
351.737	233.89
352.119	243.16
352.502	272.08
352.884	294.46
353.267	288.13
353.65	296.94
354.032	317.51
354.414	312.53
354.797	293.78
355.179	317.96
355.562	318.64
355.944	324.51
356.326	342.59
356.709	337.62
357.091	348.69
357.473	322.25
357.855	354.79
358.238	352.99
358.62	350.27
359.002	355.02
359.384	369.93
359.766	365.87
360.148	331.52
360.53	350.05
360.912	348.24
361.294	331.74
361.676	335.58
362.057	337.62
362.439	339.88
362.821	313.66
363.203	340.33
363.584	339.88
363.966	341.01
364.348	320.9
364.729	330.16
365.111	333.1
365.493	329.71
365.874	322.7
366.256	336.26
366.637	324.29
367.019	312.31
367.4	319.77
367.781	310.27
368.163	315.25
368.544	346.66
368.925	326.77
369.306	324.51
369.688	302.14
370.069	333.1
370.45	301.69
370.831	341.69
371.212	333.78
371.593	326.32
371.974	317.28
372.355	338.75
372.736	342.14
373.117	327.9
373.498	317.51
373.879	322.48
374.26	318.41
374.641	323.16
375.021	324.51
375.402	331.74
375.783	321.57
376.163	337.17
376.544	317.51
376.925	355.02
377.305	322.48
377.686	327
378.066	345.98
378.447	342.14
378.827	339.65
379.208	335.58
379.588	346.88
379.968	342.36
380.349	315.02
380.729	342.59
381.109	343.04
381.489	345.08
381.87	344.85
382.25	337.84
382.63	350.27
383.01	346.88
383.39	364.96
383.77	344.62
384.15	363.61
384.53	347.11
384.91	377.17
385.29	347.11
385.67	366.32
386.049	347.11
386.429	364.74
386.809	341.46
387.189	374.68
387.568	374.68
387.948	379.88
388.328	374.23
388.707	359.54
389.087	364.51
389.466	356.37
389.846	354.11
390.225	366.54
390.605	388.01
390.984	379.43
391.363	364.51
391.743	378.75
392.122	363.15
392.501	366.09
392.881	379.43
393.26	381.46
393.639	372.19
394.018	380.33
394.397	380.33
394.776	407.67
395.155	384.17
395.534	376.04
395.913	391.85
396.292	419.42
396.671	377.84
397.05	393.44
397.429	393.21
397.808	402.48
398.186	397.28
398.565	413.77
398.944	385.53
399.323	388.24
399.701	387.11
400.08	388.01
400.458	407.22
400.837	415.13
401.215	400.67
401.594	399.76
401.972	415.58
402.351	406.77
402.729	407.45
403.107	409.71
403.486	428.24
403.864	420.55
404.242	392.76
404.62	430.72
404.999	424.85
405.377	421.46
405.755	426.66
406.133	433.21
406.511	411.97
406.889	435.02
407.267	445.41
407.645	443.83
408.023	431.18
408.401	454.9
408.779	411.74
409.156	442.93
409.534	440.67
409.912	438.63
410.29	435.69
410.667	472.53
411.045	437.95
411.422	463.26
411.8	455.81
412.178	476.82
412.555	488.8
412.933	448.58
413.31	452.64
413.687	482.02
414.065	475.92
414.442	470.27
414.819	470.5
415.197	471.17
415.574	488.57
415.951	486.09
416.328	496.03
416.705	518.86
417.082	498.07
417.46	479.08
417.837	491.06
418.214	523.6
418.591	497.16
418.967	508.69
419.344	514.11
419.721	534.22
420.098	525.18
420.475	521.12
420.852	513.66
421.228	535.58
421.605	529.48
421.982	537.84
422.358	529.03
422.735	562.7
423.111	550.72
423.488	526.31
423.864	563.38
424.241	554.34
424.617	550.04
424.994	541.91
425.37	560.21
425.746	553.43
426.123	589.14
426.499	562.47
426.875	563.15
427.251	557.73
427.627	595.24
428.003	591.62
428.379	604.05
428.756	597.72
429.132	609.93
429.507	608.35
429.883	599.98
430.259	627.1
430.635	615.8
431.011	608.12
431.387	620.77
431.763	642.69
432.138	638.4
432.514	623.26
432.89	652.86
433.265	675.01
433.641	662.13
434.016	665.07
434.392	670.49
434.767	679.3
435.143	675.91
435.518	689.47
435.894	677.72
436.269	669.36
436.644	657.38
437.02	666.88
437.395	709.36
437.77	697.16
438.145	716.82
438.52	701.9
438.895	708
439.271	715.91
439.646	742.58
440.021	726.99
440.395	756.59
440.77	734.22
441.145	746.87
441.52	748.91
441.895	759.75
442.27	763.82
442.645	735.35
443.019	790.94
443.394	766.99
443.769	777.83
444.143	775.8
444.518	764.5
444.892	774.67
445.267	783.71
445.641	810.15
446.016	799.53
446.39	798.85
446.764	805.63
447.139	794.56
447.513	831.62
447.887	818.51
448.262	819.41
448.636	842.01
449.01	839.07
449.384	823.93
449.758	832.52
450.132	861.67
450.506	880.65
450.88	870.94
451.254	818.96
451.628	863.25
452.002	885.85
452.376	915.46
452.75	861.22
453.123	891.73
453.497	898.28
453.871	917.49
454.244	902.58
454.618	937.6
454.992	939.64
455.365	945.51
455.739	964.27
456.112	970.6
456.486	974.44
456.859	975.79
457.232	1009.92
457.606	976.7
457.979	974.89
458.352	1026.41
458.725	1046.98
459.099	1029.58
459.472	1041.1
459.845	1046.53
460.218	1081.55
460.591	1083.14
460.964	1089.01
461.337	1094.21
461.71	1157.94
462.083	1148.22
462.456	1143.92
462.829	1150.7
463.201	1147.54
463.574	1162.46
463.947	1178.27
464.32	1214.66
464.692	1211.72
465.065	1213.75
465.438	1241.1
465.81	1251.04
466.183	1265.05
466.555	1302.79
466.928	1301.89
467.3	1324.71
467.672	1366.52
468.045	1391.6
468.417	1409.23
468.789	1406.06
469.161	1410.58
469.534	1434.54
469.906	1455.55
470.278	1499.17
470.65	1510.47
471.022	1547.98
471.394	1599.73
471.766	1604.93
472.138	1647.87
472.51	1656.68
472.882	1687.64
473.253	1743.46
473.625	1757.92
473.997	1808.77
474.369	1854.19
474.74	1860.06
475.112	1916.56
475.484	1943.9
475.855	2008.08
476.227	2044.01
476.598	2129.21
476.97	2155.65
477.341	2259.83
477.713	2260.28
478.084	2309.32
478.455	2395.42
478.827	2386.83
479.198	2520.84
479.569	2555.64
479.94	2662.98
480.311	2719.48
480.682	2756.99
481.053	2892.58
481.424	2973.71
481.795	3021.84
482.166	3136.19
482.537	3186.36
482.908	3294.38
483.279	3394.49
483.65	3492.11
484.021	3601.49
484.391	3659.56
484.762	3757.64
485.133	3820.69
485.503	3963.51
485.874	4074.47
486.244	4187.46
486.615	4298.64
486.985	4436.04
487.356	4547.23
487.726	4660.89
488.097	4833.32
488.467	4906.76
488.837	5048.23
489.207	5163.71
489.578	5300.43
489.948	5400.08
490.318	5555.56
490.688	5603.69
491.058	5848.89
491.428	5977.92
491.798	6113.96
492.168	6289.78
492.538	6391.92
492.908	6484.58
493.278	6653.84
493.648	6760.73
494.017	6903.77
494.387	7076.2
494.757	7206.36
495.126	7362.97
495.496	7455.17
495.866	7610.87
496.235	7753.02
496.605	7876.63
496.974	7980.36
497.344	8222.16
497.713	8262.38
498.082	8359.33
498.452	8581.92
498.821	8687.23
499.19	8813.33
499.559	8903.95
499.928	9112.08
500.298	9218.97
500.667	9358.85
501.036	9423.93
501.405	9586.87
501.774	9724.94
502.143	9814.66
502.512	9937.59
502.88	10064.37
503.249	10153.86
503.618	10270.24
503.987	10402.89
504.356	10457.13
504.724	10573.51
505.093	10790
505.462	10804.69
505.83	10915.19
506.199	11048.07
506.567	11192.93
506.936	11232.25
507.304	11544.78
507.672	11522.63
508.041	11644.44
508.409	11712.91
508.777	11868.39
509.145	12001.49
509.514	12140.7
509.882	12252.33
510.25	12294.59
510.618	12409.17
510.986	12518.09
511.354	12577.52
511.722	12852.09
512.09	12947.46
512.458	13007.12
512.826	13125.08
513.193	13239.65
513.561	13209.6
513.929	13425.18
514.297	13550.83
514.664	13617.72
515.032	13727.77
515.4	13878.05
515.767	13951.5
516.135	13977.94
516.502	14055.22
516.869	14320.98
517.237	14358.49
517.604	14351.04
517.972	14455.44
518.339	14597.36
518.706	14715.09
519.073	14800.97
519.44	14956.44
519.808	15079.38
520.175	15116.89
520.542	15272.59
520.909	15304
521.276	15440.27
521.643	15624.9
522.009	15659.7
522.376	15815.86
522.743	15932.24
523.11	16027.83
523.477	16174.49
523.843	16395.73
524.21	16487.93
524.577	16646.34
524.943	16657.87
525.31	16800.01
525.676	17008.14
526.043	17014.92
526.409	17125.65
526.776	17277.51
527.142	17425.3
527.508	17494.46
527.874	17758.18
528.241	17772.19
528.607	17816.71
528.973	18045.63
529.339	18010.15
529.705	18224.38
530.071	18304.6
530.437	18379.18
530.803	18504.82
531.169	18631.15
531.535	18604.48
531.901	18728.32
532.267	18686.51
532.632	18924.25
532.998	19046.73
533.364	19148.2
533.73	19206.5
534.095	19326.05
534.461	19387.29
534.826	19603.1
535.192	19528.07
535.557	19660.05
535.923	19815.3
536.288	19788.63
536.653	19910.44
537.019	19858.01
537.384	20055.29
537.749	20087.16
538.114	20154.5
538.479	20158.34
538.845	20287.6
539.21	20282.18
539.575	20518.1
539.94	20461.16
540.305	20764.43
540.67	20674.03
541.034	20722.39
541.399	20726.91
541.764	20875.61
542.129	20927.36
542.494	21051.2
542.858	21131.87
543.223	21108.6
543.587	21287.8
543.952	21270.63
544.316	21294.58
544.681	21450.74
545.045	21501.58
545.41	21716.04
545.774	21688.47
546.138	21691.63
546.503	21873.78
546.867	21781.35
547.231	22091.85
547.595	22054.11
547.959	22256.59
548.324	22164.39
548.688	22315.8
549.052	22356.02
549.416	22416.13
549.779	22397.15
550.143	22491.39
550.507	22688.44
550.871	22688.67
551.235	22772.73
551.599	22882.34
551.962	22953.07
552.326	23030.58
552.689	23064.03
553.053	23057.92
553.417	23067.64
553.78	23473.28
554.143	23363.23
554.507	23461.53
554.87	23520.51
555.234	23773.61
555.597	23541.53
555.96	23735.65
556.323	23837.79
556.686	23886.83
557.05	24169.31
557.413	24105.58
557.776	24161.17
558.139	24338.12
558.502	24367.49
558.865	24416.08
559.228	24690.2
559.59	24717.99
559.953	24683.64
560.316	25006.12
560.679	25082.28
561.041	25133.35
561.404	25253.57
561.767	25370.41
562.129	25435.94
562.492	25615.82
562.854	25625.77
563.217	25633.22
563.579	25757.51
563.941	25823.5
564.304	26016.94
564.666	26212.19
565.028	26212.87
565.39	26358.85
565.753	26592.75
566.115	26524.73
566.477	26645.4
566.839	26751.39
567.201	26877.03
567.563	26950.48
567.925	27104.37
568.287	27061.44
568.648	27123.81
569.01	27271.15
569.372	27519.95
569.734	27302.11
570.095	27657.35
570.457	27736.9
570.819	27726.73
571.18	27766.73
571.542	27869.32
571.903	28129.66
572.265	28172.37
572.626	28319.26
572.987	28316.77
573.349	28607.84
573.71	28669.53
574.071	28696.65
574.432	28815.06
574.794	29138.67
575.155	29022.29
575.516	29117.88
575.877	29191.55
576.238	29245.33
576.599	29417.31
576.96	29343.86
577.32	29525.78
577.681	29660.92
578.042	29831.31
578.403	29855.03
578.763	29965.99
579.124	30068.36
579.485	30160.11
579.845	30407.56
580.206	30378.64
580.566	30438.75
580.927	30507.67
581.287	30770.49
581.648	30778.85
582.008	30971.16
582.368	31045.74
582.728	31164.83
583.089	31362.57
583.449	31330.25
583.809	31499.74
584.169	31559.17
584.529	31659.96
584.889	31968.88
585.249	31923
585.609	31923.68
585.969	32382.65
586.329	32150.79
586.688	32354.4
587.048	32511.91
587.408	32569.99
587.768	32840.72
588.127	32710.78
588.487	32878.91
588.846	33336.75
589.206	33024.22
589.565	33214.72
589.925	33507.59
590.284	33480.7
590.643	33745.1
591.003	33856.74
591.362	33932.89
591.721	34125.2
592.08	34110.74
592.44	34263.28
592.799	34566.77
593.158	34489.49
593.517	34595.02
593.876	34824.62
594.235	34757.96
594.593	34872.76
594.952	35161.56
595.311	35041.56
595.67	35252.41
596.029	35533.53
596.387	35684.26
596.746	35791.83
597.104	35616.46
597.463	35772.17
597.822	36122.44
598.18	35980.97
598.538	36053.06
598.897	36288.09
599.255	36082.44
599.613	36684.23
599.972	36550.45
600.33	36627.74
600.688	36579.38
601.046	36877.67
601.404	37136.65
601.762	37130.55
602.12	37241.96
602.478	37419.36
602.836	37413.03
603.194	37236.31
603.552	37421.39
603.91	37378.9
604.268	37629.29
604.625	37686.47
604.983	37874.94
605.341	37672
605.698	38045.33
606.056	38230.63
606.413	38241.03
606.771	38172.78
607.128	38358.09
607.485	38314.25
607.843	38320.57
608.2	38625.2
608.557	38669.27
608.914	38646.22
609.272	38954
609.629	38901.35
609.986	39070.61
610.343	38915.36
610.7	39319.19
611.057	39455.91
611.414	39412.97
611.771	39478.51
612.127	39596.02
612.484	39512.41
612.841	39842.34
613.198	39624.04
613.554	39764.38
613.911	40027.87
614.267	39962.79
614.624	39971.83
614.98	40111.04
615.337	40403.01
615.693	40220.86
616.05	40286.85
616.406	40585.37
616.762	40382.89
617.118	40452.5
617.475	40652.26
617.831	40643.9
618.187	40857.91
618.543	40802.32
618.899	41056.32
619.255	41118.47
619.611	40985.81
619.967	41166.38
620.323	41297.9
620.678	41130.22
621.034	41043.89
621.39	41148.97
621.746	41143.1
622.101	41550.32
622.457	41224.23
622.812	41468.29
623.168	41574.5
623.523	41493.15
623.879	41720.94
624.234	41404.34
624.589	41532.69
624.945	41572.47
625.3	41755.74
625.655	41606.36
626.01	41678
626.365	41687.94
626.72	41704.44
627.075	41860.82
627.43	41747.6
627.785	41632.58
628.14	41809.07
628.495	41812.91
628.85	41829.86
629.205	41745.57
629.559	41957.54
629.914	41829.18
630.269	41801.61
630.623	41776.75
630.978	41743.76
631.332	41994.83
631.687	41997.54
632.041	41849.52
632.396	41887.49
632.75	41676.87
633.104	41811.56
633.459	41494.5
633.813	41666.93
634.167	41729.52
634.521	41654.95
634.875	41654.72
635.229	41686.14
635.583	41467.38
635.937	41633.93
636.291	41467.16
636.645	41501.96
636.999	41409.76
637.352	41527.95
637.706	41397.1
638.06	41581.73
638.413	41355.75
638.767	41351.68
639.121	41388.06
639.474	41078.47
639.828	41160.95
640.181	41216.77
640.534	41236.2
640.888	41161.86
641.241	41065.36
641.594	41104.91
641.947	41247.95
642.301	41066.04
642.654	41126.15
643.007	41013.61
643.36	41224.68
643.713	40959.83
644.066	41063.1
644.419	40938.81
644.771	40704.01
645.124	40320.97
645.477	40177.47
645.83	39955.79
646.182	39797.82
646.535	39755.56
646.888	39740.2
647.24	39629.92
647.593	39812.74
647.945	39773.87
648.298	39396.93
648.65	39564.61
649.002	39444.39
649.355	39549.92
649.707	39540.88
650.059	39840.53
650.411	40111.49
650.763	40038.04
651.115	40540.85
651.467	40313.97
651.819	40396.9
652.171	40334.53
652.523	40315.32
652.875	40155.78
653.227	40196.68
653.578	40325.95
653.93	40161.43
654.282	40049.34
654.633	40062.68
654.985	39971.15
655.337	39972.96
655.688	40085.05
656.039	40255.44
656.391	39687.09
656.742	40023.81
657.094	39976.12
657.445	40050.25
657.796	39945.84
658.147	39883.47
658.498	39835.34
658.849	39952.17
659.2	39918.5
659.551	39822.23
659.902	40093.64
660.253	39856.58
660.604	39864.49
660.955	39706.53
661.306	39867.65
661.656	39684.15
662.007	39796.47
662.358	39768.22
662.708	39908.1
663.059	39852.06
663.409	39506.53
663.76	39950.14
664.11	39820.2
664.461	39853.64
664.811	39870.59
665.161	39832.4
665.511	39666.53
665.862	39736.36
666.212	39800.31
666.562	39852.96
666.912	39659.3
667.262	39590.37
667.612	39743.14
667.962	39886.41
668.312	39674.21
668.662	39840.08
669.011	39675.57
669.361	39558.73
669.711	39530.26
670.06	39419.08
670.41	39443.26
670.76	39370.26
671.109	39607.55
671.459	39498.62
671.808	39363.26
672.157	39480.09
672.507	39221.12
672.856	39206.65
673.205	39352.19
673.554	39388.79
673.904	39353.09
674.253	39381.79
674.602	39173.89
674.951	38740.9
675.3	38703.16
675.649	39247.1
675.998	39148.12
676.346	39228.12
676.695	39348.34
677.044	38996.71
677.393	39155.81
677.741	39184.73
678.09	39187.9
678.438	39030.84
678.787	39026.77
679.135	39049.14
679.484	38656.38
679.832	38864.06
680.181	38591.98
680.529	38921.69
680.877	38732.99
681.225	38756.04
681.573	38788.58
681.922	38573.22
682.27	38495.48
682.618	38554.24
682.966	38457.52
683.314	38569.38
683.661	38292.78
684.009	38362.16
684.357	38161.26
684.705	38046.46
685.053	38233.57
685.4	37999
685.748	37914.03
686.095	37869.96
686.443	37739.8
686.79	37828.16
687.138	37750.65
687.485	37949.28
687.832	37681.04
688.18	37674.94
688.527	37549.3
688.874	37433.59
689.221	37309.08
689.568	37280.15
689.915	37169.87
690.262	37116.09
690.609	36979.37
690.956	36940.72
691.303	36924
691.65	36721.29
691.997	36827.96
692.344	36507.51
692.69	36588.64
693.037	36433.39
693.383	36346.61
693.73	36362.21
694.077	36262.32
694.423	36136.45
694.769	35941.65
695.116	35886.29
695.462	35888.55
695.808	35871.37
696.155	35937.13
696.501	35550.93
696.847	35709.57
697.193	35301.9
697.539	35511.61
697.885	35132.18
698.231	35242.69
698.577	35207.21
698.923	35067.1
699.269	34857.84
699.614	34599.99
699.96	34613.1
700.306	34767.22
700.651	34517.96
700.997	34489.94
701.342	34392.32
701.688	34233.9
702.033	34201.13
702.379	34228.48
702.724	34076.39
703.069	34168.82
703.415	33771.99
703.76	33740.36
704.105	33767.7
704.45	33728.38
704.795	33514.37
705.14	33379.91
705.485	33389.18
705.83	33371.33
706.175	33385.56
706.52	33284.1
706.865	33080.03
707.209	33052.92
707.554	33065.12
707.899	33072.8
708.243	32930.43
708.588	32835.52
708.932	32672.81
709.277	32609.09
709.621	32622.42
709.966	32468.98
710.31	32551.69
710.654	32144.47
710.998	32270.79
711.342	32274.18
711.687	32063.11
712.031	31988.54
712.375	31819.73
712.719	32029.89
713.063	31869.67
713.407	32010.68
713.75	31772.05
714.094	31775.21
714.438	31538.38
714.782	31734.31
715.125	31427.65
715.469	31555.33
715.812	31405.73
716.156	31207.32
716.499	31332.96
716.843	31299.52
717.186	31061.56
717.53	31242.12
717.873	31206.86
718.216	31125.74
718.559	30898.4
718.902	30725.52
719.246	30868.79
719.589	30703.15
719.932	30696.82
720.275	30610.95
720.617	30584.96
720.96	30604.17
721.303	30543.6
721.646	30472.42
721.989	30300.67
722.331	30390.39
722.674	30255.02
723.016	30321.69
723.359	30335.02
723.701	30220.45
724.044	30092.32
724.386	29959.89
724.729	30175.25
725.071	30008.25
725.413	29984.75
725.755	30014.13
726.097	29796.96
726.439	29634.02
726.782	29587.24
727.124	29754.7
727.465	29592.67
727.807	29638.32
728.149	29514.03
728.491	29553.12
728.833	29353.8
729.175	29300.47
729.516	29331.43
729.858	29211.89
730.199	29246.69
730.541	29136.64
730.882	29131.66
731.224	29167.82
731.565	28922.4
731.906	28918.11
732.248	29015.28
732.589	28896.87
732.93	28860.71
733.271	28788.62
733.612	28879.92
733.953	28764.89
734.294	28716.76
734.635	28576.2
734.976	28653.48
735.317	28569.64
735.658	28652.13
735.999	28552.24
736.339	28488.97
736.68	28472.7
737.021	28360.16
737.361	28254.62
737.702	28392.02
738.042	28312.93
738.383	28268.86
738.723	28314.96
739.063	28185.02
739.404	28111.13
739.744	28035.2
740.084	27973.28
740.424	28044.46
740.764	27953.84
741.104	28038.81
741.444	27810.34
741.784	27742.55
742.124	27875.88
742.464	27797.91
742.804	27757.69
743.143	27757.91
743.483	27591.14
743.823	27558.82
744.162	27499.39
744.502	27745.71
744.841	27446.28
745.181	27511.37
745.52	27323.35
745.86	27431.82
746.199	27428.21
746.538	27399.05
746.877	27281.99
747.216	27278.83
747.556	27217.14
747.895	27323.8
748.234	27037.48
748.573	27010.36
748.911	26969.23
749.25	27000.19
749.589	26883.59
749.928	26904.83
750.267	26886.75
750.605	26723.82
750.944	26759.3
751.283	26653.76
751.621	26584.61
751.96	26565.18
752.298	26553.43
752.636	26497.16
752.975	26381.45
753.313	26404.73
753.651	26421.9
753.989	26273.43
754.327	26320.89
754.666	26140.56
755.004	26186.2
755.342	26159.54
755.679	26113.21
756.017	25941.69
756.355	25931.75
756.693	25892.88
757.031	25877.51
757.368	25697.63
757.706	25692.88
758.044	25569.27
758.381	25668.03
758.719	25527.24
759.056	25577.18
759.394	25425.55
759.731	25299.22
760.068	25295.38
760.405	25056.74
760.743	25019
761.08	25178.32
761.417	24868.95
761.754	24907.14
762.091	24862.4
762.428	24795.73
762.765	24537.21
763.102	24703.31
763.438	24508.73
763.775	24374.05
764.112	24405.01
764.449	24427.38
764.785	24220.83
765.122	24054.28
765.458	23986.71
765.795	24031.68
766.131	24043.89
766.467	23828.75
766.804	23812.93
767.14	23719.83
767.476	23766.83
767.812	23567.74
768.148	23603.45
768.485	23423.11
768.821	23309.9
769.157	23317.13
769.492	23226.51
769.828	23289.78
770.164	23006.63
770.5	23057.92
770.836	22977.02
771.171	22894.77
771.507	22721.66
771.842	22628.11
772.178	22670.59
772.513	22523.7
772.849	22572.06
773.184	22278.96
773.519	22242.13
773.855	22143.82
774.19	22122.81
774.525	22053.21
774.86	22111.06
775.195	21854.57
775.53	21857.28
775.865	21720.33
776.2	21669.26
776.535	21551.3
776.87	21471.98
777.205	21425.2
777.539	21294.36
777.874	21373
778.209	21151.53
778.543	21196.5
778.878	21039.45
779.212	21071.08
779.547	20804.42
779.881	20866.34
780.215	20704.54
780.55	20759.91
780.884	20660.25
781.218	20540.7
781.552	20559.23
781.886	20511.1
782.22	20404.66
782.554	20250.54
782.888	20180.03
783.222	20148.4
783.556	19882.87
783.889	19977.78
784.223	19771.46
784.557	19789.76
784.89	19822.08
785.224	19665.02
785.557	19568.53
785.891	19507.51
786.224	19415.08
786.558	19392.48
786.891	19357.46
787.224	19153.39
787.557	19149.78
787.891	19087.63
788.224	19078.82
788.557	19106.62
788.89	19059.84
789.223	18914.76
789.556	18734.42
789.888	18677.02
790.221	18660.07
790.554	18480.87
790.887	18608.1
791.219	18431.83
791.552	18372.85
791.884	18376.92
792.217	18175.57
792.549	18203.59
792.882	18119.98
793.214	18068.23
793.546	18003.14
793.879	17867.33
794.211	17863.03
794.543	17906.42
794.875	17799.76
795.207	17811.06
795.539	17651.06
795.871	17685.18
796.203	17561.8
796.535	17449.94
796.867	17389.15
797.198	17310.28
797.53	17378.3
797.862	17297.62
798.193	17302.82
798.525	17018.31
798.856	17161.13
799.188	16990.97
799.519	16993.45
799.85	16853.57
800.182	16962.49
800.513	16898.76
800.844	16666
801.175	16797.3
801.506	16678.43
801.837	16619.68
802.168	16586
802.499	16504.88
802.83	16475.5
803.161	16326.12
803.491	16367.25
803.822	16300.59
804.153	16294.26
804.483	16151.67
804.814	16093.81
805.145	16070.76
805.475	16073.93
805.805	15948.73
806.136	15990.99
806.466	15898.79
806.796	15912.8
807.126	15818.57
807.457	15767.72
807.787	15776.99
808.117	15691.79
808.447	15710.55
808.777	15705.58
809.107	15594.84
809.436	15514.85
809.766	15536.77
810.096	15386.71
810.426	15391.69
810.755	15454.28
811.085	15301.74
811.414	15289.77
811.744	15237.11
812.073	15169.54
812.403	15146.95
812.732	15121.86
813.061	15060.39
813.39	15038.02
813.719	14893.39
814.049	14965.71
814.378	15048.87
814.707	14853.39
815.036	14785.83
815.365	14801.64
815.693	14588.32
816.022	14687.07
816.351	14583.35
816.68	14564.59
817.008	14583.8
817.337	14440.07
817.665	14432.84
817.994	14459.96
818.322	14464.7
818.651	14371.83
818.979	14358.72
819.307	14376.8
819.636	14344.48
819.964	14262.68
820.292	14212.73
820.62	14222
820.948	14200.08
821.276	14247.99
821.604	14124.37
821.932	14220.87
822.259	14179.97
822.587	14266.29
822.915	14144.94
823.243	14186.07
823.57	14169.12
823.898	14092.06
824.225	14111.95
824.553	14032.63
824.88	14190.14
825.207	14135.67
825.535	14202.79
825.862	14118.05
826.189	14051.61
826.516	14131.38
826.843	14105.17
827.17	14121.44
827.497	14132.96
827.824	13997.37
828.151	14144.49
828.478	14123.92
828.805	14106.3
829.131	14089.12
829.458	14009.8
829.785	13941.78
830.111	13971.16
830.438	14146.29
830.764	14143.36
831.09	14104.49
831.417	13981.55
831.743	14060.65
832.069	14019.07
832.395	13925.74
832.722	14042.79
833.048	13924.38
833.374	14001.89
833.7	13977.49
834.026	13964.15
834.351	13920.31
834.677	13940.65
835.003	13975.45
835.329	13885.28
835.654	13877.6
835.98	13759.19
836.306	13800.99
836.631	13773.42
836.956	13865.4
837.282	13828.34
837.607	13716.25
837.932	13762.8
838.258	13718.96
838.583	13716.48
838.908	13616.82
839.233	13695.01
839.558	13613.43
839.883	13645.52
840.208	13476.48
840.533	13509.02
840.858	13536.59
841.182	13455.47
841.507	13464.73
841.832	13377.5
842.156	13375.02
842.481	13368.91
842.805	13336.37
843.13	13290.27
843.454	13289.37
843.778	13211.18
844.103	13194.68
844.427	13109.49
844.751	13207.56
845.075	13101.58
845.399	13093.89
845.723	13041.24
846.047	13036.49
846.371	12950.17
846.695	12886.44
847.019	12845.09
847.343	12766.9
847.666	12688.93
847.99	12701.59
848.313	12653.45
848.637	12557.41
848.96	12571.42
849.284	12603.06
849.607	12425.89
849.931	12357.64
850.254	12337.53
850.577	12256.85
850.9	12179.57
851.223	12127.36
851.546	12065.67
851.869	11970.31
852.192	12089.17
852.515	11967.82
852.838	11957.65
853.161	11938.67
853.483	11809.41
853.806	11786.13
854.129	11832.68
854.451	11758.56
854.774	11679.69
855.096	11648.28
855.419	11673.37
855.741	11623.65
856.063	11448.74
856.385	11426.82
856.708	11415.75
857.03	11407.61
857.352	11456.2
857.674	11345.24
857.996	11352.02
858.318	11194.28
858.64	11225.47
858.961	11240.83
859.283	11161.97
859.605	11136.66
859.926	11171.68
860.248	11040.16
860.57	11057.11
860.891	11039.03
861.212	11045.36
861.534	11020.05
861.855	10993.38
862.176	10918.13
862.498	10932.82
862.819	10879.26
863.14	10870
863.461	10808.98
863.782	10815.99
864.103	10798.81
864.424	10774.86
864.745	10805.59
865.065	10781.64
865.386	10683.79
865.707	10713.84
866.027	10727.4
866.348	10718.14
866.668	10681.53
866.989	10577.8
867.309	10529.67
867.63	10556.56
867.95	10588.87
868.27	10526.05
868.59	10536.22
868.91	10545.26
869.23	10492.61
869.55	10464.81
869.87	10507.97
870.19	10396.79
870.51	10477.46
870.83	10476.11
871.15	10361.99
871.469	10399.05
871.789	10361.31
872.109	10364.47
872.428	10305.94
872.748	10314.31
873.067	10313.4
873.386	10322.89
873.706	10211.48
874.025	10218.49
874.344	10161.99
874.663	10248.54
874.982	10225.95
875.301	10188.66
875.62	10147.98
875.939	10083.12
876.258	10055.78
876.577	10133.97
876.896	10067.31
877.214	10042.67
877.533	10033.18
877.852	10026.63
878.17	10109.56
878.489	9961.55
878.807	10013.3
879.125	10030.7
879.444	9983.92
879.762	9979.85
880.08	9919.29
880.398	9875.22
880.716	9917.71
881.034	9878.16
881.352	9836.13
881.67	9842.91
881.988	9851.27
882.306	9802.68
882.624	9772.17
882.941	9733.98
883.259	9667.99
883.577	9697.82
883.894	9697.82
884.212	9641.33
884.529	9651.27
884.846	9659.41
885.164	9642.23
885.481	9523.59
885.798	9512.74
886.115	9477.04
886.432	9525.85
886.75	9415.35
887.067	9471.62
887.383	9373.09
887.7	9396.59
888.017	9399.98
888.334	9450.82
888.651	9360.88
888.967	9309.81
889.284	9258.06
889.6	9157.95
889.917	9134
890.233	9193.88
890.55	9169.25
890.866	9144.17
891.182	9113.43
891.498	9079.54
891.815	9085.41
892.131	8977.39
892.447	8992.98
892.763	8979.42
893.079	8955.92
893.395	8892.42
893.71	8939.65
894.026	8902.82
894.342	8862.59
894.657	8745.31
894.973	8793.22
895.289	8801.58
895.604	8709.38
895.92	8738.98
896.235	8675.7
896.55	8715.25
896.865	8681.35
897.181	8648.81
897.496	8646.55
897.811	8549.15
898.126	8567.91
898.441	8483.62
898.756	8453.11
899.071	8442.26
899.386	8395.49
899.7	8356.16
900.015	8317.75
900.33	8224.64
900.644	8285.88
900.959	8299.22
901.273	8219.44
901.588	8223.96
901.902	8113.91
902.216	8109.62
902.531	8043.86
902.845	8136.28
903.159	8018.55
903.473	8006.12
903.787	7959.34
904.101	7941.71
904.415	7915.72
904.729	7887.48
905.042	7786.01
905.356	7804.31
905.67	7775.84
905.984	7830.3
906.297	7780.59
906.611	7732.45
906.924	7703.98
907.237	7724.99
907.551	7638.9
907.864	7636.41
908.177	7601.38
908.491	7491.78
908.804	7562.29
909.117	7477.77
909.43	7368.17
909.743	7355.51
910.056	7414.27
910.368	7367.72
910.681	7325.68
910.994	7293.82
911.307	7188.06
911.619	7231
911.932	7235.74
912.244	7172.92
912.557	7176.76
912.869	7131.56
913.181	7098.8
913.494	7125.69
913.806	6997.1
914.118	7052.02
914.43	6924.56
914.742	6964.11
915.054	6927.95
915.366	6926.15
915.678	6861.29
915.99	6829.88
916.302	6796.43
916.613	6799.6
916.925	6801.86
917.236	6747.39
917.548	6699.03
917.859	6727.73
918.171	6604.35
918.482	6639.15
918.794	6590.34
919.105	6617
919.416	6524.12
919.727	6514.4
920.038	6514.18
920.349	6503.33
920.66	6377.91
920.971	6447.06
921.282	6389.89
921.593	6369.1
921.903	6313.73
922.214	6323.68
922.525	6301.98
922.835	6245.26
923.146	6240.29
923.456	6241.42
923.767	6207.75
924.077	6175.43
924.387	6143.34
924.697	6072.16
925.008	6099.95
925.318	6044.81
925.628	6047.75
925.938	6007.53
926.248	5944.48
926.558	5951.03
926.867	5911.48
927.177	5857.93
927.487	5833.52
927.796	5798.04
928.106	5840.75
928.416	5751.04
928.725	5780.64
929.034	5718.49
929.344	5745.61
929.653	5727.98
929.962	5685.05
930.271	5573.19
930.581	5593.53
930.89	5540.87
931.199	5572.73
931.508	5524.37
931.817	5582.23
932.125	5503.13
932.434	5515.79
932.743	5413.87
933.051	5391.04
933.36	5393.3
933.669	5295
933.977	5320.31
934.286	5299.3
934.594	5333.19
934.902	5285.74
935.21	5240.77
935.519	5262.01
935.827	5244.83
936.135	5217.04
936.443	5183.82
936.751	5113.54
937.059	5163.03
937.367	5118.74
937.674	5098.17
937.982	5075.57
938.29	5064.27
938.597	5041
938.905	4982.02
939.213	4935.01
939.52	4977.27
939.827	4972.52
940.135	4876.71
940.442	4887.56
940.749	4837.16
941.056	4911.51
941.363	4822.7
941.67	4821.34
941.977	4785.18
942.284	4769.37
942.591	4723.72
942.898	4710.16
943.205	4701.35
943.511	4724.62
943.818	4653.66
944.125	4635.81
944.431	4631.74
944.738	4613.44
945.044	4587.22
945.35	4546.55
945.657	4527.79
945.963	4511.07
946.269	4528.24
946.575	4529.6
946.881	4468.13
947.187	4466.1
947.493	4473.78
947.799	4422.03
948.105	4394.23
948.41	4369.15
948.716	4369.83
949.022	4321.24
949.327	4331.64
949.633	4292.32
949.938	4329.6
950.244	4321.69
950.549	4276.5
950.854	4217.29
951.16	4241.02
951.465	4211.41
951.77	4138.42
952.075	4173.22
952.38	4111.76
952.685	4129.83
952.99	4087.8
953.294	4116.95
953.599	4069.05
953.904	4050.74
954.209	4043.96
954.513	4013.45
954.818	3997.64
955.122	3984.3
955.426	3961.7
955.731	3931.42
956.035	3932.1
956.339	3903.4
956.643	3891.2
956.948	3881.93
957.252	3885.55
957.556	3830.63
957.86	3831.99
958.163	3839
958.467	3783.63
958.771	3803.29
959.075	3780.01
959.378	3712.44
959.682	3740.92
959.985	3732.56
960.289	3710.86
960.592	3670.86
960.896	3711.31
961.199	3649.62
961.502	3672.45
961.805	3657.3
962.108	3592
962.411	3573.47
962.714	3587.48
963.017	3569.17
963.32	3599.45
963.623	3513.13
963.926	3538.21
964.228	3514.03
964.531	3421.6
964.833	3486.01
965.136	3427.25
965.438	3428.38
965.741	3403.98
966.043	3428.38
966.345	3355.84
966.648	3372.11
966.95	3400.36
967.252	3351.32
967.554	3336.86
967.856	3314.04
968.158	3261.16
968.46	3288.73
968.761	3278.78
969.063	3280.82
969.365	3226.36
969.666	3231.33
969.968	3175.28
970.269	3215.96
970.571	3194.72
970.872	3164.66
971.174	3189.75
971.475	3162.18
971.776	3141.16
972.077	3077.43
972.378	3092.12
972.679	3094.83
972.98	3078.56
973.281	3032.01
973.582	3034.5
973.883	3058.9
974.183	2994.27
974.484	3017.77
974.785	2974.61
975.085	3003.08
975.386	3002.86
975.686	2926.7
975.986	2945.91
976.287	2978.45
976.587	2922.18
976.887	2902.52
977.187	2885.35
977.487	2871.11
977.787	2869.08
978.087	2841.06
978.387	2879.47
978.687	2833.15
978.987	2786.37
979.286	2778.01
979.586	2804.67
979.885	2755.63
980.185	2726.48
980.484	2728.29
980.784	2741.4
981.083	2728.97
981.382	2731
981.682	2706.6
981.981	2712.7
982.28	2664.34
982.579	2654.62
982.878	2680.61
983.177	2640.83
983.475	2637.67
983.774	2657.11
984.073	2651.68
984.372	2582.53
984.67	2593.38
984.969	2597.67
985.267	2582.76
985.566	2580.72
985.864	2567.39
986.162	2555.87
986.461	2516.54
986.759	2511.12
987.057	2481.74
987.355	2468.41
987.653	2474.29
987.951	2478.13
988.249	2477.22
988.547	2456.88
988.844	2457.56
989.142	2416.66
989.44	2404.46
989.737	2392.25
990.035	2380.73
990.332	2407.17
990.63	2387.73
990.927	2338.92
991.224	2354.29
991.521	2327.85
991.819	2321.07
992.116	2316.78
992.413	2307.74
992.71	2317.45
993.006	2302.76
993.303	2271.35
993.6	2268.87
993.897	2261.86
994.193	2268.19
994.49	2230.9
994.787	2209.89
995.083	2237.46
995.379	2203.56
995.676	2182.54
995.972	2180.73
996.268	2174.63
996.565	2160.17
996.861	2174.86
997.157	2129.21
997.453	2122.2
997.749	2129.21
998.044	2089.21
998.34	2102.32
998.636	2107.06
998.932	2100.51
999.227	2083.11
999.523	2057.35
999.818	2032.26
1000.114	2011.92
1000.409	2024.58
1000.704	2016.22
1001	2002.21
1001.295	1992.72
1001.59	2006.27
1001.885	1965.37
1002.18	1952.72
1002.475	1946.84
1002.77	1949.78
1003.065	1957.69
1003.359	1938.93
1003.654	1920.18
1003.949	1916.33
1004.243	1917.24
1004.538	1882.21
1004.832	1868.88
1005.127	1882.89
1005.421	1871.14
1005.715	1874.53
1006.009	1844.92
1006.304	1862.1
1006.598	1846.96
1006.892	1813.96
1007.186	1769.67
1007.48	1766.96
1007.773	1776
1008.067	1766.28
1008.361	1741.2
1008.655	1742.1
1008.948	1747.07
1009.242	1711.82
1009.535	1731.48
1009.829	1687.87
1010.122	1707.75
1010.415	1683.35
1010.708	1682.67
1011.001	1711.14
1011.295	1627.53
1011.588	1632.5
1011.881	1629.11
1012.173	1644.93
1012.466	1625.27
1012.759	1604.93
1013.052	1606.74
1013.344	1586.62
1013.637	1575.78
1013.93	1552.95
1014.222	1585.95
1014.514	1562.67
1014.807	1547.08
1015.099	1564.25
1015.391	1536.91
1015.683	1540.3
1015.976	1520.19
1016.268	1474.31
1016.56	1491.03
1016.851	1494.88
1017.143	1466.85
1017.435	1486.29
1017.727	1457.36
1018.018	1434.99
1018.31	1424.37
1018.602	1421.21
1018.893	1436.35
1019.185	1387.31
1019.476	1403.58
1019.767	1377.36
1020.058	1406.29
1020.35	1363.13
1020.641	1365.16
1020.932	1331.94
1021.223	1369.91
1021.514	1322.45
1021.804	1319.74
1022.095	1340.53
1022.386	1306.86
1022.677	1302.34
1022.967	1291.72
1023.258	1293.53
1023.548	1286.97
1023.839	1282.9
1024.129	1285.84
1024.419	1271.15
1024.709	1262.79
1025	1246.52
1025.29	1245.62
1025.58	1223.47
1025.87	1237.48
1026.16	1236.8
1026.449	1184.15
1026.739	1187.99
1027.029	1180.53
1027.319	1195.67
1027.608	1174.66
1027.898	1168.56
1028.187	1186.86
1028.477	1127.65
1028.766	1144.15
1029.055	1169.01
1029.344	1147.99
1029.634	1129.24
1029.923	1133.53
1030.212	1128.78
1030.501	1115.9
1030.79	1100.08
1031.078	1084.04
1031.367	1076.13
1031.656	1063.7
1031.945	1058.96
1032.233	1067.99
1032.522	1061.44
1032.81	1042.68
1033.099	1048.79
1033.387	1027.54
1033.675	1012.18
1033.963	1024.83
1034.251	1018.05
1034.54	998.17
1034.828	986.64
1035.116	995.23
1035.403	985.51
1035.691	980.77
1035.979	980.77
1036.267	971.95
1036.554	978.73
1036.842	956.59
1037.129	963.14
1037.417	956.81
1037.704	967.66
1037.992	951.16
1038.279	931.27
1038.566	931.05
1038.853	931.05
1039.14	931.05
