Data from hue_260_FLMS001491_00044.txt Node
Date: Tue Feb 07 15:59:03 GMT 2017
User: dcchb
Spectrometer: FLMS00149
Trigger mode: 0
Integration Time (sec): 2.000000E-2
Scans to average: 10
Electric dark correction enabled: true
Nonlinearity correction enabled: false
Boxcar width: 0
XAxis mode: Wavelengths
Number of Pixels in Spectrum: 2048
>>>>>Begin Spectral Data<<<<<
341.393	-37.48
341.776	-37.48
342.16	-37.48
342.543	-61.67
342.927	-70.93
343.31	-72.06
343.693	-66.18
344.077	-73.87
344.46	-62.12
344.843	-51.04
345.226	-38.16
345.61	-37.94
345.993	-4.49
346.376	0.48
346.759	-8.11
347.142	35.51
347.525	35.28
347.908	65.79
348.291	66.69
348.674	97.2
349.057	113.02
349.44	103.53
349.823	129.97
350.206	160.93
350.588	178.78
350.971	206.35
351.354	207.03
351.737	195.28
352.119	252.23
352.502	247.93
352.884	270.76
353.267	271.89
353.65	276.18
354.032	281.38
354.414	277.54
354.797	304.88
355.179	290.19
355.562	297.65
355.944	317.31
356.326	313.47
356.709	318.66
357.091	299.23
357.473	330.19
357.855	335.61
358.238	340.58
358.62	334.93
359.002	336.97
359.384	341.71
359.766	326.8
360.148	341.49
360.53	318.89
360.912	317.08
361.294	324.09
361.676	320.25
362.057	324.31
362.439	300.81
362.821	319.79
363.203	303.98
363.584	321.15
363.966	321.6
364.348	327.03
364.729	299.46
365.111	303.07
365.493	328.61
365.874	305.1
366.256	313.47
366.637	293.58
367.019	318.89
367.4	311.88
367.781	308.49
368.163	292.45
368.544	311.43
368.925	298.1
369.306	314.37
369.688	286.35
370.069	305.56
370.45	285.67
370.831	300.36
371.212	304.65
371.593	302.85
371.974	308.27
372.355	305.1
372.736	296.52
373.117	300.59
373.498	301.04
373.879	311.66
374.26	302.17
374.641	298.78
375.021	307.59
375.402	318.89
375.783	303.07
376.163	311.88
376.544	320.7
376.925	315.95
377.305	325.9
377.686	321.6
378.066	317.99
378.447	325.67
378.827	331.09
379.208	335.39
379.588	319.12
379.968	325.9
380.349	322.96
380.729	318.21
381.109	340.81
381.489	314.6
381.87	333.13
382.25	314.82
382.63	308.04
383.01	315.95
383.39	320.92
383.77	349.4
384.15	312.56
384.53	352.34
384.91	325.44
385.29	331.09
385.67	340.36
386.049	338.55
386.429	352.79
386.809	329.74
387.189	350.3
387.568	337.87
387.948	364.99
388.328	349.17
388.707	362.73
389.087	365.22
389.466	339
389.846	359.11
390.225	364.31
390.605	346.46
390.984	347.82
391.363	347.59
391.743	358.66
392.122	382.62
392.501	380.36
392.881	380.36
393.26	378.78
393.639	380.58
394.018	370.41
394.397	373.8
394.776	354.82
395.155	383.07
395.534	374.71
395.913	371.54
396.292	390.53
396.671	385.78
397.05	363.41
397.429	392.56
397.808	382.62
398.186	379.68
398.565	386.01
398.944	393.46
399.323	395.5
399.701	381.49
400.08	402.73
400.458	405.89
400.837	409.28
401.215	391.43
401.594	429.17
401.972	408.38
402.351	390.53
402.729	413.58
403.107	419.9
403.486	402.73
403.864	432.11
404.242	454.25
404.62	417.87
404.999	438.66
405.377	417.19
405.755	425.1
406.133	440.69
406.511	435.27
406.889	447.25
407.267	464.65
407.645	457.87
408.023	455.16
408.401	482.5
408.779	454.71
409.156	496.06
409.534	481.82
409.912	480.69
410.29	496.29
410.667	492.22
411.045	511.88
411.422	515.95
411.8	527.02
412.178	520.24
412.555	538.77
412.933	542.16
413.31	552.1
413.687	566.79
414.065	565.44
414.442	572.44
414.819	568.6
415.197	577.19
415.574	593.01
415.951	583.06
416.328	601.82
416.705	603.18
417.082	620.12
417.46	612.67
417.837	637.53
418.214	641.14
418.591	640.69
418.967	636.4
419.344	654.02
419.721	671.42
420.098	668.03
420.475	686.34
420.852	680.46
421.228	707.13
421.605	715.72
421.982	691.54
422.358	722.5
422.735	713.68
423.111	750.29
423.488	756.62
423.864	754.13
424.241	772.89
424.617	782.61
424.994	778.54
425.37	772.44
425.746	797.3
426.123	816.28
426.499	822.83
426.875	863.73
427.251	846.79
427.627	855.37
428.003	880.46
428.379	882.72
428.756	894.69
429.132	882.26
429.507	889.27
429.883	902.15
430.259	930.85
430.635	950.06
431.011	966.56
431.387	957.29
431.763	989.15
432.138	1017.63
432.514	997.97
432.89	1025.76
433.265	1019.66
433.641	1061.7
434.016	1074.12
434.392	1094.01
434.767	1095.82
435.143	1123.16
435.518	1138.3
435.894	1151.18
436.269	1179.66
436.644	1169.49
437.02	1196.83
437.395	1217.62
437.77	1226.89
438.145	1246.32
438.52	1260.79
438.895	1269.83
439.271	1272.54
439.646	1296.49
440.021	1304.63
440.395	1357.73
440.77	1336.94
441.145	1371.29
441.52	1378.3
441.895	1392.08
442.27	1394.79
442.645	1409.03
443.019	1420.78
443.394	1421.23
443.769	1447.22
444.143	1464.62
444.518	1475.24
444.892	1477.05
445.267	1497.84
445.641	1522.7
446.016	1487.9
446.39	1529.25
446.764	1523.83
447.139	1540.78
447.513	1534.45
447.887	1571.96
448.262	1549.37
448.636	1620.1
449.01	1598.4
449.384	1618.74
449.758	1634.11
450.132	1666.88
450.506	1635.69
450.88	1646.09
451.254	1659.42
451.628	1686.99
452.002	1694.67
452.376	1701.68
452.75	1697.84
453.123	1747.33
453.497	1768.34
453.871	1778.06
454.244	1822.81
454.618	1807.66
454.992	1819.42
455.365	1832.3
455.739	1906.64
456.112	1928.34
456.486	1888.79
456.859	1934.67
457.232	1973.08
457.606	1958.17
457.979	1982.35
458.352	2017.83
458.725	2030.03
459.099	2063.48
459.472	2090.59
459.845	2105.06
460.218	2102.35
460.591	2132.18
460.964	2139.63
461.337	2206.3
461.71	2221.21
462.083	2250.59
462.456	2240.87
462.829	2259.86
463.201	2270.48
463.574	2304.6
463.947	2319.52
464.32	2401.32
464.692	2360.64
465.065	2386.41
465.438	2421.66
465.81	2453.52
466.183	2448.55
466.555	2493.52
466.928	2508.44
467.3	2542.56
467.672	2579.4
468.045	2646.29
468.417	2609.23
468.789	2632.73
469.161	2679.51
469.534	2738.94
469.906	2767.41
470.278	2771.25
470.65	2790.69
471.022	2885.15
471.394	2914.75
471.766	2898.03
472.138	2939.16
472.51	3005.82
472.882	3072.04
473.253	3037.24
473.625	3121.3
473.997	3157.69
474.369	3201.53
474.74	3206.27
475.112	3258.02
475.484	3269.09
475.855	3335.08
476.227	3355.42
476.598	3466.83
476.97	3492.82
477.341	3560.39
477.713	3601.29
478.084	3633.38
478.455	3680.84
478.827	3690.1
479.198	3802.64
479.569	3814.84
479.94	3924.22
480.311	3915.63
480.682	3992.92
481.053	4094.84
481.424	4117.43
481.795	4158.79
482.166	4168.73
482.537	4226.58
482.908	4359.69
483.279	4382.74
483.65	4393.36
484.021	4499.8
484.391	4562.85
484.762	4559.23
485.133	4629.06
485.503	4630.19
485.874	4759
486.244	4801.71
486.615	4858.43
486.985	4899.56
487.356	4965.1
487.726	5004.42
488.097	5100.46
488.467	5088.26
488.837	5189.5
489.207	5233.56
489.578	5342.03
489.948	5396.04
490.318	5396.27
490.688	5421.13
491.058	5486.66
491.428	5555.81
491.798	5575.02
492.168	5676.72
492.538	5670.16
492.908	5706.54
493.278	5786.09
493.648	5797.39
494.017	5873.77
494.387	5899.53
494.757	5925.75
495.126	6024.28
495.496	5976.14
495.866	6036.93
496.235	6145.18
496.605	6178.62
496.974	6150.15
497.344	6226.08
497.713	6247.32
498.082	6242.12
498.452	6340.2
498.821	6326.19
499.19	6342.69
499.559	6355.57
499.928	6394.21
500.298	6452.51
500.667	6450.03
501.036	6494.77
501.405	6549.46
501.774	6496.81
502.143	6558.05
502.512	6596.46
502.88	6638.05
503.249	6619.06
503.618	6650.93
503.987	6678.27
504.356	6691.6
504.724	6728.44
505.093	6735.9
505.462	6772.28
505.83	6790.81
506.199	6823.58
506.567	6966.85
506.936	6852.5
507.304	6899.51
507.672	6963.01
508.041	6979.96
508.409	6993.74
508.777	7021.76
509.145	7054.98
509.514	7061.31
509.882	7085.72
510.25	7082.33
510.618	7068.77
510.986	7134.53
511.354	7231.93
511.722	7161.65
512.09	7139.73
512.458	7196.45
512.826	7275.54
513.193	7290.91
513.561	7291.81
513.929	7332.26
514.297	7336.78
514.664	7303.57
515.032	7373.62
515.4	7406.84
515.767	7363.22
516.135	7348.99
516.502	7325.26
516.869	7418.14
517.237	7472.37
517.604	7412.49
517.972	7497.91
518.339	7459.04
518.706	7487.97
519.073	7469.21
519.44	7539.27
519.808	7540.39
520.175	7514.18
520.542	7627.17
520.909	7652.26
521.276	7598.7
521.643	7653.16
522.009	7633.5
522.376	7680.05
522.743	7710.56
523.11	7719.83
523.477	7849.77
523.843	7794.17
524.21	7806.15
524.577	7832.82
524.943	7839.6
525.31	7813.16
525.676	7846.15
526.043	7892.48
526.409	7920.95
526.776	8004.79
527.142	7939.48
527.508	7953.94
527.874	7973.6
528.241	8019.93
528.607	8000.95
528.973	8047.5
529.339	8015.64
529.705	8110.32
530.071	8123.43
530.437	8090.21
530.803	8077.56
531.169	8092.02
531.535	8070.55
531.901	8142.19
532.267	8052.25
532.632	8088.63
532.998	8074.17
533.364	8095.86
533.73	8065.58
534.095	8101.51
534.461	8129.31
534.826	8078.91
535.192	8089.76
535.557	8162.53
535.923	8073.04
536.288	8069.42
536.653	8106.48
537.019	8050.66
537.384	8082.75
537.749	8070.32
538.114	8097.89
538.479	8073.04
538.845	8047.95
539.21	8031.23
539.575	8037.56
539.94	7963.21
540.305	8089.76
540.67	7998.01
541.034	8009.08
541.399	8029.87
541.764	7958.69
542.129	8043.43
542.494	8007.5
542.858	7972.47
543.223	7958.24
543.587	8017.22
543.952	7950.55
544.316	7964.11
544.681	8008.86
545.045	7959.82
545.41	8044.79
545.774	7973.15
546.138	7892.02
546.503	7909.65
546.867	7887.5
547.231	7960.72
547.595	7873.49
547.959	7882.08
548.324	7921.85
548.688	7913.72
549.052	7874.4
549.416	7900.16
549.779	7858.35
550.143	7841.63
550.507	7857.22
550.871	7845.92
551.235	7772.25
551.599	7878.47
551.962	7807.05
552.326	7804.57
552.689	7832.82
553.053	7788.52
553.417	7782.2
553.78	7829.88
554.143	7816.77
554.507	7750.33
554.87	7784.46
555.234	7847.05
555.597	7762.99
555.96	7756.21
556.323	7821.74
556.686	7782.87
557.05	7816.32
557.413	7797.34
557.776	7813.38
558.139	7785.36
558.502	7875.53
558.865	7786.26
559.228	7840.5
559.59	7823.55
559.953	7857
560.316	7876.21
560.679	7981.74
561.041	7924.79
561.404	7876.66
561.767	7992.81
562.129	7875.75
562.492	7962.53
562.854	7947.62
563.217	7960.95
563.579	7957.33
563.941	8020.38
564.304	7992.13
564.666	8061.74
565.028	8059.93
565.39	8067.61
565.753	8072.36
566.115	8050.66
566.477	8082.53
566.839	8064.9
567.201	8110.1
567.563	8176.99
567.925	8142.41
568.287	8186.03
568.648	8208.17
569.01	8175.63
569.372	8258.34
569.734	8227.83
570.095	8366.14
570.457	8274.61
570.819	8279.13
571.18	8257.21
571.542	8323.2
571.903	8315.29
572.265	8371.79
572.626	8351
572.987	8382.86
573.349	8330.2
573.71	8432.57
574.071	8402.75
574.432	8428.28
574.794	8472.8
575.155	8458.79
575.516	8497.88
575.877	8553.25
576.238	8581.95
576.599	8588.73
576.96	8572.68
577.32	8620.37
577.681	8607.03
578.042	8659.46
578.403	8652
578.763	8653.13
579.124	8683.64
579.485	8739.01
579.845	8771.32
580.206	8733.13
580.566	8761.15
580.927	8784.2
581.287	8798.44
581.648	8819.46
582.008	8822.4
582.368	8873.47
582.728	8882.96
583.089	8877.08
583.449	8903.3
583.809	8915.05
584.169	8920.25
584.529	8942.62
584.889	9008.15
585.249	8941.26
585.609	8927.48
585.969	9020.36
586.329	8983.29
586.688	8991.43
587.048	9042.73
587.408	9051.32
587.768	9037.76
588.127	9018.32
588.487	9023.52
588.846	9167.92
589.206	9088.38
589.565	9117.98
589.925	9163.4
590.284	9148.71
590.643	9186
591.003	9197.53
591.362	9172.67
591.721	9222.38
592.08	9152.1
592.44	9180.35
592.799	9235.94
593.158	9204.98
593.517	9245.66
593.876	9230.97
594.235	9238.2
594.593	9287.24
594.952	9338.31
595.311	9304.87
595.67	9302.16
596.029	9355.26
596.387	9352.32
596.746	9351.65
597.104	9329.05
597.463	9349.84
597.822	9355.71
598.18	9319.78
598.538	9341.93
598.897	9387.13
599.255	9303.74
599.613	9501.02
599.972	9418.31
600.33	9407.69
600.688	9348.03
601.046	9489.5
601.404	9479.78
601.762	9464.64
602.12	9453.56
602.478	9529.27
602.836	9456.28
603.194	9427.35
603.552	9474.13
603.91	9426
604.268	9513.9
604.625	9491.53
604.983	9500.8
605.341	9476.16
605.698	9527.91
606.056	9555.26
606.413	9534.47
606.771	9489.27
607.128	9558.42
607.485	9480
607.843	9490.4
608.2	9494.92
608.557	9599.55
608.914	9568.36
609.272	9557.52
609.629	9672.54
609.986	9614.92
610.343	9589.15
610.7	9678.19
611.057	9679.32
611.414	9626.89
611.771	9589.38
612.127	9688.14
612.484	9649.27
612.841	9699.89
613.198	9658.76
613.554	9626.67
613.911	9766.33
614.267	9632.32
614.624	9674.12
614.98	9761.13
615.337	9838.19
615.693	9727
616.05	9696.27
616.406	9768.13
616.762	9745.53
617.118	9742.82
617.475	9851.75
617.831	9819.43
618.187	9819.43
618.543	9794.8
618.899	9887.9
619.255	9811.07
619.611	9836.38
619.967	9847.23
620.323	9884.74
620.678	9820.11
621.034	9839.32
621.39	9858.75
621.746	9757.96
622.101	9926.77
622.457	9785.99
622.812	9846.77
623.168	9811.52
623.523	9863.72
623.879	9875.25
624.234	9856.04
624.589	9899.43
624.945	9870.5
625.3	9850.16
625.655	9844.52
626.01	9828.7
626.365	9844.29
626.72	9835.48
627.075	9872.99
627.43	9839.32
627.785	9754.8
628.14	9844.29
628.495	9860.56
628.85	9811.97
629.205	9742.82
629.559	9848.13
629.914	9813.78
630.269	9766.1
630.623	9770.39
630.978	9730.85
631.332	9762.03
631.687	9792.77
632.041	9722.03
632.396	9743.5
632.75	9744.63
633.104	9655.82
633.459	9672.32
633.813	9666.44
634.167	9731.75
634.521	9701.92
634.875	9739.89
635.229	9683.39
635.583	9639.77
635.937	9632.09
636.291	9670.73
636.645	9634.35
636.999	9642.49
637.352	9629.83
637.706	9548.7
638.06	9600
638.413	9563.17
638.767	9557.52
639.121	9588.48
639.474	9488.82
639.828	9530.85
640.181	9516.61
640.534	9558.42
640.888	9499.67
641.241	9430.97
641.594	9471.42
641.947	9524.3
642.301	9531.3
642.654	9511.42
643.007	9467.35
643.36	9403.85
643.713	9479.33
644.066	9454.69
644.419	9368.82
644.771	9349.39
645.124	9276.85
645.477	9250.18
645.83	9203.85
646.182	9200.46
646.535	9180.58
646.888	9162.95
647.24	9021.03
647.593	9138.77
647.945	9187.13
648.298	9067.36
648.65	9021.26
649.002	9081.6
649.355	9083.41
649.707	9063.97
650.059	9060.58
650.411	9251.08
650.763	9251.31
651.115	9303.74
651.467	9286.11
651.819	9282.04
652.171	9317.52
652.523	9254.7
652.875	9253.34
653.227	9236.62
653.578	9251.76
653.93	9325.43
654.282	9230.97
654.633	9255.6
654.985	9250.41
655.337	9255.6
655.688	9303.06
656.039	9311.65
656.391	9256.73
656.742	9257.41
657.094	9284.08
657.445	9308.03
657.796	9267.36
658.147	9265.77
658.498	9303.51
658.849	9278.88
659.2	9303.96
659.551	9265.77
659.902	9292.21
660.253	9285.43
660.604	9311.65
660.955	9273.46
661.306	9281.82
661.656	9209.96
662.007	9228.49
662.358	9307.13
662.708	9366.11
663.059	9277.75
663.409	9235.04
663.76	9287.69
664.11	9321.59
664.461	9330.86
664.811	9267.58
665.161	9359.56
665.511	9216.96
665.862	9248.37
666.212	9331.76
666.562	9252.89
666.912	9222.16
667.262	9250.63
667.612	9296.73
667.962	9228.26
668.312	9301.25
668.662	9285.89
669.011	9250.86
669.361	9262.16
669.711	9232.1
670.06	9230.97
670.41	9261.93
670.76	9238.2
671.109	9241.59
671.459	9298.54
671.808	9228.71
672.157	9229.16
672.507	9192.78
672.856	9180.8
673.205	9265.32
673.554	9207.24
673.904	9229.39
674.253	9264.64
674.602	9193.46
674.951	9067.59
675.3	9067.36
675.649	9156.62
675.998	9104.42
676.346	9154.14
676.695	9148.26
677.044	9087.47
677.393	9163.18
677.741	9124.31
678.09	9099.68
678.438	9056.29
678.787	9040.47
679.135	9088.15
679.484	8990.53
679.832	9058.55
680.181	9006.8
680.529	9006.35
680.877	8948.95
681.225	8997.31
681.573	9009.28
681.922	8948.27
682.27	8993.92
682.618	8949.4
682.966	8850.64
683.314	8934.71
683.661	8809.97
684.009	8854.94
684.357	8827.14
684.705	8797.76
685.053	8829.63
685.4	8815.16
685.748	8761.38
686.095	8781.49
686.443	8762.96
686.79	8802.28
687.138	8710.53
687.485	8720.25
687.832	8712.57
688.18	8631.67
688.527	8663.98
688.874	8571.55
689.221	8560.93
689.568	8540.14
689.915	8544.21
690.262	8471.44
690.609	8493.36
690.956	8464.44
691.303	8450.65
691.65	8402.75
691.997	8401.16
692.344	8302.63
692.69	8326.14
693.037	8296.53
693.383	8268.51
693.73	8215.18
694.077	8216.08
694.423	8168.63
694.769	8160.72
695.116	8084.11
695.462	8153.26
695.808	8078.69
696.155	8152.81
696.501	8014.73
696.847	8052.02
697.193	8005.24
697.539	7923.66
697.885	7916.66
698.231	7874.85
698.577	7918.69
698.923	7871.01
699.269	7863.55
699.614	7776.55
699.96	7737
700.306	7760.05
700.651	7762.31
700.997	7666.95
701.342	7671.46
701.688	7662.2
702.033	7614.29
702.379	7642.09
702.724	7588.08
703.069	7592.15
703.415	7450
703.76	7473.73
704.105	7506.05
704.45	7421.75
704.795	7411.58
705.14	7401.19
705.485	7389.89
705.83	7318.48
706.175	7342.21
706.52	7298.37
706.865	7328.65
707.209	7278.25
707.554	7254.3
707.899	7251.36
708.243	7229.89
708.588	7194.42
708.932	7187.18
709.277	7156.22
709.621	7136.34
709.966	7085.49
710.31	7079.62
710.654	6990.13
710.998	7080.97
711.342	7090.01
711.687	7008.43
712.031	7007.53
712.375	6961.88
712.719	6983.8
713.063	6915.33
713.407	6962.56
713.75	6963.69
714.094	6946.51
714.438	6885.95
714.782	6972.73
715.125	6932.95
715.469	6872.62
715.812	6871.26
716.156	6847.98
716.499	6856.35
716.843	6860.86
717.186	6862.9
717.53	6794.43
717.873	6854.76
718.216	6790.58
718.559	6775.9
718.902	6736.57
719.246	6765.73
719.589	6735.44
719.932	6735.44
720.275	6722.79
720.617	6731.15
720.96	6703.81
721.303	6696.12
721.646	6685.5
721.989	6682.56
722.331	6661.1
722.674	6642.11
723.016	6673.98
723.359	6652.73
723.701	6667.42
724.044	6643.02
724.386	6593.75
724.729	6644.37
725.071	6606.86
725.413	6596.24
725.755	6622.23
726.097	6581.1
726.439	6572.28
726.782	6558.95
727.124	6609.8
727.465	6574.09
727.807	6568.44
728.149	6523.47
728.491	6538.16
728.833	6522.79
729.175	6514.21
729.516	6530.48
729.858	6573.19
730.199	6543.59
730.541	6541.33
730.882	6490.93
731.224	6571.15
731.565	6462.46
731.906	6493.19
732.248	6493.87
732.589	6516.92
732.93	6436.24
733.271	6507.88
733.612	6562.12
733.953	6459.52
734.294	6503.36
734.635	6509.01
734.976	6526.86
735.317	6535
735.658	6497.48
735.999	6493.64
736.339	6471.27
736.68	6525.28
737.021	6484.83
737.361	6507.65
737.702	6485.73
738.042	6523.25
738.383	6496.13
738.723	6521.44
739.063	6536.13
739.404	6528.22
739.744	6473.53
740.084	6516.69
740.424	6540.87
740.764	6552.62
741.104	6610.48
741.444	6602.57
741.784	6555.79
742.124	6595.34
742.464	6612.74
742.804	6579.74
743.143	6608.44
743.483	6608.44
743.823	6640.76
744.162	6652.28
744.502	6688.89
744.841	6698.38
745.181	6720.08
745.52	6691.83
745.86	6774.77
746.199	6823.35
746.538	6756.23
746.877	6856.35
747.216	6851.37
747.556	7000.07
747.895	6968.88
748.234	6947.64
748.573	6992.61
748.911	7037.81
749.25	7142.44
749.589	7139.95
749.928	7209.1
750.267	7249.1
750.605	7283.45
750.944	7318.48
751.283	7428.99
751.621	7470.57
751.96	7491.81
752.298	7597.79
752.636	7650
752.975	7717.57
753.313	7712.82
753.651	7851.35
753.989	7888.41
754.327	8032.59
754.666	8048.18
755.004	8240.04
755.342	8344.22
755.679	8434.61
756.017	8384.21
756.355	8605.68
756.693	8668.73
757.031	8833.24
757.368	8874.82
757.706	9017.64
758.044	9091.99
758.381	9220.12
758.719	9337.64
759.056	9468.25
759.394	9615.82
759.731	9671.86
760.068	9802.71
760.405	9868.02
760.743	10024.4
761.08	10190.27
761.417	10265.97
761.754	10410.83
762.091	10516.59
762.428	10735.11
762.765	10752.97
763.102	10877.93
763.438	11075.9
763.775	11047.2
764.112	11197.47
764.449	11335.55
764.785	11413.29
765.122	11550.01
765.458	11712.04
765.795	11794.97
766.131	11912.94
766.467	11997.23
766.804	12103.44
767.14	12120.61
767.476	12310.67
767.812	12367.16
768.148	12524.9
768.485	12566.7
768.821	12618.23
769.157	12867.03
769.492	12914.04
769.828	12972.34
770.164	12968.73
770.5	13038.1
770.836	13165.78
771.171	13174.82
771.507	13277.87
771.842	13260.47
772.178	13351.54
772.513	13452.78
772.849	13542.72
773.184	13551.99
773.519	13636.73
773.855	13689.16
774.19	13713.34
774.525	13702.94
774.86	13758.08
775.195	13862.04
775.53	13859.32
775.865	13893.22
776.2	13787.91
776.535	13888.93
776.87	13863.84
777.205	13985.88
777.539	13976.16
777.874	14048.25
778.209	13936.38
778.543	14020
778.878	13979.1
779.212	14053.22
779.547	13957.63
779.881	14049.83
780.215	14058.19
780.55	14192.88
780.884	14061.58
781.218	14085.99
781.552	14134.35
781.886	14045.08
782.22	14033.33
782.554	13991.07
782.888	14005.08
783.222	13969.38
783.556	13984.29
783.889	13955.59
784.223	13887.12
784.557	13908.36
784.89	13944.52
785.224	13907.91
785.557	13867.01
785.891	13878.53
786.224	13851.42
786.558	13893.67
786.891	13702.27
787.224	13753.56
787.557	13762.38
787.891	13826.33
788.224	13728.03
788.557	13725.54
788.89	13750.4
789.223	13760.8
789.556	13683.51
789.888	13680.57
790.221	13663.17
790.554	13598.54
790.887	13550.86
791.219	13523.97
791.552	13505.66
791.884	13487.58
792.217	13466.11
792.549	13465.89
792.882	13411.43
793.214	13342.05
793.546	13450.97
793.879	13264.31
794.211	13194.26
794.543	13293.92
794.875	13237.87
795.207	13273.58
795.539	13261.37
795.871	13203.52
796.203	13100.25
796.535	13050.31
796.867	13075.39
797.198	13017.77
797.53	13046.01
797.862	12947.03
798.193	13016.18
798.525	12897.77
798.856	12946.81
799.188	12838.11
799.519	12726.02
799.85	12723.31
800.182	12809.86
800.513	12785.91
800.844	12611.22
801.175	12731.22
801.506	12723.76
801.837	12649.87
802.168	12656.19
802.499	12628.62
802.83	12583.65
803.161	12582.3
803.491	12506.59
803.822	12495.52
804.153	12428.4
804.483	12389.53
804.814	12351.12
805.145	12324.68
805.475	12374.62
805.805	12274.51
806.136	12263.89
806.466	12194.96
806.796	12250.1
807.126	12152.25
807.457	12124.68
807.787	12154.51
808.117	12047.17
808.447	12109.09
808.777	12104.34
809.107	12081.74
809.436	12004.68
809.766	12028.41
810.096	11991.8
810.426	11809.66
810.755	11932.82
811.085	11884.01
811.414	11826.38
811.744	11777.8
812.073	11730.12
812.403	11792.03
812.732	11787.29
813.061	11707.52
813.39	11670.46
813.719	11618.48
814.049	11711.81
814.378	11598.82
814.707	11635.65
815.036	11607.18
815.365	11520.86
815.693	11529.44
816.022	11445.6
816.351	11454.42
816.68	11449.67
817.008	11537.8
817.337	11340.3
817.665	11316.57
817.994	11345.49
818.322	11336
818.651	11267.98
818.979	11291.48
819.307	11331.03
819.636	11235.89
819.964	11190.69
820.292	11238.6
820.62	11225.04
820.948	11143.46
821.276	11190.02
821.604	11161.54
821.932	11191.15
822.259	11254.65
822.587	11180.53
822.915	11120.64
823.243	11256.46
823.57	11141.43
823.898	11286.74
824.225	11156.8
824.553	11149.34
824.88	11122.67
825.207	11164.71
825.535	11170.58
825.862	11258.26
826.189	11155.22
826.516	11270.24
826.843	11193.86
827.17	11219.62
827.497	11213.97
827.824	11208.32
828.151	11273.18
828.478	11239.28
828.805	11224.37
829.131	11224.37
829.458	11233.18
829.785	11183.01
830.111	11222.33
830.438	11253.07
830.764	11218.04
831.09	11309.79
831.417	11205.84
831.743	11202.67
832.069	11213.29
832.395	11194.54
832.722	11194.76
833.048	11180.3
833.374	11180.75
833.7	11104.14
834.026	11110.92
834.351	11090.58
834.677	11163.35
835.003	11046.52
835.329	11109.11
835.654	11047.87
835.98	11017.37
836.306	11042.9
836.631	11046.29
836.956	11018.72
837.282	11046.74
837.607	10959.29
837.932	10958.16
838.258	10933.3
838.583	10978.5
838.908	10939.4
839.233	10916.13
839.558	10988.67
839.883	10879.52
840.208	10833.64
840.533	10818.95
840.858	10820.31
841.182	10812.17
841.507	10769.69
841.832	10723.36
842.156	10739.41
842.481	10725.17
842.805	10725.4
843.13	10623.25
843.454	10620.09
843.778	10622.8
844.103	10529.02
844.427	10574.89
844.751	10557.72
845.075	10478.4
845.399	10472.07
845.723	10447.89
846.047	10429.36
846.371	10337.84
846.695	10386.87
847.019	10286.99
847.343	10242.7
847.666	10171.74
847.99	10054.91
848.313	10150.5
848.637	10121.8
848.96	10103.49
849.284	10067.11
849.607	10013.55
849.931	9975.59
850.254	9845.65
850.577	9823.72
850.9	9801.35
851.223	9775.36
851.546	9683.84
851.869	9654.01
852.192	9712.77
852.515	9622.15
852.838	9579.89
853.161	9646.1
853.483	9565.88
853.806	9476.84
854.129	9554.13
854.451	9490.63
854.774	9446.11
855.096	9412.89
855.419	9423.51
855.741	9338.31
856.063	9314.81
856.385	9305.32
856.708	9242.05
857.03	9246.79
857.352	9215.61
857.674	9128.38
857.996	9103.74
858.318	9101.48
858.64	9131.31
858.961	9075.04
859.283	9072.56
859.605	9085.21
859.926	9051.09
860.248	8988.94
860.57	8999.79
860.891	8964.31
861.212	8958.66
861.534	8845.67
861.855	8868.04
862.176	8922.05
862.498	8854.71
862.819	8837.08
863.14	8805.67
863.461	8868.72
863.782	8785.79
864.103	8747.59
864.424	8755.28
864.745	8771.1
865.065	8715.51
865.386	8659.01
865.707	8694.71
866.027	8713.7
866.348	8660.59
866.668	8699.91
866.989	8623.53
867.309	8584.66
867.63	8629.86
867.95	8610.42
868.27	8557.54
868.59	8571.1
868.91	8518.22
869.23	8524.1
869.55	8460.82
869.87	8486.81
870.19	8495.4
870.51	8462.18
870.83	8496.75
871.15	8466.47
871.469	8416.08
871.789	8451.56
872.109	8420.6
872.428	8377.21
872.748	8396.64
873.067	8376.76
873.386	8362.97
873.706	8386.47
874.025	8289.75
874.344	8313.03
874.663	8323.88
874.982	8338.79
875.301	8263.31
875.62	8212.24
875.939	8230.77
876.258	8296.31
876.577	8232.58
876.896	8201.62
877.214	8203.88
877.533	8173.82
877.852	8155.75
878.17	8190.1
878.489	8257.89
878.807	8177.89
879.125	8140.15
879.444	8115.97
879.762	8134.28
880.08	8070.78
880.398	8109.42
880.716	8081.85
881.034	8003.21
881.352	8036.2
881.67	8032.13
881.988	7968.86
882.306	8022.87
882.624	7965.92
882.941	7936.99
883.259	7883.66
883.577	7933.83
883.894	7885.24
884.212	7855.87
884.529	7903.55
884.846	7766.38
885.164	7877.56
885.481	7778.35
885.798	7822.65
886.115	7721.63
886.432	7761.18
886.75	7681.41
887.067	7763.21
887.383	7678.7
887.7	7681.18
888.017	7681.41
888.334	7674.4
888.651	7582.2
888.967	7583.11
889.284	7527.29
889.6	7570.68
889.917	7496.55
890.233	7485.93
890.55	7458.36
890.866	7485.71
891.182	7441.41
891.498	7424.01
891.815	7458.36
892.131	7373.39
892.447	7341.76
892.763	7331.59
893.079	7278.93
893.395	7312.38
893.71	7324.81
894.026	7198.48
894.342	7246.17
894.657	7175.66
894.973	7176.79
895.289	7160.74
895.604	7084.59
895.92	7085.27
896.235	6998.94
896.55	7017.92
896.865	7063.57
897.181	7022.89
897.496	6986.29
897.811	6962.56
898.126	6924.82
898.441	6899.28
898.756	6899.06
899.071	6831.71
899.386	6851.83
899.7	6790.58
900.015	6803.92
900.33	6784.48
900.644	6751.94
900.959	6764.6
901.273	6699.29
901.588	6634.88
901.902	6595.11
902.216	6610.93
902.531	6571.83
902.845	6549.69
903.159	6525.96
903.473	6511.72
903.787	6508.33
904.101	6491.61
904.415	6410.26
904.729	6446.64
905.042	6414.77
905.356	6372.52
905.67	6348.56
905.984	6348.79
906.297	6345.62
906.611	6350.14
906.924	6331.39
907.237	6301.78
907.551	6259.52
907.864	6235.8
908.177	6183.14
908.491	6265.63
908.804	6112.86
909.117	6106.76
909.43	6039.42
909.743	6088.23
910.056	6049.13
910.368	5999.87
910.681	5980.21
910.994	5947.89
911.307	5890.72
911.619	5897.95
911.932	5883.72
912.244	5836.03
912.557	5803.27
912.869	5834.9
913.181	5823.38
913.494	5790.84
913.806	5765.07
914.118	5705.64
914.43	5671.07
914.742	5656.6
915.054	5671.52
915.366	5575.25
915.678	5570.96
915.99	5587.23
916.302	5525.08
916.613	5530.5
916.925	5503.39
917.236	5503.39
917.548	5461.13
917.859	5466.1
918.171	5422.03
918.482	5355.82
918.794	5382.49
919.105	5382.94
919.416	5281.92
919.727	5316.05
920.038	5333.67
920.349	5258.87
920.66	5223.62
920.971	5265.2
921.282	5265.43
921.593	5184.52
921.903	5154.02
922.214	5157.41
922.525	5135.94
922.835	5088.03
923.146	5090.06
923.456	5022.04
923.767	5055.49
924.077	5011.42
924.387	5029.73
924.697	4931.2
925.008	4947.24
925.318	4986.56
925.628	4917.87
925.938	4942.5
926.248	4924.42
926.558	4847.36
926.867	4885.32
927.177	4834.7
927.487	4845.78
927.796	4795.16
928.106	4740.47
928.416	4739.56
928.725	4757.42
929.034	4716.74
929.344	4720.13
929.653	4683.29
929.962	4690.07
930.271	4641.71
930.581	4585.22
930.89	4619.12
931.199	4542.73
931.508	4532.34
931.817	4566.69
932.125	4491.89
932.434	4544.77
932.743	4454.83
933.051	4476.52
933.36	4434.71
933.669	4386.13
933.977	4406.47
934.286	4431.78
934.594	4405.56
934.902	4358.56
935.21	4317.2
935.519	4337.32
935.827	4334.6
936.135	4325.34
936.443	4279.24
936.751	4240.37
937.059	4275.85
937.367	4210.54
937.674	4202.86
937.982	4229.97
938.29	4190.2
938.597	4201.5
938.905	4170.99
939.213	4137.55
939.52	4142.52
939.827	4082.63
940.135	4045.35
940.442	4090.77
940.749	4080.82
941.056	4062.97
941.363	3994.95
941.67	3966.93
941.977	3965.8
942.284	3976.87
942.591	3983.2
942.898	3921.28
943.205	3894.84
943.511	3872.69
943.818	3900.72
944.125	3857.1
944.431	3848.97
944.738	3827.05
945.044	3809.19
945.35	3765.35
945.657	3761.51
945.963	3761.51
946.269	3738.91
946.575	3699.14
946.881	3664.56
947.187	3668.86
947.493	3686.71
947.799	3694.39
948.105	3650.1
948.41	3655.07
948.716	3677.67
949.022	3634.73
949.327	3620.27
949.633	3553.16
949.938	3555.41
950.244	3574.4
950.549	3540.5
950.854	3485.81
951.16	3539.6
951.465	3510.44
951.77	3452.59
952.075	3463.89
952.38	3448.98
952.685	3465.02
952.99	3395.87
953.294	3393.84
953.599	3394.97
953.904	3385.25
954.209	3364.23
954.513	3350.45
954.818	3329.88
955.122	3284.91
955.426	3274.52
955.731	3301.18
956.035	3288.53
956.339	3232.26
956.643	3267.96
956.948	3224.58
957.252	3246.5
957.556	3224.8
957.86	3214.41
958.163	3196.1
958.467	3174.86
958.771	3135.54
959.075	3120.85
959.378	3109.78
959.682	3133.28
959.985	3084.69
960.289	3113.62
960.592	3066.39
960.896	3065.48
961.199	3057.8
961.502	3052.38
961.805	3040.17
962.108	3037.24
962.411	3015.77
962.714	3011.47
963.017	2966.05
963.32	2943.91
963.623	2964.24
963.926	2897.81
964.228	2941.65
964.531	2904.13
964.833	2906.39
965.136	2911.36
965.438	2851.25
965.741	2839.5
966.043	2870.91
966.345	2864.13
966.648	2863.68
966.95	2823.23
967.252	2824.81
967.554	2780.75
967.856	2758.6
968.158	2739.84
968.46	2741.65
968.761	2775.77
969.063	2758.83
969.365	2684.93
969.666	2722.44
969.968	2688.77
970.269	2674.08
970.571	2672.95
970.872	2681.54
971.174	2665.72
971.475	2636.34
971.776	2620.52
972.077	2628.21
972.378	2647.19
972.679	2623.91
972.98	2560.19
973.281	2600.41
973.582	2566.06
973.883	2613.29
974.183	2557.48
974.484	2550.47
974.785	2499.4
975.085	2489.23
975.386	2496.69
975.686	2512.05
975.986	2480.19
976.287	2484.93
976.587	2479.06
976.887	2450.59
977.187	2427.31
977.487	2439.29
977.787	2381.66
978.087	2413.52
978.387	2392.73
978.687	2405.84
978.987	2374.66
979.286	2373.07
979.586	2362.23
979.885	2337.82
980.185	2353.41
980.484	2327.88
980.784	2314.09
981.083	2254.21
981.382	2307.31
981.682	2294.66
981.981	2285.17
982.28	2259.86
982.579	2236.81
982.878	2238.61
983.177	2293.3
983.475	2237.48
983.774	2242.91
984.073	2216.92
984.372	2171.95
984.67	2199.07
984.969	2227.31
985.267	2171.04
985.566	2144.6
985.864	2140.31
986.162	2138.5
986.461	2131.72
986.759	2123.14
987.057	2074.1
987.355	2116.81
987.653	2075.23
987.951	2057.6
988.249	2053.76
988.547	2081.1
988.844	2035.23
989.142	2048.79
989.44	2066.87
989.737	2025.74
990.035	2023.25
990.332	2019.64
990.63	1990.48
990.927	1984.61
991.224	1973.31
991.521	2012.63
991.819	1960.2
992.116	1960.43
992.413	1981.67
992.71	1959.3
993.006	1922.92
993.303	1954.78
993.6	1917.94
993.897	1922.69
994.193	1904.16
994.49	1923.37
994.787	1893.99
995.083	1858.06
995.379	1887.21
995.676	1884.27
995.972	1842.47
996.268	1819.19
996.565	1836.59
996.861	1834.33
997.157	1799.3
997.453	1802.69
997.749	1812.64
998.044	1782.13
998.34	1764.5
998.636	1756.14
998.932	1733.99
999.227	1742.36
999.523	1738.29
999.818	1730.83
1000.114	1706.88
1000.409	1718.18
1000.704	1718.4
1001	1698.06
1001.295	1679.31
1001.59	1657.84
1001.885	1705.29
1002.18	1663.49
1002.475	1657.61
1002.77	1648.57
1003.065	1623.71
1003.359	1636.6
1003.654	1645.63
1003.949	1604.51
1004.243	1602.25
1004.538	1579.65
1004.832	1594.79
1005.127	1579.2
1005.421	1573.09
1005.715	1559.76
1006.009	1545.98
1006.304	1534.9
1006.598	1556.37
1006.892	1530.16
1007.186	1536.49
1007.48	1550.04
1007.773	1502.36
1008.067	1491.97
1008.361	1496.49
1008.655	1468.01
1008.948	1467.33
1009.242	1474.11
1009.535	1449.48
1009.829	1442.48
1010.122	1450.61
1010.415	1448.35
1010.708	1425.98
1011.001	1389.82
1011.295	1403.16
1011.588	1406.54
1011.881	1385.08
1012.173	1403.16
1012.466	1383.72
1012.759	1369.26
1013.052	1370.16
1013.344	1340.56
1013.637	1375.13
1013.93	1333.33
1014.222	1323.16
1014.514	1340.78
1014.807	1316.83
1015.099	1328.35
1015.391	1320.45
1015.683	1293.78
1015.976	1260.56
1016.268	1270.96
1016.56	1282.25
1016.851	1301.91
1017.143	1238.64
1017.435	1272.54
1017.727	1232.09
1018.018	1221.24
1018.31	1235.48
1018.602	1226.21
1018.893	1207.45
1019.185	1205.87
1019.476	1196.38
1019.767	1202.03
1020.058	1187.79
1020.35	1183.05
1020.641	1168.13
1020.932	1166.55
1021.223	1146.89
1021.514	1141.47
1021.804	1127.23
1022.095	1123.16
1022.386	1117.29
1022.677	1140.11
1022.967	1113.9
1023.258	1135.14
1023.548	1126.55
1023.839	1102.15
1024.129	1087.23
1024.419	1087.23
1024.709	1064.86
1025	1066.21
1025.29	1063.28
1025.58	1061.47
1025.87	1082.94
1026.16	1030.96
1026.449	1022.83
1026.739	1036.61
1027.029	1012.88
1027.319	1006.1
1027.608	977.18
1027.898	995.71
1028.187	998.42
1028.477	997.74
1028.766	1000.91
1029.055	979.21
1029.344	967.91
1029.634	966.1
1029.923	965.43
1030.212	941.92
1030.501	965.88
1030.79	939.66
1031.078	927.24
1031.367	946.67
1031.656	943.73
1031.945	924.52
1032.233	923.85
1032.522	906.45
1032.81	920.91
1033.099	880.68
1033.387	882.72
1033.675	868.25
1033.963	885.2
1034.251	877.75
1034.54	865.54
1034.828	887.91
1035.116	849.05
1035.403	840.46
1035.691	856.5
1035.979	869.61
1036.267	837.29
1036.554	860.34
1036.842	829.16
1037.129	839.78
1037.417	836.84
1037.704	813.34
1037.992	832.1
1038.279	810.4
1038.566	784.87
1038.853	784.87
1039.14	784.87
