Data from hue_320_FLMS001491_4.txt Node
Date: Mon Feb 06 15:46:36 GMT 2017
User: dcchb
Spectrometer: FLMS00149
Trigger mode: 0
Integration Time (sec): 2.000000E-2
Scans to average: 10
Electric dark correction enabled: true
Nonlinearity correction enabled: false
Boxcar width: 0
XAxis mode: Wavelengths
Number of Pixels in Spectrum: 2048
>>>>>Begin Spectral Data<<<<<
341.393	-29.48
341.776	-29.48
342.16	-29.48
342.543	-40.55
342.927	-62.24
343.31	-66.54
343.693	-72.41
344.077	-58.85
344.46	-47.78
344.843	-48.46
345.226	-49.36
345.61	-39.65
345.993	-25.86
346.376	-22.25
346.759	-6.2
347.142	26.79
347.525	44.19
347.908	62.05
348.291	84.19
348.674	104.98
349.057	115.15
349.44	149.73
349.823	133
350.206	163.51
350.588	203.96
350.971	217.07
351.354	234.47
351.737	233.57
352.119	231.99
352.502	263.62
352.884	270.4
353.267	273.79
353.65	319.44
354.032	301.81
354.414	325.32
354.797	320.34
355.179	336.62
355.562	337.75
355.944	316.73
356.326	332.1
356.709	345.65
357.091	331.87
357.473	340.46
357.855	354.24
358.238	343.39
358.62	348.37
359.002	352.43
359.384	329.84
359.766	338.42
360.148	336.39
360.53	321.25
360.912	344.98
361.294	335.94
361.676	340.46
362.057	324.64
362.439	324.64
362.821	321.25
363.203	343.85
363.584	344.75
363.966	323.73
364.348	324.41
364.729	351.53
365.111	341.36
365.493	316.5
365.874	317.86
366.256	337.52
366.637	319.21
367.019	316.05
367.4	318.54
367.781	314.02
368.163	318.54
368.544	334.58
368.925	323.06
369.306	318.31
369.688	312.21
370.069	305.2
370.45	319.89
370.831	317.18
371.212	324.64
371.593	308.37
371.974	303.4
372.355	320.57
372.736	307.24
373.117	316.28
373.498	300.46
373.879	320.57
374.26	293
374.641	313.79
375.021	312.66
375.402	316.28
375.783	346.56
376.163	335.03
376.544	329.61
376.925	313.34
377.305	331.64
377.686	314.24
378.066	333.68
378.447	314.24
378.827	330.51
379.208	340.23
379.588	322.6
379.968	331.42
380.349	322.38
380.729	351.08
381.109	314.7
381.489	332.32
381.87	331.87
382.25	354.02
382.63	342.27
383.01	335.03
383.39	347.24
383.77	352.21
384.15	340.01
384.53	356.28
384.91	338.2
385.29	370.29
385.67	352.21
386.049	360.12
386.429	345.65
386.809	358.54
387.189	372.77
387.568	362.6
387.948	363.51
388.328	369.61
388.707	361.25
389.087	358.76
389.466	378.2
389.846	361.47
390.225	351.3
390.605	360.12
390.984	348.82
391.363	376.39
391.743	364.64
392.122	385.43
392.501	395.37
392.881	367.35
393.26	369.16
393.639	380.91
394.018	386.78
394.397	384.3
394.776	390.63
395.155	378.65
395.534	395.82
395.913	377.07
396.292	415.26
396.671	398.08
397.05	403.05
397.429	365.77
397.808	385.88
398.186	400.57
398.565	390.17
398.944	410.74
399.323	393.11
399.701	404.18
400.08	417.07
400.458	422.04
400.837	408.93
401.215	398.99
401.594	385.88
401.972	432.88
402.351	436.5
402.729	431.75
403.107	432.21
403.486	451.87
403.864	440.79
404.242	410.29
404.62	417.52
404.999	440.12
405.377	428.14
405.755	462.94
406.133	465.43
406.511	455.26
406.889	450.96
407.267	450.96
407.645	466.1
408.023	473.11
408.401	478.53
408.779	467.23
409.156	475.14
409.534	472.21
409.912	468.14
410.29	509.27
410.667	502.03
411.045	514.01
411.422	509.94
411.8	515.14
412.178	524.63
412.555	542.49
412.933	516.5
413.31	529.38
413.687	555.59
414.065	553.33
414.442	575.71
414.819	551.3
415.197	572.77
415.574	580.68
415.951	589.26
416.328	586.1
416.705	615.03
417.082	614.35
417.46	611.64
417.837	650.28
418.214	618.19
418.591	623.84
418.967	644.4
419.344	642.82
419.721	646.89
420.098	652.54
420.475	672.65
420.852	657.06
421.228	682.82
421.605	684.4
421.982	691.41
422.358	695.25
422.735	690.28
423.111	719.2
423.488	723.05
423.864	714.46
424.241	734.35
424.617	735.02
424.994	748.81
425.37	751.29
425.746	750.39
426.123	747.45
426.499	774.34
426.875	775.47
427.251	800.33
427.627	799.2
428.003	809.82
428.379	797.62
428.756	831.52
429.132	829.48
429.507	849.6
429.883	879.43
430.259	893.89
430.635	858.41
431.011	866.32
431.387	875.58
431.763	895.47
432.138	888.24
432.514	915.81
432.89	938.41
433.265	940.89
433.641	965.07
434.016	968.01
434.392	982.47
434.767	977.5
435.143	971.85
435.518	975.69
435.894	1014.56
436.269	1014.11
436.644	1016.82
437.02	1032.42
437.395	1034.22
437.77	1035.35
438.145	1066.54
438.52	1073.09
438.895	1077.16
439.271	1060.21
439.646	1080.78
440.021	1101.79
440.395	1102.02
440.77	1111.74
441.145	1129.81
441.52	1135.01
441.895	1128.91
442.27	1160.32
442.645	1116.26
443.019	1155.8
443.394	1173.88
443.769	1151.51
444.143	1165.97
444.518	1194.22
444.892	1165.97
445.267	1198.74
445.641	1200.55
446.016	1194.9
446.39	1181.56
446.764	1195.8
447.139	1213.65
447.513	1214.33
447.887	1198.97
448.262	1220.43
448.636	1217.72
449.01	1223.6
449.384	1231.51
449.758	1272.18
450.132	1246.42
450.506	1217.27
450.88	1261.11
451.254	1283.26
451.628	1288
452.002	1296.14
452.376	1266.53
452.75	1285.74
453.123	1302.01
453.497	1328.45
453.871	1325.97
454.244	1335.91
454.618	1343.14
454.992	1349.24
455.365	1361
455.739	1386.31
456.112	1424.04
456.486	1390.6
456.859	1414.78
457.232	1436.47
457.606	1422.91
457.979	1431.05
458.352	1443.7
458.725	1473.08
459.099	1467.21
459.472	1466.76
459.845	1487.09
460.218	1485.74
460.591	1520.31
460.964	1479.18
461.337	1567.32
461.71	1529.8
462.083	1560.09
462.456	1575.45
462.829	1564.83
463.201	1599.18
463.574	1600.99
463.947	1605.06
464.32	1624.49
464.692	1671.04
465.065	1632.4
465.438	1697.26
465.81	1688.22
466.183	1720.08
466.555	1726.86
466.928	1730.03
467.3	1740.42
467.672	1733.64
468.045	1791.04
468.417	1770.25
468.789	1814.77
469.161	1845.5
469.534	1834.2
469.906	1873.75
470.278	1887.76
470.65	1855.22
471.022	1892.51
471.394	1944.93
471.766	1935.9
472.138	1936.12
472.51	2012.05
472.882	1975.44
473.253	2023.12
473.625	2051.82
473.997	2058.15
474.369	2111.03
474.74	2099.05
475.112	2145.61
475.484	2162.1
475.855	2167.98
476.227	2188.32
476.598	2253.4
476.97	2270.35
477.341	2301.54
477.713	2326.85
478.084	2338.14
478.455	2385.6
478.827	2399.16
479.198	2435.32
479.569	2436.22
479.94	2465.15
480.311	2497.69
480.682	2563.68
481.053	2572.26
481.424	2585.82
481.795	2617.23
482.166	2665.59
482.537	2668.53
482.908	2726.38
483.279	2754.86
483.65	2788.53
484.021	2826.27
484.391	2840.28
484.762	2859.03
485.133	2907.62
485.503	2912.59
485.874	2922.08
486.244	2962.54
486.615	3028.97
486.985	3052.02
487.356	3043.89
487.726	3115.75
488.097	3151.91
488.467	3158.24
488.837	3191.23
489.207	3222.42
489.578	3265.8
489.948	3294.96
490.318	3314.39
490.688	3357.55
491.058	3354.62
491.428	3465.35
491.798	3414.27
492.168	3499.47
492.538	3526.59
492.908	3531.11
493.278	3597.55
493.648	3579.92
494.017	3641.61
494.387	3652.46
494.757	3701.27
495.126	3694.49
495.496	3698.33
495.866	3722.74
496.235	3763.42
496.605	3743.53
496.974	3815.39
497.344	3815.39
497.713	3810.87
498.082	3838.67
498.452	3877.54
498.821	3870.53
499.19	3890.87
499.559	3929.74
499.928	3990.53
500.298	3953.92
500.667	3986.46
501.036	4008.16
501.405	4012.9
501.774	4052.22
502.143	4062.39
502.512	4069.62
502.88	4105.78
503.249	4083.86
503.618	4089.06
503.987	4119.34
504.356	4153.69
504.724	4166.57
505.093	4206.34
505.462	4193.24
505.83	4259.22
506.199	4210.19
506.567	4232.33
506.936	4264.65
507.304	4308.71
507.672	4337.19
508.041	4319.56
508.409	4322.73
508.777	4354.81
509.145	4399.33
509.514	4409.95
509.882	4390.97
510.25	4409.28
510.618	4434.36
510.986	4430.75
511.354	4442.5
511.722	4499.67
512.09	4483.4
512.458	4508.94
512.826	4512.1
513.193	4563.62
513.561	4585.32
513.929	4559.33
514.297	4583.96
514.664	4610.18
515.032	4627.58
515.4	4596.84
515.767	4644.75
516.135	4611.08
516.502	4670.51
516.869	4722.94
517.237	4747.12
517.604	4653.34
517.972	4708.03
518.339	4762.71
518.706	4773.11
519.073	4733.79
519.44	4790.96
519.808	4778.76
520.175	4762.94
520.542	4836.84
520.909	4843.84
521.276	4853.78
521.643	4833.67
522.009	4898.08
522.376	4929.04
522.743	4908.25
523.11	4912.77
523.477	5017.85
523.843	4966.78
524.21	5037.73
524.577	5051.97
524.943	5092.2
525.31	5072.76
525.676	5153.66
526.043	5173.1
526.409	5181.91
526.776	5205.64
527.142	5248.12
527.508	5260.1
527.874	5226.66
528.241	5336.48
528.607	5305.75
528.973	5378.29
529.339	5324.96
529.705	5446.99
530.071	5446.09
530.437	5472.53
530.803	5452.87
531.169	5514.11
531.535	5511.85
531.901	5536.25
532.267	5583.26
532.632	5601.34
532.998	5589.13
533.364	5626.65
533.73	5674.78
534.095	5672.07
534.461	5759.98
534.826	5740.77
535.192	5752.52
535.557	5779.64
535.923	5817.83
536.288	5796.58
536.653	5818.51
537.019	5853.98
537.384	5883.81
537.749	5896.92
538.114	5938.28
538.479	5912.29
538.845	5946.41
539.21	5949.35
539.575	5974.43
539.94	6040.19
540.305	6075.22
540.67	6068.89
541.034	6079.29
541.399	6072.96
541.764	6081.78
542.129	6200.64
542.494	6219.85
542.858	6251.94
543.223	6262.79
543.587	6274.31
543.952	6254.88
544.316	6335.78
544.681	6315.67
545.045	6378.94
545.41	6372.61
545.774	6452.39
546.138	6523.35
546.503	6446.29
546.867	6445.16
547.231	6512.05
547.595	6559.5
547.959	6589.78
548.324	6563.12
548.688	6586.85
549.052	6592.5
549.416	6630.69
549.779	6691.48
550.143	6660.29
550.507	6707.52
550.871	6721.31
551.235	6794.07
551.599	6819.38
551.962	6791.36
552.326	6803.11
552.689	6826.61
553.053	6797.24
553.417	6852.83
553.78	6992.49
554.143	6941.87
554.507	6951.58
554.87	6990
555.234	7060.51
555.597	6994.29
555.96	7037.91
556.323	7042.43
556.686	7062.54
557.05	7074.07
557.413	7112.71
557.776	7218.02
558.139	7135.53
558.502	7168.53
558.865	7182.09
559.228	7192.93
559.59	7233.38
559.953	7241.29
560.316	7383.21
560.679	7404.9
561.041	7369.2
561.404	7404.9
561.767	7375.53
562.129	7404.45
562.492	7444.45
562.854	7421.4
563.217	7464.34
563.579	7497.78
563.941	7529.65
564.304	7600.15
564.666	7545.47
565.028	7640.83
565.39	7621.62
565.753	7667.04
566.115	7648.97
566.477	7694.84
566.839	7786.59
567.201	7792.24
567.563	7778.91
567.925	7824.33
568.287	7828.4
568.648	7868.39
569.01	7918.34
569.372	7957.21
569.734	7934.16
570.095	8005.57
570.457	8106.58
570.819	8056.41
571.18	8107.48
571.542	8159.23
571.903	8181.61
572.265	8239.91
572.626	8252.57
572.987	8348.61
573.349	8420.7
573.71	8385.22
574.071	8521.26
574.432	8573.69
574.794	8616.85
575.155	8627.92
575.516	8629.28
575.877	8762.83
576.238	8803.29
576.599	8887.8
576.96	8937.07
577.32	8976.39
577.681	9083.73
578.042	9233.56
578.403	9245.53
578.763	9277.62
579.124	9458.41
579.485	9587.67
579.845	9647.11
580.206	9723.04
580.566	9853.88
580.927	10015.23
581.287	10164.15
581.648	10275.56
582.008	10355.34
582.368	10592.39
582.728	10741.09
583.089	10810.92
583.449	11090.68
583.809	11215.43
584.169	11366.83
584.529	11540.84
584.889	11789.2
585.249	11924.11
585.609	12099.24
585.969	12379.24
586.329	12534.03
586.688	12878.21
587.048	13077.3
587.408	13316.61
587.768	13494.01
588.127	13841.12
588.487	13985.07
588.846	14401.56
589.206	14572.63
589.565	14758.84
589.925	15124.7
590.284	15417.57
590.643	15681.75
591.003	16083.55
591.362	16382.97
591.721	16555.62
592.08	16926.91
592.44	17264.98
592.799	17609.16
593.158	17840.34
593.517	18175.92
593.876	18527.55
594.235	18782.01
594.593	18982.23
594.952	19488.88
595.311	19685.94
595.67	20060.62
596.029	20506.03
596.387	20865.34
596.746	21103.98
597.104	21440.47
597.463	21683.4
597.822	22164.74
598.18	22327.68
598.538	22685.41
598.897	23062.12
599.255	23229.12
599.613	23885.6
599.972	24055.31
600.33	24371.92
600.688	24565.13
601.046	24949.75
601.404	25395.62
601.762	25691.43
602.12	26006.22
602.478	26329.15
602.836	26615.25
603.194	26675.81
603.552	27188.79
603.91	27390.14
604.268	27734.99
604.625	28012.5
604.983	28403.45
605.341	28409.55
605.698	28943.32
606.056	29243.88
606.413	29501.5
606.771	29866.46
607.128	30088.83
607.485	30102.84
607.843	30305.32
608.2	30972.87
608.557	31119.31
608.914	31330.15
609.272	31677.26
609.629	31865.73
609.986	32099.62
610.343	32200.41
610.7	32802.2
611.057	32860.28
611.414	32998.36
611.771	33276.54
612.127	33498
612.484	33684.21
612.841	33931.21
613.198	34002.4
613.554	34197.19
613.911	34706.56
614.267	34757.41
614.624	34830.4
614.98	35116.94
615.337	35379.54
615.693	35520.78
616.05	35653.65
616.406	35988.56
616.762	35916.02
617.118	36151.49
617.475	36373.86
617.831	36554.65
618.187	36675.32
618.543	36755.09
618.899	37204.8
619.255	37235.31
619.611	37332.93
619.967	37546.94
620.323	37736.54
620.678	37647.5
621.034	37689.76
621.39	37848.4
621.746	37960.71
622.101	38532.45
622.457	38250.65
622.812	38484.31
623.168	38676.62
623.523	38644.99
623.879	38985.77
624.234	38745.78
624.589	38860.57
624.945	39110.51
625.3	39270.51
625.655	39279.77
626.01	39372.43
626.365	39449.49
626.72	39444.51
627.075	39522.03
627.43	39614
627.785	39651.74
628.14	39723.15
628.495	39869.14
628.85	39739.42
629.205	39869.81
629.559	40081.56
629.914	40080.88
630.269	40093.31
630.623	39989.13
630.978	40048.57
631.332	40272.51
631.687	40253.53
632.041	40194.1
632.396	40159.75
632.75	40170.6
633.104	40390.7
633.459	40231.84
633.813	40254.89
634.167	40210.37
634.521	40186.19
634.875	40420.08
635.229	40282.23
635.583	40192.06
635.937	40277.71
636.291	40273.42
636.645	40371.27
636.999	40186.64
637.352	40384.83
637.706	40132.41
638.06	40420.31
638.413	40401.32
638.767	40222.35
639.121	40256.24
639.474	40043.59
639.828	40213.08
640.181	40395.45
640.534	40272.97
640.888	40221.67
641.241	40093.08
641.594	40054.22
641.947	40163.82
642.301	40236.13
642.654	40211.5
643.007	40282.23
643.36	40087.89
643.713	40089.69
644.066	40179.86
644.419	40035.68
644.771	39778.06
645.124	39453.55
645.477	39431.41
645.83	39253.11
646.182	39206.78
646.535	38998.65
646.888	38990.97
647.24	38908.03
647.593	39145.76
647.945	38911.87
648.298	38792.33
648.65	38801.59
649.002	38681.82
649.355	38922.27
649.707	38873.46
650.059	39017.86
650.411	39444.29
650.763	39616.49
651.115	39830.72
651.467	39781.68
651.819	39682.25
652.171	39716.6
652.523	39664.62
652.875	39567.22
653.227	39575.36
653.578	39806.54
653.93	39759.31
654.282	39527.68
654.633	39353.44
654.985	39630.05
655.337	39637.95
655.688	39591.18
656.039	39725.86
656.391	39407.9
656.742	39435.25
657.094	39557.51
657.445	39566.32
657.796	39501.91
658.147	39424.85
658.498	39367.45
658.849	39439.99
659.2	39396.15
659.551	39325.65
659.902	39455.81
660.253	39372.43
660.604	39436.83
660.955	39257.85
661.306	39412.2
661.656	39295.59
662.007	39295.37
662.358	39233.9
662.708	39310.51
663.059	39187.12
663.409	39123.39
663.76	39232.77
664.11	39241.36
664.461	39328.13
664.811	39194.58
665.161	39274.57
665.511	39065.77
665.862	39183.73
666.212	39192.54
666.562	39187.12
666.912	39232.09
667.262	39186.44
667.612	39265.31
667.962	39354.12
668.312	39161.81
668.662	39276.16
669.011	39181.7
669.361	39095.6
669.711	39231.41
670.06	39079.33
670.41	39216.5
670.76	39088.82
671.109	39266.44
671.459	39070.51
671.808	39033.45
672.157	39162.26
672.507	38867.35
672.856	38938.76
673.205	39024.64
673.554	39075.03
673.904	38871.87
674.253	39125.43
674.602	38907.8
674.951	38585.33
675.3	38207.26
675.649	38881.14
675.998	38787.36
676.346	38794.36
676.695	38777.86
677.044	38688.83
677.393	38749.16
677.741	38837.98
678.09	38686.12
678.438	38584.42
678.787	38609.06
679.135	38625.78
679.484	38419.91
679.832	38525.22
680.181	38310.08
680.529	38437.99
680.877	38356.18
681.225	38241.38
681.573	38542.16
681.922	38219.91
682.27	38187.37
682.618	38228.05
682.966	38206.13
683.314	38107.37
683.661	38071.67
684.009	37943.31
684.357	37866.25
684.705	37770.21
685.053	37718.68
685.4	37800.94
685.748	37676.65
686.095	37598.23
686.443	37451.35
686.79	37369.99
687.138	37351.69
687.485	37561.17
687.832	37381.74
688.18	37327.28
688.527	37160.51
688.874	37186.72
689.221	36979.04
689.568	37003.9
689.915	36950.12
690.262	36841.42
690.609	36718.26
690.956	36587.41
691.303	36672.84
691.65	36528.43
691.997	36307.42
692.344	36284.6
692.69	36346.06
693.037	36176.8
693.383	35976.81
693.73	36131.61
694.077	35911.95
694.423	35914.66
694.769	35844.61
695.116	35650.49
695.462	35730.49
695.808	35716.02
696.155	35633.99
696.501	35307.22
696.847	35317.16
697.193	35138.64
697.539	35228.58
697.885	35032.43
698.231	34930.06
698.577	35048.25
698.923	34803.96
699.269	34713.11
699.614	34577.3
699.96	34495.27
700.306	34516.73
700.651	34297.3
700.997	34270.19
701.342	34128.95
701.688	34085.78
702.033	33945.9
702.379	33902.74
702.724	33868.16
703.069	33842.4
703.415	33506.14
703.76	33456.87
704.105	33653.48
704.45	33584.33
704.795	33305.24
705.14	33257.33
705.485	33239.25
705.83	32951.13
706.175	33034.96
706.52	33006.26
706.865	32805.82
707.209	32838.81
707.554	32742.99
707.899	32817.34
708.243	32670
708.588	32623.68
708.932	32380.07
709.277	32384.13
709.621	32304.36
709.966	32254.65
710.31	32298.94
710.654	31778.5
710.998	32033.64
711.342	32078.15
711.687	31940.3
712.031	31800.65
712.375	31752.06
712.719	31834.77
713.063	31744.38
713.407	31763.81
713.75	31566.53
714.094	31583.03
714.438	31436.14
714.782	31458.96
715.125	31296.03
715.469	31263.03
715.812	31256.25
716.156	31057.16
716.499	31127.9
716.843	31075.02
717.186	30961.12
717.53	31037.96
717.873	30978.75
718.216	30853.1
718.559	30796.38
718.902	30535.82
719.246	30551.87
719.589	30618.98
719.932	30528.14
720.275	30402.94
720.617	30398.88
720.96	30362.04
721.303	30317.07
721.646	30408.14
721.989	30141.93
722.331	30320.01
722.674	30041.6
723.016	30117.53
723.359	30040.92
723.701	30136.28
724.044	29800.25
724.386	29769.51
724.729	29988.94
725.071	29694.49
725.413	29819.23
725.755	29762.73
726.097	29721.38
726.439	29544.44
726.782	29530.2
727.124	29554.15
727.465	29417.88
727.807	29421.27
728.149	29280.94
728.491	29229.19
728.833	29327.49
729.175	29150.1
729.516	29057.22
729.858	29118.91
730.199	29036.88
730.541	29058.57
730.882	28939.03
731.224	29075.52
731.565	28800.95
731.906	28972.47
732.248	28923.43
732.589	28560.51
732.93	28685.25
733.271	28630.79
733.612	28717.56
733.953	28568.19
734.294	28523.67
734.635	28463.79
734.976	28514.41
735.317	28388.76
735.658	28371.36
735.999	28440.96
736.339	28358.7
736.68	28353.73
737.021	28341.98
737.361	28095.21
737.702	28333.39
738.042	28258.14
738.383	28101.31
738.723	28139.5
739.063	28004.59
739.404	28095.43
739.744	27977.24
740.084	27777.7
740.424	27855.21
740.764	27824.48
741.104	27887.3
741.444	27793.52
741.784	27656.58
742.124	27689.34
742.464	27666.52
742.804	27670.36
743.143	27546.52
743.483	27630.14
743.823	27494.55
744.162	27377.71
744.502	27515.56
744.841	27265.17
745.181	27421.1
745.52	27264.95
745.86	27330.93
746.199	27135.91
746.538	27188.79
746.877	27198.73
747.216	27159.86
747.556	27015.24
747.895	27042.13
748.234	26941.57
748.573	26950.38
748.911	26814.79
749.25	26809.37
749.589	26735.47
749.928	26652.31
750.267	26659.31
750.605	26621.57
750.944	26671.97
751.283	26521.24
751.621	26544.06
751.96	26416.61
752.298	26453.22
752.636	26334.58
752.975	26296.84
753.313	26201.47
753.651	26194.92
753.989	26147.69
754.327	26003.06
754.666	25954.47
755.004	26036.73
755.342	26005.77
755.679	25957.64
756.017	25751.77
756.355	25822.05
756.693	25688.04
757.031	25941.14
757.368	25548.83
757.706	25577.53
758.044	25484.88
758.381	25443.98
758.719	25412.79
759.056	25388.39
759.394	25371.89
759.731	25128.51
760.068	25220.25
760.405	25042.86
760.743	24971.45
761.08	24980.94
761.417	24914.95
761.754	24773.94
762.091	24801.51
762.428	24705.01
762.765	24480.16
763.102	24660.04
763.438	24445.59
763.775	24291.92
764.112	24378.7
764.449	24550.22
764.785	24157.68
765.122	24046.5
765.458	23964.69
765.795	24046.27
766.131	23924.92
766.467	23849.9
766.804	23652.39
767.14	23698.71
767.476	23605.16
767.812	23493.97
768.148	23556.57
768.485	23382.11
768.821	23252.62
769.157	23203.36
769.492	23069.13
769.828	23061.22
770.164	22897.83
770.5	22871.62
770.836	22830.94
771.171	22778.29
771.507	22644.5
771.842	22522.92
772.178	22465.75
772.513	22401.12
772.849	22415.36
773.184	22221.46
773.519	22161.58
773.855	22087
774.19	22082.26
774.525	21901.92
774.86	21963.84
775.195	21917.74
775.53	21802.94
775.865	21717.97
776.2	21492.22
776.535	21395.27
776.87	21521.37
777.205	21329.74
777.539	21284.77
777.874	21329.51
778.209	21107.82
778.543	21052.68
778.878	20898.11
779.212	20872.8
779.547	20743.54
779.881	20688.85
780.215	20603.2
780.55	20691.11
780.884	20506.48
781.218	20417.67
781.552	20464.9
781.886	20304.68
782.22	20217.45
782.554	20159.37
782.888	20020.17
783.222	19816.33
783.556	19904.69
783.889	19804.13
784.223	19631.93
784.557	19614.98
784.89	19682.32
785.224	19558.93
785.557	19479.16
785.891	19358.71
786.224	19315.33
786.558	19320.98
786.891	19106.29
787.224	19109.91
787.557	19060.87
787.891	19045.73
788.224	19006.63
788.557	18972.28
788.89	18954.21
789.223	18810.93
789.556	18614.55
789.888	18583.82
790.221	18548.34
790.554	18520.77
790.887	18463.82
791.219	18372.3
791.552	18335.24
791.884	18197.39
792.217	18184.06
792.549	18111.29
792.882	17987.45
793.214	17947.9
793.546	17951.52
793.879	17873.33
794.211	17791.3
794.543	17770.06
794.875	17763.73
795.207	17796.04
795.539	17559.89
795.871	17555.6
796.203	17500.23
796.535	17425.88
796.867	17281.48
797.198	17352.44
797.53	17231.99
797.862	17128.72
798.193	17126.46
798.525	17059.11
798.856	17166.68
799.188	16846.69
799.519	16878.33
799.85	16827.26
800.182	16813.7
800.513	16755.84
800.844	16656.86
801.175	16785.67
801.506	16670.88
801.837	16537.09
802.168	16509.07
802.499	16458.9
802.83	16357.44
803.161	16327.83
803.491	16286.25
803.822	16363.54
804.153	16230.66
804.483	16062.76
804.814	16033.38
805.145	15999.93
805.475	15991.8
805.805	15973.94
806.136	15856.66
806.466	15948.86
806.796	15843.1
807.126	15730.56
807.457	15708.87
807.787	15738.24
808.117	15624.8
808.447	15567.85
808.777	15551.13
809.107	15506.39
809.436	15418.7
809.766	15381.64
810.096	15360.18
810.426	15311.14
810.755	15354.53
811.085	15279.73
811.414	15194.53
811.744	15084.48
812.073	15118.37
812.403	15045.16
812.732	15005.61
813.061	14956.12
813.39	14846.06
813.719	14910.24
814.049	15023.01
814.378	14845.61
814.707	14824.82
815.036	14877.25
815.365	14762.45
815.693	14636.35
816.022	14570.37
816.351	14539.18
816.68	14505.28
817.008	14512.51
817.337	14476.13
817.665	14451.05
817.994	14380.54
818.322	14364.72
818.651	14331.28
818.979	14221.67
819.307	14323.14
819.636	14261.9
819.964	14137.16
820.292	14247.21
820.62	14190.49
820.948	14134.22
821.276	14201.11
821.604	14205.18
821.932	14192.97
822.259	14170.15
822.587	14089.93
822.915	14027.55
823.243	14090.83
823.57	14087.67
823.898	14179.42
824.225	14037.05
824.553	14006.09
824.88	14043.37
825.207	14089.93
825.535	14010.15
825.862	14087.21
826.189	13976.26
826.516	14098.97
826.843	14127.21
827.17	14090.38
827.497	14098.97
827.824	14098.06
828.151	14045.86
828.478	14047.89
828.805	14185.06
829.131	14009.48
829.458	13936.03
829.785	13922.25
830.111	13943.49
830.438	14047.67
830.764	14013.09
831.09	14068.23
831.417	13972.87
831.743	13998.4
832.069	13966.99
832.395	13887.9
832.722	13954.79
833.048	13896.03
833.374	13929.7
833.7	13801.35
834.026	13945.07
834.351	13907.11
834.677	13929.48
835.003	13922.02
835.329	13826.2
835.654	13773.1
835.98	13766.54
836.306	13783.72
836.631	13687
836.956	13777.84
837.282	13797.96
837.607	13670.95
837.932	13698.98
838.258	13716.6
838.583	13610.62
838.908	13540.11
839.233	13637.06
839.558	13546.21
839.883	13630.96
840.208	13501.47
840.533	13492.2
840.858	13542.82
841.182	13442.03
841.507	13433.67
841.832	13378.76
842.156	13332.43
842.481	13344.63
842.805	13286.33
843.13	13288.59
843.454	13254.69
843.778	13263.96
844.103	13213.56
844.427	13187.13
844.751	13170.4
845.075	13091.76
845.399	13040.91
845.723	13042.5
846.047	13038.88
846.371	12897.19
846.695	12920.01
847.019	12807.25
847.343	12730.87
847.666	12672.34
847.99	12701.04
848.313	12625.78
848.637	12620.36
848.96	12581.27
849.284	12402.06
849.607	12380.59
849.931	12336.07
850.254	12363.42
850.577	12181.73
850.9	12125.01
851.223	12157.77
851.546	12077.55
851.869	11987.83
852.192	11944.67
852.515	11919.81
852.838	11827.39
853.161	11869.42
853.483	11901.06
853.806	11799.36
854.129	11704.23
854.451	11665.13
854.774	11681.4
855.096	11612.25
855.419	11593.04
855.741	11515.98
856.063	11471.69
856.385	11490.67
856.708	11482.76
857.03	11416.78
857.352	11380.62
857.674	11351.47
857.996	11261.53
858.318	11180.17
858.64	11273.05
858.961	11171.36
859.283	11161.87
859.605	11107.41
859.926	11180.62
860.248	11089.55
860.57	11011.36
860.891	11033.74
861.212	10963
861.534	11017.92
861.855	10885.49
862.176	10938.6
862.498	10901.08
862.819	10945.15
863.14	10822.22
863.461	10831.03
863.782	10803.01
864.103	10796.23
864.424	10765.04
864.745	10722.11
865.065	10728.88
865.386	10685.95
865.707	10741.54
866.027	10703.12
866.348	10686.4
866.668	10652.05
866.989	10634.42
867.309	10617.02
867.63	10567.98
867.95	10601.2
868.27	10478.72
868.59	10508.33
868.91	10494.54
869.23	10485.95
869.55	10459.51
869.87	10431.72
870.19	10448.67
870.51	10422.68
870.83	10498.83
871.15	10418.84
871.469	10361.21
871.789	10379.74
872.109	10306.07
872.428	10268.11
872.748	10357.59
873.067	10351.27
873.386	10285.73
873.706	10246.41
874.025	10219.29
874.344	10174.32
874.663	10214.32
874.982	10198.28
875.301	10203.93
875.62	10192.18
875.939	10114.89
876.258	10112.63
876.577	10086.87
876.896	10109.92
877.214	9991.73
877.533	10078.96
877.852	10037.38
878.17	10074.21
878.489	9925.06
878.807	9994.44
879.125	9939.3
879.444	9916.93
879.762	9920.09
880.08	9855.91
880.398	9899.75
880.716	9883.48
881.034	9825.18
881.352	9880.55
881.67	9773.2
881.988	9821.79
882.306	9834.9
882.624	9728.01
882.941	9744.96
883.259	9700.89
883.577	9636.71
883.894	9629.03
884.212	9627.44
884.529	9609.82
884.846	9643.72
885.164	9594.45
885.481	9514.91
885.798	9546.77
886.115	9394.23
886.432	9442.82
886.75	9393.33
887.067	9529.82
887.383	9403.5
887.7	9394
888.017	9313.55
888.334	9354.91
888.651	9351.52
888.967	9294.8
889.284	9309.49
889.6	9291.41
889.917	9191.52
890.233	9164.63
890.55	9180.68
890.866	9199.89
891.182	9138.87
891.498	9081.02
891.815	9123.5
892.131	9062.71
892.447	8992.21
892.763	8976.16
893.079	8931.19
893.395	8888.93
893.71	8883.06
894.026	8896.39
894.342	8885.09
894.657	8832.44
894.973	8805.32
895.289	8812.55
895.604	8773
895.92	8704.08
896.235	8659.33
896.55	8703.4
896.865	8624.53
897.181	8565.33
897.496	8583.63
897.811	8540.47
898.126	8533.46
898.441	8498.89
898.756	8459.34
899.071	8424.76
899.386	8454.14
899.7	8377.08
900.015	8290.76
900.33	8247.14
900.644	8296.18
900.959	8283.98
901.273	8290.08
901.588	8209.4
901.902	8135.96
902.216	8127.82
902.531	8122.85
902.845	8129.86
903.159	7980.71
903.473	8035.4
903.787	7980.71
904.101	7875.85
904.415	7921.05
904.729	7878.56
905.042	7826.36
905.356	7831.33
905.67	7782.07
905.984	7839.47
906.297	7816.64
906.611	7680.6
906.924	7661.39
907.237	7686.48
907.551	7668.85
907.864	7615.07
908.177	7566.71
908.491	7554.05
908.804	7462.08
909.117	7438.35
909.43	7436.32
909.743	7350.44
910.056	7397.9
910.368	7386.6
910.681	7306.83
910.994	7333.95
911.307	7263.44
911.619	7215.98
911.932	7276.32
912.244	7168.3
912.557	7126.27
912.869	7130.56
913.181	7090.56
913.494	7041.3
913.806	6986.38
914.118	6979.15
914.43	6978.25
914.742	6899.83
915.054	6928.08
915.366	6856.22
915.678	6819.83
915.99	6833.17
916.302	6755.2
916.613	6768.99
916.925	6750.68
917.236	6749.55
917.548	6667.97
917.859	6686.96
918.171	6625.49
918.482	6541.65
918.794	6559.95
919.105	6558.6
919.416	6567.19
919.727	6523.35
920.038	6518.6
920.349	6495.1
920.66	6317.48
920.971	6389.11
921.282	6343.46
921.593	6340.3
921.903	6268.66
922.214	6284.93
922.525	6232.96
922.835	6259.17
923.146	6168.55
923.456	6166.74
923.767	6141.89
924.077	6161.77
924.387	6098.95
924.697	6101.44
925.008	6101.21
925.318	6022.57
925.628	6004.26
925.938	6048.1
926.248	5942.57
926.558	5920.65
926.867	5907.32
927.177	5891.5
927.487	5805.62
927.796	5819.18
928.106	5779.41
928.416	5765.4
928.725	5757.26
929.034	5735.57
929.344	5740.99
929.653	5699.64
929.962	5676.81
930.271	5595.91
930.581	5646.08
930.89	5606.53
931.199	5544.61
931.508	5580.55
931.817	5540.55
932.125	5524.73
932.434	5504.84
932.743	5455.8
933.051	5468.68
933.36	5395.47
933.669	5330.16
933.977	5321.34
934.286	5346.88
934.594	5337.16
934.902	5295.13
935.21	5258.97
935.519	5219.65
935.827	5240.89
936.135	5200.22
936.443	5128.58
936.751	5106.66
937.059	5121.12
937.367	5086.55
937.674	5048.13
937.982	5106.43
938.29	5070.5
938.597	5034.8
938.905	4956.15
939.213	4951.41
939.52	4874.58
939.827	4960.22
940.135	4889.72
940.442	4891.07
940.749	4872.54
941.056	4898.53
941.363	4823.96
941.67	4802.94
941.977	4808.59
942.284	4766.33
942.591	4730.62
942.898	4754.13
943.205	4715.48
943.511	4669.61
943.818	4650.17
944.125	4620.34
944.431	4608.37
944.738	4584.41
945.044	4573.57
945.35	4593.45
945.657	4585.32
945.963	4542.38
946.269	4512.1
946.575	4497.41
946.881	4457.86
947.187	4458.77
947.493	4467.13
947.799	4498.99
948.105	4419.45
948.41	4375.38
948.716	4353.23
949.022	4361.14
949.327	4364.08
949.633	4293.8
949.938	4282.05
950.244	4279.11
950.549	4272.33
950.854	4229.62
951.16	4218.77
951.465	4215.16
951.77	4168.61
952.075	4132.67
952.38	4159.34
952.685	4137.65
952.99	4079.79
953.294	4081.38
953.599	4090.64
953.904	4054.48
954.209	4015.61
954.513	3991.21
954.818	4001.6
955.122	3990.76
955.426	3972.45
955.731	3934.26
956.035	3891.32
956.339	3879.35
956.643	3911.21
956.948	3871.44
957.252	3848.16
957.556	3846.58
957.86	3823.3
958.163	3845
958.467	3816.75
958.771	3788.5
959.075	3774.04
959.378	3711.22
959.682	3772.91
959.985	3710.76
960.289	3697.88
960.592	3668.05
960.896	3619.02
961.199	3661.73
961.502	3640.48
961.805	3645.45
962.108	3604.55
962.411	3592.12
962.714	3553.25
963.017	3579.02
963.32	3535.63
963.623	3546.02
963.926	3523.42
964.228	3480.94
964.531	3460.38
964.833	3450.66
965.136	3463.31
965.438	3434.84
965.741	3426.25
966.043	3395.74
966.345	3376.31
966.648	3380.6
966.95	3373.15
967.252	3316.88
967.554	3311
967.856	3321.4
968.158	3279.81
968.46	3277.78
968.761	3264.22
969.063	3235.52
969.365	3273.94
969.666	3235.75
969.968	3226.03
970.269	3200.72
970.571	3205.24
970.872	3202.08
971.174	3176.09
971.475	3186.26
971.776	3125.24
972.077	3129.99
972.378	3112.14
972.679	3065.36
972.98	3087.05
973.281	3089.99
973.582	3047.5
973.883	3011.57
974.183	3042.53
974.484	3011.57
974.785	2981.52
975.085	3000.27
975.386	2990.33
975.686	2956.21
975.986	2926.15
976.287	2948.07
976.587	2917.34
976.887	2876.21
977.187	2902.2
977.487	2876.21
977.787	2884.12
978.087	2869.43
978.387	2823.78
978.687	2827.4
978.987	2820.17
979.286	2813.16
979.586	2794.86
979.885	2770.45
980.185	2758.02
980.484	2754.63
980.784	2719.38
981.083	2715.08
981.382	2677.57
981.682	2718.25
981.981	2702.65
982.28	2684.12
982.579	2680.96
982.878	2693.84
983.177	2690.45
983.475	2675.31
983.774	2593.05
984.073	2619.04
984.372	2597.12
984.67	2603.9
984.969	2627.63
985.267	2610.68
985.566	2568.42
985.864	2564.58
986.162	2524.13
986.461	2494.3
986.759	2542.66
987.057	2501.98
987.355	2450.46
987.653	2519.16
987.951	2469.21
988.249	2460.63
988.547	2460.18
988.844	2446.62
989.142	2433.96
989.44	2435.32
989.737	2407.97
990.035	2402.78
990.332	2401.19
990.63	2403
990.927	2355.09
991.224	2360.97
991.521	2343.79
991.819	2341.99
992.116	2323.68
992.413	2334.98
992.71	2283
993.006	2276
993.303	2309.22
993.6	2235.77
993.897	2252.95
994.193	2242.55
994.49	2245.49
994.787	2236.45
995.083	2223.8
995.379	2202.33
995.676	2181.54
995.972	2190.13
996.268	2173.18
996.565	2161.2
996.861	2123.46
997.157	2108.77
997.453	2131.14
997.749	2119.17
998.044	2096.12
998.34	2115.1
998.636	2075.1
998.932	2073.29
999.227	2035.78
999.523	2078.26
999.818	2040.98
1000.114	2021.32
1000.409	1991.71
1000.704	2030.36
1001	1994.2
1001.295	1978.83
1001.59	2003.69
1001.885	1968.44
1002.18	1957.14
1002.475	1956.69
1002.77	1915.11
1003.065	1921.66
1003.359	1923.69
1003.654	1900.19
1003.949	1920.53
1004.243	1897.48
1004.538	1903.13
1004.832	1869.46
1005.127	1885.28
1005.421	1850.47
1005.715	1850.02
1006.009	1849.8
1006.304	1803.92
1006.598	1808.22
1006.892	1768.22
1007.186	1805.28
1007.48	1807.31
1007.773	1767.31
1008.067	1777.93
1008.361	1739.97
1008.655	1741.32
1008.948	1719.63
1009.242	1709.69
1009.535	1671.04
1009.829	1732.28
1010.122	1721.89
1010.415	1684.15
1010.708	1679.4
1011.001	1658.84
1011.295	1666.75
1011.588	1668.11
1011.881	1620.42
1012.173	1619.75
1012.466	1595.57
1012.759	1615.68
1013.052	1612.29
1013.344	1574.77
1013.637	1594.44
1013.93	1597.15
1014.222	1566.41
1014.514	1577.49
1014.807	1533.87
1015.099	1528.22
1015.391	1532.06
1015.683	1529.35
1015.976	1506.53
1016.268	1494.55
1016.56	1489.13
1016.851	1486.42
1017.143	1487.32
1017.435	1460.43
1017.727	1479.41
1018.018	1449.81
1018.31	1454.33
1018.602	1413.2
1018.893	1432.41
1019.185	1444.61
1019.476	1407.1
1019.767	1386.53
1020.058	1377.49
1020.35	1384.5
1020.641	1365.51
1020.932	1375.46
1021.223	1363.48
1021.514	1347.44
1021.804	1364.16
1022.095	1305.63
1022.386	1326.87
1022.677	1325.06
1022.967	1297.49
1023.258	1307.21
1023.548	1287.55
1023.839	1276.03
1024.129	1277.38
1024.419	1232.41
1024.709	1255.69
1025	1251.17
1025.29	1224.5
1025.58	1211.85
1025.87	1214.11
1026.16	1229.47
1026.449	1202.36
1026.739	1183.6
1027.029	1232.19
1027.319	1198.74
1027.608	1187.89
1027.898	1138.4
1028.187	1165.07
1028.477	1116.71
1028.766	1145.86
1029.055	1111.06
1029.344	1114.45
1029.634	1156.71
1029.923	1120.78
1030.212	1131.85
1030.501	1116.26
1030.79	1131.17
1031.078	1055.69
1031.367	1085.97
1031.656	1087.56
1031.945	1065.18
1032.233	1019.99
1032.522	1072.42
1032.81	1026.31
1033.099	1067.22
1033.387	1040.78
1033.675	1034.45
1033.963	1034.68
1034.251	1013.89
1034.54	1017.05
1034.828	1037.84
1035.116	995.36
1035.403	984.51
1035.691	996.03
1035.979	982.02
1036.267	997.16
1036.554	983.15
1036.842	978.18
1037.129	955.36
1037.417	951.97
1037.704	947.22
1037.992	944.28
1038.279	925.07
1038.566	907
1038.853	907
1039.14	907
