Data from hue_170_FLMS001491_00043.txt Node
Date: Tue Feb 07 16:48:44 GMT 2017
User: dcchb
Spectrometer: FLMS00149
Trigger mode: 0
Integration Time (sec): 2.000000E-2
Scans to average: 10
Electric dark correction enabled: true
Nonlinearity correction enabled: false
Boxcar width: 0
XAxis mode: Wavelengths
Number of Pixels in Spectrum: 2048
>>>>>Begin Spectral Data<<<<<
341.393	8.19
341.776	8.19
342.16	8.19
342.543	-60.51
342.927	-81.98
343.31	-67.96
343.693	-64.12
344.077	-65.48
344.46	-50.56
344.843	-53.28
345.226	-29.77
345.61	-45.37
345.993	-33.16
346.376	1.64
346.759	12.94
347.142	15.42
347.525	22.88
347.908	63.11
348.291	103.56
348.674	80.51
349.057	109.66
349.44	106.72
349.823	155.08
350.206	152.82
350.588	198.92
350.971	176.78
351.354	236.43
351.737	245.47
352.119	233.27
352.502	269.65
352.884	266.94
353.267	291.12
353.65	290.67
354.032	298.58
354.414	305.81
354.797	310.78
355.179	306.94
355.562	322.99
355.944	326.38
356.326	334.06
356.709	346.26
357.091	321.63
357.473	352.14
357.855	322.76
358.238	329.09
358.62	319.82
359.002	325.47
359.384	353.49
359.766	344.45
360.148	329.54
360.53	332.7
360.912	327.51
361.294	335.19
361.676	347.17
362.057	337.9
362.439	345.81
362.821	323.44
363.203	326.6
363.584	341.97
363.966	326.83
364.348	327.96
364.729	320.05
365.111	335.19
365.493	318.01
365.874	309.65
366.256	309.65
366.637	301.74
367.019	299.94
367.4	316.43
367.781	319.14
368.163	301.74
368.544	309.2
368.925	307.85
369.306	324.79
369.688	316.66
370.069	308.3
370.45	313.72
370.831	305.81
371.212	317.11
371.593	300.61
371.974	310.78
372.355	308.07
372.736	317.79
373.117	302.2
373.498	305.81
373.879	313.27
374.26	292.03
374.641	321.63
375.021	280.28
375.402	316.21
375.783	332.7
376.163	339.26
376.544	332.25
376.925	325.47
377.305	323.21
377.686	339.93
378.066	309.88
378.447	337.67
378.827	332.93
379.208	346.71
379.588	344.23
379.968	340.39
380.349	350.33
380.729	343.1
381.109	344.91
381.489	342.65
381.87	326.38
382.25	334.51
382.63	326.6
383.01	349.88
383.39	349.88
383.77	337.45
384.15	345.13
384.53	330.67
384.91	336.54
385.29	356.21
385.67	351.46
386.049	354.85
386.429	366.83
386.809	364.79
387.189	370.89
387.568	365.47
387.948	342.87
388.328	356.88
388.707	373.83
389.087	342.42
389.466	380.16
389.846	353.49
390.225	375.19
390.605	379.71
390.984	361.85
391.363	375.19
391.743	390.55
392.122	383.32
392.501	376.77
392.881	384
393.26	396.43
393.639	398.92
394.018	384.68
394.397	384
394.776	388.97
395.155	381.74
395.534	380.39
395.913	396.88
396.292	395.3
396.671	390.1
397.05	383.1
397.429	396.88
397.808	403.89
398.186	400.05
398.565	374.96
398.944	413.6
399.323	409.31
399.701	383.78
400.08	413.6
400.458	388.52
400.837	417.9
401.215	431.46
401.594	396.88
401.972	414.06
402.351	423.77
402.729	428.75
403.107	433.04
403.486	427.39
403.864	418.12
404.242	436.43
404.62	405.02
404.999	448.63
405.377	431.01
405.755	450.89
406.133	443.21
406.511	431.91
406.889	454.06
407.267	442.76
407.645	465.81
408.023	463.55
408.401	467.84
408.779	460.16
409.156	482.08
409.534	474.85
409.912	480.72
410.29	487.5
410.667	508.07
411.045	499.25
411.422	513.49
411.8	496.31
412.178	518.69
412.555	510.1
412.933	524.11
413.31	504.68
413.687	540.16
414.065	554.39
414.442	532.47
414.819	541.51
415.197	575.86
415.574	546.93
415.951	553.26
416.328	572.7
416.705	584.22
417.082	590.1
417.46	595.75
417.837	591
418.214	598.68
418.591	583.54
418.967	570.66
419.344	606.14
419.721	616.31
420.098	631
420.475	629.64
420.852	640.27
421.228	614.96
421.605	654.95
421.982	634.84
422.358	667.16
422.735	660.15
423.111	669.42
423.488	700.83
423.864	687.5
424.241	698.8
424.617	701.96
424.994	715.74
425.37	712.13
425.746	711.9
426.123	706.93
426.499	726.37
426.875	721.85
427.251	740.38
427.627	750.09
428.003	763.65
428.379	769.08
428.756	780.15
429.132	770.21
429.507	780.37
429.883	779.7
430.259	808.62
430.635	787.15
431.011	816.08
431.387	844.55
431.763	861.28
432.138	843.2
432.514	867.38
432.89	871.67
433.265	863.99
433.641	903.31
434.016	905.8
434.392	899.24
434.767	934.95
435.143	928.39
435.518	950.09
435.894	982.86
436.269	971.1
436.644	985.12
437.02	998.22
437.395	965.23
437.77	1014.27
438.145	1007.49
438.52	1040.93
438.895	1075.73
439.271	1066.02
439.646	1095.85
440.021	1080.25
440.395	1099.69
440.77	1098.56
441.145	1129.52
441.52	1131.33
441.895	1151.44
442.27	1149.18
442.645	1168.84
443.019	1155.28
443.394	1180.59
443.769	1188.95
444.143	1188.27
444.518	1202.96
444.892	1181.27
445.267	1206.35
445.641	1235.28
446.016	1211.55
446.39	1244.54
446.764	1260.81
447.139	1237.54
447.513	1273.47
447.887	1277.54
448.262	1280.93
448.636	1291.1
449.01	1322.06
449.384	1333.35
449.758	1300.81
450.132	1317.54
450.506	1367.48
450.88	1367.25
451.254	1392.34
451.628	1398.66
452.002	1423.97
452.376	1417.87
452.75	1405.9
453.123	1469.85
453.497	1455.39
453.871	1470.07
454.244	1509.62
454.618	1517.08
454.992	1525.21
455.365	1529.28
455.739	1577.87
456.112	1605.89
456.486	1585.55
456.859	1635.27
457.232	1639.11
457.606	1653.35
457.979	1666.23
458.352	1694.93
458.725	1715.49
459.099	1748.26
459.472	1761.14
459.845	1764.98
460.218	1804.53
460.591	1804.98
460.964	1836.84
461.337	1882.72
461.71	1882.94
462.083	1938.54
462.456	1985.99
462.829	1954.13
463.201	1995.03
463.574	2008.82
463.947	2024.64
464.32	2110.06
464.692	2134.92
465.065	2157.29
465.438	2164.75
465.81	2194.8
466.183	2231.64
466.555	2242.94
466.928	2281.35
467.3	2292.65
467.672	2336.04
468.045	2413.78
468.417	2435.92
468.789	2459.65
469.161	2519.31
469.534	2540.55
469.906	2591.85
470.278	2631.4
470.65	2652.87
471.022	2720.66
471.394	2789.14
471.766	2819.19
472.138	2862.81
472.51	2878.85
472.882	2986.64
473.253	3016.25
473.625	3072.97
473.997	3125.62
474.369	3183.48
474.74	3280.42
475.112	3334.43
475.484	3427.76
475.855	3471.15
476.227	3475.67
476.598	3648.77
476.97	3691.94
477.341	3808.09
477.713	3885.83
478.084	3931.93
478.455	4066.84
478.827	4104.13
479.198	4285.14
479.569	4259.38
479.94	4392.26
480.311	4525.36
480.682	4607.17
481.053	4763.55
481.424	4840.38
481.795	4919.02
482.166	5088.51
482.537	5118.57
482.908	5322.4
483.279	5368.05
483.65	5509.29
484.021	5649.17
484.391	5764.65
484.762	5872.44
485.133	5927.36
485.503	6067.47
485.874	6205.32
486.244	6328.93
486.615	6423.16
486.985	6550.84
487.356	6719.2
487.726	6836.03
488.097	7026.09
488.467	7036.93
488.837	7282.35
489.207	7395.79
489.578	7471.95
489.948	7593.53
490.318	7801.43
490.688	7863.58
491.058	7975.67
491.428	8190.8
491.798	8235.09
492.168	8470.79
492.538	8564.13
492.908	8711.47
493.278	8855.19
493.648	8932.25
494.017	9046.37
494.387	9147.16
494.757	9285.24
495.126	9353.71
495.496	9402.97
495.866	9562.52
496.235	9621.72
496.605	9728.16
496.974	9924.09
497.344	9890.42
497.713	10006.35
498.082	10140.58
498.452	10230.52
498.821	10327.24
499.19	10379.22
499.559	10488.14
499.928	10570.63
500.298	10625.54
500.667	10786.67
501.036	10750.06
501.405	10889.94
501.774	10951.86
502.143	11029.37
502.512	11080.9
502.88	11235.47
503.249	11203.38
503.618	11294.67
503.987	11325.18
504.356	11386.88
504.724	11448.57
505.093	11478.62
505.462	11610.37
505.83	11588.68
506.199	11724.49
506.567	11875.68
506.936	11725.85
507.304	12086.07
507.672	11993.41
508.041	12013.07
508.409	12132.17
508.777	12218.27
509.145	12280.41
509.514	12168.78
509.882	12297.36
510.25	12286.29
510.618	12405.38
510.986	12349.34
511.354	12474.3
511.722	12576.9
512.09	12638.59
512.458	12650.12
512.826	12695.54
513.193	12747.07
513.561	12756.56
513.929	12751.36
514.297	12930.79
514.664	12891.02
515.032	12951.35
515.4	12995.42
515.767	13003.78
516.135	13050.79
516.502	12900.06
516.869	13256.43
517.237	13124.46
517.604	13054.63
517.972	13262.53
518.339	13219.6
518.706	13223.89
519.073	13244
519.44	13281.06
519.808	13473.83
520.175	13309.09
520.542	13472.24
520.909	13466.6
521.276	13520.6
521.643	13491.91
522.009	13447.61
522.376	13631.56
522.743	13548.85
523.11	13656.87
523.477	13714.05
523.843	13720.15
524.21	13864.55
524.577	13852.35
524.943	13808.96
525.31	13846.02
525.676	13863.19
526.043	13942.06
526.409	13933.02
526.776	14034.26
527.142	14019.57
527.508	14037.65
527.874	14022.29
528.241	14057.09
528.607	14034.94
528.973	14127.59
529.339	14043.08
529.705	14214.15
530.071	14133.47
530.437	14210.08
530.803	14161.04
531.169	14155.16
531.535	14100.25
531.901	14093.7
532.267	14102.06
532.632	14112.68
532.998	14047.37
533.364	14164.2
533.73	14039.46
534.095	14122.4
534.461	14013.47
534.826	14095.73
535.192	14087.6
535.557	14093.02
535.923	14046.01
536.288	14013.25
536.653	14047.6
537.019	13878.11
537.384	13887.6
537.749	13980.93
538.114	13888.5
538.479	13768.51
538.845	13864.78
539.21	13705.46
539.575	13783.2
539.94	13699.13
540.305	13759.02
540.67	13729.64
541.034	13630.66
541.399	13647.83
541.764	13549.53
542.129	13584.33
542.494	13580.49
542.858	13484.22
543.223	13457.33
543.587	13422.53
543.952	13352.02
544.316	13397.9
544.681	13378.46
545.045	13387.95
545.41	13212.36
545.774	13287.16
546.138	13248.52
546.503	13208.07
546.867	13171.24
547.231	13152.25
547.595	13113.61
547.959	13083.33
548.324	12967.17
548.688	13021.41
549.052	13030.45
549.416	12919.04
549.779	12944.12
550.143	12794.52
550.507	12912.26
550.871	12755.65
551.235	12728.76
551.599	12802.66
551.962	12775.99
552.326	12684.24
552.689	12707.74
553.053	12688.76
553.417	12572.16
553.78	12670.46
554.143	12537.81
554.507	12567.64
554.87	12532.83
555.234	12665.94
555.597	12469.79
555.96	12519.28
556.323	12470.46
556.686	12506.39
557.05	12532.61
557.413	12409.9
557.776	12461.2
558.139	12470.24
558.502	12354.53
558.865	12383.01
559.228	12341.65
559.59	12415.32
559.953	12371.26
560.316	12470.01
560.679	12445.38
561.041	12379.39
561.404	12411.93
561.767	12451.93
562.129	12386.17
562.492	12424.14
562.854	12464.59
563.217	12394.53
563.579	12353.86
563.941	12457.13
564.304	12475.89
564.666	12419.16
565.028	12537.81
565.39	12502.78
565.753	12478.37
566.115	12500.52
566.477	12503.46
566.839	12484.25
567.201	12595.21
567.563	12489.9
567.925	12535.32
568.287	12614.41
568.648	12582.1
569.01	12596.79
569.372	12644.47
569.734	12498.94
570.095	12702.1
570.457	12640.18
570.819	12632.04
571.18	12721.76
571.542	12710
571.903	12611.48
572.265	12672.27
572.626	12654.41
572.987	12697.8
573.349	12691.02
573.71	12717.46
574.071	12712.72
574.432	12746.16
574.794	12818.25
575.155	12760.62
575.516	12778.93
575.877	12764.47
576.238	12807.63
576.599	12780.74
576.96	12801.98
577.32	12809.89
577.681	12812.37
578.042	12861.19
578.403	12844.69
578.763	12883.56
579.124	12822.54
579.485	12804.92
579.845	12870.45
580.206	12735.77
580.566	12782.09
580.927	12768.08
581.287	12818.93
581.648	12866.84
582.008	12819.61
582.368	12805.14
582.728	12830
583.089	12781.64
583.449	12753.39
583.809	12750
584.169	12783.45
584.529	12740.06
584.889	12880.62
585.249	12763.11
585.609	12693.51
585.969	12757.24
586.329	12716.56
586.688	12731.7
587.048	12660.74
587.408	12720.63
587.768	12651.48
588.127	12565.15
588.487	12620.52
588.846	12707.74
589.206	12654.19
589.565	12585.26
589.925	12680.4
590.284	12561.31
590.643	12601.53
591.003	12580.06
591.362	12634.53
591.721	12634.75
592.08	12580.97
592.44	12644.47
592.799	12666.84
593.158	12541.2
593.517	12558.37
593.876	12590.91
594.235	12539.39
594.593	12515.21
594.952	12535.55
595.311	12512.27
595.67	12511.14
596.029	12610.57
596.387	12529.67
596.746	12547.3
597.104	12449.9
597.463	12442.22
597.822	12546.39
598.18	12467.3
598.538	12441.31
598.897	12580.52
599.255	12345.95
599.613	12555.43
599.972	12532.61
600.33	12467.07
600.688	12442.22
601.046	12444.02
601.404	12612.38
601.762	12550.23
602.12	12585.94
602.478	12538.26
602.836	12525.6
603.194	12485.6
603.552	12512.27
603.91	12467.98
604.268	12511.14
604.625	12474.3
604.983	12443.8
605.341	12387.75
605.698	12498.71
606.056	12452.84
606.413	12551.59
606.771	12526.96
607.128	12583.91
607.485	12506.62
607.843	12473.85
608.2	12446.73
608.557	12550.01
608.914	12504.13
609.272	12556.79
609.629	12593.17
609.986	12605.83
610.343	12516.79
610.7	12677.46
611.057	12650.12
611.414	12628.65
611.771	12623.23
612.127	12694.19
612.484	12657.8
612.841	12642.21
613.198	12680.4
613.554	12637.46
613.911	12674.07
614.267	12619.16
614.624	12648.99
614.98	12609.89
615.337	12733.51
615.693	12768.76
616.05	12719.95
616.406	12751.81
616.762	12843.56
617.118	12730.34
617.475	12683.34
617.831	12717.91
618.187	12858.25
618.543	12803.56
618.899	12898.25
619.255	12730.8
619.611	12746.39
619.967	12821.64
620.323	12769.66
620.678	12803.79
621.034	12815.31
621.39	12799.27
621.746	12770.12
622.101	12968.98
622.457	12780.96
622.812	12888.31
623.168	12784.35
623.523	12809.66
623.879	12854.18
624.234	12780.96
624.589	12802.66
624.945	12858.02
625.3	12848.31
625.655	12801.08
626.01	12870.68
626.365	12875.2
626.72	12848.98
627.075	12810.12
627.43	12745.71
627.785	12788.19
628.14	12896.44
628.495	12802.88
628.85	12773.96
629.205	12739.83
629.559	12841.07
629.914	12728.76
630.269	12661.64
630.623	12795.43
630.978	12670.23
631.332	12793.17
631.687	12726.73
632.041	12658.93
632.396	12700.97
632.75	12658.48
633.104	12592.27
633.459	12524.7
633.813	12584.58
634.167	12590.69
634.521	12563.79
634.875	12546.17
635.229	12545.04
635.583	12504.81
635.937	12542.1
636.291	12480.86
636.645	12485.83
636.999	12435.66
637.352	12502.1
637.706	12429.11
638.06	12398.83
638.413	12305.72
638.767	12349.79
639.121	12334.65
639.474	12355.89
639.828	12316.57
640.181	12247.87
640.534	12303.46
640.888	12275.67
641.241	12265.95
641.594	12283.35
641.947	12316.79
642.301	12272.95
642.654	12274.08
643.007	12312.95
643.36	12216.01
643.713	12238.38
644.066	12289
644.419	12141.66
644.771	12131.04
645.124	12034.09
645.477	12014.88
645.83	11967.43
646.182	11929.46
646.535	11834.55
646.888	11840.2
647.24	11760.2
647.593	11891.95
647.945	11853.76
648.298	11842.01
648.65	11769.46
649.002	11744.83
649.355	11820.08
649.707	11786.41
650.059	11918.16
650.411	11991.38
650.763	12047.42
651.115	12284.03
651.467	12105.05
651.819	12147.99
652.171	12118.38
652.523	12014.88
652.875	12024.15
653.227	11997.71
653.578	12093.75
653.93	12030.7
654.282	11979.85
654.633	12056.01
654.985	12053.3
655.337	11964.94
655.688	12149.34
656.039	12018.27
656.391	11946.86
656.742	12067.99
657.094	12077.71
657.445	12030.7
657.796	12022.57
658.147	12061.21
658.498	12026.18
658.849	12092.17
659.2	12034.32
659.551	12053.3
659.902	12112.96
660.253	12014.43
660.604	12069.8
660.955	11996.13
661.306	12145.95
661.656	12118.38
662.007	12063.24
662.358	12152.28
662.708	12034.99
663.059	12055.33
663.409	12021.66
663.76	12140.53
664.11	12061.21
664.461	12154.31
664.811	12158.15
665.161	12094.43
665.511	12007.65
665.862	12068.67
666.212	12087.87
666.562	12121.77
666.912	12110.25
667.262	12084.26
667.612	12094.2
667.962	12152.51
668.312	12034.77
668.662	12204.26
669.011	12070.25
669.361	12090.81
669.711	12054.2
670.06	12054.43
670.41	12080.42
670.76	12042
671.109	12164.26
671.459	12049.68
671.808	12050.81
672.157	12128.33
672.507	12018.27
672.856	11976.01
673.205	12023.92
673.554	12119.51
673.904	12048.33
674.253	12061.89
674.602	11990.25
674.951	11855.11
675.3	11846.98
675.649	11933.98
675.998	11918.16
676.346	11926.3
676.695	11951.38
677.044	11805.85
677.393	11892.63
677.741	12004.26
678.09	11889.01
678.438	11912.51
678.787	11841.55
679.135	11875
679.484	11807.88
679.832	11865.28
680.181	11758.17
680.529	11773.53
680.877	11676.59
681.225	11754.78
681.573	11726.75
681.922	11659.86
682.27	11654.44
682.618	11665.96
682.966	11572.86
683.314	11658.73
683.661	11549.36
684.009	11518.62
684.357	11536.25
684.705	11491.51
685.053	11486.08
685.4	11441.56
685.748	11425.29
686.095	11387.78
686.443	11394.56
686.79	11353.88
687.138	11313.43
687.485	11275.92
687.832	11268.69
688.18	11238.18
688.527	11251.51
688.874	11152.98
689.221	11214.9
689.568	11061.46
689.915	11084.06
690.262	11102.36
690.609	11091.97
690.956	11074.79
691.303	11012.65
691.65	10891.07
691.997	10908.24
692.344	10850.39
692.69	10905.53
693.037	10802.26
693.383	10719.1
693.73	10789.6
694.077	10669.61
694.423	10748.7
694.769	10607.91
695.116	10613.34
695.462	10622.83
695.808	10540.12
696.155	10513.68
696.501	10503.28
696.847	10481.81
697.193	10352.1
697.539	10387.35
697.885	10337.41
698.231	10291.99
698.577	10269.84
698.923	10312.33
699.269	10244.98
699.614	10126.12
699.96	10040.47
700.306	10122.28
700.651	9976.07
700.997	9993.24
701.342	9977.42
701.688	9956.18
702.033	9933.58
702.379	9930.19
702.724	9833.7
703.069	9916.41
703.415	9761.61
703.76	9743.3
704.105	9733.81
704.45	9737.2
704.795	9597.32
705.14	9601.84
705.485	9611.78
705.83	9500.37
706.175	9506.25
706.52	9558.9
706.865	9480.94
707.209	9428.06
707.554	9398.45
707.899	9385.8
708.243	9335.86
708.588	9341.05
708.932	9277.33
709.277	9261.28
709.621	9266.25
709.966	9188.29
710.31	9141.06
710.654	9191.23
710.998	9142.41
711.342	9153.26
711.687	9082.76
712.031	9096.77
712.375	9066.48
712.719	9074.62
713.063	9083.43
713.407	9083.89
713.75	9014.28
714.094	9035.75
714.438	8957.56
714.782	8936.77
715.125	8911.91
715.469	8877.79
715.812	8838.24
716.156	8756.44
716.499	8835.08
716.843	8882.53
717.186	8819.49
717.53	8854.51
717.873	8801.63
718.216	8828.75
718.559	8818.58
718.902	8706.72
719.246	8749.66
719.589	8647.51
719.932	8650.68
720.275	8698.58
720.617	8632.37
720.96	8706.95
721.303	8656.78
721.646	8625.14
721.989	8598.02
722.331	8656.33
722.674	8569.77
723.016	8590.79
723.359	8604.12
723.701	8607.29
724.044	8547.4
724.386	8468.08
724.729	8556.89
725.071	8503.79
725.413	8562.54
725.755	8533.84
726.097	8558.25
726.439	8503.79
726.782	8467.63
727.124	8597.57
727.465	8466.27
727.807	8518.25
728.149	8457.91
728.491	8482.77
728.833	8462.43
729.175	8482.55
729.516	8487.52
729.858	8475.77
730.199	8465.14
730.541	8453.62
730.882	8502.66
731.224	8463.11
731.565	8434.64
731.906	8430.57
732.248	8482.77
732.589	8456.11
732.93	8337.46
733.271	8394.41
733.612	8460.62
733.953	8449.55
734.294	8470.12
734.635	8412.04
734.976	8412.94
735.317	8377.69
735.658	8480.74
735.999	8364.36
736.339	8381.98
736.68	8528.87
737.021	8405.49
737.361	8397.8
737.702	8452.04
738.042	8415.2
738.383	8518.93
738.723	8474.64
739.063	8435.09
739.404	8465.14
739.744	8452.49
740.084	8444.81
740.424	8529.55
740.764	8573.62
741.104	8541.3
741.444	8490.68
741.784	8525.26
742.124	8579.49
742.464	8662.88
742.804	8601.19
743.143	8609.1
743.483	8691.58
743.823	8657.23
744.162	8647.74
744.502	8758.24
744.841	8730.67
745.181	8727.51
745.52	8797.34
745.86	8841.86
746.199	8807.06
746.538	8877.56
746.877	8942.19
747.216	8986.94
747.556	9025.58
747.895	9048.18
748.234	9130.66
748.573	9159.36
748.911	9183.09
749.25	9217.44
749.589	9346.03
749.928	9443.88
750.267	9573.14
750.605	9548.51
750.944	9621.72
751.283	9636.41
751.621	9746.01
751.96	9828.72
752.298	9951.21
752.636	10018.1
752.975	10052.9
753.313	10180.13
753.651	10223.97
753.989	10312.33
754.327	10458.54
754.666	10538.99
755.004	10644.97
755.342	10868.7
755.679	10991.86
756.017	11074.12
756.355	11220.78
756.693	11308.69
757.031	11451.96
757.368	11555.01
757.706	11734.44
758.044	11944.6
758.381	12042.9
758.719	12166.52
759.056	12363.57
759.394	12453.06
759.731	12647.63
760.068	12821.87
760.405	12837.23
760.743	13138.92
761.08	13247.84
761.417	13346.6
761.754	13489.42
762.091	13704.1
762.428	13901.61
762.765	13895.96
763.102	14246.91
763.438	14299.12
763.775	14544.76
764.112	14678.54
764.449	14887.8
764.785	15012.77
765.122	15113.33
765.458	15183.39
765.795	15407.79
766.131	15546.77
766.467	15745.18
766.804	15798.29
767.14	15960.99
767.476	16071.95
767.812	16188.11
768.148	16334.99
768.485	16450.92
768.821	16593.07
769.157	16785.83
769.492	16802.1
769.828	16949.67
770.164	16912.83
770.5	17106.05
770.836	17243.22
771.171	17303.78
771.507	17419.26
771.842	17466.04
772.178	17603.89
772.513	17644.34
772.849	17748.29
773.184	17775.41
773.519	17934.95
773.855	17916.87
774.19	18035.29
774.525	18122.29
774.86	18178.56
775.195	18196.87
775.53	18227.6
775.865	18241.61
776.2	18317.77
776.535	18264.66
776.87	18348.95
777.205	18439.8
777.539	18397.31
777.874	18605.44
778.209	18527.7
778.543	18537.42
778.878	18524.77
779.212	18592.11
779.547	18490.42
779.881	18803.63
780.215	18598.21
780.55	18754.14
780.884	18659
781.218	18665.33
781.552	18690.64
781.886	18660.13
782.22	18722.73
782.554	18658.77
782.888	18613.35
783.222	18557.53
783.556	18540.36
783.889	18665.33
784.223	18479.8
784.557	18418.1
784.89	18626.23
785.224	18526.35
785.557	18419.69
785.891	18392.34
786.224	18463.53
786.558	18529.06
786.891	18392.34
787.224	18339.91
787.557	18327.03
787.891	18409.74
788.224	18317.31
788.557	18346.47
788.89	18343.3
789.223	18250.2
789.556	18265.79
789.888	18254.27
790.221	18226.24
790.554	18066.7
790.887	18194.83
791.219	18095.85
791.552	18121.61
791.884	18029.64
792.217	18074.84
792.549	17992.35
792.882	17897.66
793.214	17911.68
793.546	17839.59
793.879	17824.67
794.211	17649.76
794.543	17877.78
794.875	17748.29
795.207	17802.3
795.539	17695.41
795.871	17766.82
796.203	17550.33
796.535	17490.9
796.867	17502.2
797.198	17493.83
797.53	17443.67
797.862	17461.97
798.193	17503.55
798.525	17308.75
798.856	17292.48
799.188	17076.9
799.519	17243.67
799.85	16974.53
800.182	17125.93
800.513	17025.15
800.844	16956.9
801.175	17094.07
801.506	16878.48
801.837	16901.53
802.168	16823.57
802.499	16802.1
802.83	16814.3
803.161	16792.38
803.491	16716.23
803.822	16773.17
804.153	16679.17
804.483	16510.36
804.814	16537.7
805.145	16558.72
805.475	16455.89
805.805	16424.26
806.136	16410.92
806.466	16396.01
806.796	16413.64
807.126	16295.9
807.457	16283.7
807.787	16233.53
808.117	16161.89
808.447	16131.84
808.777	16196.92
809.107	16150.82
809.436	16048.22
809.766	16053.42
810.096	15891.62
810.426	15939.98
810.755	15959.86
811.085	15934.55
811.414	15975.91
811.744	15753.09
812.073	15694.11
812.403	15780.66
812.732	15707.44
813.061	15708.12
813.39	15594.22
813.719	15637.39
814.049	15711.06
814.378	15571.4
814.707	15480.55
815.036	15547.9
815.365	15432.19
815.693	15300.9
816.022	15334.79
816.351	15314.23
816.68	15261.12
817.008	15357.62
817.337	15245.98
817.665	15149.26
817.994	15224.97
818.322	15191.07
818.651	15080.56
818.979	15030.4
819.307	15120.11
819.636	15023.84
819.964	15022.03
820.292	15074.91
820.62	15027.68
820.948	14952.43
821.276	14988.81
821.604	14923.73
821.932	15047.8
822.259	14970.06
822.587	14934.35
822.915	14911.53
823.243	14944.97
823.57	14934.35
823.898	14858.42
824.225	14907.91
824.553	14874.24
824.88	14926.9
825.207	15020.45
825.535	14930.96
825.862	15073.56
826.189	14945.43
826.516	14998.98
826.843	15053.45
827.17	15090.06
827.497	14994.92
827.824	15055.71
828.151	15007.12
828.478	14977.06
828.805	15038.31
829.131	14916.73
829.458	15071.07
829.785	14888.03
830.111	14918.76
830.438	15004.63
830.764	15015.25
831.09	14987.91
831.417	14989.49
831.743	15011.19
832.069	15017.29
832.395	14956.5
832.722	15003.28
833.048	14904.75
833.374	14968.7
833.7	14915.6
834.026	14877.63
834.351	14878.31
834.677	14847.58
835.003	14931.19
835.329	14866.78
835.654	14843.28
835.98	14868.14
836.306	14782.94
836.631	14774.81
836.956	14828.37
837.282	14841.93
837.607	14680.35
837.932	14700.91
838.258	14711.08
838.583	14712.21
838.908	14604.87
839.233	14598.99
839.558	14572.33
839.883	14577.98
840.208	14457.98
840.533	14542.95
840.858	14499.11
841.182	14480.13
841.507	14384.31
841.832	14358.77
842.156	14333.92
842.481	14376.85
842.805	14313.13
843.13	14254.37
843.454	14213.69
843.778	14214.6
844.103	14126.24
844.427	14125.11
844.751	14097.31
845.075	14080.14
845.399	14033.36
845.723	13980.48
846.047	13992.68
846.371	13915.62
846.695	13858.9
847.019	13775.29
847.343	13801.73
847.666	13648.96
847.99	13662.3
848.313	13581.62
848.637	13412.59
848.96	13531.68
849.284	13454.84
849.607	13313.83
849.931	13285.13
850.254	13215.98
850.577	13189.31
850.9	13004.01
851.223	13135.3
851.546	12981.86
851.869	12968.08
852.192	12961.52
852.515	12871.58
852.838	12805.82
853.161	12811.7
853.483	12798.59
853.806	12674.98
854.129	12613.06
854.451	12676.79
854.774	12578.48
855.096	12533.51
855.419	12512.27
855.741	12466.62
856.063	12356.34
856.385	12386.4
856.708	12398.15
857.03	12347.98
857.352	12346.62
857.674	12249.9
857.996	12174.2
858.318	12173.52
858.64	12143.92
858.961	12023.92
859.283	12028.44
859.605	11957.26
859.926	12034.99
860.248	11966.97
860.57	11943.02
860.891	11967.88
861.212	11938.95
861.534	11832.74
861.855	11883.81
862.176	11782.8
862.498	11851.5
862.819	11759.52
863.14	11711.84
863.461	11733.76
863.782	11659.64
864.103	11710.26
864.424	11663.48
864.745	11733.53
865.065	11595.01
865.386	11551.39
865.707	11578.28
866.027	11521.34
866.348	11553.65
866.668	11524.27
866.989	11463.94
867.309	11417.61
867.63	11457.61
867.95	11435.91
868.27	11404.5
868.59	11393.66
868.91	11316.37
869.23	11355.46
869.55	11301.23
869.87	11325.86
870.19	11282.92
870.51	11238.41
870.83	11252.19
871.15	11191.85
871.469	11301.23
871.789	11253.77
872.109	11159.09
872.428	11148.69
872.748	11183.72
873.067	11173.55
873.386	11097.62
873.706	11113.66
874.025	11066.88
874.344	11037.51
874.663	11076.15
874.982	10979.65
875.301	11031.63
875.62	10986.21
875.939	11024.17
876.258	11005.64
876.577	10947.79
876.896	10960.67
877.214	10940.11
877.533	10870.28
877.852	10859.88
878.17	10850.17
878.489	10877.96
878.807	10838.42
879.125	10860.11
879.444	10832.54
879.762	10808.36
880.08	10851.75
880.398	10755.48
880.716	10805.2
881.034	10650.62
881.352	10675.93
881.67	10681.81
881.988	10649.72
882.306	10583.73
882.624	10619.89
882.941	10531.08
883.259	10480.01
883.577	10458.09
883.894	10450.18
884.212	10447.69
884.529	10462.38
884.846	10399.33
885.164	10395.26
885.481	10326.11
885.798	10299.22
886.115	10247.47
886.432	10216.51
886.75	10166.34
887.067	10216.96
887.383	10230.52
887.7	10163.86
888.017	10117.76
888.334	10174.7
888.651	10129.96
888.967	10059
889.284	9975.39
889.6	10003.41
889.917	9942.17
890.233	9969.29
890.55	9902.62
890.866	9940.13
891.182	9860.36
891.498	9802.96
891.815	9788.95
892.131	9726.35
892.447	9753.7
892.763	9685
893.079	9702.85
893.395	9647.49
893.71	9569.52
894.026	9586.47
894.342	9562.29
894.657	9490.65
894.973	9469.41
895.289	9442.29
895.604	9486.81
895.92	9365.69
896.235	9325.01
896.55	9365.23
896.865	9327.95
897.181	9274.16
897.496	9287.95
897.811	9246.59
898.126	9164.56
898.441	9132.7
898.756	9149.87
899.071	9072.13
899.386	9106.71
899.7	9006.83
900.015	8964.79
900.33	8939.03
900.644	8956.88
900.959	8939.26
901.273	8792.82
901.588	8857
901.902	8735.65
902.216	8788.3
902.531	8775.64
902.845	8700.62
903.159	8652.71
903.473	8633.5
903.787	8573.62
904.101	8549.21
904.415	8530.45
904.729	8525.03
905.042	8461.53
905.356	8466.95
905.67	8447.29
905.984	8448.42
906.297	8387.41
906.611	8264.47
906.924	8271.25
907.237	8269.22
907.551	8287.52
907.864	8194.42
908.177	8221.99
908.491	8165.72
908.804	8055.21
909.117	8033.74
909.43	7971.37
909.743	8036.68
910.056	7970.47
910.368	7945.38
910.681	7866.52
910.994	7793.3
911.307	7886.4
911.619	7764.6
911.932	7815.9
912.244	7730.25
912.557	7654.54
912.869	7671.72
913.181	7636.47
913.494	7563.93
913.806	7528.9
914.118	7506.98
914.43	7478.73
914.742	7489.58
915.054	7472.18
915.366	7470.37
915.678	7377.94
915.99	7390.82
916.302	7289.81
916.613	7331.84
916.925	7282.58
917.236	7299.07
917.548	7194.67
917.859	7224.27
918.171	7186.53
918.482	7098.85
918.794	7110.83
919.105	7057.27
919.416	7014.34
919.727	7042.13
920.038	6953.32
920.349	6943.38
920.66	6911.51
920.971	6889.59
921.282	6894.56
921.593	6813.89
921.903	6822.93
922.214	6800.1
922.525	6806.66
922.835	6695.47
923.146	6698.86
923.456	6647.11
923.767	6658.64
924.077	6652.76
924.387	6575.02
924.697	6564.86
925.008	6537.29
925.318	6531.41
925.628	6459.55
925.938	6445.99
926.248	6453.67
926.558	6330.29
926.867	6380.91
927.177	6352.88
927.487	6295.94
927.796	6241.7
928.106	6235.37
928.416	6210.06
928.725	6255.03
929.034	6173
929.344	6226.79
929.653	6149.05
929.962	6122.38
930.271	6061.82
930.581	6050.29
930.89	6027.92
931.199	6006.45
931.508	6015.49
931.817	5993.35
932.125	5959
932.434	5958.32
932.743	5896.85
933.051	5862.95
933.36	5833.12
933.669	5797.42
933.977	5764.88
934.286	5784.76
934.594	5770.75
934.902	5708.83
935.21	5656.4
935.519	5726.23
935.827	5647.82
936.135	5604.43
936.443	5591.1
936.751	5577.76
937.059	5533.47
937.367	5599.23
937.674	5570.08
937.982	5516.07
938.29	5442.17
938.597	5457.77
938.905	5411.44
939.213	5414.38
939.52	5417.09
939.827	5370.08
940.135	5333.7
940.442	5301.61
940.749	5294.38
941.056	5275.85
941.363	5217.55
941.67	5239.69
941.977	5188.17
942.284	5141.84
942.591	5169.64
942.898	5114.05
943.205	5086.93
943.511	5110.43
943.818	5128.51
944.125	5044.9
944.431	5029.08
944.738	5023.43
945.044	4954.73
945.35	4943.88
945.657	4915.86
945.963	4899.59
946.269	4892.58
946.575	4886.93
946.881	4878.35
947.187	4848.97
947.493	4843.09
947.799	4804.45
948.105	4756.09
948.41	4733.94
948.716	4748.41
949.022	4705.7
949.327	4692.81
949.633	4661.63
949.938	4643.32
950.244	4625.02
950.549	4589.77
950.854	4582.99
951.16	4571.24
951.465	4522.65
951.77	4534.85
952.075	4516.32
952.38	4498.47
952.685	4459.6
952.99	4396.55
953.294	4401.3
953.599	4411.24
953.904	4340.96
954.209	4405.36
954.513	4342.77
954.818	4311.13
955.122	4273.62
955.426	4317.23
955.731	4255.09
956.035	4244.01
956.339	4256.22
956.643	4235.88
956.948	4174.86
957.252	4153.62
957.556	4205.37
957.86	4166.27
958.163	4114.98
958.467	4126.73
958.771	4083.34
959.075	4087.86
959.378	4039.05
959.682	4057.35
959.985	4004.47
960.289	4028.43
960.592	3970.57
960.896	3960.63
961.199	3937.81
961.502	3992.72
961.805	3918.37
962.108	3895.32
962.411	3869.33
962.714	3898.94
963.017	3879.28
963.32	3830.24
963.623	3829.11
963.926	3801.54
964.228	3814.87
964.531	3804.25
964.833	3730.35
965.136	3762.67
965.438	3728.55
965.741	3711.15
966.043	3693.97
966.345	3703.69
966.648	3660.3
966.95	3645.38
967.252	3627.53
967.554	3640.64
967.856	3620.98
968.158	3593.63
968.46	3554.99
968.761	3525.39
969.063	3524.03
969.365	3512.73
969.666	3518.83
969.968	3491.72
970.269	3464.6
970.571	3462.56
970.872	3461.21
971.174	3425.5
971.475	3418.95
971.776	3399.06
972.077	3377.82
972.378	3377.82
972.679	3340.99
972.98	3386.63
973.281	3356.58
973.582	3329.46
973.883	3329.01
974.183	3282.91
974.484	3299.4
974.785	3264.6
975.085	3253.98
975.386	3249.91
975.686	3223.93
975.986	3196.13
976.287	3197.03
976.587	3158.62
976.887	3162.23
977.187	3184.38
977.487	3183.93
977.787	3113.87
978.087	3076.81
978.387	3094.89
978.687	3090.37
978.987	3040.43
979.286	3033.42
979.586	3079.52
979.885	2995.23
980.185	3032.52
980.484	2984.16
980.784	2983.93
981.083	2980.54
981.382	2934.44
981.682	2973.54
981.981	2962.46
982.28	2921.56
982.579	2876.82
982.878	2905.74
983.177	2856.25
983.475	2879.08
983.774	2834.78
984.073	2850.15
984.372	2793.66
984.67	2815.35
984.969	2789.14
985.267	2776.93
985.566	2794.79
985.864	2747.55
986.162	2762.47
986.461	2729.02
986.759	2744.39
987.057	2700.55
987.355	2688.8
987.653	2695.58
987.951	2686.54
988.249	2698.74
988.547	2648.12
988.844	2646.99
989.142	2623.26
989.44	2570.61
989.737	2595.92
990.035	2611.51
990.332	2623.26
990.63	2580.1
990.927	2538.75
991.224	2545.07
991.521	2530.16
991.819	2536.94
992.116	2510.95
992.413	2488.58
992.71	2495.81
993.006	2483.38
993.303	2430.73
993.6	2494.91
993.897	2418.52
994.193	2407.22
994.49	2410.39
994.787	2381.91
995.083	2346.66
995.379	2369.03
995.676	2371.07
995.972	2348.24
996.268	2336.27
996.565	2324.52
996.861	2319.32
997.157	2326.77
997.453	2311.86
997.749	2283.39
998.044	2277.28
998.34	2291.97
998.636	2247.46
998.932	2242.26
999.227	2235.03
999.523	2192.09
999.818	2178.53
1000.114	2181.69
1000.409	2147.57
1000.704	2167.23
1001	2147.34
1001.295	2140.11
1001.59	2140.11
1001.885	2145.76
1002.18	2146.44
1002.475	2111.87
1002.77	2094.24
1003.065	2084.07
1003.359	2066.89
1003.654	2042.49
1003.949	2050.62
1004.243	2033.68
1004.538	1990.74
1004.832	2003.17
1005.127	2027.8
1005.421	1995.26
1005.715	1994.58
1006.009	1971.76
1006.304	1953.45
1006.598	1891.53
1006.892	1952.77
1007.186	1916.39
1007.48	1891.98
1007.773	1935.15
1008.067	1875.71
1008.361	1886.79
1008.655	1824.64
1008.948	1887.69
1009.242	1841.36
1009.535	1844.08
1009.829	1793.68
1010.122	1832.1
1010.415	1785.32
1010.708	1799.11
1011.001	1830.29
1011.295	1747.81
1011.588	1759.56
1011.881	1741.93
1012.173	1750.52
1012.466	1749.62
1012.759	1698.32
1013.052	1708.49
1013.344	1726.11
1013.637	1675.94
1013.93	1675.04
1014.222	1689.5
1014.514	1657.41
1014.807	1658.54
1015.099	1660.8
1015.391	1642.27
1015.683	1642.27
1015.976	1587.36
1016.268	1595.49
1016.56	1586.23
1016.851	1592.78
1017.143	1566.57
1017.435	1552.11
1017.727	1568.83
1018.018	1536.06
1018.31	1519.79
1018.602	1511.88
1018.893	1501.03
1019.185	1501.71
1019.476	1488.38
1019.767	1499.68
1020.058	1468.72
1020.35	1499.68
1020.641	1466.23
1020.932	1458.55
1021.223	1448.38
1021.514	1403.18
1021.804	1414.03
1022.095	1402.96
1022.386	1399.57
1022.677	1402.28
1022.967	1346.46
1023.258	1375.39
1023.548	1377.65
1023.839	1380.13
1024.129	1328.84
1024.419	1323.19
1024.709	1323.64
1025	1298.55
1025.29	1310.98
1025.58	1332.45
1025.87	1285.45
1026.16	1284.09
1026.449	1295.39
1026.739	1289.06
1027.029	1275.05
1027.319	1262.17
1027.608	1252.68
1027.898	1231.89
1028.187	1229.63
1028.477	1245
1028.766	1220.36
1029.055	1192.34
1029.344	1209.97
1029.634	1194.38
1029.923	1167.26
1030.212	1193.47
1030.501	1178.78
1030.79	1141.04
1031.078	1162.06
1031.367	1118.22
1031.656	1154.83
1031.945	1119.35
1032.233	1119.58
1032.522	1130.65
1032.81	1114.15
1033.099	1120.93
1033.387	1111.89
1033.675	1102.17
1033.963	1085.9
1034.251	1086.36
1034.54	1070.76
1034.828	1063.53
1035.116	1078.22
1035.403	1024.44
1035.691	1013.59
1035.979	1061.05
1036.267	1019.01
1036.554	998.67
1036.842	1024.89
1037.129	994.83
1037.417	1001.84
1037.704	994.38
1037.992	995.06
1038.279	973.36
1038.566	959.58
1038.853	959.58
1039.14	959.58
