Data from hue_38_FLMS001491_00084.txt Node
Date: Tue Feb 07 17:32:05 GMT 2017
User: dcchb
Spectrometer: FLMS00149
Trigger mode: 0
Integration Time (sec): 2.000000E-2
Scans to average: 10
Electric dark correction enabled: true
Nonlinearity correction enabled: false
Boxcar width: 0
XAxis mode: Wavelengths
Number of Pixels in Spectrum: 2048
>>>>>Begin Spectral Data<<<<<
341.393	16.81
341.776	16.81
342.16	16.81
342.543	-53.47
342.927	-62.06
343.31	-74.26
343.693	-53.25
344.077	-57.99
344.46	-73.81
344.843	-50.31
345.226	-34.94
345.61	-60.25
345.993	-22.06
346.376	4.83
346.759	10.48
347.142	27.43
347.525	28.33
347.908	73.53
348.291	73.53
348.674	91.61
349.057	117.14
349.44	129.57
349.823	159.85
350.206	159.18
350.588	191.27
350.971	212.96
351.354	208.21
351.737	226.75
352.119	259.96
352.502	269.68
352.884	247.99
353.267	293.41
353.65	314.88
354.032	285.95
354.414	309.23
354.797	308.55
355.179	331.83
355.562	325.5
355.944	312.62
356.326	327.31
356.709	339.28
357.091	344.71
357.473	345.39
357.855	360.53
358.238	340.19
358.62	356.01
359.002	336.35
359.384	330.92
359.766	369.34
360.148	334.99
360.53	344.71
360.912	325.73
361.294	333.41
361.676	326.63
362.057	330.7
362.439	299.06
362.821	337.48
363.203	344.71
363.584	349.91
363.966	326.18
364.348	319.4
364.729	340.19
365.111	342.67
365.493	327.53
365.874	318.95
366.256	332.51
366.637	332.96
367.019	312.39
367.4	314.65
367.781	326.4
368.163	309.68
368.544	299.06
368.925	311.49
369.306	314.65
369.688	330.47
370.069	324.82
370.45	321.21
370.831	335.22
371.212	331.15
371.593	323.01
371.974	326.86
372.355	317.14
372.736	326.63
373.117	324.6
373.498	318.72
373.879	319.85
374.26	301.77
374.641	327.76
375.021	327.53
375.402	311.49
375.783	316.46
376.163	337.7
376.544	332.51
376.925	342.67
377.305	323.01
377.686	337.93
378.066	347.19
378.447	334.09
378.827	332.28
379.208	338.15
379.588	361.43
379.968	345.16
380.349	330.92
380.729	361.88
381.109	343.35
381.489	344.71
381.87	332.28
382.25	328.44
382.63	341.77
383.01	335.22
383.39	347.87
383.77	336.35
384.15	356.46
384.53	351.26
384.91	336.35
385.29	345.16
385.67	349.45
386.049	356.91
386.429	343.8
386.809	349
387.189	367.53
387.568	363.69
387.948	355.33
388.328	355.33
388.707	356.01
389.087	350.58
389.466	363.24
389.846	346.74
390.225	376.57
390.605	360.98
390.984	359.85
391.363	362.11
391.743	369.11
392.122	367.76
392.501	373.63
392.881	370.24
393.26	371.83
393.639	365.95
394.018	355.56
394.397	391.03
394.776	385.84
395.155	374.54
395.534	379.74
395.913	399.85
396.292	417.47
396.671	382.67
397.05	402.56
397.429	380.19
397.808	379.28
398.186	414.09
398.565	393.75
398.944	396.23
399.323	391.26
399.701	379.51
400.08	391.71
400.458	401.88
400.837	419.96
401.215	404.14
401.594	415.67
401.972	407.08
402.351	414.54
402.729	438.04
403.107	423.8
403.486	425.16
403.864	397.59
404.242	412.5
404.62	396.68
404.999	392.39
405.377	419.28
405.755	428.55
406.133	443.01
406.511	422.22
406.889	436.46
407.267	427.19
407.645	454.31
408.023	423.58
408.401	431.49
408.779	460.64
409.156	447.08
409.534	447.53
409.912	449.79
410.29	443.91
410.667	444.14
411.045	465.16
411.422	459.51
411.8	480.52
412.178	465.16
412.555	480.3
412.933	476.68
413.31	479.17
413.687	475.33
414.065	475.55
414.442	497.02
414.819	491.82
415.197	488.21
415.574	494.31
415.951	511.03
416.328	503.57
416.705	507.64
417.082	497.02
417.46	532.73
417.837	529.34
418.214	540.41
418.591	531.37
418.967	514.87
419.344	539.96
419.721	521.2
420.098	523.01
420.475	532.27
420.852	501.54
421.228	547.87
421.605	558.94
421.982	547.64
422.358	529.34
422.735	548.77
423.111	548.77
423.488	566.62
423.864	553.06
424.241	581.76
424.617	575.21
424.994	572.73
425.37	596.91
425.746	579.05
426.123	573.85
426.499	588.32
426.875	588.77
427.251	583.35
427.627	602.33
428.003	581.76
428.379	606.4
428.756	628.54
429.132	634.64
429.507	608.66
429.883	610.46
430.259	613.63
430.635	611.37
431.011	635.55
431.387	641.88
431.763	617.02
432.138	655.89
432.514	674.64
432.89	665.6
433.265	667.19
433.641	675.77
434.016	687.07
434.392	659.95
434.767	694.98
435.143	671.71
435.518	686.85
435.894	690.01
436.269	719.61
436.644	718.03
437.02	710.35
437.395	737.01
437.77	712.16
438.145	757.35
438.52	745.83
438.895	739.27
439.271	744.02
439.646	767.07
440.021	747.64
440.395	765.49
440.77	770.23
441.145	752.16
441.52	779.95
441.895	781.99
442.27	794.19
442.645	797.13
443.019	777.47
443.394	793.96
443.769	823.11
444.143	797.13
444.518	808.88
444.892	814.3
445.267	814.3
445.641	788.31
446.016	805.71
446.39	835.09
446.764	838.03
447.139	843.68
447.513	838.93
447.887	818.82
448.262	858.82
448.636	853.4
449.01	865.82
449.384	869.89
449.758	880.29
450.132	874.86
450.506	896.11
450.88	893.85
451.254	904.69
451.628	904.47
452.002	904.47
452.376	913.51
452.75	919.16
453.123	940.62
453.497	929.1
453.871	946.95
454.244	986.5
454.618	978.82
454.992	960.29
455.365	986.05
455.739	1028.76
456.112	1003
456.486	1028.31
456.859	1013.62
457.232	1019.94
457.606	1049.55
457.979	1054.97
458.352	1067.85
458.725	1091.81
459.099	1087.74
459.472	1090.9
459.845	1117.34
460.218	1115.54
460.591	1158.02
460.964	1160.28
461.337	1160.96
461.71	1172.03
462.083	1177.91
462.456	1188.75
462.829	1199.38
463.201	1222.2
463.574	1232.82
463.947	1247.96
464.32	1306.27
464.692	1281.41
465.065	1294.97
465.438	1320.28
465.81	1311.46
466.183	1320.73
466.555	1392.82
466.928	1369.54
467.3	1398.92
467.672	1391.91
468.045	1459.48
468.417	1456.32
468.789	1475.3
469.161	1513.49
469.534	1532.25
469.906	1549.2
470.278	1552.36
470.65	1590.55
471.022	1620.83
471.394	1660.38
471.766	1702.19
472.138	1719.81
472.51	1739.47
472.882	1760.04
473.253	1791.45
473.625	1838.45
473.997	1859.02
474.369	1918
474.74	1950.77
475.112	1963.87
475.484	2040.03
475.855	2061.27
476.227	2133.14
476.598	2162.51
476.97	2174.49
477.341	2264.43
477.713	2297.2
478.084	2380.59
478.455	2434.15
478.827	2521.37
479.198	2581.26
479.569	2586.01
479.94	2714.82
480.311	2764.08
480.682	2835.49
481.053	2897.41
481.424	2971.31
481.795	3037.07
482.166	3089.5
482.537	3182.15
482.908	3243.84
483.279	3357.51
483.65	3419.43
484.021	3496.49
484.391	3541.23
484.762	3651.29
485.133	3731.06
485.503	3792.53
485.874	3972.64
486.244	4012.86
486.615	4126.98
486.985	4224.38
487.356	4289.46
487.726	4406.97
488.097	4556.58
488.467	4638.61
488.837	4734.2
489.207	4871.14
489.578	4950.46
489.948	5046.51
490.318	5170.34
490.688	5127.63
491.058	5357.68
491.428	5425.25
491.798	5567.17
492.168	5705.47
492.538	5763.1
492.908	5898.91
493.278	6035.86
493.648	6094.16
494.017	6204.89
494.387	6320.82
494.757	6388.39
495.126	6524.88
495.496	6597.65
495.866	6700.47
496.235	6778.89
496.605	6870.86
496.974	6937.08
497.344	7047.81
497.713	7169.84
498.082	7275.15
498.452	7364.18
498.821	7426.1
499.19	7563.28
499.559	7660.22
499.928	7721.01
500.298	7786.09
500.667	7947.9
501.036	7936.83
501.405	8094.56
501.774	8111.06
502.143	8236.48
502.512	8309.02
502.88	8442.57
503.249	8471.5
503.618	8518.28
503.987	8628.11
504.356	8779.29
504.724	8776.8
505.093	8896.12
505.462	8920.3
505.83	9010.47
506.199	9076.68
506.567	9211.82
506.936	9235.32
507.304	9359.39
507.672	9393.51
508.041	9538.82
508.409	9650.23
508.777	9716.44
509.145	9778.81
509.514	9753.05
509.882	9845.93
510.25	9958.92
510.618	10006.6
510.986	10006.6
511.354	10184
511.722	10228.29
512.09	10355.97
512.458	10325.91
512.826	10472.35
513.193	10574.04
513.561	10584.44
513.929	10645.45
514.297	10742.4
514.664	10832.12
515.032	10874.38
515.4	11028.95
515.767	10998.44
516.135	11058.33
516.502	10944.88
516.869	11241.82
517.237	11307.58
517.604	11330.86
517.972	11486.79
518.339	11509.84
518.706	11440.91
519.073	11529.73
519.44	11633.9
519.808	11789.61
520.175	11712.09
520.542	11980.56
520.909	11935.82
521.276	11982.59
521.643	12141.91
522.009	12224.17
522.376	12267.78
522.743	12326.77
523.11	12414.67
523.477	12489.47
523.843	12634.55
524.21	12759.75
524.577	12822.12
524.943	12913.64
525.31	12980.08
525.676	13022.79
526.043	13121.77
526.409	13232.73
526.776	13309.11
527.142	13314.31
527.508	13389.56
527.874	13494.87
528.241	13521.99
528.607	13623.91
528.973	13743
529.339	13754.3
529.705	13896.89
530.071	13970.56
530.437	14102.99
530.803	14117.45
531.169	14299.82
531.535	14233.83
531.901	14322.65
532.267	14347.28
532.632	14457.33
532.998	14495.07
533.364	14657.33
533.73	14620.94
534.095	14752.69
534.461	14813.03
534.826	14940.26
535.192	14880.82
535.557	15083.76
535.923	15043.53
536.288	15142.29
536.653	15193.81
537.019	15166.01
537.384	15251.89
537.749	15343.64
538.114	15436.06
538.479	15470.41
538.845	15508.6
539.21	15552.22
539.575	15583.86
539.94	15620.24
540.305	15718.77
540.67	15746.11
541.034	15856.84
541.399	15876.5
541.764	15943.39
542.129	16068.59
542.494	16077.85
542.858	16108.59
543.223	16173.22
543.587	16318.98
543.952	16239.21
544.316	16348.58
544.681	16404.17
545.045	16507.9
545.41	16469.71
545.774	16680.78
546.138	16668.57
546.503	16730.94
546.867	16752.41
547.231	16905.18
547.595	17001.45
547.959	17015.46
548.324	17010.26
548.688	17045.29
549.052	17176.58
549.416	17213.87
549.779	17209.12
550.143	17406.18
550.507	17411.6
550.871	17395.33
551.235	17436.46
551.599	17513.75
551.962	17537.02
552.326	17668.55
552.689	17790.8
553.053	17718.94
553.417	17731.37
553.78	17899.5
554.143	17975.66
554.507	17953.74
554.87	18105.37
555.234	18257.68
555.597	18172.26
555.96	18177.46
556.323	18250.45
556.686	18342.88
557.05	18426.27
557.413	18450.22
557.776	18624.68
558.139	18735.19
558.502	18682.53
558.865	18735.64
559.228	18814.73
559.59	18967.04
559.953	18999.81
560.316	19165.68
560.679	19056.08
561.041	19262.86
561.404	19340.37
561.767	19414.72
562.129	19325
562.492	19624.2
562.854	19589.17
563.217	19585.78
563.579	19623.98
563.941	19768.15
564.304	19876.85
564.666	20026.68
565.028	19988.26
565.39	20020.58
565.753	20130.63
566.115	20218.31
566.477	20271.87
566.839	20346.67
567.201	20477.96
567.563	20464.63
567.925	20707.34
568.287	20613.78
568.648	20788.92
569.01	20727
569.372	20909.82
569.734	20883.15
570.095	21072.07
570.457	21228.23
570.819	21253.99
571.18	21236.36
571.542	21443.59
571.903	21455.11
572.265	21632.74
572.626	21671.15
572.987	21739.85
573.349	21758.83
573.71	21923.8
574.071	22028.66
574.432	22230.23
574.794	22343.68
575.155	22317.24
575.516	22432.04
575.877	22549.77
576.238	22584.8
576.599	22842.87
576.96	22789.99
577.32	22862.08
577.681	23101.4
578.042	23244.67
578.403	23331.9
578.763	23456.19
579.124	23538.45
579.485	23799.23
579.845	23951.32
580.206	23989.74
580.566	24163.52
580.927	24313.8
581.287	24573.68
581.648	24584.07
582.008	24757.63
582.368	24777.06
582.728	25131.4
583.089	25361.23
583.449	25313.77
583.809	25571.62
584.169	25869.01
584.529	25958.5
584.889	26252.5
585.249	26382.67
585.609	26358.04
585.969	26664.92
586.329	26724.35
586.688	27106.94
587.048	27200.5
587.408	27505.58
587.768	27645.46
588.127	27861.05
588.487	27882.97
588.846	28439.34
589.206	28411.32
589.565	28630.74
589.925	28824.41
590.284	29064.41
590.643	29393.44
591.003	29602.47
591.362	29729.92
591.721	29927.21
592.08	30153.42
592.44	30444.93
592.799	30655.1
593.158	30833.62
593.517	30987.97
593.876	31235.42
594.235	31301.18
594.593	31591.34
594.952	31842.64
595.311	31901.17
595.67	32252.34
596.029	32652.79
596.387	32668.38
596.746	32890.52
597.104	32929.39
597.463	33132.77
597.822	33456.61
598.18	33554.23
598.538	33719.88
598.897	34183.59
599.255	33874.9
599.613	34614.99
599.972	34601.89
600.33	34727.53
600.688	34732.73
601.046	35118.03
601.404	35357.35
601.762	35325.03
602.12	35744.68
602.478	35824
602.836	36031.68
603.194	35903.32
603.552	36124.78
603.91	36173.14
604.268	36538.79
604.625	36510.99
604.983	36809.74
605.341	36842.96
605.698	37006.12
606.056	37142.16
606.413	37399.1
606.771	37575.59
607.128	37717.06
607.485	37672.31
607.843	37785.31
608.2	38091.29
608.557	38181.68
608.914	38190.49
609.272	38516.13
609.629	38691.95
609.986	38943.69
610.343	38855.56
610.7	39169.68
611.057	39219.17
611.414	39342.33
611.771	39518.37
612.127	39642.66
612.484	39728.31
612.841	39913.16
613.198	39835.65
613.554	39899.15
613.911	40226.82
614.267	40370.1
614.624	40275.41
614.98	40409.64
615.337	40682.86
615.693	40631.11
616.05	40624.78
616.406	41120.13
616.762	40954.94
617.118	40971.44
617.475	41075.84
617.831	41409.17
618.187	41378.21
618.543	41513.34
618.899	41719.67
619.255	41792.66
619.611	41755.37
619.967	41914.69
620.323	41973.9
620.678	41944.29
621.034	41768.25
621.39	41973.9
621.746	41881.24
622.101	42473.09
622.457	42237.17
622.812	42343.83
623.168	42309.71
623.523	42546.99
623.879	42704.27
624.234	42416.6
624.589	42584.28
624.945	42671.73
625.3	42744.95
625.655	42646.87
626.01	42680.77
626.365	42836.25
626.72	42727.32
627.075	42756.25
627.43	42923.7
627.785	42748.79
628.14	42932.97
628.495	43018.39
628.85	42872.86
629.205	42759.41
629.559	43228.33
629.914	42977.03
630.269	42988.33
630.623	42879.86
630.978	42847.77
631.332	43100.87
631.687	43249.12
632.041	43042.57
632.396	43057.94
632.75	43020.65
633.104	43093.64
633.459	43018.16
633.813	43056.81
634.167	42975
634.521	43015.68
634.875	43115.56
635.229	43067.43
635.583	42893.87
635.937	42909.01
636.291	42801.22
636.645	42870.37
636.999	42844.38
637.352	43153.3
637.706	42786.3
638.06	43062.91
638.413	42874.66
638.767	42889.13
639.121	42747.66
639.474	42576.82
639.828	42610.72
640.181	42731.39
640.534	42740.66
640.888	42584.5
641.241	42379.76
641.594	42546.54
641.947	42603.71
642.301	42779.52
642.654	42613.88
643.007	42534.11
643.36	42645.74
643.713	42435.35
644.066	42613.43
644.419	42446.65
644.771	42170.05
645.124	41744.3
645.477	41751.98
645.83	41430.41
646.182	41419.11
646.535	41296.63
646.888	41465.66
647.24	41163.07
647.593	41390.41
647.945	41278.32
648.298	41048.5
648.65	41018.89
649.002	41064.54
649.355	41246.01
649.707	41070.64
650.059	41385.21
650.411	41812.09
650.763	41805.77
651.115	42155.13
651.467	41990.62
651.819	42089.83
652.171	41909.94
652.523	41884.86
652.875	41848.7
653.227	41630.4
653.578	42055.93
653.93	42069.49
654.282	41712.89
654.633	41638.99
654.985	41745.43
655.337	41763.96
655.688	41906.78
656.039	41926.67
656.391	41589.27
656.742	41631.76
657.094	41672.89
657.445	41799.66
657.796	41710.63
658.147	41655.49
658.498	41556.05
658.849	41712.89
659.2	41563.51
659.551	41532.55
659.902	41740.46
660.253	41737.07
660.604	41597.64
660.955	41430.41
661.306	41639.67
661.656	41323.74
662.007	41539.33
662.358	41549.27
662.708	41604.64
663.059	41419.33
663.409	41266.34
663.76	41397.64
664.11	41373.01
664.461	41519.9
664.811	41476.96
665.161	41454.36
665.511	41369.84
665.862	41467.02
666.212	41586.11
666.562	41607.8
666.912	41460.69
667.262	41423.85
667.612	41465.44
667.962	41522.83
668.312	41395.38
668.662	41532.78
669.011	41512.21
669.361	41362.39
669.711	41372.78
670.06	41241.26
670.41	41241.94
670.76	41189.51
671.109	41325.78
671.459	41209.62
671.808	41255.95
672.157	41298.66
672.507	40994.26
672.856	40934.83
673.205	41050.53
673.554	41274.25
673.904	41111.32
674.253	41278.1
674.602	41171.21
674.951	40563.31
675.3	40331.91
675.649	41088.27
675.998	41145.44
676.346	41138.66
676.695	41185.44
677.044	40836.3
677.393	41019.8
677.741	41085.11
678.09	40917.88
678.438	40847.37
678.787	40933.02
679.135	40932.34
679.484	40713.82
679.832	40773.48
680.181	40516.08
680.529	40655.74
680.877	40505.01
681.225	40498.91
681.573	40760.14
681.922	40409.87
682.27	40358.57
682.618	40407.61
682.966	40218.24
683.314	40252.59
683.661	40106.37
684.009	40052.59
684.357	39917
684.705	39993.38
685.053	40047.62
685.4	39975.76
685.748	39677.23
686.095	39609.44
686.443	39537.12
686.79	39656.67
687.138	39695.76
687.485	39653.96
687.832	39460.52
688.18	39532.6
688.527	39209.22
688.874	39184.37
689.221	39307.75
689.568	39084.25
689.915	39091.49
690.262	39081.77
690.609	38950.25
690.956	38843.36
691.303	38777.37
691.65	38628.22
691.997	38648.56
692.344	38411.96
692.69	38315.69
693.037	38508.68
693.383	37926.32
693.73	38246.31
694.077	38007.22
694.423	38107.11
694.769	37875.47
695.116	37817.4
695.462	37830.28
695.808	37717.29
696.155	37725.42
696.501	37413.11
696.847	37408.82
697.193	37132.22
697.539	37243.4
697.885	36973.8
698.231	36921.15
698.577	37004.54
698.923	36903.97
699.269	36678.89
699.614	36569.74
699.96	36467.37
700.306	36421.73
700.651	36341.73
700.997	36267.15
701.342	36211.11
701.688	36189.87
702.033	36075.75
702.379	36024.9
702.724	35852.93
703.069	35934.06
703.415	35617
703.76	35731.57
704.105	35743.55
704.45	35598.24
704.795	35375.88
705.14	35255.2
705.485	35227.18
705.83	35082.33
706.175	35166.62
706.52	34927.98
706.865	35026.28
707.209	34785.38
707.554	34688.66
707.899	34770.92
708.243	34560.53
708.588	34620.87
708.932	34359.63
709.277	34358.73
709.621	34289.8
709.966	34119.64
710.31	34241.44
710.654	33773.66
710.998	33878.52
711.342	33962.13
711.687	33928.23
712.031	33756.49
712.375	33633.32
712.719	33653.89
713.063	33488.24
713.407	33741.12
713.75	33479.2
714.094	33502.25
714.438	33271.75
714.782	33298.19
715.125	33239.44
715.469	33269.04
715.812	33036.96
716.156	32811.2
716.499	32956.28
716.843	33017.97
717.186	32644.2
717.53	32801.26
717.873	32767.58
718.216	32747.47
718.559	32652.33
718.902	32318.56
719.246	32541.38
719.589	32415.73
719.932	32343.19
720.275	32321.27
720.617	32103.2
720.96	32126.25
721.303	32251.89
721.646	32120.6
721.989	31866.37
722.331	32055.29
722.674	31817.1
723.016	31826.82
723.359	31765.35
723.701	31899.36
724.044	31692.13
724.386	31541.18
724.729	31821.17
725.071	31564.68
725.413	31487.39
725.755	31617.33
726.097	31287.85
726.439	31184.8
726.782	31254.18
727.124	31374.18
727.465	31257.12
727.807	31228.42
728.149	31225.03
728.491	31154.75
728.833	31099.83
729.175	30989.55
729.516	30911.59
729.858	30946.39
730.199	30982.32
730.541	30798.37
730.882	30775.77
731.224	30896.67
731.565	30654.42
731.906	30671.59
732.248	30754.76
732.589	30481.77
732.93	30392.73
733.271	30436.12
733.612	30510.02
733.953	30378.04
734.294	30434.09
734.635	30265.73
734.976	30282.45
735.317	30093.98
735.658	30122.91
735.999	30254.2
736.339	30100.99
736.68	30068.67
737.021	29961.1
737.361	29891.28
737.702	30065.51
738.042	29946.42
738.383	29873.65
738.723	29927.43
739.063	29805.4
739.404	29809.92
739.744	29743.26
740.084	29660.1
740.424	29683.15
740.764	29565.64
741.104	29905.74
741.444	29461.01
741.784	29548.69
742.124	29533.32
742.464	29469.14
742.804	29377.39
743.143	29309.37
743.483	29353.89
743.823	29219.66
744.162	29197.28
744.502	29136.49
744.841	29012.43
745.181	29312.99
745.52	29021.24
745.86	29035.48
746.199	28912.77
746.538	29070.28
746.877	28969.94
747.216	28947.57
747.556	28731.53
747.895	28802.94
748.234	28644.98
748.573	28686.79
748.911	28571.54
749.25	28641.14
749.589	28467.81
749.928	28506.68
750.267	28686.56
750.605	28350.07
750.944	28316.85
751.283	28279.79
751.621	28295.61
751.96	28132
752.298	28118.67
752.636	28163.64
752.975	27958.45
753.313	27858.11
753.651	28009.29
753.989	27886.81
754.327	27796.19
754.666	27706.7
755.004	27798.22
755.342	27734.95
755.679	27849.75
756.017	27542.19
756.355	27560.72
756.693	27515.75
757.031	27526.59
757.368	27331.8
757.706	27396.43
758.044	27226.04
758.381	27237.56
758.719	27153.04
759.056	27192.14
759.394	27017
759.731	26961.18
760.068	26796.89
760.405	26784.24
760.743	26611.81
761.08	26822.43
761.417	26553.06
761.754	26586.73
762.091	26525.94
762.428	26526.62
762.765	26286.4
763.102	26433.74
763.438	26245.72
763.775	26118.27
764.112	25991.94
764.449	26135.89
764.785	25976.8
765.122	25678.28
765.458	25671.5
765.795	25623.37
766.131	25501.34
766.467	25438.29
766.804	25256.6
767.14	25312.41
767.476	25240.55
767.812	25265.64
768.148	25229.93
768.485	25027.22
768.821	24864.06
769.157	24778.19
769.492	24758.53
769.828	24800.34
770.164	24480.8
770.5	24473.34
770.836	24469.95
771.171	24223.4
771.507	24300.91
771.842	24056.63
772.178	24139.34
772.513	23991.54
772.849	23975.95
773.184	23770.99
773.519	23706.13
773.855	23741.61
774.19	23620.71
774.525	23515.62
774.86	23478.34
775.195	23502.52
775.53	23283.99
775.865	23226.82
776.2	23050.78
776.535	22895.75
776.87	23015.07
777.205	22899.14
777.539	22733.27
777.874	22805.59
778.209	22613.05
778.543	22568.98
778.878	22447.4
779.212	22452.38
779.547	22304.36
779.881	22319.95
780.215	22083.57
780.55	22091.03
780.884	22009.9
781.218	21873.86
781.552	21997.7
781.886	21736.91
782.22	21748.21
782.554	21603.13
782.888	21366.3
783.222	21376.25
783.556	21284.95
783.889	21208.34
784.223	21052.19
784.557	21048.12
784.89	21075.24
785.224	20934.22
785.557	20866.65
785.891	20831.63
786.224	20762.93
786.558	20715.02
786.891	20531.97
787.224	20499.21
787.557	20373.56
787.891	20369.94
788.224	20325.65
788.557	20254.69
788.89	20343.96
789.223	20318.87
789.556	20085.66
789.888	20123.62
790.221	19959.56
790.554	19845.21
790.887	19866.91
791.219	19776.29
791.552	19767.47
791.884	19674.82
792.217	19584.65
792.549	19429.86
792.882	19337.43
793.214	19234.61
793.546	19363.87
793.879	19192.8
794.211	19045.23
794.543	19162.97
794.875	19071.67
795.207	18965.01
795.539	18939.47
795.871	18878.46
796.203	18705.13
796.535	18605.02
796.867	18650.67
797.198	18523.89
797.53	18536.77
797.862	18492.93
798.193	18462.65
798.525	18316.89
798.856	18252.03
799.188	18123.22
799.519	18075.77
799.85	18005.71
800.182	17986.05
800.513	18063.79
800.844	17845.72
801.175	17955.54
801.506	17847.53
801.837	17830.58
802.168	17756.68
802.499	17651.15
802.83	17632.16
803.161	17594.2
803.491	17380.64
803.822	17578.15
804.153	17429.01
804.483	17201.21
804.814	17246.86
805.145	17244.15
805.475	17213.19
805.805	17083.93
806.136	17057.49
806.466	17063.36
806.796	17064.49
807.126	16950.37
807.457	16889.58
807.787	16932.52
808.117	16728.01
808.447	16744.96
808.777	16750.83
809.107	16647.78
809.436	16715.8
809.766	16655.01
810.096	16544.06
810.426	16509.03
810.755	16532.08
811.085	16391.07
811.414	16421.35
811.744	16230.84
812.073	16227.68
812.403	16253.44
812.732	16142.03
813.061	16133.45
813.39	16024.3
813.719	16058.42
814.049	16180.68
814.378	15965.09
814.707	15925.09
815.036	15962.83
815.365	15809.16
815.693	15745.89
816.022	15769.39
816.351	15665.21
816.68	15569.39
817.008	15631.54
817.337	15514.25
817.665	15455.5
817.994	15410.08
818.322	15480.36
818.651	15451.66
818.979	15302.73
819.307	15440.58
819.636	15334.37
819.964	15233.58
820.292	15308.16
820.62	15193.58
820.948	15241.04
821.276	15271.55
821.604	15209.85
821.932	15220.25
822.259	15207.59
822.587	15211.21
822.915	15150.42
823.243	15186.35
823.57	15090.76
823.898	15211.89
824.225	15045.34
824.553	15081.95
824.88	15159.69
825.207	15166.47
825.535	15064.32
825.862	15135.96
826.189	15049.63
826.516	15230.19
826.843	15205.56
827.17	15155.17
827.497	15164.66
827.824	15112.91
828.151	15150.42
828.478	15109.07
828.805	15191.32
829.131	15125.34
829.458	15127.37
829.785	15026.81
830.111	15069.52
830.438	15086.02
830.764	15065.45
831.09	15154.71
831.417	15059.8
831.743	15092.57
832.069	15054.15
832.395	15031.33
832.722	15082.85
833.048	14922.18
833.374	15031.55
833.7	14918.34
834.026	14974.38
834.351	14984.1
834.677	14928.28
835.003	14941.39
835.329	14883.31
835.654	14799.47
835.98	14838.11
836.306	14903.2
836.631	14727.83
836.956	14879.02
837.282	14775.29
837.607	14735.06
837.932	14662.3
838.258	14627.04
838.583	14690.09
838.908	14615.52
839.233	14611.68
839.558	14580.72
839.883	14545.69
840.208	14464.56
840.533	14529.42
840.858	14523.32
841.182	14427.28
841.507	14430.21
841.832	14360.61
842.156	14397.67
842.481	14314.51
842.805	14254.4
843.13	14241.97
843.454	14178.47
843.778	14118.13
844.103	14171.46
844.427	14139.15
844.751	14060.05
845.075	14120.84
845.399	14056.89
845.723	13956.33
846.047	13965.82
846.371	13894.18
846.695	13907.29
847.019	13793.62
847.343	13779.16
847.666	13629.56
847.99	13555.89
848.313	13570.35
848.637	13430.69
848.96	13415.1
849.284	13479.5
849.607	13328.77
849.931	13212.62
850.254	13194.31
850.577	13203.13
850.9	13034.32
851.223	13075.22
851.546	12936.47
851.869	12916.36
852.192	12847.88
852.515	12802.23
852.838	12855.34
853.161	12826.19
853.483	12744.83
853.806	12678.17
854.129	12617.83
854.451	12602.24
854.774	12548.46
855.096	12501.68
855.419	12438.4
855.741	12449.25
856.063	12329.7
856.385	12382.81
856.708	12277.28
857.03	12259.88
857.352	12230.5
857.674	12200.67
857.996	12132.2
858.318	12048.13
858.64	12052.42
858.961	12054.23
859.283	12004.06
859.605	11872.99
859.926	11887
860.248	11955.7
860.57	11920
860.891	11853.56
861.212	11736.05
861.534	11747.57
861.855	11825.08
862.176	11682.72
862.498	11757.52
862.819	11732.66
863.14	11649.5
863.461	11654.24
863.782	11561.81
864.103	11633.23
864.424	11652.43
864.745	11487.69
865.065	11509.39
865.386	11513.91
865.707	11478.43
866.027	11493.57
866.348	11467.81
866.668	11445.89
866.989	11354.14
867.309	11345.55
867.63	11365.44
867.95	11358.66
868.27	11306.68
868.59	11344.87
868.91	11237.98
869.23	11265.55
869.55	11217.64
869.87	11249.96
870.19	11247.7
870.51	11261.26
870.83	11233.01
871.15	11178.32
871.469	11096.52
871.789	11257.42
872.109	11172.9
872.428	11060.13
872.748	11122.05
873.067	11069.4
873.386	11120.92
873.706	11051.32
874.025	10989.17
874.344	10940.81
874.663	11011.55
874.982	10887.26
875.301	10862.85
875.62	10892.45
875.939	10874.6
876.258	10822.17
876.577	10868.95
876.896	10880.7
877.214	10826.01
877.533	10802.51
877.852	10827.37
878.17	10750.54
878.489	10793.47
878.807	10776.52
879.125	10746.24
879.444	10714.38
879.762	10632.57
880.08	10669.86
880.398	10630.31
880.716	10679.58
881.034	10620.37
881.352	10552.12
881.67	10543.76
881.988	10546.7
882.306	10503.76
882.624	10534.5
882.941	10419.92
883.259	10378.34
883.577	10332.24
883.894	10344.67
884.212	10360.94
884.529	10322.3
884.846	10265.35
885.164	10310.55
885.481	10265.8
885.798	10208.63
886.115	10159.37
886.432	10187.16
886.75	10199.14
887.067	10226.03
887.383	10118.01
887.7	10140.16
888.017	10085.24
888.334	10063.77
888.651	9982.2
888.967	9903.78
889.284	9957.11
889.6	9951.91
889.917	9851.58
890.233	9921.18
890.55	9899.94
890.866	9893.16
891.182	9778.81
891.498	9775.42
891.815	9683.9
892.131	9715.08
892.447	9736.55
892.763	9691.58
893.079	9693.39
893.395	9550.34
893.71	9592.83
894.026	9609.32
894.342	9564.81
894.657	9533.39
894.973	9475.99
895.289	9383.11
895.604	9444.36
895.92	9328.2
896.235	9326.17
896.55	9308.54
896.865	9245.49
897.181	9222.44
897.496	9296.79
897.811	9228.54
898.126	9170.24
898.441	9135.21
898.756	9134.08
899.071	9084.82
899.386	9096.12
899.7	9027.87
900.015	8954.65
900.33	8880.08
900.644	8882.56
900.959	8873.3
901.273	8840.3
901.588	8808.89
901.902	8657.26
902.216	8647.77
902.531	8699.29
902.845	8643.7
903.159	8598.95
903.473	8529.13
903.787	8514.89
904.101	8505.62
904.415	8537.94
904.729	8449.13
905.042	8428.34
905.356	8428.79
905.67	8425.4
905.984	8462.91
906.297	8341.11
906.611	8321.45
906.924	8246.42
907.237	8183.15
907.551	8275.57
907.864	8137.5
908.177	8162.81
908.491	8083.71
908.804	8009.59
909.117	8075.13
909.43	7986.32
909.743	7946.32
910.056	7889.37
910.368	7882.82
910.681	7901.12
910.994	7819.99
911.307	7801.01
911.619	7679.43
911.932	7791.74
912.244	7669.49
912.557	7690.73
912.869	7686.66
913.181	7626.32
913.494	7546.78
913.806	7484.41
914.118	7531.19
914.43	7433.56
914.742	7485.76
915.054	7439.66
915.366	7415.93
915.678	7336.16
915.99	7348.37
916.302	7345.43
916.613	7271.08
916.925	7259.78
917.236	7216.84
917.548	7240.35
917.859	7215.71
918.171	7179.33
918.482	7141.14
918.794	7045.32
919.105	7046.91
919.416	7045.1
919.727	7031.31
920.038	6954.93
920.349	6893.46
920.66	6926.46
920.971	6873.58
921.282	6826.12
921.593	6839.9
921.903	6766.01
922.214	6764.88
922.525	6660.47
922.835	6687.14
923.146	6669.06
923.456	6655.05
923.767	6630.19
924.077	6624.09
924.387	6533.92
924.697	6526.47
925.008	6448.5
925.318	6488.05
925.628	6397.43
925.938	6403.31
926.248	6351.1
926.558	6410.09
926.867	6303.2
927.177	6298.68
927.487	6269.07
927.796	6194.05
928.106	6265
928.416	6245.8
928.725	6220.26
929.034	6102.98
929.344	6099.59
929.653	6098.46
929.962	5986.14
930.271	6060.72
930.581	6004.22
930.89	6018.46
931.199	5931.45
931.508	5975.07
931.817	5920.38
932.125	5898.23
932.434	5891
932.743	5776.43
933.051	5822.08
933.36	5789.09
933.669	5734.62
933.977	5731.23
934.286	5738.92
934.594	5720.61
934.902	5705.7
935.21	5567.4
935.519	5676.55
935.827	5563.78
936.135	5518.58
936.443	5522.2
936.751	5495.08
937.059	5498.47
937.367	5439.49
937.674	5472.03
937.982	5497.57
938.29	5358.14
938.597	5411.69
938.905	5336.89
939.213	5324.01
939.52	5255.09
939.827	5299.83
940.135	5254.64
940.442	5195.88
940.749	5252.6
941.056	5206.95
941.363	5150.91
941.67	5154.75
941.977	5091.48
942.284	5059.84
942.591	5102.1
942.898	4994.08
943.205	5016
943.511	5006.28
943.818	4966.73
944.125	4924.48
944.431	4966.06
944.738	4962.44
945.044	4931.71
945.35	4878.15
945.657	4867.75
945.963	4879.5
946.269	4821.65
946.575	4789.34
946.881	4766.06
947.187	4789.34
947.493	4760.64
947.799	4743.91
948.105	4702.33
948.41	4780.52
948.716	4598.83
949.022	4656.69
949.327	4632.28
949.633	4573.52
949.938	4588.66
950.244	4613.07
950.549	4542.34
950.854	4494.43
951.16	4507.31
951.465	4504.37
951.77	4467.54
952.075	4443.36
952.38	4380.08
952.685	4437.48
952.99	4377.14
953.294	4353.87
953.599	4368.11
953.904	4311.38
954.209	4262.57
954.513	4267.32
954.818	4249.01
955.122	4264.61
955.426	4260.54
955.731	4199.97
956.035	4187.32
956.339	4174.21
956.643	4185.74
956.948	4167.66
957.252	4095.12
957.556	4151.39
957.86	4044.95
958.163	4059.87
958.467	4082.24
958.771	4027.55
959.075	4055.35
959.378	4022.58
959.682	3985.52
959.985	3990.71
960.289	3990.94
960.592	3931.28
960.896	3932.86
961.199	3894.9
961.502	3903.48
961.805	3897.38
962.108	3885.86
962.411	3880.21
962.714	3851.96
963.017	3807.67
963.32	3806.54
963.623	3743.26
963.926	3758.86
964.228	3782.36
964.531	3761.79
964.833	3722.25
965.136	3704.17
965.438	3650.16
965.741	3653.1
966.043	3655.36
966.345	3624.62
966.648	3590.72
966.95	3582.14
967.252	3572.19
967.554	3585.75
967.856	3538.97
968.158	3485.64
968.46	3524.06
968.761	3517.51
969.063	3445.87
969.365	3481.58
969.666	3498.07
969.968	3461.91
970.269	3431.41
970.571	3411.75
970.872	3393.44
971.174	3356.15
971.475	3363.84
971.776	3338.08
972.077	3315.03
972.378	3337.62
972.679	3277.51
972.98	3280.45
973.281	3299.21
973.582	3224.18
973.883	3251.75
974.183	3223.28
974.484	3190.06
974.785	3187.8
975.085	3201.81
975.386	3198.19
975.686	3160.45
975.986	3140.57
976.287	3167.23
976.587	3094.69
976.887	3101.25
977.187	3127.46
977.487	3067.57
977.787	3073
978.087	3049.72
978.387	3042.26
978.687	2994.58
978.987	3025.32
979.286	3017.18
979.586	3016.5
979.885	2971.08
980.185	2936.73
980.484	2909.84
980.784	2956.17
981.083	2893.57
981.382	2915.26
981.682	2869.16
981.981	2875.26
982.28	2873.68
982.579	2857.41
982.878	2863.74
983.177	2827.13
983.475	2798.88
983.774	2819.22
984.073	2768.6
984.372	2753.46
984.67	2775.83
984.969	2740.58
985.267	2737.64
985.566	2730.18
985.864	2751.65
986.162	2725.89
986.461	2699.9
986.759	2666.91
987.057	2694.93
987.355	2621.26
987.653	2626.46
987.951	2638.89
988.249	2640.02
988.547	2634.14
988.844	2611.32
989.142	2598.21
989.44	2556.4
989.737	2597.76
990.035	2558.66
990.332	2560.92
990.63	2536.97
990.927	2513.46
991.224	2495.61
991.521	2463.97
991.819	2487.03
992.116	2477.08
992.413	2458.33
992.71	2447.25
993.006	2440.02
993.303	2435.27
993.6	2450.64
993.897	2416.52
994.193	2402.28
994.49	2356.41
994.787	2369.74
995.083	2327.93
995.379	2336.52
995.676	2353.92
995.972	2326.58
996.268	2293.58
996.565	2313.7
996.861	2315.28
997.157	2297.88
997.453	2285.45
997.749	2253.58
998.044	2247.71
998.34	2242.74
998.636	2221.27
998.932	2209.74
999.227	2224.89
999.523	2153.02
999.818	2193.25
1000.114	2137.43
1000.409	2133.14
1000.704	2138.11
1001	2156.86
1001.295	2125.23
1001.59	2105.79
1001.885	2126.36
1002.18	2112.8
1002.475	2045.91
1002.77	2029.64
1003.065	2036.87
1003.359	2035.06
1003.654	2033.93
1003.949	2005
1004.243	2002.29
1004.538	1989.86
1004.832	2011.33
1005.127	1991.44
1005.421	2004.78
1005.715	1982.86
1006.009	1963.65
1006.304	1929.07
1006.598	1937.21
1006.892	1937.43
1007.186	1900.83
1007.48	1894.05
1007.773	1910.99
1008.067	1895.63
1008.361	1869.87
1008.655	1875.74
1008.948	1837.32
1009.242	1855.63
1009.535	1826.7
1009.829	1820.38
1010.122	1784.9
1010.415	1795.74
1010.708	1789.87
1011.001	1766.82
1011.295	1756.2
1011.588	1729.53
1011.881	1762.07
1012.173	1725.92
1012.466	1715.75
1012.759	1706.71
1013.052	1677.55
1013.344	1706.93
1013.637	1693.15
1013.93	1695.41
1014.222	1647.05
1014.514	1636.65
1014.807	1648.85
1015.099	1625.58
1015.391	1621.06
1015.683	1644.34
1015.976	1607.27
1016.268	1596.88
1016.56	1563.43
1016.851	1591.46
1017.143	1569.31
1017.435	1566.37
1017.727	1523.21
1018.018	1520.5
1018.31	1538.58
1018.602	1500.84
1018.893	1519.59
1019.185	1483.44
1019.476	1494.96
1019.767	1486.6
1020.058	1480.05
1020.35	1454.06
1020.641	1449.54
1020.932	1439.37
1021.223	1448.41
1021.514	1428.75
1021.804	1398.92
1022.095	1406.38
1022.386	1425.58
1022.677	1374.96
1022.967	1362.99
1023.258	1377.45
1023.548	1360.27
1023.839	1354.63
1024.129	1344.91
1024.419	1358.92
1024.709	1315.76
1025	1320.28
1025.29	1319.15
1025.58	1303.33
1025.87	1304.68
1026.16	1284.8
1026.449	1280.5
1026.739	1251.13
1027.029	1258.58
1027.319	1242.31
1027.608	1276.89
1027.898	1212.03
1028.187	1219.04
1028.477	1238.24
1028.766	1200.28
1029.055	1188.98
1029.344	1204.35
1029.634	1180.62
1029.923	1176.55
1030.212	1173.39
1030.501	1160.05
1030.79	1177.23
1031.078	1149.66
1031.367	1133.61
1031.656	1114.41
1031.945	1122.77
1032.233	1151.24
1032.522	1107.63
1032.81	1109.21
1033.099	1085.25
1033.387	1086.84
1033.675	1104.69
1033.963	1063.79
1034.251	1079.6
1034.54	1078.93
1034.828	1022.43
1035.116	1042.09
1035.403	1025.59
1035.691	1046.16
1035.979	1012.49
1036.267	1027.85
1036.554	995.31
1036.842	1006.16
1037.129	997.12
1037.417	992.15
1037.704	996.67
1037.992	993.73
1038.279	988.53
1038.566	965.26
1038.853	965.26
1039.14	965.26
