Data from hue_280_FLMS001491_00065.txt Node
Date: Tue Feb 07 15:55:36 GMT 2017
User: dcchb
Spectrometer: FLMS00149
Trigger mode: 0
Integration Time (sec): 2.000000E-2
Scans to average: 10
Electric dark correction enabled: true
Nonlinearity correction enabled: false
Boxcar width: 0
XAxis mode: Wavelengths
Number of Pixels in Spectrum: 2048
>>>>>Begin Spectral Data<<<<<
341.393	-21.72
341.776	-21.72
342.16	-21.72
342.543	-79.57
342.927	-81.16
343.31	-62.85
343.693	-77.99
344.077	-63.08
344.46	-61.95
344.843	-60.37
345.226	-48.84
345.61	-38.9
345.993	-17.43
346.376	-5.68
346.759	22.12
347.142	51.95
347.525	50.82
347.908	54.89
348.291	75.22
348.674	75
349.057	107.09
349.44	103.25
349.823	132.85
350.206	151.38
350.588	191.61
350.971	200.87
351.354	219.18
351.737	208.55
352.119	250.81
352.502	247.87
352.884	271.38
353.267	279.51
353.65	284.71
354.032	281.32
354.414	284.03
354.797	290.59
355.179	300.75
355.562	308.66
355.944	300.75
356.326	324.48
356.709	304.14
357.091	326.29
357.473	337.14
357.855	340.53
358.238	336.01
358.62	314.77
359.002	328.1
359.384	347.99
359.766	322.9
360.148	338.95
360.53	326.29
360.912	322.22
361.294	302.11
361.676	325.39
362.057	331.26
362.439	318.38
362.821	311.6
363.203	317.03
363.584	330.58
363.966	331.71
364.348	311.38
364.729	313.64
365.111	312.96
365.493	296.46
365.874	306.18
366.256	298.27
366.637	304.14
367.019	305.95
367.4	290.59
367.781	319.51
368.163	285.39
368.544	295.78
368.925	312.51
369.306	308.66
369.688	286.97
370.069	304.37
370.45	297.14
370.831	304.37
371.212	314.54
371.593	306.4
371.974	297.14
372.355	304.14
372.736	289.23
373.117	308.66
373.498	315.44
373.879	310.25
374.26	303.69
374.641	290.59
375.021	299.85
375.402	310.92
375.783	300.3
376.163	302.56
376.544	308.66
376.925	303.69
377.305	290.13
377.686	297.37
378.066	309.12
378.447	299.85
378.827	331.71
379.208	307.76
379.588	340.3
379.968	327.65
380.349	321.55
380.729	311.6
381.109	326.06
381.489	313.64
381.87	340.98
382.25	319.06
382.63	324.71
383.01	329.68
383.39	362.22
383.77	340.98
384.15	326.29
384.53	341.43
384.91	334.2
385.29	343.47
385.67	329.45
386.049	357.7
386.429	344.14
386.809	322.68
387.189	351.37
387.568	337.36
387.948	336.23
388.328	338.72
388.707	350.7
389.087	346.18
389.466	329.45
389.846	352.5
390.225	356.8
390.605	360.19
390.984	365.61
391.363	373.97
391.743	360.19
392.122	346.86
392.501	375.1
392.881	385.72
393.26	361.77
393.639	369.91
394.018	362.9
394.397	384.82
394.776	371.49
395.155	358.61
395.534	358.15
395.913	378.94
396.292	375.78
396.671	390.24
397.05	373.75
397.429	381.66
397.808	380.53
398.186	403.35
398.565	386.85
398.944	379.4
399.323	379.4
399.701	382.56
400.08	407.42
400.458	390.92
400.837	394.09
401.215	402.67
401.594	388.89
401.972	401.32
402.351	407.19
402.729	407.42
403.107	412.16
403.486	421.66
403.864	435.89
404.242	425.27
404.62	439.96
404.999	423.24
405.377	429.34
405.755	421.43
406.133	440.19
406.511	432.95
406.889	441.99
407.267	435.21
407.645	428.21
408.023	446.06
408.401	456.23
408.779	483.57
409.156	457.36
409.534	479.96
409.912	479.06
410.29	490.58
410.667	497.36
411.045	513.63
411.422	510.01
411.8	501.43
412.178	541.2
412.555	520.86
412.933	536.91
413.31	557.92
413.687	550.69
414.065	549.79
414.442	550.01
414.819	572.84
415.197	574.42
415.574	593.63
415.951	558.6
416.328	580.52
416.705	573.06
417.082	606.51
417.46	619.39
417.837	616.45
418.214	619.84
418.591	622.33
418.967	632.72
419.344	648.99
419.721	633.4
420.098	670.01
420.475	654.64
420.852	662.33
421.228	669.33
421.605	694.42
421.982	707.52
422.358	705.04
422.735	710.01
423.111	729.67
423.488	686.06
423.864	731.7
424.241	721.31
424.617	751.14
424.994	754.3
425.37	779.39
425.746	776.22
426.123	792.49
426.499	793.17
426.875	776.45
427.251	836.33
427.627	832.94
428.003	828.42
428.379	863.68
428.756	846.96
429.132	854.86
429.507	855.09
429.883	876.11
430.259	895.54
430.635	896.9
431.011	901.19
431.387	907.29
431.763	943.9
432.138	943
432.514	942.77
432.89	960.17
433.265	977.8
433.641	996.1
434.016	988.87
434.392	1029.1
434.767	1023.67
435.143	1011.92
435.518	1018.48
435.894	1049.21
436.269	1062.32
436.644	1090.11
437.02	1088.98
437.395	1128.53
437.77	1123.78
438.145	1148.42
438.52	1149.55
438.895	1163.78
439.271	1185.48
439.646	1181.18
440.021	1170.79
440.395	1203.56
440.77	1212.6
441.145	1229.09
441.52	1234.06
441.895	1229.09
442.27	1275.42
442.645	1221.63
443.019	1240.84
443.394	1267.06
443.769	1293.5
444.143	1281.29
444.518	1285.36
444.892	1289.43
445.267	1261.18
445.641	1319.26
446.016	1331.01
446.39	1319.71
446.764	1355.87
447.139	1340.5
447.513	1333.5
447.887	1370.56
448.262	1361.74
448.636	1343.44
449.01	1382.99
449.384	1413.04
449.758	1392.03
450.132	1406.94
450.506	1400.16
450.88	1427.28
451.254	1393.61
451.628	1415.08
452.002	1449.65
452.376	1460.27
452.75	1466.15
453.123	1481.29
453.497	1492.81
453.871	1484.45
454.244	1519.25
454.618	1533.49
454.992	1516.99
455.365	1515.19
455.739	1561.96
456.112	1616.2
456.486	1608.29
456.859	1622.3
457.232	1615.75
457.606	1627.95
457.979	1619.36
458.352	1657.56
458.725	1664.56
459.099	1674.28
459.472	1717.44
459.845	1692.36
460.218	1729.19
460.591	1709.31
460.964	1748.4
461.337	1760.6
461.71	1767.38
462.083	1812.81
462.456	1844.22
462.829	1820.26
463.201	1843.31
463.574	1817.1
463.947	1832.92
464.32	1904.1
464.692	1911.11
465.065	1936.64
465.438	1927.38
465.81	1958.79
466.183	1970.09
466.555	1990.88
466.928	2018.22
467.3	1985.91
467.672	2032.91
468.045	2064.55
468.417	2055.06
468.789	2094.61
469.161	2097.77
469.534	2127.37
469.906	2155.4
470.278	2161.72
470.65	2173.7
471.022	2226.13
471.394	2243.08
471.766	2271.32
472.138	2240.59
472.51	2300.93
472.882	2335.5
473.253	2339.35
473.625	2342.96
473.997	2399.91
474.369	2408.72
474.74	2437.87
475.112	2451.43
475.484	2514.48
475.855	2516.74
476.227	2541.83
476.598	2627.93
476.97	2609.17
477.341	2654.37
477.713	2716.06
478.084	2675.61
478.455	2763.74
478.827	2786.34
479.198	2847.35
479.569	2843.96
479.94	2868.82
480.311	2931.65
480.682	2943.4
481.053	2984.53
481.424	3018.2
481.795	3062.72
482.166	3090.06
482.537	3099.1
482.908	3147.23
483.279	3175.26
483.65	3188.36
484.021	3241.92
484.391	3300
484.762	3287.79
485.133	3321.01
485.503	3373.22
485.874	3400.33
486.244	3423.84
486.615	3469.03
486.985	3495.93
487.356	3561.23
487.726	3556.04
488.097	3659.08
488.467	3651.85
488.837	3656.15
489.207	3760.1
489.578	3782.92
489.948	3824.28
490.318	3840.32
490.688	3837.84
491.058	3874.9
491.428	3877.84
491.798	3956.03
492.168	4042.8
492.538	4001.45
492.908	4041.67
493.278	4074.67
493.648	4124.38
494.017	4168.22
494.387	4156.25
494.757	4169.13
495.126	4167.09
495.496	4205.28
495.866	4215.91
496.235	4248.67
496.605	4296.36
496.974	4308.56
497.344	4346.07
497.713	4376.58
498.082	4366.64
498.452	4419.29
498.821	4403.02
499.19	4452.51
499.559	4494.09
499.928	4479.4
500.298	4509.23
500.667	4540.87
501.036	4504.26
501.405	4579.29
501.774	4553.75
502.143	4582.68
502.512	4582
502.88	4620.64
503.249	4601.88
503.618	4679.17
503.987	4638.04
504.356	4696.8
504.724	4663.8
505.093	4696.57
505.462	4683.69
505.83	4730.69
506.199	4772.28
506.567	4785.16
506.936	4812.95
507.304	4812.27
507.672	4839.17
508.041	4860.18
508.409	4904.25
508.777	4896.57
509.145	4887.75
509.514	4944.25
509.882	4884.82
510.25	4900.63
510.618	4937.02
510.986	4983.57
511.354	5012.27
511.722	5028.31
512.09	5036.22
512.458	4992.61
512.826	5022.89
513.193	5062.44
513.561	5059.95
513.929	5082.1
514.297	5080.06
514.664	5144.7
515.032	5152.15
515.4	5189.44
515.767	5173.62
516.135	5164.58
516.502	5145.6
516.869	5165.71
517.237	5184.69
517.604	5196.22
517.972	5171.59
518.339	5243.22
518.706	5290
519.073	5254.07
519.44	5312.15
519.808	5329.32
520.175	5278.03
520.542	5306.95
520.909	5298.59
521.276	5383.56
521.643	5362.32
522.009	5362.32
522.376	5419.26
522.743	5454.29
523.11	5476.66
523.477	5491.13
523.843	5558.92
524.21	5553.27
524.577	5543.1
524.943	5570.9
525.31	5575.42
525.676	5617.68
526.043	5649.77
526.409	5622.42
526.776	5702.42
527.142	5709.2
527.508	5728.63
527.874	5711.23
528.241	5765.92
528.607	5798.24
528.973	5811.57
529.339	5781.97
529.705	5889.08
530.071	5901.51
530.437	5870.33
530.803	5886.82
531.169	5889.31
531.535	5864
531.901	5912.58
532.267	5917.1
532.632	5923.66
532.998	5968.63
533.364	5961.17
533.73	6009.08
534.095	6066.25
534.461	6065.12
534.826	6043.2
535.192	6051.79
535.557	6115.74
535.923	6120.49
536.288	6096.53
536.653	6140.15
537.019	6081.85
537.384	6134.95
537.749	6134.73
538.114	6113.48
538.479	6172.46
538.845	6179.02
539.21	6211.11
539.575	6185.35
539.94	6270.77
540.305	6237.1
540.67	6252.69
541.034	6246.81
541.399	6320.71
541.764	6281.61
542.129	6334.95
542.494	6313.7
542.858	6333.82
543.223	6351.22
543.587	6367.04
543.952	6340.37
544.316	6369.75
544.681	6373.36
545.045	6395.74
545.41	6412.68
545.774	6379.69
546.138	6421.27
546.503	6466.92
546.867	6392.35
547.231	6470.99
547.595	6458.56
547.959	6527.03
548.324	6475.73
548.688	6491.78
549.052	6525.68
549.416	6526.13
549.779	6515.28
550.143	6522.51
550.507	6554.38
550.871	6549.86
551.235	6542.4
551.599	6590.31
551.962	6586.92
552.326	6593.47
552.689	6632.34
553.053	6608.16
553.417	6605.22
553.78	6716.41
554.143	6667.82
554.507	6681.15
554.87	6713.24
555.234	6737.65
555.597	6735.61
555.96	6730.42
556.323	6764.09
556.686	6778.1
557.05	6795.5
557.413	6819.23
557.776	6788.72
558.139	6837.53
558.502	6848.61
558.865	6816.97
559.228	6917.98
559.59	6918.66
559.953	6857.42
560.316	6950.52
560.679	6975.38
561.041	7003.4
561.404	7002.05
561.767	7097.86
562.129	7031.88
562.492	7095.15
562.854	7075.72
563.217	7019.45
563.579	7116.62
563.941	7123.17
564.304	7140.12
564.666	7204.08
565.028	7228.03
565.39	7189.16
565.753	7183.51
566.115	7259.67
566.477	7260.12
566.839	7344.86
567.201	7414.24
567.563	7364.52
567.925	7419.89
568.287	7329.72
568.648	7458.31
569.01	7451.75
569.372	7468.93
569.734	7480.23
570.095	7489.27
570.457	7533.11
570.819	7601.81
571.18	7584.86
571.542	7626.89
571.903	7693.55
572.265	7720.67
572.626	7701.92
572.987	7770.84
573.349	7732.2
573.71	7778.3
574.071	7794.8
574.432	7915.92
574.794	7959.76
575.155	7865.75
575.516	7907.79
575.877	7993.21
576.238	7994.11
576.599	8093.77
576.96	8031.85
577.32	8051.96
577.681	8117.27
578.042	8175.8
578.403	8271.17
578.763	8233.2
579.124	8261
579.485	8319.3
579.845	8366.08
580.206	8350.49
580.566	8394.1
580.927	8525.17
581.287	8553.42
581.648	8516.13
582.008	8626.41
582.368	8633.87
582.728	8681.78
583.089	8724.94
583.449	8731.72
583.809	8832.96
584.169	8899.4
584.529	8875.22
584.889	8976.01
585.249	9088.77
585.609	9021.43
585.969	9146.85
586.329	9160.63
586.688	9273.85
587.048	9218.26
587.408	9317.24
587.768	9372.15
588.127	9441.31
588.487	9514.75
588.846	9619.83
589.206	9563.79
589.565	9693.05
589.925	9789.32
590.284	9795.65
590.643	9875.42
591.003	9975.53
591.362	10025.47
591.721	10083.77
592.08	10159.93
592.44	10224.34
592.799	10274.5
593.158	10372.35
593.517	10385.24
593.876	10489.41
594.235	10512.46
594.593	10561.95
594.952	10671.56
595.311	10740.48
595.67	10757.65
596.029	10834.94
596.387	10881.72
596.746	10917.42
597.104	10968.95
597.463	11028.38
597.822	11101.83
598.18	11128.49
598.538	11178.43
598.897	11292.1
599.255	11210.07
599.613	11441.25
599.972	11521.7
600.33	11574.58
600.688	11485.09
601.046	11531.65
601.404	11675.82
601.762	11690.06
602.12	11869.72
602.478	11784.29
602.836	11835.82
603.194	11809.83
603.552	11852.54
603.91	11981.58
604.268	11974.8
604.625	11969.83
604.983	12034.46
605.341	12069.71
605.698	12139.54
606.056	12174.79
606.413	12182.02
606.771	12266.99
607.128	12322.36
607.485	12268.12
607.843	12357.39
608.2	12452.07
608.557	12410.27
608.914	12445.52
609.272	12530.49
609.629	12578.17
609.986	12669.7
610.343	12673.31
610.7	12739.07
611.057	12638.74
611.414	12662.46
611.771	12641.45
612.127	12843.7
612.484	12882.8
612.841	12885.28
613.198	12893.42
613.554	12845.28
613.911	12957.82
614.267	12980.87
614.624	12993.75
614.98	12954.66
615.337	13039.63
615.693	13044.83
616.05	13048.89
616.406	13142.68
616.762	13100.42
617.118	13081.66
617.475	13094.77
617.831	13228.78
618.187	13208.89
618.543	13174.99
618.899	13344.71
619.255	13206.18
619.611	13265.84
619.967	13339.73
620.323	13449.56
620.678	13288.66
621.034	13279.85
621.39	13326.4
621.746	13397.13
622.101	13579.28
622.457	13365.5
622.812	13455.66
623.168	13481.43
623.523	13520.75
623.879	13573.4
624.234	13481.88
624.589	13534.76
624.945	13499.28
625.3	13633.29
625.655	13526.17
626.01	13636.22
626.365	13606.39
626.72	13647.97
627.075	13542.89
627.43	13599.84
627.785	13576.34
628.14	13576.56
628.495	13636.22
628.85	13490.24
629.205	13545.38
629.559	13599.39
629.914	13504.25
630.269	13533.63
630.623	13570.24
630.978	13450.01
631.332	13516
631.687	13554.87
632.041	13452.95
632.396	13507.19
632.75	13474.65
633.104	13398.72
633.459	13398.72
633.813	13393.74
634.167	13423.8
634.521	13420.64
634.875	13440.07
635.229	13432.39
635.583	13365.5
635.937	13428.77
636.291	13350.13
636.645	13367.76
636.999	13317.81
637.352	13359.17
637.706	13316.91
638.06	13331.82
638.413	13365.95
638.767	13306.97
639.121	13343.12
639.474	13263.13
639.828	13213.18
640.181	13337.02
640.534	13222.67
640.888	13205.73
641.241	13180.87
641.594	13254.09
641.947	13233.97
642.301	13242.56
642.654	13262.45
643.007	13205.73
643.36	13191.72
643.713	13168.67
644.066	13225.61
644.419	13149.68
644.771	13073.07
645.124	12939.07
645.477	12914.89
645.83	12864.49
646.182	12805.28
646.535	12810.71
646.888	12838.28
647.24	12802.35
647.593	12833.08
647.945	12819.52
648.298	12756.7
648.65	12711.5
649.002	12740.43
649.355	12811.39
649.707	12723.7
650.059	12854.32
650.411	13028.78
650.763	12937.48
651.115	13115.56
651.467	13064.04
651.819	13124.37
652.171	13065.62
652.523	13031.95
652.875	13093.19
653.227	12993.08
653.578	13067.65
653.93	13041.66
654.282	12993.53
654.633	13034.43
654.985	13064.94
655.337	12998.95
655.688	13069.91
656.039	13099.97
656.391	13043.92
656.742	13020.42
657.094	13089.57
657.445	13068.33
657.796	13099.97
658.147	13107.2
658.498	13137.93
658.849	13197.59
659.2	13203.01
659.551	13151.26
659.902	13123.24
660.253	13098.16
660.604	13196.23
660.955	13102
661.306	13142.45
661.656	13116.69
662.007	13212.51
662.358	13186.07
662.708	13144.94
663.059	13181.77
663.409	13034.66
663.76	13179.74
664.11	13128.21
664.461	13156.24
664.811	13141.55
665.161	13220.64
665.511	13142.45
665.862	13139.74
666.212	13134.77
666.562	13222.9
666.912	13191.26
667.262	13202.79
667.612	13130.02
667.962	13155.56
668.312	13201.88
668.662	13284.37
669.011	13162.79
669.361	13211.15
669.711	13183.81
670.06	13059.97
670.41	13160.76
670.76	13058.84
671.109	13184.94
671.459	13166.86
671.808	13079.85
672.157	13169.57
672.507	13077.59
672.856	13061.32
673.205	13122.79
673.554	13135.22
673.904	13031.27
674.253	13076.01
674.602	13068.78
674.951	12819.07
675.3	12828.56
675.649	13056.13
675.998	13016.8
676.346	13043.24
676.695	13121.66
677.044	12943.36
677.393	13021.1
677.741	12983.59
678.09	12967.77
678.438	12903.14
678.787	12946.52
679.135	12935.68
679.484	12858.84
679.832	12799.41
680.181	12809.13
680.529	12868.56
680.877	12824.04
681.225	12806.41
681.573	12900.88
681.922	12706.08
682.27	12674.67
682.618	12751.73
682.966	12650.94
683.314	12694.1
683.661	12697.04
684.009	12596.93
684.357	12572.52
684.705	12645.97
685.053	12587.89
685.4	12538.85
685.748	12530.04
686.095	12429.7
686.443	12490.26
686.79	12410.72
687.138	12426.09
687.485	12366.65
687.832	12319.42
688.18	12347.22
688.527	12268.58
688.874	12249.82
689.221	12306.99
689.568	12156.26
689.915	12176.37
690.262	12164.4
690.609	12118.75
690.956	11992.65
691.303	12066.32
691.65	11985.19
691.997	11851.19
692.344	11872.43
692.69	11846.21
693.037	11875.82
693.383	11766.44
693.73	11774.8
694.077	11766.89
694.423	11681.7
694.769	11725.09
695.116	11607.8
695.462	11613.9
695.808	11516.96
696.155	11561.93
696.501	11462.95
696.847	11477.41
697.193	11406.68
697.539	11371.88
697.885	11289.17
698.231	11252.33
698.577	11303.18
698.923	11273.12
699.269	11202.39
699.614	11101.37
699.96	11095.5
700.306	10986.35
700.651	11003.07
700.997	10973.69
701.342	10911.1
701.688	10912.91
702.033	10861.61
702.379	10812.12
702.724	10792.23
703.069	10775.51
703.415	10645.57
703.76	10673.14
704.105	10652.12
704.45	10599.92
704.795	10472.01
705.14	10460.26
705.485	10444.44
705.83	10417.78
706.175	10486.25
706.52	10388.85
706.865	10278.57
707.209	10350.43
707.554	10278.35
707.899	10262.07
708.243	10197.67
708.588	10195.86
708.932	10156.09
709.277	10097.79
709.621	10112.93
709.966	10118.8
710.31	10027.05
710.654	9988.86
710.998	10065.24
711.342	9989.31
711.687	10031.12
712.031	9904.12
712.375	9951.12
712.719	9941.86
713.063	9891.92
713.407	9976.88
713.75	9858.24
714.094	9916.32
714.438	9788.41
714.782	9805.36
715.125	9754.29
715.469	9745.25
715.812	9660.96
716.156	9716.78
716.499	9738.02
716.843	9746.38
717.186	9677.91
717.53	9738.02
717.873	9747.06
718.216	9660.28
718.559	9607.4
718.902	9573.51
719.246	9602.88
719.589	9587.06
719.932	9534.64
720.275	9534.64
720.617	9557.91
720.96	9549.33
721.303	9571.02
721.646	9550.23
721.989	9425.03
722.331	9469.78
722.674	9412.61
723.016	9470.46
723.359	9370.57
723.701	9498.25
724.044	9411.48
724.386	9388.43
724.729	9483.34
725.071	9447.63
725.413	9390.01
725.755	9358.6
726.097	9351.36
726.439	9290.35
726.782	9350.01
727.124	9435.43
727.465	9343.23
727.807	9360.86
728.149	9231.37
728.491	9281.54
728.833	9277.02
729.175	9331.48
729.516	9274.98
729.858	9297.58
730.199	9284.25
730.541	9296.45
730.882	9263.91
731.224	9296.45
731.565	9234.98
731.906	9271.59
732.248	9308.88
732.589	9250.12
732.93	9218.26
733.271	9206.74
733.612	9257.36
733.953	9287.41
734.294	9216.68
734.635	9141.2
734.976	9238.37
735.317	9173.74
735.658	9267.07
735.999	9236.34
736.339	9248.99
736.68	9256.23
737.021	9245.83
737.361	9229.56
737.702	9304.59
738.042	9305.04
738.383	9300.52
738.723	9342.32
739.063	9305.26
739.404	9373.51
739.744	9327.64
740.084	9325.38
740.424	9385.26
740.764	9354.98
741.104	9388.43
741.444	9345.49
741.784	9327.41
742.124	9380.74
742.464	9366.51
742.804	9407.86
743.143	9423.9
743.483	9473.62
743.823	9431.14
744.162	9416.45
744.502	9508.65
744.841	9506.84
745.181	9632.03
745.52	9571.92
745.86	9654.63
746.199	9689.66
746.538	9735.31
746.877	9807.62
747.216	9844.23
747.556	9864.12
747.895	9858.47
748.234	9971.69
748.573	10039.93
748.911	10066.37
749.25	10103.43
749.589	10113.38
749.928	10230.21
750.267	10264.33
750.605	10382.98
750.944	10406.25
751.283	10425.91
751.621	10562.41
751.96	10622.07
752.298	10726.02
752.636	10837.88
752.975	10853.7
753.313	10991.1
753.651	11119.23
753.989	11187.47
754.327	11290.52
754.666	11373.01
755.004	11500.01
755.342	11710.85
755.679	11771.64
756.017	11895.48
756.355	12069.48
756.693	12112.65
757.031	12196.26
757.368	12333.66
757.706	12381.34
758.044	12637.83
758.381	12655.91
758.719	12813.65
759.056	13039.4
759.394	13138.61
759.731	13174.99
760.068	13309.45
760.405	13400.3
760.743	13545.38
761.08	13781.76
761.417	13710.35
761.754	14015.42
762.091	14120.73
762.428	14293.83
762.765	14355.07
763.102	14564.79
763.438	14588.74
763.775	14783.76
764.112	14853.82
764.449	15093.81
764.785	15102.85
765.122	15214.49
765.458	15314.6
765.795	15465.1
766.131	15505.1
766.467	15642.05
766.804	15724.08
767.14	15805.21
767.476	15941.7
767.812	16091.98
768.148	16175.37
768.485	16167.91
768.821	16294.01
769.157	16322.03
769.492	16433.21
769.828	16512.76
770.164	16496.26
770.5	16638.63
770.836	16687.44
771.171	16644.05
771.507	16846.53
771.842	16698.29
772.178	16818.74
772.513	16968.79
772.849	17057.6
773.184	17063.03
773.519	17198.39
773.855	17086.53
774.19	17150.48
774.525	17159.07
774.86	17220.99
775.195	17285.62
775.53	17297.82
775.865	17345.05
776.2	17161.78
776.535	17170.59
776.87	17310.93
777.205	17259.4
777.539	17265.05
777.874	17406.07
778.209	17253.76
778.543	17315
778.878	17133.76
779.212	17267.99
779.547	17259.63
779.881	17429.57
780.215	17282.46
780.55	17407.88
780.884	17333.53
781.218	17242.23
781.552	17355.9
781.886	17253.98
782.22	17132.18
782.554	17116.13
782.888	17105.28
783.222	17024.61
783.556	17055.57
783.889	17061.22
784.223	16987.55
784.557	16960.2
784.89	17067.32
785.224	16955.46
785.557	16984.84
785.891	16905.29
786.224	16943.26
786.558	17011.5
786.891	16781
787.224	16720.89
787.557	16703.49
787.891	16867.1
788.224	16757.5
788.557	16699.87
788.89	16769.47
789.223	16698.97
789.556	16634.11
789.888	16661.23
790.221	16519.99
790.554	16492.42
790.887	16408.35
791.219	16454.68
791.552	16402.93
791.884	16280.45
792.217	16299.2
792.549	16307.11
792.882	16088.59
793.214	16138.3
793.546	16181.47
793.879	16067.12
794.211	16010.17
794.543	16179.66
794.875	15983.28
795.207	15984.64
795.539	15945.99
795.871	15987.57
796.203	15911.64
796.535	15796.62
796.867	15790.74
797.198	15650.18
797.53	15762.95
797.862	15557.53
798.193	15598.66
798.525	15554.37
798.856	15560.01
799.188	15472.33
799.519	15433.46
799.85	15301.49
800.182	15343.75
800.513	15259.91
800.844	15133.81
801.175	15237.09
801.506	15189.18
801.837	15054.72
802.168	15054.04
802.499	15040.93
802.83	15013.14
803.161	15017.88
803.491	15016.98
803.822	15040.03
804.153	14893.14
804.483	14800.03
804.814	14777.89
805.145	14790.32
805.475	14740.15
805.805	14676.65
806.136	14771.11
806.466	14658.57
806.796	14686.59
807.126	14513.71
807.457	14484.56
807.787	14503.32
808.117	14479.37
808.447	14353.27
808.777	14493.6
809.107	14384
809.436	14362.31
809.766	14359.14
810.096	14285.47
810.426	14214.97
810.755	14240.73
811.085	14246.38
811.414	14111.01
811.744	14090.67
812.073	14061.75
812.403	14142.42
812.732	14080.51
813.061	13967.74
813.39	13948.53
813.719	13968.87
814.049	14013.39
814.378	13868.99
814.707	13799.61
815.036	13838.25
815.365	13890.45
815.693	13725.26
816.022	13790.34
816.351	13685.71
816.68	13606.62
817.008	13645.26
817.337	13559.16
817.665	13489.11
817.994	13583.57
818.322	13517.36
818.651	13418.15
818.979	13407.3
819.307	13477.58
819.636	13442.33
819.964	13355.55
820.292	13403.24
820.62	13361.2
820.948	13318.72
821.276	13388.77
821.604	13337.7
821.932	13354.65
822.259	13299.06
822.587	13313.52
822.915	13345.61
823.243	13325.05
823.57	13316.46
823.898	13399.85
824.225	13290.7
824.553	13262.22
824.88	13269.45
825.207	13363.69
825.535	13270.13
825.862	13299.74
826.189	13228.78
826.516	13388.77
826.843	13380.41
827.17	13378.6
827.497	13332.05
827.824	13349.68
828.151	13317.14
828.478	13378.38
828.805	13404.14
829.131	13233.97
829.458	13257.93
829.785	13190.13
830.111	13244.14
830.438	13332.95
830.764	13325.72
831.09	13229.68
831.417	13258.61
831.743	13245.95
832.069	13282.79
832.395	13219.96
832.722	13222.22
833.048	13353.97
833.374	13265.16
833.7	13187.87
834.026	13189.23
834.351	13253.86
834.677	13169.79
835.003	13249.57
835.329	13206.18
835.654	13091.15
835.98	13154.88
836.306	13142.45
836.631	13116.01
836.956	13049.12
837.282	13095.67
837.607	13109.46
837.932	13035.79
838.258	13005.05
838.583	13028.78
838.908	12919.86
839.233	12942
839.558	12938.84
839.883	12915.34
840.208	12913.08
840.533	12940.42
840.858	12849.58
841.182	12791.5
841.507	12805.28
841.832	12798.51
842.156	12744.5
842.481	12746.3
842.805	12754.66
843.13	12655.91
843.454	12638.96
843.778	12577.95
844.103	12591.51
844.427	12536.59
844.751	12546.99
845.075	12528.46
845.399	12453.88
845.723	12333.66
846.047	12291.63
846.371	12268.58
846.695	12167.11
847.019	12185.64
847.343	12061.35
847.666	12072.42
847.99	12054.34
848.313	12019.32
848.637	11892.77
848.96	11969.15
849.284	11865.2
849.607	11790.85
849.931	11826.78
850.254	11721.02
850.577	11637.18
850.9	11487.81
851.223	11601.93
851.546	11440.57
851.869	11447.35
852.192	11468.6
852.515	11343.18
852.838	11279
853.161	11304.76
853.483	11273.57
853.806	11221.37
854.129	11159
854.451	11248.94
854.774	11120.13
855.096	11112.45
855.419	11053.47
855.741	10993.13
856.063	10979.12
856.385	10980.7
856.708	10916.75
857.03	10832.91
857.352	10881.27
857.674	10804.89
857.996	10802.17
858.318	10672.69
858.64	10712.23
858.961	10700.71
859.283	10678.79
859.605	10570.54
859.926	10694.38
860.248	10591.33
860.57	10635.4
860.891	10587.72
861.212	10451.22
861.534	10487.83
861.855	10414.39
862.176	10467.27
862.498	10442.64
862.819	10434.73
863.14	10418.91
863.461	10410.77
863.782	10365.12
864.103	10402.86
864.424	10336.65
864.745	10304.33
865.065	10246.71
865.386	10239.7
865.707	10217.78
866.027	10227.05
866.348	10171
866.668	10229.76
866.989	10188.86
867.309	10121.29
867.63	10124
867.95	10144.56
868.27	9989.09
868.59	10080.61
868.91	10046.71
869.23	9992.48
869.55	9967.85
869.87	10010.33
870.19	9975.98
870.51	9962.2
870.83	9991.8
871.15	9855.08
871.469	9855.31
871.789	9926.04
872.109	9915.64
872.428	9874.06
872.748	9908.41
873.067	9931.46
873.386	9879.71
873.706	9892.59
874.025	9777.79
874.344	9798.36
874.663	9772.14
874.982	9693.05
875.301	9698.7
875.62	9736.89
875.939	9721.75
876.258	9692.82
876.577	9679.72
876.896	9644.01
877.214	9605.59
877.533	9659.83
877.852	9595.88
878.17	9644.01
878.489	9586.61
878.807	9544.58
879.125	9553.84
879.444	9595.65
879.762	9538.93
880.08	9464.36
880.398	9412.15
880.716	9501.42
881.034	9443.11
881.352	9464.81
881.67	9376.45
881.988	9391.36
882.306	9311.37
882.624	9368.54
882.941	9338.48
883.259	9293.51
883.577	9225.94
883.894	9178.71
884.212	9232.95
884.529	9253.29
884.846	9172.16
885.164	9228.88
885.481	9105.5
885.798	9152.73
886.115	9067.3
886.432	9085.61
886.75	9040.64
887.067	9073.86
887.383	8976.23
887.7	9055.78
888.017	8983.01
888.334	8953.41
888.651	8930.36
888.967	8906.4
889.284	8796.12
889.6	8818.27
889.917	8722.68
890.233	8799.74
890.55	8741.44
890.866	8825.95
891.182	8743.92
891.498	8673.19
891.815	8632.97
892.131	8670.7
892.447	8667.54
892.763	8590.71
893.079	8635.22
893.395	8516.58
893.71	8539.18
894.026	8501.9
894.342	8465.51
894.657	8386.19
894.973	8408.11
895.289	8472.97
895.604	8362.69
895.92	8311.17
896.235	8271.62
896.55	8252.64
896.865	8297.15
897.181	8223.26
897.496	8213.77
897.811	8183.26
898.126	8149.81
898.441	8131.06
898.756	8102.58
899.071	8021.23
899.386	8065.75
899.7	7959.08
900.015	7953.66
900.33	7879.76
900.644	7921.8
900.959	7853.55
901.273	7867.56
901.588	7827.11
901.902	7826.66
902.216	7789.15
902.531	7750.05
902.845	7664.85
903.159	7707.34
903.473	7618.75
903.787	7598.64
904.101	7520
904.415	7548.93
904.729	7530.85
905.042	7457.4
905.356	7489.72
905.67	7395.94
905.984	7423.05
906.297	7385.09
906.611	7353.9
906.924	7342.6
907.237	7367.01
907.551	7289.72
907.864	7256.73
908.177	7206.79
908.491	7199.33
908.804	7194.36
909.117	7122.04
909.43	7088.15
909.743	7045.89
910.056	7087.92
910.368	7019.9
910.681	6979.22
910.994	6908.72
911.307	6894.25
911.619	6908.04
911.932	6889.28
912.244	6818.55
912.557	6803.41
912.869	6775.16
913.181	6742.39
913.494	6789.62
913.806	6751.66
914.118	6623.3
914.43	6612.91
914.742	6624.2
915.054	6656.07
915.366	6651.77
915.678	6559.57
915.99	6531.78
916.302	6468.73
916.613	6460.37
916.925	6440.93
917.236	6445.23
917.548	6352.8
917.859	6370.43
918.171	6316.87
918.482	6350.99
918.794	6258.56
919.105	6304.89
919.416	6239.81
919.727	6190.09
920.038	6153.93
920.349	6175.63
920.66	6133.37
920.971	6166.14
921.282	6094.05
921.593	6029.42
921.903	6060.38
922.214	6007.27
922.525	5987.84
922.835	5944.9
923.146	5868.52
923.456	5881.85
923.767	5915.07
924.077	5875.75
924.387	5807.95
924.697	5810.67
925.008	5777.22
925.318	5743.78
925.628	5770.22
925.938	5706.49
926.248	5699.48
926.558	5625.13
926.867	5625.36
927.177	5637.11
927.487	5584.46
927.796	5530
928.106	5551.92
928.416	5518.7
928.725	5490.67
929.034	5443.67
929.344	5479.83
929.653	5411.35
929.962	5390.34
930.271	5423.56
930.581	5372.26
930.89	5357.35
931.199	5327.29
931.508	5299.04
931.817	5310.79
932.125	5257.91
932.434	5236.44
932.743	5197.58
933.051	5201.87
933.36	5185.15
933.669	5153.73
933.977	5147.63
934.286	5134.98
934.594	5091.59
934.902	5060.63
935.21	5046.17
935.519	5025.15
935.827	5011.82
936.135	4948.77
936.443	4975.21
936.751	4960.97
937.059	4971.59
937.367	4916.9
937.674	4882.33
937.982	4889.56
938.29	4861.09
938.597	4821.77
938.905	4744.25
939.213	4770.92
939.52	4769.56
939.827	4751.71
940.135	4681.88
940.442	4722.79
940.749	4686.63
941.056	4633.3
941.363	4604.6
941.67	4578.38
941.977	4573.86
942.284	4558.72
942.591	4522.11
942.898	4531.38
943.205	4517.82
943.511	4475.79
943.818	4444.6
944.125	4434.43
944.431	4457.03
944.738	4439.63
945.044	4395.34
945.35	4378.39
945.657	4367.77
945.963	4351.5
946.269	4312.63
946.575	4282.35
946.881	4270.37
947.187	4244.83
947.493	4242.8
947.799	4212.74
948.105	4249.35
948.41	4157.6
948.716	4206.41
949.022	4156.25
949.327	4158.96
949.633	4089.13
949.938	4116.02
950.244	4088.45
950.549	4091.39
950.854	4056.36
951.16	4066.31
951.465	4029.47
951.77	3977.72
952.075	3972.97
952.38	3953.09
952.685	3979.75
952.99	3941.56
953.294	3872.19
953.599	3895.91
953.904	3891.62
954.209	3857.95
954.513	3848.91
954.818	3855.92
955.122	3848.46
955.426	3762.81
955.731	3815.69
956.035	3768.69
956.339	3711.51
956.643	3759.19
956.948	3709.03
957.252	3669.71
957.556	3678.29
957.86	3665.64
958.163	3684.62
958.467	3665.19
958.771	3613.89
959.075	3615.02
959.378	3586.77
959.682	3583.61
959.985	3563.95
960.289	3575.92
960.592	3569.14
960.896	3524.85
961.199	3554.45
961.502	3492.08
961.805	3495.7
962.108	3451.18
962.411	3431.97
962.714	3457.96
963.017	3426.32
963.32	3414.8
963.623	3409.83
963.926	3384.29
964.228	3332.54
964.531	3304.97
964.833	3331.18
965.136	3318.53
965.438	3258.64
965.741	3285.08
966.043	3254.58
966.345	3268.81
966.648	3227.68
966.95	3247.12
967.252	3220
967.554	3221.13
967.856	3205.31
968.158	3194.46
968.46	3145.65
968.761	3156.95
969.063	3167.12
969.365	3076.95
969.666	3100.68
969.968	3113.34
970.269	3053.9
970.571	3043.28
970.872	3057.29
971.174	3052.32
971.475	3029.5
971.776	2998.09
972.077	2973.45
972.378	3030.63
972.679	2982.94
972.98	2982.94
973.281	2951.08
973.582	2954.47
973.883	2944.75
974.183	2934.13
974.484	2898.88
974.785	2905.66
975.085	2855.72
975.386	2887.81
975.686	2882.61
975.986	2816.39
976.287	2837.86
976.587	2811.42
976.887	2763.51
977.187	2818.65
977.487	2767.58
977.787	2747.92
978.087	2761.03
978.387	2745.89
978.687	2748.37
978.987	2708.6
979.286	2672.44
979.586	2695.27
979.885	2711.09
980.185	2674.03
980.484	2664.31
980.784	2643.07
981.083	2618.43
981.382	2611.43
981.682	2632.22
981.981	2592.45
982.28	2555.16
982.579	2568.27
982.878	2543.63
983.177	2536.4
983.475	2554.71
983.774	2495.73
984.073	2486.91
984.372	2494.82
984.67	2517.42
984.969	2485.56
985.267	2468.38
985.566	2440.81
985.864	2424.31
986.162	2466.8
986.461	2438.33
986.759	2422.51
987.057	2437.42
987.355	2403.07
987.653	2372.11
987.951	2365.79
988.249	2368.05
988.547	2357.88
988.844	2334.83
989.142	2302.74
989.44	2339.12
989.737	2286.01
990.035	2309.29
990.332	2306.58
990.63	2269.74
990.927	2263.87
991.224	2259.57
991.521	2250.99
991.819	2231.78
992.116	2222.74
992.413	2199.69
992.71	2211.44
993.006	2203.3
993.303	2180.93
993.6	2196.3
993.897	2167.37
994.193	2173.47
994.49	2139.12
994.787	2140.93
995.083	2130.99
995.379	2094.38
995.676	2088.5
995.972	2104.78
996.268	2056.64
996.565	2063.65
996.861	2095.06
997.157	2050.77
997.453	2031.56
997.749	2040.37
998.044	2010.77
998.34	2007.83
998.636	1995.85
998.932	1979.13
999.227	1962.18
999.523	1961.73
999.818	1956.08
1000.114	1979.13
1000.409	1943.88
1000.704	1937.1
1001	1918.57
1001.295	1905.46
1001.59	1885.35
1001.885	1888.06
1002.18	1889.87
1002.475	1883.99
1002.77	1884.67
1003.065	1825.69
1003.359	1853.03
1003.654	1859.13
1003.949	1849.64
1004.243	1807.61
1004.538	1812.81
1004.832	1793.82
1005.127	1761.73
1005.421	1777.33
1005.715	1765.58
1006.009	1772.58
1006.304	1748.85
1006.598	1737.33
1006.892	1721.51
1007.186	1705.01
1007.48	1708.63
1007.773	1714.05
1008.067	1693.49
1008.361	1676.76
1008.655	1681.74
1008.948	1672.92
1009.242	1662.3
1009.535	1639.02
1009.829	1622.53
1010.122	1625.24
1010.415	1613.71
1010.708	1575.07
1011.001	1574.17
1011.295	1599.03
1011.588	1585.01
1011.881	1564.22
1012.173	1568.74
1012.466	1555.86
1012.759	1552.7
1013.052	1544.34
1013.344	1489.88
1013.637	1508.86
1013.93	1504.11
1014.222	1497.33
1014.514	1514.06
1014.807	1491.46
1015.099	1453.49
1015.391	1471.12
1015.683	1454.62
1015.976	1452.59
1016.268	1437.22
1016.56	1417.56
1016.851	1416.21
1017.143	1426.6
1017.435	1404
1017.727	1406.94
1018.018	1380.95
1018.31	1408.97
1018.602	1365.13
1018.893	1370.33
1019.185	1350.9
1019.476	1366.04
1019.767	1328.98
1020.058	1287.4
1020.35	1304.12
1020.641	1300.28
1020.932	1294.4
1021.223	1305.02
1021.514	1273.84
1021.804	1266.61
1022.095	1279.49
1022.386	1281.52
1022.677	1246.27
1022.967	1220.96
1023.258	1246.94
1023.548	1226.61
1023.839	1225.02
1024.129	1191.8
1024.419	1207.4
1024.709	1206.95
1025	1165.59
1025.29	1179.6
1025.58	1155.2
1025.87	1164.46
1026.16	1147.06
1026.449	1152.94
1026.739	1148.64
1027.029	1127.63
1027.319	1135.76
1027.608	1133.28
1027.898	1108.64
1028.187	1100.06
1028.477	1101.41
1028.766	1095.31
1029.055	1094.41
1029.344	1086.04
1029.634	1061.64
1029.923	1059.83
1030.212	1057.35
1030.501	1048.31
1030.79	1039.94
1031.078	1045.59
1031.367	1050.11
1031.656	1023.67
1031.945	1020.06
1032.233	999.72
1032.522	1002.66
1032.81	1026.16
1033.099	986.39
1033.387	976.44
1033.675	973.28
1033.963	976.9
1034.251	988.19
1034.54	944.35
1034.828	962.21
1035.116	933.73
1035.403	958.59
1035.691	920.4
1035.979	927.4
1036.267	940.96
1036.554	913.85
1036.842	903.9
1037.129	951.13
1037.417	919.5
1037.704	863
1037.992	869.78
1038.279	896.22
1038.566	886.28
1038.853	886.28
1039.14	886.28
