Data from hue_40_FLMS001491_45.txt Node
Date: Mon Feb 06 15:07:57 GMT 2017
User: dcchb
Spectrometer: FLMS00149
Trigger mode: 0
Integration Time (sec): 2.000000E-2
Scans to average: 10
Electric dark correction enabled: true
Nonlinearity correction enabled: false
Boxcar width: 0
XAxis mode: Wavelengths
Number of Pixels in Spectrum: 2048
>>>>>Begin Spectral Data<<<<<
341.393	6.54
341.776	6.54
342.16	6.54
342.543	-59.9
342.927	-82.5
343.31	-66.23
343.693	-51.31
344.077	-57.41
344.46	-72.33
344.843	-56.28
345.226	-39.79
345.61	-28.26
345.993	-23.52
346.376	-0.69
346.759	18.74
347.142	31.4
347.525	38.18
347.908	50.83
348.291	60.1
348.674	88.12
349.057	108.46
349.44	135.58
349.823	141
350.206	158.17
350.588	203.82
350.971	206.99
351.354	229.81
351.737	251.5
352.119	253.54
352.502	259.64
352.884	284.5
353.267	286.98
353.65	293.31
354.032	290.83
354.414	321.56
354.797	316.14
355.179	322.69
355.562	328.79
355.944	330.37
356.326	334.44
356.709	339.19
357.091	327.89
357.473	347.32
357.855	349.81
358.238	340.32
358.62	330.82
359.002	356.13
359.384	342.12
359.766	338.73
360.148	336.47
360.53	320.88
360.912	357.94
361.294	332.63
361.676	335.34
362.057	338.28
362.439	326.3
362.821	323.37
363.203	326.98
363.584	325.18
363.966	331.28
364.348	324.72
364.729	323.59
365.111	307.32
365.493	337.38
365.874	317.49
366.256	311.62
366.637	320.66
367.019	327.43
367.4	328.56
367.781	316.81
368.163	314.33
368.544	329.69
368.925	312.29
369.306	338.73
369.688	322.92
370.069	301.9
370.45	320.2
370.831	315.91
371.212	316.59
371.593	327.66
371.974	314.33
372.355	314.78
372.736	319.98
373.117	340.09
373.498	333.08
373.879	319.98
374.26	319.3
374.641	332.86
375.021	311.39
375.402	326.3
375.783	336.47
376.163	329.69
376.544	328.11
376.925	320.2
377.305	329.47
377.686	343.03
378.066	337.6
378.447	307.77
378.827	338.06
379.208	336.47
379.588	321.56
379.968	367.66
380.349	321.56
380.729	330.37
381.109	338.96
381.489	348
381.87	338.28
382.25	364.72
382.63	347.1
383.01	345.06
383.39	341.22
383.77	369.02
384.15	351.62
384.53	364.95
384.91	343.93
385.29	344.84
385.67	350.03
386.049	344.38
386.429	348.23
386.809	362.01
387.189	340.32
387.568	355.46
387.948	358.62
388.328	353.65
388.707	370.15
389.087	387.09
389.466	350.03
389.846	341.9
390.225	383.93
390.605	377.83
390.984	385.06
391.363	370.15
391.743	374.67
392.122	365.85
392.501	339.19
392.881	357.72
393.26	359.07
393.639	359.3
394.018	376.93
394.397	344.38
394.776	385.29
395.155	390.26
395.534	382.8
395.913	392.29
396.292	377.6
396.671	373.54
397.05	375.34
397.429	380.54
397.808	396.81
398.186	389.81
398.565	415.79
398.944	384.38
399.323	395.68
399.701	408.79
400.08	372.41
400.458	371.28
400.837	405.62
401.215	388
401.594	388.22
401.972	397.94
402.351	411.05
402.729	408.79
403.107	401.56
403.486	430.48
403.864	395
404.242	413.76
404.62	404.5
404.999	406.98
405.377	400.65
405.755	439.07
406.133	434.1
406.511	442.91
406.889	431.16
407.267	428.22
407.645	421.67
408.023	426.87
408.401	426.87
408.779	442.46
409.156	460.54
409.534	452.18
409.912	448.11
410.29	461.89
410.667	453.31
411.045	458.5
411.422	455.12
411.8	460.99
412.178	468.45
412.555	468.22
412.933	463.02
413.31	457.15
413.687	470.03
414.065	496.02
414.442	471.39
414.819	472.06
415.197	491.95
415.574	486.75
415.951	487.66
416.328	513.64
416.705	504.83
417.082	503.93
417.46	504.15
417.837	485.4
418.214	495.11
418.591	503.93
418.967	507.32
419.344	504.38
419.721	500.31
420.098	530.59
420.475	521.55
420.852	524.72
421.228	542.57
421.605	526.07
421.982	525.62
422.358	517.03
422.735	541.67
423.111	562.91
423.488	561.78
423.864	539.63
424.241	567.43
424.617	555.9
424.994	549.12
425.37	562.68
425.746	553.19
426.123	565.85
426.499	563.36
426.875	552.06
427.251	571.04
427.627	595.45
428.003	572.17
428.379	580.54
428.756	602.46
429.132	585.28
429.507	599.97
429.883	597.94
430.259	599.29
430.635	618.5
431.011	623.92
431.387	616.69
431.763	628.67
432.138	658.27
432.514	655.79
432.89	649.46
433.265	651.72
433.641	636.58
434.016	656.69
434.392	659.4
434.767	670.48
435.143	674.54
435.518	665.05
435.894	716.35
436.269	671.83
436.644	691.95
437.02	706.18
437.395	705.5
437.77	694.2
438.145	722.68
438.52	730.81
438.895	723.58
439.271	706.18
439.646	733.75
440.021	746.41
440.395	752.96
440.77	728.33
441.145	750.25
441.52	752.73
441.895	765.84
442.27	752.06
442.645	762.9
443.019	766.97
443.394	769.91
443.769	794.77
444.143	769.01
444.518	752.96
444.892	766.29
445.267	784.82
445.641	794.77
446.016	810.36
446.39	809.23
446.764	817.59
447.139	816.24
447.513	816.46
447.887	802
448.262	798.83
448.636	806.52
449.01	829.79
449.384	845.39
449.758	825.5
450.132	855.1
450.506	843.81
450.88	843.58
451.254	853.52
451.628	886.06
452.002	885.61
452.376	882.9
452.75	889.68
453.123	870.02
453.497	895.78
453.871	930.36
454.244	922.22
454.618	918.83
454.992	925.39
455.365	927.42
455.739	952.73
456.112	964.25
456.486	941.2
456.859	958.15
457.232	992.28
457.606	976.68
457.979	1001.99
458.352	1006.51
458.725	1011.71
459.099	1054.42
459.472	1069.56
459.845	1067.75
460.218	1060.3
460.591	1069.34
460.964	1077.02
461.337	1119.73
461.71	1126.96
462.083	1154.31
462.456	1141.42
462.829	1155.21
463.201	1166.06
463.574	1208.77
463.947	1188.66
464.32	1193.63
464.692	1244.02
465.065	1185.94
465.438	1259.61
465.81	1266.17
466.183	1272.27
466.555	1286.51
466.928	1311.36
467.3	1319.73
467.672	1333.51
468.045	1380.74
468.417	1375.32
468.789	1390.46
469.161	1430.68
469.534	1425.26
469.906	1479.95
470.278	1478.82
470.65	1490.57
471.022	1546.84
471.394	1533.05
471.766	1575.09
472.138	1613.5
472.51	1639.72
472.882	1674.07
473.253	1710.68
473.625	1726.04
473.997	1779.83
474.369	1792.03
474.74	1840.16
475.112	1889.65
475.484	1917.22
475.855	1951.12
476.227	1977.11
476.598	2057.78
476.97	2083.55
477.341	2128.97
477.713	2227.05
478.084	2207.84
478.455	2307.95
478.827	2331.9
479.198	2395.86
479.569	2444.22
479.94	2528.28
480.311	2608.05
480.682	2638.56
481.053	2734.83
481.424	2816.63
481.795	2845.56
482.166	2905.22
482.537	3020.92
482.908	3093.46
483.279	3136.17
483.65	3199
484.021	3357.86
484.391	3420.23
484.762	3491.87
485.133	3549.27
485.503	3630.62
485.874	3784.07
486.244	3806.44
486.615	3905.87
486.985	4026.09
487.356	4158.52
487.726	4222.02
488.097	4342.7
488.467	4413.2
488.837	4580.2
489.207	4654.78
489.578	4708.79
489.948	4841.44
490.318	4958.5
490.688	5057.93
491.058	5141.32
491.428	5259.96
491.798	5400.52
492.168	5526.62
492.538	5612.27
492.908	5733.17
493.278	5841.87
493.648	5896.1
494.017	6033.05
494.387	6100.16
494.757	6246.6
495.126	6353.49
495.496	6404.34
495.866	6518.01
496.235	6637.33
496.605	6767.49
496.974	6846.59
497.344	6932.91
497.713	7018.11
498.082	7149.63
498.452	7215.16
498.821	7341.49
499.19	7390.3
499.559	7521.14
499.928	7678.88
500.298	7711.2
500.667	7865.77
501.036	7871.42
501.405	8063.73
501.774	8060.34
502.143	8148.7
502.512	8274.8
502.88	8348.92
503.249	8350.05
503.618	8499.2
503.987	8571.74
504.356	8661.45
504.724	8740.77
505.093	8737.38
505.462	8895.12
505.83	8928.79
506.199	9065.28
506.567	9243.81
506.936	9214.43
507.304	9326.52
507.672	9372.39
508.041	9467.99
508.409	9538.72
508.777	9685.83
509.145	9706.4
509.514	9778.26
509.882	9927.63
510.25	9919.05
510.618	10022.32
510.986	10072.72
511.354	10236.33
511.722	10291.01
512.09	10378.02
512.458	10376.66
512.826	10462.76
513.193	10544.12
513.561	10612.14
513.929	10622.08
514.297	10791.34
514.664	10904.78
515.032	10939.81
515.4	11011.22
515.767	11107.26
516.135	11099.36
516.502	11071.56
516.869	11294.83
517.237	11308.84
517.604	11356.98
517.972	11436.07
518.339	11507.25
518.706	11580.25
519.073	11629.06
519.44	11733.91
519.808	11746.8
520.175	11893.23
520.542	12006.68
520.909	12017.75
521.276	12045.54
521.643	12140.68
522.009	12215.03
522.376	12346.78
522.743	12412.09
523.11	12588.58
523.477	12668.81
523.843	12702.93
524.21	12810.5
524.577	12904.73
524.943	13002.13
525.31	13005.52
525.676	13175.46
526.043	13220.66
526.409	13294.1
526.776	13440.54
527.142	13417.03
527.508	13529.8
527.874	13573.19
528.241	13852.5
528.607	13803.69
528.973	13949.68
529.339	13914.65
529.705	14106.51
530.071	14183.34
530.437	14138.15
530.803	14299.95
531.169	14395.77
531.535	14370.91
531.901	14363.22
532.267	14540.62
532.632	14537
532.998	14680.73
533.364	14779.94
533.73	14723.21
534.095	14887.05
534.461	15032.58
534.826	15025.81
535.192	15098.57
535.557	15200.26
535.923	15233.26
536.288	15245.91
536.653	15329.3
537.019	15346.48
537.384	15423.54
537.749	15473.93
538.114	15503.31
538.479	15623.76
538.845	15690.42
539.21	15719.8
539.575	15694.49
539.94	15833.24
540.305	15883.64
540.67	15918.44
541.034	16077.53
541.399	16148.49
541.764	16134.7
542.129	16204.08
542.494	16225.1
542.858	16292.21
543.223	16348.03
543.587	16475.48
543.952	16435.26
544.316	16555.48
544.681	16537.63
545.045	16637.06
545.41	16738.98
545.774	16774.23
546.138	16738.08
546.503	16865.98
546.867	16912.99
547.231	17091.97
547.595	17058.75
547.959	17081.57
548.324	17173.55
548.688	17189.82
549.052	17197.5
549.416	17386.65
549.779	17365.18
550.143	17421
550.507	17584.38
550.871	17650.82
551.235	17522.01
551.599	17793.42
551.962	17747.54
552.326	17851.27
552.689	17941.44
553.053	17882.23
553.417	17953.41
553.78	18145.27
554.143	18016.01
554.507	18229.56
554.87	18219.17
555.234	18340.29
555.597	18336.9
555.96	18429.33
556.323	18549.78
556.686	18581.19
557.05	18675.43
557.413	18712.94
557.776	18775.54
558.139	18834.07
558.502	18935.31
558.865	18918.81
559.228	19184.79
559.59	19209.65
559.953	19207.16
560.316	19392.7
560.679	19387.72
561.041	19593.14
561.404	19573.26
561.767	19636.98
562.129	19606.7
562.492	19835.4
562.854	19717.21
563.217	19854.61
563.579	19857.77
563.941	19944.32
564.304	20081.04
564.666	20180.02
565.028	20225.67
565.39	20230.41
565.753	20375.04
566.115	20467.7
566.477	20587.92
566.839	20622.72
567.201	20667.01
567.563	20720.8
567.925	20961.69
568.287	20888.02
568.648	21038.08
569.01	21072.43
569.372	21269.26
569.734	21173.44
570.095	21430.83
570.457	21428.57
570.819	21600.1
571.18	21461.79
571.542	21660.21
571.903	21761.9
572.265	21828.11
572.626	22018.39
572.987	22050.25
573.349	22116.24
573.71	22166.86
574.071	22242.79
574.432	22371.83
574.794	22515.55
575.155	22571.14
575.516	22599.62
575.877	22761.42
576.238	22884.36
576.599	22995.99
576.96	23034.86
577.32	23108.3
577.681	23281.86
578.042	23406.83
578.403	23557.11
578.763	23548.29
579.124	23741.96
579.485	23842.3
579.845	24093.36
580.206	24068.73
580.566	24213.81
580.927	24281.38
581.287	24649.96
581.648	24594.82
582.008	24905.09
582.368	24867.81
582.728	25120.46
583.089	25347.34
583.449	25444.29
583.809	25572.65
584.169	25760.66
584.529	25851.06
584.889	26188.68
585.249	26223.25
585.609	26299.63
585.969	26634.77
586.329	26746.4
586.688	26972.61
587.048	27107.3
587.408	27232.26
587.768	27475.42
588.127	27592.48
588.487	27839.25
588.846	28089.19
589.206	28261.39
589.565	28290.32
589.925	28608.5
590.284	28773.01
590.643	29051.88
591.003	29254.13
591.362	29423.17
591.721	29584.07
592.08	29748.13
592.44	29982.47
592.799	30302.47
593.158	30371.39
593.517	30495.68
593.876	30795.56
594.235	30923.69
594.593	31106.06
594.952	31267.64
595.311	31340.63
595.67	31607.52
596.029	31951.01
596.387	32096.77
596.746	32527.04
597.104	32381.06
597.463	32474.16
597.822	32833.92
598.18	32946.46
598.538	32969.97
598.897	33324.53
599.255	33241.82
599.613	33906.66
599.972	33653.34
600.33	33960
600.688	34035.02
601.046	34360.66
601.404	34667.77
601.762	34616.93
602.12	34891.72
602.478	34983.25
602.836	35070.02
603.194	35098.05
603.552	35309.11
603.91	35414.2
604.268	35661.42
604.625	35713.62
604.983	35968.98
605.341	35971.92
605.698	36247.17
606.056	36328.07
606.413	36417.11
606.771	36799.7
607.128	36704.33
607.485	36805.12
607.843	37008.5
608.2	37062.06
608.557	37325.11
608.914	37263.64
609.272	37589.96
609.629	37695.49
609.986	37904.98
610.343	37848.03
610.7	38197.17
611.057	38236.04
611.414	38238.08
611.771	38488.24
612.127	38670.38
612.484	38616.37
612.841	38843.03
613.198	38820.66
613.554	38962.35
613.911	39120.54
614.267	39271.27
614.624	39279.63
614.98	39263.81
615.337	39547.65
615.693	39493.64
616.05	39664.25
616.406	39780.86
616.762	39816.57
617.118	39817.7
617.475	39924.59
617.831	40181.98
618.187	40199.15
618.543	40251.58
618.899	40466.49
619.255	40373.61
619.611	40461.75
619.967	40668.75
620.323	40708.52
620.678	40655.19
621.034	40678.92
621.39	40710.1
621.746	40544
622.101	41133.82
622.457	40933.6
622.812	41014.05
623.168	41112.35
623.523	41139.02
623.879	41267.6
624.234	41089.53
624.589	41240.26
624.945	41372.68
625.3	41279.8
625.655	41381.72
626.01	41415.39
626.365	41517.76
626.72	41445.45
627.075	41433.02
627.43	41611.55
627.785	41462.62
628.14	41600.7
628.495	41560.02
628.85	41590.08
629.205	41541.72
629.559	41720.92
629.914	41658.33
630.269	41818.77
630.623	41528.39
630.978	41674.6
631.332	41729.28
631.687	41715.95
632.041	41725.67
632.396	41669.4
632.75	41572.45
633.104	41635.05
633.459	41574.49
633.813	41580.59
634.167	41616.29
634.521	41384.21
634.875	41688.83
635.229	41490.19
635.583	41329.97
635.937	41278.9
636.291	41461.04
636.645	41420.82
636.999	41346.47
637.352	41602.06
637.706	41183.08
638.06	41353.93
638.413	41409.07
638.767	41194.83
639.121	41423.53
639.474	41066.93
639.828	41268.96
640.181	41267.83
640.534	41292.23
640.888	41111.45
641.241	40863.54
641.594	41102.63
641.947	41151.67
642.301	41049.75
642.654	41136.31
643.007	41043.88
643.36	41027.61
643.713	40950.32
644.066	41106.02
644.419	40890.21
644.771	40758.46
645.124	40285.93
645.477	40284.58
645.83	40094.07
646.182	39890.46
646.535	39711.03
646.888	39896.79
647.24	39723.24
647.593	39861.54
647.945	39826.06
648.298	39600.07
648.65	39655.21
649.002	39476.24
649.355	39590.58
649.707	39590.36
650.059	39719.62
650.411	40184.47
650.763	40172.26
651.115	40492.03
651.467	40386.95
651.819	40287.06
652.171	40344.69
652.523	40235.99
652.875	40140.17
653.227	40151.25
653.578	40277.34
653.93	40180.17
654.282	39981.76
654.633	40029.89
654.985	40123.22
655.337	40093.85
655.688	40106.73
656.039	40200.28
656.391	39866.73
656.742	40036.9
657.094	40022.44
657.445	40178.59
657.796	40014.98
658.147	40062.66
658.498	39888.88
658.849	40103.34
659.2	39917.58
659.551	39981.31
659.902	39856.11
660.253	39956.9
660.604	40007.52
660.955	39743.57
661.306	40030.35
661.656	39829.22
662.007	39899.95
662.358	39965.71
662.708	39861.54
663.059	39902.21
663.409	39587.19
663.76	39887.07
664.11	39824.25
664.461	39823.35
664.811	39876.68
665.161	39797.81
665.511	39786.28
665.862	39777.47
666.212	39876.9
666.562	39827.41
666.912	39746.74
667.262	39561.66
667.612	39658.15
667.962	39793.29
668.312	39685.27
668.662	39676.68
669.011	39532.73
669.361	39452.73
669.711	39523.01
670.06	39481.89
670.41	39431.94
670.76	39489.57
671.109	39635.33
671.459	39421.55
671.808	39575.22
672.157	39552.62
672.507	39325.96
672.856	39327.09
673.205	39363.47
673.554	39549.45
673.904	39299.29
674.253	39564.6
674.602	39413.19
674.951	38761.23
675.3	38699.76
675.649	39316.01
675.998	39250.71
676.346	39308.78
676.695	39187.88
677.044	38971.84
677.393	39139.3
677.741	39296.81
678.09	39145.17
678.438	39067.43
678.787	39145.85
679.135	39076.47
679.484	38792.86
679.832	38930.04
680.181	38794.67
680.529	38888.45
680.877	38780.21
681.225	38791.06
681.573	39016.14
681.922	38590.61
682.27	38605.75
682.618	38370.28
682.966	38458.86
683.314	38575.24
683.661	38459.54
684.009	38292.99
684.357	38229.26
684.705	38255.25
685.053	38175.71
685.4	38101.58
685.748	38084.63
686.095	38017.52
686.443	37982.26
686.79	37744.98
687.138	37907.01
687.485	37809.39
687.832	37634.48
688.18	37765.09
688.527	37503.86
688.874	37631.99
689.221	37424.31
689.568	37293.24
689.915	37307.93
690.262	37285.79
690.609	37171.66
690.956	37100.71
691.303	36950.65
691.65	36811.22
691.997	36854.38
692.344	36554.05
692.69	36638.8
693.037	36562.87
693.383	36302.53
693.73	36461.4
694.077	36217.34
694.423	36229.77
694.769	36114.97
695.116	36155.65
695.462	36012.82
695.808	35891.47
696.155	36045.14
696.501	35642.66
696.847	35669.1
697.193	35533.06
697.539	35609.45
697.885	35230.02
698.231	35166.97
698.577	35173.07
698.923	35182.56
699.269	35029.8
699.614	34875.91
699.96	34825.51
700.306	34690.37
700.651	34728.11
700.997	34556.14
701.342	34437.27
701.688	34450.38
702.033	34411.28
702.379	34289.03
702.724	34226.66
703.069	34220.1
703.415	33861.47
703.76	33934.69
704.105	33816.5
704.45	33864.41
704.795	33552.1
705.14	33539.67
705.485	33513
705.83	33253.35
706.175	33365.66
706.52	33353.23
706.865	33056.97
707.209	33134.26
707.554	33002.51
707.899	33058.55
708.243	32924.32
708.588	32897.2
708.932	32686.13
709.277	32584.67
709.621	32708.96
709.966	32521.62
710.31	32486.36
710.654	32354.39
710.998	32338.57
711.342	32246.82
711.687	32108.52
712.031	32160.27
712.375	31962.76
712.719	32027.84
713.063	31936.1
713.407	32054.74
713.75	31771.35
714.094	31809.09
714.438	31673.96
714.782	31817.45
715.125	31679.15
715.469	31559.61
715.812	31413.62
716.156	31236.68
716.499	31217.24
716.843	31357.58
717.186	31105.38
717.53	31287.3
717.873	31176.79
718.216	31150.13
718.559	30993.97
718.902	30843.02
719.246	30962.79
719.589	30776.35
719.932	30690.48
720.275	30707.65
720.617	30706.52
720.96	30468.56
721.303	30579.75
721.646	30645.51
721.989	30290.49
722.331	30528.45
722.674	30383.59
723.016	30405.97
723.359	30365.97
723.701	30334.1
724.044	29993.1
724.386	29995.58
724.729	30153.54
725.071	30053.88
725.413	29994.68
725.755	29936.83
726.097	29806.66
726.439	29735.93
726.782	29816.38
727.124	29774.34
727.465	29659.09
727.807	29580.45
728.149	29574.12
728.491	29542.26
728.833	29502.04
729.175	29445.09
729.516	29411.64
729.858	29302.49
730.199	29477.4
730.541	29340.46
730.882	29394.69
731.224	29384.75
731.565	29266.79
731.906	29057.07
732.248	29091.42
732.589	28955.38
732.93	28873.35
733.271	28830.64
733.612	28917.19
733.953	28839.23
734.294	28722.62
734.635	28758.78
734.976	28679.46
735.317	28697.54
735.658	28583.19
735.999	28654.37
736.339	28566.24
736.68	28545.9
737.021	28363.53
737.361	28343.42
737.702	28550.87
738.042	28434.27
738.383	28344.55
738.723	28305.23
739.063	28267.27
739.404	28244.21
739.744	28131.68
740.084	28157.89
740.424	28140.04
740.764	27932.36
741.104	28104.33
741.444	27845.36
741.784	27938.23
742.124	27909.08
742.464	27887.84
742.804	27864.34
743.143	27760.39
743.483	27752.25
743.823	27688.07
744.162	27549.32
744.502	27621.18
744.841	27478.13
745.181	27604.68
745.52	27473.39
745.86	27443.11
746.199	27404.24
746.538	27353.16
746.877	27424.35
747.216	27295.09
747.556	27263.45
747.895	27207.18
748.234	27070.46
748.573	27058.03
748.911	27091.7
749.25	26962.44
749.589	26814.2
749.928	26851.26
750.267	26781.43
750.605	26709.34
750.944	26774.88
751.283	26738.27
751.621	26724.25
751.96	26454.88
752.298	26530.59
752.636	26563.58
752.975	26386.64
753.313	26226.41
753.651	26446.97
753.989	26234.32
754.327	26216.47
754.666	26107.55
755.004	26139.64
755.342	26132.41
755.679	26159.75
756.017	25936.25
756.355	25992.75
756.693	25783.26
757.031	25884.28
757.368	25789.59
757.706	25719.76
758.044	25574.45
758.381	25686.99
758.719	25606.77
759.056	25514.8
759.394	25375.59
759.731	25253.33
760.068	25275.93
760.405	25154.13
760.743	25074.13
761.08	25257.63
761.417	25047.46
761.754	24968.37
762.091	24874.36
762.428	24805.44
762.765	24651.99
763.102	24694.25
763.438	24494.71
763.775	24575.61
764.112	24553.46
764.449	24409.74
764.785	24323.64
765.122	24134.27
765.458	24087.71
765.795	24093.82
766.131	24134.94
766.467	23957.32
766.804	23774.73
767.14	23719.14
767.476	23621.29
767.812	23553.26
768.148	23633.94
768.485	23523.21
768.821	23318.24
769.157	23247.28
769.492	23259.94
769.828	23278.7
770.164	23019.95
770.5	23025.14
770.836	23095.65
771.171	22813.85
771.507	22788.77
771.842	22546.29
772.178	22607.53
772.513	22478.72
772.849	22514.87
773.184	22322.79
773.519	22469.68
773.855	22308.78
774.19	22155.79
774.525	22158.5
774.86	22045.28
775.195	22017.03
775.53	21894.78
775.865	21771.16
776.2	21607.55
776.535	21482.13
776.87	21436.94
777.205	21432.87
777.539	21333.21
777.874	21387.22
778.209	21116.27
778.543	21089.6
778.878	20931.86
779.212	21050.05
779.547	20813.68
779.881	20889.38
780.215	20796.05
780.55	20774.13
780.884	20578.88
781.218	20537.75
781.552	20607.13
781.886	20360.81
782.22	20296.85
782.554	20285.1
782.888	20160.13
783.222	19964.43
783.556	19956.52
783.889	19860.25
784.223	19775.06
784.557	19723.99
784.89	19726.7
785.224	19698
785.557	19498
785.891	19488.29
786.224	19535.07
786.558	19466.37
786.891	19228.18
787.224	19170.56
787.557	19152.93
787.891	19041.52
788.224	19071.57
788.557	19066.38
788.89	19038.81
789.223	18967.85
789.556	18863.22
789.888	18722.88
790.221	18612.83
790.554	18525.37
790.887	18633.62
791.219	18498.71
791.552	18467.75
791.884	18402.89
792.217	18315.21
792.549	18195.44
792.882	18107.53
793.214	18073.86
793.546	18056.23
793.879	17907.31
794.211	17869.57
794.543	17860.53
794.875	17833.42
795.207	17834.09
795.539	17707.09
795.871	17665.74
796.203	17565.63
796.535	17459.19
796.867	17441.11
797.198	17411.96
797.53	17389.59
797.862	17299.64
798.193	17248.57
798.525	17212.41
798.856	17146.43
799.188	16981.46
799.519	16898.07
799.85	16868.02
800.182	16856.72
800.513	16885.42
800.844	16700.11
801.175	16807.68
801.506	16611.98
801.837	16703.73
802.168	16572.43
802.499	16585.54
802.83	16454.47
803.161	16399.1
803.491	16397.29
803.822	16362.27
804.153	16290.63
804.483	16111.65
804.814	16124.31
805.145	16099.9
805.475	16056.29
805.805	16030.3
806.136	16018.55
806.466	16017.19
806.796	15895.84
807.126	15818.33
807.457	15827.37
807.787	15678.67
808.117	15726.35
808.447	15682.06
808.777	15561.61
809.107	15532.68
809.436	15538.33
809.766	15509.86
810.096	15456.53
810.426	15356.19
810.755	15459.69
811.085	15384.89
811.414	15347.38
811.744	15180.15
812.073	15188.51
812.403	15163.43
812.732	15151
813.061	15041.4
813.39	14991.23
813.719	14909.2
814.049	14987.84
814.378	14892.25
814.707	14827.17
815.036	14858.13
815.365	14845.02
815.693	14650.22
816.022	14681.63
816.351	14635.76
816.68	14576.78
817.008	14632.14
817.337	14426.5
817.665	14402.77
817.994	14488.64
818.322	14458.14
818.651	14462.2
818.979	14280.06
819.307	14424.69
819.636	14314.19
819.964	14238.48
820.292	14237.58
820.62	14283.45
820.948	14137.92
821.276	14268.31
821.604	14197.58
821.932	14217.69
822.259	14181.31
822.587	14214.08
822.915	14186.05
823.243	14269.22
823.57	14132.95
823.898	14081.2
824.225	14092.04
824.553	14075.1
824.88	14113.97
825.207	14146.73
825.535	14120.74
825.862	14168.88
826.189	14076.23
826.516	14123
826.843	14131.82
827.17	14207.97
827.497	14223.79
827.824	14147.41
828.151	14172.49
828.478	14081.88
828.805	14120.29
829.131	14177.01
829.458	14036.9
829.785	14066.28
830.111	14020.41
830.438	14192.38
830.764	14013.4
831.09	14114.42
831.417	13993.74
831.743	14108.09
832.069	14088.88
832.395	14103.12
832.722	14109.9
833.048	13932.05
833.374	14046.62
833.7	13986.96
834.026	13939.05
834.351	13954.65
834.677	13913.29
835.003	13944.7
835.329	13935.21
835.654	13933.18
835.98	13753.3
836.306	13791.71
836.631	13844.37
836.956	13844.37
837.282	13805.5
837.607	13698.61
837.932	13815.22
838.258	13763.69
838.583	13711.94
838.908	13585.84
839.233	13657.71
839.558	13681.43
839.883	13581.1
840.208	13507.88
840.533	13544.94
840.858	13473.08
841.182	13639.18
841.507	13430.37
841.832	13355.57
842.156	13463.81
842.481	13376.36
842.805	13392.63
843.13	13338.17
843.454	13283.93
843.778	13283.03
844.103	13322.8
844.427	13229.69
844.751	13212.52
845.075	13185.4
845.399	13089.59
845.723	13097.27
846.047	13091.39
846.371	12984.28
846.695	12992.41
847.019	12852.76
847.343	12812.08
847.666	12727.33
847.99	12746.32
848.313	12699.54
848.637	12634
848.96	12573.67
849.284	12632.42
849.607	12465.87
849.931	12429.04
850.254	12348.14
850.577	12266.56
850.9	12116.96
851.223	12109.05
851.546	12137.52
851.869	12045.32
852.192	12193.11
852.515	11998.31
852.838	11922.38
853.161	11932.33
853.483	11874.02
853.806	11849.17
854.129	11776.4
854.451	11806.23
854.774	11657.76
855.096	11680.36
855.419	11673.35
855.741	11623.86
856.063	11526.91
856.385	11568.72
856.708	11492.11
857.03	11480.81
857.352	11428.84
857.674	11353.81
857.996	11321.5
858.318	11298.67
858.64	11257.32
858.961	11305.23
859.283	11196.53
859.605	11138.68
859.926	11167.15
860.248	11128.73
860.57	11038.79
860.891	11102.07
861.212	11075.85
861.534	11034.27
861.855	11014.61
862.176	11051.67
862.498	10968.74
862.819	10981.39
863.14	10914.73
863.461	10886.71
863.782	10900.72
864.103	10840.83
864.424	10779.14
864.745	10871.56
865.065	10785.01
865.386	10710.66
865.707	10774.17
866.027	10699.37
866.348	10703.43
866.668	10693.26
866.989	10642.64
867.309	10593.15
867.63	10580.95
867.95	10596.77
868.27	10509.09
868.59	10590.44
868.91	10565.81
869.23	10544.12
869.55	10520.39
869.87	10571.23
870.19	10499.6
870.51	10534.17
870.83	10496.66
871.15	10416.21
871.469	10332.82
871.789	10365.14
872.109	10396.32
872.428	10320.84
872.748	10423.44
873.067	10363.33
873.386	10317.45
873.706	10313.84
874.025	10238.59
874.344	10219.38
874.663	10224.58
874.982	10266.16
875.301	10170.57
875.62	10127.63
875.939	10174.41
876.258	10212.37
876.577	10072.94
876.896	10124.01
877.214	10054.64
877.533	10078.59
877.852	10016.45
878.17	10098.48
878.489	9995.43
878.807	10069.33
879.125	9982.1
879.444	9981.42
879.762	9869.56
880.08	9924.24
880.398	9910.46
880.716	9882.44
881.034	9838.37
881.352	9884.47
881.67	9842.66
881.988	9833.4
882.306	9777.36
882.624	9823.68
882.941	9739.84
883.259	9646.96
883.577	9635.44
883.894	9652.39
884.212	9683.8
884.529	9668.21
884.846	9606.51
885.164	9633.18
885.481	9569
885.798	9590.24
886.115	9538.94
886.432	9481.32
886.75	9463.24
887.067	9518.83
887.383	9468.66
887.7	9472.51
888.017	9330.36
888.334	9416.91
888.651	9336.69
888.967	9253.08
889.284	9349.8
889.6	9292.4
889.917	9252.62
890.233	9156.58
890.55	9132.18
890.866	9129.01
891.182	9139.86
891.498	9106.87
891.815	9116.36
892.131	9063.25
892.447	9055.79
892.763	8989.13
893.079	8998.39
893.395	8997.72
893.71	8932.63
894.026	8898.96
894.342	8849.02
894.657	8817.16
894.973	8822.8
895.289	8838.4
895.604	8767.89
895.92	8735.12
896.235	8719.53
896.55	8649.25
896.865	8656.93
897.181	8600.66
897.496	8588.46
897.811	8545.07
898.126	8499.2
898.441	8481.12
898.756	8514.56
899.071	8385.98
899.386	8460.33
899.7	8366.09
900.015	8352.08
900.33	8336.26
900.644	8340.56
900.959	8336.94
901.273	8213.1
901.588	8200.22
901.902	8157.74
902.216	8170.84
902.531	8074.8
902.845	8098.3
903.159	7993.9
903.473	7963.39
903.787	7992.54
904.101	7963.62
904.415	7897.41
904.729	7939.44
905.042	7819.67
905.356	7882.94
905.67	7813.34
905.984	7865.77
906.297	7762.49
906.611	7763.62
906.924	7663.06
907.237	7696.73
907.551	7634.81
907.864	7585.1
908.177	7590.07
908.491	7594.14
908.804	7534.03
909.117	7533.57
909.43	7430.52
909.743	7397.98
910.056	7423.29
910.368	7355.5
910.681	7390.98
910.994	7267.14
911.307	7319.12
911.619	7245.67
911.932	7247.03
912.244	7230.53
912.557	7207.93
912.869	7068.27
913.181	7138.1
913.494	7116.63
913.806	7068.05
914.118	7035.06
914.43	6973.81
914.742	7018.33
915.054	6895.62
915.366	6873.03
915.678	6857.66
915.99	6858.11
916.302	6808.39
916.613	6765.01
916.925	6758.68
917.236	6762.29
917.548	6729.07
917.859	6696.08
918.171	6612.02
918.482	6559.59
918.794	6561.4
919.105	6582.41
919.416	6490.89
919.727	6568.63
920.038	6537.89
920.349	6483.43
920.66	6417.22
920.971	6419.25
921.282	6374.51
921.593	6375.41
921.903	6341.74
922.214	6338.35
922.525	6320.5
922.835	6253.38
923.146	6171.12
923.456	6205.92
923.767	6179.26
924.077	6151.69
924.387	6096.32
924.697	6115.76
925.008	6061.52
925.318	6063.1
925.628	6056.32
925.938	6041.63
926.248	6016.1
926.558	5968.19
926.867	5950.34
927.177	5917.34
927.487	5857.91
927.796	5822.43
928.106	5852.94
928.416	5806.61
928.725	5834.63
929.034	5764.81
929.344	5774.52
929.653	5694.98
929.962	5632.38
930.271	5653.4
930.581	5589.44
930.89	5593.06
931.199	5552.61
931.508	5555.32
931.817	5534.98
932.125	5557.13
932.434	5511.48
932.743	5516.23
933.051	5428.54
933.36	5399.17
933.669	5320.07
933.977	5361.43
934.286	5375.21
934.594	5328.21
934.902	5310.81
935.21	5279.17
935.519	5288.89
935.827	5275.33
936.135	5186.29
936.443	5238.72
936.751	5182.67
937.059	5122.11
937.367	5135.44
937.674	5086.86
937.982	5067.88
938.29	5057.71
938.597	5045.95
938.905	4983.36
939.213	4990.59
939.52	4941.55
939.827	4984.49
940.135	4930.7
940.442	4902.91
940.749	4877.37
941.056	4904.72
941.363	4837.37
941.67	4826.53
941.977	4810.03
942.284	4728.9
942.591	4762.57
942.898	4764.83
943.205	4732.52
943.511	4705.4
943.818	4676.47
944.125	4667.66
944.431	4631.28
944.738	4609.13
945.044	4588.34
945.35	4554.67
945.657	4530.04
945.963	4554.22
946.269	4519.64
946.575	4545.18
946.881	4511.73
947.187	4464.28
947.493	4435.58
947.799	4420.89
948.105	4408.46
948.41	4363.03
948.716	4375.24
949.022	4374.56
949.327	4341.79
949.633	4280.1
949.938	4317.16
950.244	4326.43
950.549	4245.98
950.854	4196.26
951.16	4172.98
951.465	4188.35
951.77	4137.05
952.075	4154.23
952.38	4173.44
952.685	4137.05
952.99	4105.41
953.294	4069.26
953.599	4054.57
953.904	4003.72
954.209	4029.03
954.513	4075.36
954.818	4008.69
955.122	3991.07
955.426	3989.03
955.731	3961.01
956.035	3946.1
956.339	3906.1
956.643	3936.61
956.948	3892.76
957.252	3870.39
957.556	3885.31
957.86	3841.92
958.163	3808.93
958.467	3789.72
958.771	3784.52
959.075	3776.16
959.378	3754.01
959.682	3744.52
959.985	3745.65
960.289	3749.72
960.592	3706.1
960.896	3717.85
961.199	3676.73
961.502	3672.66
961.805	3627.91
962.108	3596.73
962.411	3589.72
962.714	3540.91
963.017	3544.53
963.32	3560.57
963.623	3567.8
963.926	3556.05
964.228	3480.8
964.531	3521.93
964.833	3504.53
965.136	3441.93
965.438	3416.85
965.741	3462.27
966.043	3388.37
966.345	3361.48
966.648	3361.93
966.95	3344.76
967.252	3356.73
967.554	3380.46
967.856	3357.86
968.158	3289.84
968.46	3300.69
968.761	3312.89
969.063	3275.61
969.365	3232.67
969.666	3231.31
969.968	3217.75
970.269	3215.95
970.571	3220.47
970.872	3224.99
971.174	3154.48
971.475	3145.21
971.776	3159.22
972.077	3146.34
972.378	3147.7
972.679	3097.98
972.98	3132.33
973.281	3017.76
973.582	3023.41
973.883	3019.79
974.183	3049.4
974.484	3026.35
974.785	3012.79
975.085	2991.32
975.386	3003.97
975.686	3006.69
975.986	2913.13
976.287	2939.8
976.587	2902.96
976.887	2930.08
977.187	2890.76
977.487	2883.07
977.787	2851.89
978.087	2830.87
978.387	2868.84
978.687	2840.59
978.987	2801.49
979.286	2782.96
979.586	2827.48
979.885	2807.37
980.185	2752.91
980.484	2739.8
980.784	2729.41
981.083	2756.3
981.382	2695.28
981.682	2704.77
981.981	2708.84
982.28	2700.71
982.579	2673.81
982.878	2690.99
983.177	2651.44
983.475	2658.67
983.774	2636.98
984.073	2620.48
984.372	2606.02
984.67	2608.96
984.969	2567.83
985.267	2594.27
985.566	2546.36
985.864	2555.4
986.162	2555.4
986.461	2506.13
986.759	2513.59
987.057	2504.33
987.355	2505.91
987.653	2471.11
987.951	2454.84
988.249	2465.23
988.547	2446.48
988.844	2394.05
989.142	2439.02
989.44	2410.09
989.737	2428.85
990.035	2389.3
990.332	2401.5
990.63	2360.38
990.927	2363.54
991.224	2380.04
991.521	2319.25
991.819	2336.65
992.116	2302.98
992.413	2313.37
992.71	2267.5
993.006	2301.39
993.303	2271.79
993.6	2281.51
993.897	2267.27
994.193	2244.9
994.49	2246.03
994.787	2228.63
995.083	2175.07
995.379	2218.91
995.676	2188.4
995.972	2166.93
996.268	2186.14
996.565	2161.74
996.861	2147.27
997.157	2135.3
997.453	2124.22
997.749	2130.33
998.044	2115.64
998.34	2098.24
998.636	2094.62
998.932	2088.52
999.227	2080.84
999.523	2086.03
999.818	2042.87
1000.114	2026.15
1000.409	2013.27
1000.704	2031.8
1001	1990.67
1001.295	1987.05
1001.59	2000.61
1001.885	1978.69
1002.18	1952.93
1002.475	1973.72
1002.77	1939.6
1003.065	1943.44
1003.359	1933.27
1003.654	1924.23
1003.949	1933.04
1004.243	1854.17
1004.538	1873.61
1004.832	1875.42
1005.127	1864.34
1005.421	1845.36
1005.715	1836.55
1006.009	1824.57
1006.304	1819.15
1006.598	1823.21
1006.892	1792.93
1007.186	1806.27
1007.48	1808.07
1007.773	1759.94
1008.067	1747.74
1008.361	1742.54
1008.655	1763.33
1008.948	1745.25
1009.242	1724.01
1009.535	1707.96
1009.829	1702.77
1010.122	1707.96
1010.415	1674.52
1010.708	1692.14
1011.001	1644.24
1011.295	1660.73
1011.588	1646.27
1011.881	1646.27
1012.173	1608.08
1012.466	1639.72
1012.759	1602.66
1013.052	1638.59
1013.344	1591.81
1013.637	1582.09
1013.93	1591.13
1014.222	1554.3
1014.514	1547.29
1014.807	1547.52
1015.099	1535.09
1015.391	1534.63
1015.683	1522.21
1015.976	1550.91
1016.268	1523.11
1016.56	1491.25
1016.851	1492.83
1017.143	1491.7
1017.435	1466.61
1017.727	1448.31
1018.018	1489.44
1018.31	1427.97
1018.602	1434.75
1018.893	1407.18
1019.185	1414.41
1019.476	1407.63
1019.767	1397.46
1020.058	1403.11
1020.35	1385.26
1020.641	1378.93
1020.932	1364.47
1021.223	1342.1
1021.514	1352.49
1021.804	1338.71
1022.095	1327.86
1022.386	1306.62
1022.677	1312.27
1022.967	1289.22
1023.258	1306.84
1023.548	1273.4
1023.839	1279.73
1024.129	1286.51
1024.419	1237.47
1024.709	1239.95
1025	1267.3
1025.29	1228.88
1025.58	1234.3
1025.87	1226.17
1026.16	1219.61
1026.449	1201.31
1026.739	1225.49
1027.029	1180.52
1027.319	1205.6
1027.608	1178.49
1027.898	1162.67
1028.187	1150.24
1028.477	1145.94
1028.766	1145.49
1029.055	1132.84
1029.344	1146.4
1029.634	1121.99
1029.923	1133.97
1030.212	1120.86
1030.501	1118.15
1030.79	1092.16
1031.078	1071.6
1031.367	1059.62
1031.656	1075.21
1031.945	1076.79
1032.233	1072.5
1032.522	1060.07
1032.81	1057.13
1033.099	1053.29
1033.387	1037.02
1033.675	1016.68
1033.963	1030.92
1034.251	1004.93
1034.54	1031.6
1034.828	1018.26
1035.116	1013.29
1035.403	973.29
1035.691	975.33
1035.979	967.64
1036.267	980.07
1036.554	955.67
1036.842	967.87
1037.129	937.14
1037.417	936.46
1037.704	930.81
1037.992	924.93
1038.279	920.41
1038.566	908.66
1038.853	908.66
1039.14	908.66
