Data from hue_80_FLMS001491_81.txt Node
Date: Mon Feb 06 15:23:52 GMT 2017
User: dcchb
Spectrometer: FLMS00149
Trigger mode: 0
Integration Time (sec): 2.000000E-2
Scans to average: 10
Electric dark correction enabled: true
Nonlinearity correction enabled: false
Boxcar width: 0
XAxis mode: Wavelengths
Number of Pixels in Spectrum: 2048
>>>>>Begin Spectral Data<<<<<
341.393	-12.61
341.776	-12.61
342.16	-12.61
342.543	-62.55
342.927	-69.56
343.31	-57.81
343.693	-63.01
344.077	-88.54
344.46	-48.32
344.843	-50.35
345.226	-42.89
345.61	-16.45
345.993	-17.13
346.376	-14.19
346.759	7.5
347.142	28.06
347.525	31.45
347.908	55.63
348.291	70.77
348.674	103.09
349.057	102.19
349.44	133.15
349.823	156.2
350.206	190.77
350.588	200.04
350.971	193.71
351.354	223.99
351.737	226.93
352.119	239.58
352.502	272.58
352.884	274.84
353.267	287.49
353.65	282.97
354.032	298.57
354.414	315.29
354.797	303.54
355.179	323.65
355.562	312.8
355.944	342.63
356.326	318.45
356.709	308.96
357.091	351.45
357.473	334.5
357.855	343.99
358.238	322.52
358.62	331.33
359.002	328.17
359.384	327.72
359.766	355.06
360.148	322.07
360.53	318.9
360.912	340.6
361.294	325.01
361.676	337.21
362.057	322.29
362.439	333.37
362.821	309.86
363.203	326.59
363.584	307.6
363.966	313.93
364.348	314.84
364.729	318
365.111	306.7
365.493	316.64
365.874	304.89
366.256	304.89
366.637	318.68
367.019	311.45
367.4	302.41
367.781	318.9
368.163	294.05
368.544	310.32
368.925	285.46
369.306	296.98
369.688	317.1
370.069	307.15
370.45	314.84
370.831	315.29
371.212	294.95
371.593	311.67
371.974	292.01
372.355	330.88
372.736	305.57
373.117	317.32
373.498	322.29
373.879	317.32
374.26	315.97
374.641	308.73
375.021	296.31
375.402	310.77
375.783	310.77
376.163	334.27
376.544	327.49
376.925	320.26
377.305	306.93
377.686	353.25
378.066	330.88
378.447	329.98
378.827	322.07
379.208	310.99
379.588	320.49
379.968	328.17
380.349	318.9
380.729	338.34
381.109	324.78
381.489	333.59
381.87	331.79
382.25	340.37
382.63	330.88
383.01	324.55
383.39	317.1
383.77	333.37
384.15	332.91
384.53	348.96
384.91	343.99
385.29	355.74
385.67	346.93
386.049	369.3
386.429	337.89
386.809	339.02
387.189	366.13
387.568	331.33
387.948	348.51
388.328	340.15
388.707	325.68
389.087	353.71
389.466	347.83
389.846	331.11
390.225	340.15
390.605	373.59
390.984	368.39
391.363	357.1
391.743	354.16
392.122	353.71
392.501	337.89
392.881	372.69
393.26	343.31
393.639	379.02
394.018	346.93
394.397	339.47
394.776	372.69
395.155	364.55
395.534	362.07
395.913	357.77
396.292	372.91
396.671	360.03
397.05	366.36
397.429	369.52
397.808	378.79
398.186	359.81
398.565	373.82
398.944	355.29
399.323	388.96
399.701	399.81
400.08	380.6
400.458	358.23
400.837	384.89
401.215	387.38
401.594	395.96
401.972	372.01
402.351	386.02
402.729	380.82
403.107	400.03
403.486	395.96
403.864	391.44
404.242	395.06
404.62	386.7
404.999	421.5
405.377	417.66
405.755	407.94
406.133	419.24
406.511	387.6
406.889	407.49
407.267	425.79
407.645	401.16
408.023	412.46
408.401	411.33
408.779	431.22
409.156	430.77
409.534	432.57
409.912	423.31
410.29	440.48
410.667	420.82
411.045	442.74
411.422	431.67
411.8	426.25
412.178	438.67
412.555	418.56
412.933	425.57
413.31	456.3
413.687	443.87
414.065	445.23
414.442	446.58
414.819	464.44
415.197	476.87
415.574	449.52
415.951	474.15
416.328	476.87
416.705	471.44
417.082	474.83
417.46	499.24
417.837	488.62
418.214	489.3
418.591	466.24
418.967	503.98
419.344	488.62
419.721	489.75
420.098	485.91
420.475	480.48
420.852	485.91
421.228	487.94
421.605	508.05
421.982	512.12
422.358	533.14
422.735	518.67
423.111	513.7
423.488	526.58
423.864	515.96
424.241	530.88
424.617	538.79
424.994	534.94
425.37	544.89
425.746	534.04
426.123	554.15
426.499	544.21
426.875	548.73
427.251	571.33
427.627	545.34
428.003	558.67
428.379	550.54
428.756	565.9
429.132	560.71
429.507	565.68
429.883	593.47
430.259	587.6
430.635	598.9
431.011	583.76
431.387	598.67
431.763	616.75
432.138	602.51
432.514	611.55
432.89	606.13
433.265	603.42
433.641	647.71
434.016	632.12
434.392	638.9
434.767	661.49
435.143	648.84
435.518	642.74
435.894	647.48
436.269	663.53
436.644	660.82
437.02	683.19
437.395	667.37
437.77	669.18
438.145	674.83
438.52	690.87
438.895	700.81
439.271	687.26
439.646	711.66
440.021	688.61
440.395	701.27
440.77	728.38
441.145	739.68
441.52	730.42
441.895	728.61
442.27	703.98
442.645	732
443.019	749.18
443.394	724.09
443.769	741.49
444.143	731.32
444.518	758.21
444.892	746.24
445.267	774.26
445.641	770.87
446.016	771.77
446.39	786.69
446.764	758.44
447.139	789.17
447.513	781.26
447.887	760.25
448.262	784.65
448.636	804.54
449.01	813.58
449.384	831.21
449.758	816.97
450.132	815.16
450.506	829.85
450.88	858.55
451.254	844.54
451.628	834.14
452.002	844.77
452.376	861.71
452.75	868.49
453.123	878.89
453.497	879.12
453.871	879.12
454.244	890.64
454.618	896.06
454.992	917.31
455.365	930.87
455.739	933.8
456.112	963.63
456.486	943.75
456.859	970.19
457.232	983.52
457.606	967.7
457.979	972.45
458.352	1010.86
458.725	1006.57
459.099	1048.6
459.472	1054.93
459.845	1066.91
460.218	1048.83
460.591	1054.48
460.964	1055.83
461.337	1071.88
461.71	1089.96
462.083	1124.31
462.456	1107.81
462.829	1129.73
463.201	1129.73
463.574	1135.83
463.947	1197.07
464.32	1203.4
464.692	1209.73
465.065	1207.47
465.438	1223.06
465.81	1256.96
466.183	1292.66
466.555	1291.08
466.928	1315.26
467.3	1298.31
467.672	1331.76
468.045	1359.78
468.417	1362.94
468.789	1408.82
469.161	1433.45
469.534	1433.23
469.906	1478.2
470.278	1491.3
470.65	1521.58
471.022	1520.45
471.394	1590.96
471.766	1610.4
472.138	1641.13
472.51	1675.48
472.882	1703.27
473.253	1719.77
473.625	1781.46
473.997	1856.94
474.369	1845.19
474.74	1875.02
475.112	1939.88
475.484	1956.83
475.855	2009.93
476.227	2037.28
476.598	2110.27
476.97	2130.38
477.341	2235.46
477.713	2285.41
478.084	2329.25
478.455	2399.98
478.827	2428.68
479.198	2506.42
479.569	2563.36
479.94	2673.19
480.311	2728.11
480.682	2775.56
481.053	2903.24
481.424	2978.95
481.795	3027.53
482.166	3153.41
482.537	3201.54
482.908	3292.16
483.279	3392.72
483.65	3538.93
484.021	3601.98
484.391	3682.43
484.762	3747.51
485.133	3850.56
485.503	3935.98
485.874	4111.8
486.244	4189.31
486.615	4316.77
486.985	4409.87
487.356	4598.34
487.726	4650.09
488.097	4781.84
488.467	4874.72
488.837	5035.16
489.207	5152
489.578	5298.89
489.948	5423.85
490.318	5524.64
490.688	5636.73
491.058	5770.51
491.428	5920.11
491.798	6093.22
492.168	6238.3
492.538	6313.1
492.908	6520.77
493.278	6636.25
493.648	6672.41
494.017	6892.06
494.387	7008.9
494.757	7167.09
495.126	7313.07
495.496	7385.61
495.866	7554.42
496.235	7683.91
496.605	7804.36
496.974	7894.07
497.344	8056.78
497.713	8201.63
498.082	8294.06
498.452	8423.1
498.821	8565.47
499.19	8603.66
499.559	8751
499.928	8925.91
500.298	8999.13
500.667	9100.14
501.036	9164.1
501.405	9378.1
501.774	9439.79
502.143	9531.77
502.512	9731.54
502.88	9788.94
503.249	9844.98
503.618	9980.12
503.987	10096.5
504.356	10115.71
504.724	10247.23
505.093	10359.77
505.462	10400.22
505.83	10519.54
506.199	10643.83
506.567	10773.32
506.936	10808.35
507.304	11059.64
507.672	11124.5
508.041	11153.42
508.409	11169.47
508.777	11373.98
509.145	11470.02
509.514	11508.21
509.882	11598.61
510.25	11599.06
510.618	11702.79
510.986	11788.43
511.354	11947.3
511.722	12019.61
512.09	12142.77
512.458	12241.08
512.826	12267.74
513.193	12308.65
513.561	12392.26
513.929	12485.36
514.297	12606.49
514.664	12625.02
515.032	12709.31
515.4	12839.93
515.767	12824.11
516.135	12897.1
516.502	12943.43
516.869	13145.46
517.237	13180.49
517.604	13163.31
517.972	13216.42
518.339	13436.3
518.706	13304.78
519.073	13433.81
519.44	13432.23
519.808	13570.76
520.175	13558.1
520.542	13647.59
520.909	13696.86
521.276	13784.09
521.643	13922.61
522.009	14029.28
522.376	14029.96
522.743	14124.42
523.11	14078.54
523.477	14228.14
523.843	14280.12
524.21	14469.94
524.577	14546.1
524.943	14504.97
525.31	14594.91
525.676	14698.64
526.043	14781.57
526.409	14823.61
526.776	14904.06
527.142	14910.38
527.508	14913.1
527.874	15024.51
528.241	15093.88
528.607	15107.67
528.973	15137.27
529.339	15176.14
529.705	15277.15
530.071	15320.09
530.437	15274.22
530.803	15465.62
531.169	15502.91
531.535	15469.69
531.901	15443.03
532.267	15483.93
532.632	15514.89
532.998	15613.42
533.364	15623.36
533.73	15556.02
534.095	15713.53
534.461	15681.44
534.826	15704.26
535.192	15718.05
535.557	15789.46
535.923	15705.17
536.288	15648.44
536.653	15644.15
537.019	15697.03
537.384	15723.02
537.749	15737.48
538.114	15739.06
538.479	15623.13
538.845	15847.31
539.21	15776.12
539.575	15738.16
539.94	15784.94
540.305	15835.11
540.67	15738.84
541.034	15730.25
541.399	15771.61
541.764	15692.29
542.129	15774.77
542.494	15815.45
542.858	15819.29
543.223	15694.09
543.587	15800.3
543.952	15719.4
544.316	15838.72
544.681	15739.52
545.045	15738.39
545.41	15784.03
545.774	15750.81
546.138	15666.98
546.503	15829.68
546.867	15712.62
547.231	15766.86
547.595	15643.7
547.959	15807.99
548.324	15694.77
548.688	15745.39
549.052	15787.2
549.416	15655
549.779	15761.89
550.143	15636.02
550.507	15731.15
550.871	15713.53
551.235	15728.67
551.599	15756.24
551.962	15707.65
552.326	15725.73
552.689	15764.37
553.053	15662.91
553.417	15693.19
553.78	15854.09
554.143	15735.67
554.507	15774.09
554.87	15703.81
555.234	15900.19
555.597	15804.6
555.96	15740.65
556.323	15889.57
556.686	15866.29
557.05	15874.43
557.413	15788.55
557.776	15767.09
558.139	15904.93
558.502	15846.63
558.865	15854.99
559.228	15982.9
559.59	15974.09
559.953	15934.99
560.316	16043.24
560.679	16056.12
561.041	16051.6
561.404	16189.45
561.767	16208.2
562.129	16078.26
562.492	16203.01
562.854	16158.04
563.217	16164.14
563.579	16245.72
563.941	16360.52
564.304	16321.2
564.666	16304.92
565.028	16364.81
565.39	16420.63
565.753	16488.87
566.115	16442.32
566.477	16482.09
566.839	16526.84
567.201	16519.16
567.563	16592.15
567.925	16664.91
568.287	16590.57
568.648	16652.49
569.01	16721.86
569.372	16826.49
569.734	16759.15
570.095	16821.75
570.457	16851.12
570.819	16797.79
571.18	16846.61
571.542	17027.17
571.903	16945.59
572.265	16960.73
572.626	16974.51
572.987	17014.06
573.349	17044.57
573.71	17061.74
574.071	17144.68
574.432	17092.47
574.794	17144.9
575.155	17140.83
575.516	17080.5
575.877	17049.31
576.238	17172.02
576.599	17194.39
576.96	17156.2
577.32	17192.36
577.681	17311.23
578.042	17274.62
578.403	17348.51
578.763	17293.82
579.124	17318.46
579.485	17432.58
579.845	17404.33
580.206	17334.95
580.566	17365.69
580.927	17341.73
581.287	17380.6
581.648	17365.46
582.008	17382.18
582.368	17342.86
582.728	17308.51
583.089	17330.89
583.449	17361.17
583.809	17334.5
584.169	17355.52
584.529	17273.71
584.889	17572.24
585.249	17398.45
585.609	17282.53
585.969	17407.49
586.329	17293.37
586.688	17394.16
587.048	17312.58
587.408	17321.62
587.768	17260.38
588.127	17226.93
588.487	17237.56
588.846	17345.8
589.206	17168.4
589.565	17197.56
589.925	17240.49
590.284	17229.65
590.643	17247.5
591.003	17282.07
591.362	17344.9
591.721	17320.04
592.08	17348.96
592.44	17314.16
592.799	17298.57
593.158	17286.82
593.517	17280.27
593.876	17232.81
594.235	17279.81
594.593	17246.14
594.952	17180.16
595.311	17199.36
595.67	17268.29
596.029	17364.78
596.387	17288.63
596.746	17350.55
597.104	17249.53
597.463	17302.86
597.822	17337.44
598.18	17165.01
598.538	17247.27
598.897	17301.28
599.255	17114.62
599.613	17420.38
599.972	17287.27
600.33	17239.36
600.688	17263.09
601.046	17223.77
601.404	17380.38
601.762	17240.94
602.12	17387.83
602.478	17360.26
602.836	17380.15
603.194	17282.3
603.552	17339.7
603.91	17263.54
604.268	17295.63
604.625	17326.59
604.983	17315.29
605.341	17293.82
605.698	17318.46
606.056	17397.1
606.413	17402.97
606.771	17396.65
607.128	17353.48
607.485	17303.54
607.843	17405.69
608.2	17459.47
608.557	17504.21
608.914	17390.09
609.272	17492.46
609.629	17487.04
609.986	17537.66
610.343	17454.72
610.7	17638
611.057	17582.63
611.414	17639.13
611.771	17647.49
612.127	17687.94
612.484	17674.61
612.841	17694.27
613.198	17664.66
613.554	17640.26
613.911	17775.85
614.267	17766.58
614.624	17635.74
614.98	17787.37
615.337	17885.67
615.693	17867.14
616.05	17852.91
616.406	17990.08
616.762	17805.9
617.118	17809.74
617.475	17867.6
617.831	17946.92
618.187	17817.2
618.543	17957.08
618.899	18003.86
619.255	17961.6
619.611	17921.38
619.967	17982.39
620.323	18042.73
620.678	17961.38
621.034	17897.2
621.39	17984.2
621.746	17899.91
622.101	18156.63
622.457	18004.09
622.812	17968.61
623.168	18162.95
623.523	18112.56
623.879	18245.89
624.234	17910.53
624.589	18015.16
624.945	18077.53
625.3	18103.52
625.655	18053.8
626.01	18101.04
626.365	18105.78
626.72	18024.88
627.075	17960.47
627.43	18061.94
627.785	17999.34
628.14	18115.95
628.495	18103.75
628.85	18031.43
629.205	18022.39
629.559	18075.05
629.914	17982.39
630.269	17972.45
630.623	17888.39
630.978	18046.12
631.332	18001.38
631.687	17980.81
632.041	17877.31
632.396	17980.81
632.75	17810.42
633.104	17901.49
633.459	17813.13
633.813	17754.6
634.167	17714.38
634.521	17863.53
634.875	17887.93
635.229	17858.56
635.583	17800.48
635.937	17685.91
636.291	17710.09
636.645	17727.49
636.999	17630.31
637.352	17807.26
637.706	17598
638.06	17647.71
638.413	17722.51
638.767	17628.96
639.121	17656.53
639.474	17487.72
639.828	17552.8
640.181	17472.8
640.534	17515.97
640.888	17475.52
641.241	17448.17
641.594	17449.3
641.947	17548.06
642.301	17458.79
642.654	17463.99
643.007	17350.55
643.36	17432.58
643.713	17349.19
644.066	17465.12
644.419	17358.91
644.771	17235.3
645.124	17134.96
645.477	17122.08
645.83	16956.66
646.182	16812.93
646.535	16835.08
646.888	16880.28
647.24	16695.42
647.593	16913.27
647.945	16846.83
648.298	16721.64
648.65	16823.1
649.002	16689.55
649.355	16817
649.707	16796.21
650.059	16887.06
650.411	16979.26
650.763	17075.75
651.115	17216.76
651.467	17162.08
651.819	17170.44
652.171	17204.11
652.523	17121.85
652.875	17102.64
653.227	17079.82
653.578	17211.57
653.93	17115.75
654.282	17170.21
654.633	17045.92
654.985	17090.67
655.337	17103.77
655.688	17161.63
656.039	17178.8
656.391	17044.34
656.742	17136.77
657.094	17101.51
657.445	17094.06
657.796	17146.26
658.147	17130.89
658.498	17076.43
658.849	17047.5
659.2	17127.5
659.551	17126.6
659.902	17164.34
660.253	17089.31
660.604	17133.15
660.955	17053.15
661.306	17075.53
661.656	17048.63
662.007	17180.61
662.358	17104.45
662.708	17147.84
663.059	17144.9
663.409	17114.62
663.76	17232.58
664.11	17180.83
664.461	17186.03
664.811	17257.89
665.161	17190.1
665.511	17114.62
665.862	17176.54
666.212	17312.58
666.562	17276.65
666.912	17240.94
667.262	17183.77
667.612	17220.61
667.962	17260.83
668.312	17136.99
668.662	17301.28
669.011	17162.3
669.361	17143.55
669.711	17148.07
670.06	17205.92
670.41	17047.96
670.76	17056.77
671.109	17123.43
671.459	17127.05
671.808	17057.45
672.157	17136.77
672.507	16994.4
672.856	17014.51
673.205	17013.38
673.554	17050.89
673.904	17033.72
674.253	17025.81
674.602	16993.27
674.951	16725.03
675.3	16643.67
675.649	17003.89
675.998	16920.5
676.346	16945.81
676.695	17003.44
677.044	16807.96
677.393	16861.52
677.741	16875.76
678.09	16791.24
678.438	16791.01
678.787	16835.08
679.135	16818.13
679.484	16691.35
679.832	16765.48
680.181	16639.38
680.529	16593.96
680.877	16751.69
681.225	16651.36
681.573	16759.15
681.922	16572.49
682.27	16506.5
682.618	16528.42
682.966	16488.87
683.314	16471.25
683.661	16391.25
684.009	16305.38
684.357	16401.87
684.705	16283
685.053	16296.79
685.4	16298.14
685.748	16197.13
686.095	16165.49
686.443	16207.53
686.79	16121.88
687.138	16109.68
687.485	16178.15
687.832	16041.43
688.18	16078.94
688.527	15943.35
688.874	15959.62
689.221	15898.61
689.568	15839.85
689.915	15822.23
690.262	15700.65
690.609	15713.98
690.956	15707.65
691.303	15667.65
691.65	15623.59
691.997	15625.62
692.344	15514.44
692.69	15511.5
693.037	15465.17
693.383	15354.67
693.73	15318.74
694.077	15221.56
694.423	15166.88
694.769	15142.02
695.116	15109.25
695.462	15116.93
695.808	15000.33
696.155	15111.28
696.501	14881.01
696.847	14866.09
697.193	14759.88
697.539	14779.31
697.885	14758.98
698.231	14642.14
698.577	14657.06
698.923	14706.55
699.269	14517.63
699.614	14492.99
699.96	14488.7
700.306	14366.22
700.651	14338.2
700.997	14300.01
701.342	14248.03
701.688	14224.3
702.033	14088.03
702.379	14121.7
702.724	14077.19
703.069	14120.12
703.415	13972.33
703.76	14005.32
704.105	13980.69
704.45	13911.99
704.795	13807.36
705.14	13757.87
705.485	13808.94
705.83	13740.02
706.175	13672.68
706.52	13654.37
706.865	13583.19
707.209	13561.27
707.554	13450.99
707.899	13523.75
708.243	13411.44
708.588	13469.74
708.932	13369.86
709.277	13314.04
709.621	13332.57
709.966	13200.83
710.31	13251.9
710.654	13037.89
710.998	13138.45
711.342	13090.32
711.687	13121.73
712.031	13048.06
712.375	12975.97
712.719	12984.11
713.063	13022.07
713.407	12962.41
713.75	12890.32
714.094	12947.05
714.438	12836.32
714.782	12898.91
715.125	12749.09
715.469	12798.12
715.812	12747.96
716.156	12665.7
716.499	12664.79
716.843	12761.97
717.186	12656.66
717.53	12645.59
717.873	12679.71
718.216	12624.8
718.559	12529.88
718.902	12529.2
719.246	12555.87
719.589	12512.71
719.932	12461.18
720.275	12489.43
720.617	12460.51
720.96	12432.71
721.303	12402.2
721.646	12397.91
721.989	12313.39
722.331	12371.69
722.674	12337.8
723.016	12386.84
723.359	12341.41
723.701	12378.7
724.044	12335.99
724.386	12246.05
724.729	12252.83
725.071	12234.07
725.413	12231.59
725.755	12239.95
726.097	12177.8
726.439	12178.71
726.782	12087.63
727.124	12191.36
727.465	12127.41
727.807	12172.38
728.149	12150.91
728.491	12082.89
728.833	12156.56
729.175	12051.48
729.516	11997.47
729.858	12020.74
730.199	12033.62
730.541	12069.56
730.882	12027.75
731.224	11997.69
731.565	12008.54
731.906	11976.22
732.248	12048.31
732.589	11979.16
732.93	11963.12
733.271	11928.99
733.612	11971.48
733.953	11984.36
734.294	11987.98
734.635	11922.44
734.976	11946.17
735.317	11962.89
735.658	11887.41
735.999	11993.17
736.339	11870.01
736.68	11992.5
737.021	11879.5
737.361	11930.8
737.702	11968.77
738.042	11944.81
738.383	11936.68
738.723	11952.95
739.063	11952.27
739.404	12020.07
739.744	11940.07
740.084	11960.41
740.424	11974.42
740.764	11985.26
741.104	12026.84
741.444	12010.57
741.784	12013.96
742.124	12097.13
742.464	12051.48
742.804	12025.71
743.143	12016.22
743.483	12074.75
743.823	11942.1
744.162	12121.98
744.502	12162.21
744.841	12080.85
745.181	12202.89
745.52	12206.05
745.86	12253.28
746.199	12243.34
746.538	12251.25
746.877	12377.8
747.216	12379.15
747.556	12364.01
747.895	12505.93
748.234	12481.97
748.573	12493.73
748.911	12619.82
749.25	12646.72
749.589	12671.57
749.928	12720.84
750.267	12836.32
750.605	12915.86
750.944	12966.71
751.283	13022.52
751.621	13134.16
751.96	13150.66
752.298	13189.3
752.636	13317.66
752.975	13356.53
753.313	13435.85
753.651	13560.14
753.989	13615.05
754.327	13580.02
754.666	13690.76
755.004	13913.12
755.342	14009.84
755.679	13997.19
756.017	14137.98
756.355	14335.03
756.693	14235.37
757.031	14515.59
757.368	14525.99
757.706	14658.41
758.044	14721.69
758.381	14813.21
758.719	14943.83
759.056	15008.91
759.394	15183.37
759.731	15212.3
760.068	15284.61
760.405	15487.32
760.743	15375.23
761.08	15645.05
761.417	15699.52
761.754	15877.59
762.091	15940.41
762.428	16030.58
762.765	16073.74
763.102	16166.4
763.438	16258.82
763.775	16295.89
764.112	16435.77
764.449	16579.72
764.785	16595.99
765.122	16587.18
765.458	16660.4
765.795	16813.39
766.131	16938.58
766.467	16857.23
766.804	16932.93
767.14	17029.65
767.476	17120.5
767.812	17147.84
768.148	17325.91
768.485	17277.55
768.821	17240.49
769.157	17331.34
769.492	17416.31
769.828	17481.84
770.164	17383.99
770.5	17538.56
770.836	17590.54
771.171	17483.65
771.507	17576.08
771.842	17573.82
772.178	17609.52
772.513	17667.37
772.849	17668.96
773.184	17698.11
773.519	17582.18
773.855	17585.34
774.19	17654.49
774.525	17710.99
774.86	17687.03
775.195	17825.34
775.53	17733.59
775.865	17645.91
776.2	17649.75
776.535	17574.72
776.87	17591.9
777.205	17597.77
777.539	17531.11
777.874	17640.93
778.209	17466.93
778.543	17533.37
778.878	17527.27
779.212	17498.79
779.547	17492.69
779.881	17537.21
780.215	17403.65
780.55	17447.27
780.884	17337.21
781.218	17386.7
781.552	17474.61
781.886	17271.9
782.22	17227.16
782.554	17168.86
782.888	17073.49
783.222	17108.29
783.556	16962.08
783.889	16982.87
784.223	16880.73
784.557	16940.61
784.89	16898.36
785.224	16906.04
785.557	16821.07
785.891	16795.98
786.224	16732.94
786.558	16741.52
786.891	16566.39
787.224	16527.97
787.557	16563.45
787.891	16521.87
788.224	16520.06
788.557	16511.47
788.89	16484.81
789.223	16436.9
789.556	16247.3
789.888	16285.04
790.221	16202.55
790.554	16149.22
790.887	16212.27
791.219	16092.5
791.552	16130.01
791.884	16049.11
792.217	16005.95
792.549	15940.87
792.882	15898.61
793.214	15803.24
793.546	15817.48
793.879	15774.54
794.211	15623.59
794.543	15698.39
794.875	15670.14
795.207	15650.48
795.539	15555.11
795.871	15519.18
796.203	15489.35
796.535	15376.36
796.867	15351.28
797.198	15341.56
797.53	15349.47
797.862	15140.89
798.193	15257.49
798.525	15162.81
798.856	15279.41
799.188	15059.99
799.519	14986.09
799.85	14950.38
800.182	15010.27
800.513	14994.68
800.844	14813.21
801.175	14904.74
801.506	14903.83
801.837	14757.39
802.168	14618.42
802.499	14744.29
802.83	14657.28
803.161	14617.06
803.491	14616.38
803.822	14554.46
804.153	14576.61
804.483	14374.35
804.814	14328.93
805.145	14417.97
805.475	14347.24
805.805	14311.53
806.136	14256.16
806.466	14276.28
806.796	14250.06
807.126	14076.96
807.457	14086.45
807.787	14080.12
808.117	13994.48
808.447	14018.43
808.777	14105.43
809.107	13990.86
809.436	13920.81
809.766	13961.71
810.096	13831.77
810.426	13879.9
810.755	13902.05
811.085	13787.93
811.414	13729.62
811.744	13625.67
812.073	13605.11
812.403	13613.24
812.732	13545.45
813.061	13550.65
813.39	13422.97
813.719	13475.85
814.049	13475.39
814.378	13419.12
814.707	13447.37
815.036	13342.06
815.365	13373.93
815.693	13143.88
816.022	13299.13
816.351	13146.82
816.68	13147.27
817.008	13180.71
817.337	12978.23
817.665	13029.08
817.994	13071.79
818.322	13076.76
818.651	12994.73
818.979	12965.8
819.307	13008.74
819.636	12935.52
819.964	12837.44
820.292	12870.89
820.62	12848.07
820.948	12830.44
821.276	12950.44
821.604	12810.78
821.932	12825.47
822.259	12874.73
822.587	12845.81
822.915	12787.28
823.243	12772.59
823.57	12778.24
823.898	12781.4
824.225	12681.74
824.553	12728.3
824.88	12798.58
825.207	12867.5
825.535	12812.81
825.862	12824.56
826.189	12836.09
826.516	12853.72
826.843	12876.54
827.17	12880.61
827.497	12827.28
827.824	12812.59
828.151	12921.96
828.478	12820.5
828.805	12876.77
829.131	12777.11
829.458	12770.1
829.785	12788.63
830.111	12805.81
830.438	12854.39
830.764	12756.09
831.09	12831.8
831.417	12733.27
831.743	12807.16
832.069	12738.69
832.395	12667.28
832.722	12820.95
833.048	12737.56
833.374	12724.45
833.7	12691.91
834.026	12696.21
834.351	12802.19
834.677	12677.45
835.003	12646.26
835.329	12603.78
835.654	12631.12
835.98	12552.03
836.306	12537.34
836.631	12557.23
836.956	12592.71
837.282	12597
837.607	12503.44
837.932	12416.44
838.258	12496.21
838.583	12449.88
838.908	12305.26
839.233	12403.33
839.558	12430.45
839.883	12392.26
840.208	12285.6
840.533	12285.6
840.858	12271.13
841.182	12326.72
841.507	12283.56
841.832	12163.34
842.156	12173.51
842.481	12192.26
842.805	12200.63
843.13	12100.29
843.454	12102.32
843.778	12079.95
844.103	11983
844.427	11989.33
844.751	12020.07
845.075	12001.53
845.399	11947.3
845.723	11830.01
846.047	11921.54
846.371	11770.81
846.695	11832.95
847.019	11629.34
847.343	11656.91
847.666	11566.07
847.99	11531.94
848.313	11499.4
848.637	11383.92
848.96	11384.38
849.284	11427.09
849.607	11278.84
849.931	11325.62
850.254	11225.06
850.577	11129.69
850.9	11091.73
851.223	11070.71
851.546	11076.81
851.869	10893.09
852.192	11034.78
852.515	10903.26
852.838	10891.73
853.161	10830.49
853.483	10823.03
853.806	10835.24
854.129	10735.81
854.451	10740.1
854.774	10650.38
855.096	10566.77
855.419	10611.06
855.741	10567.45
856.063	10546.88
856.385	10463.5
856.708	10441.12
857.03	10419.66
857.352	10435.47
857.674	10284.97
857.996	10338.08
858.318	10245.42
858.64	10335.59
858.961	10272.54
859.283	10288.81
859.605	10139.44
859.926	10251.52
860.248	10162.04
860.57	10059.21
860.891	10151.19
861.212	10019.44
861.534	10022.6
861.855	10038.2
862.176	9996.16
862.498	10015.37
862.819	10046.56
863.14	9971.76
863.461	9961.59
863.782	9885.21
864.103	9938.54
864.424	9870.52
864.745	9909.16
865.065	9801.14
865.386	9816.51
865.707	9766.11
866.027	9791.88
866.348	9757.07
866.668	9744.42
866.989	9729.28
867.309	9665.55
867.63	9697.19
867.95	9686.57
868.27	9633.91
868.59	9610.64
868.91	9630.52
869.23	9562.5
869.55	9554.14
869.87	9610.41
870.19	9607.47
870.51	9575.38
870.83	9508.94
871.15	9534.93
871.469	9492
871.789	9475.5
872.109	9495.39
872.428	9470.3
872.748	9500.58
873.067	9397.08
873.386	9440.47
873.706	9361.15
874.025	9363.19
874.344	9346.01
874.663	9341.49
874.982	9337.88
875.301	9301.94
875.62	9275.05
875.939	9272.57
876.258	9288.84
876.577	9209.74
876.896	9198.22
877.214	9233.92
877.533	9240.93
877.852	9196.86
878.17	9197.31
878.489	9237.54
878.807	9169.97
879.125	9174.72
879.444	9125.23
879.762	9093.36
880.08	9160.71
880.398	9030.77
880.716	9070.31
881.034	8959.81
881.352	9057.88
881.67	8955.97
881.988	8953.48
882.306	9003.42
882.624	8859.92
882.941	8898.57
883.259	8883.42
883.577	8880.94
883.894	8845.23
884.212	8840.26
884.529	8816.99
884.846	8807.04
885.164	8773.6
885.481	8701.96
885.798	8743.09
886.115	8688.63
886.432	8699.7
886.75	8667.16
887.067	8662.41
887.383	8675.07
887.7	8707.16
888.017	8586.71
888.334	8642.98
888.651	8535.41
888.967	8549.42
889.284	8533.83
889.6	8528.41
889.917	8421.29
890.233	8411.35
890.55	8329.99
890.866	8402.08
891.182	8421.74
891.498	8315.08
891.815	8391.46
892.131	8253.16
892.447	8233.27
892.763	8206.15
893.079	8197.34
893.395	8153.05
893.71	8161.64
894.026	8120.51
894.342	8104.46
894.657	8041.64
894.973	8045.71
895.289	8068.53
895.604	8007.97
895.92	7943.56
896.235	7943.11
896.55	7929.55
896.865	7931.81
897.181	7923
897.496	7877.8
897.811	7805.26
898.126	7839.38
898.441	7763
898.756	7726.17
899.071	7700.18
899.386	7683
899.7	7665.38
900.015	7639.39
900.33	7630.8
900.644	7509.22
900.959	7579.5
901.273	7537.25
901.588	7473.52
901.902	7463.57
902.216	7400.75
902.531	7494.31
902.845	7391.49
903.159	7280.53
903.473	7277.37
903.787	7235.11
904.101	7269.23
904.415	7253.86
904.729	7194.43
905.042	7175.45
905.356	7229.23
905.67	7118.5
905.984	7125.28
906.297	7110.82
906.611	7026.52
906.924	7054.55
907.237	7002.57
907.551	6951.05
907.864	6958.73
908.177	6917.83
908.491	6925.06
908.804	6890.48
909.117	6831.95
909.43	6797.6
909.743	6782.91
910.056	6715.35
910.368	6747.44
910.681	6726.19
910.994	6675.57
911.307	6684.16
911.619	6572.07
911.932	6657.72
912.244	6538.4
912.557	6557.61
912.869	6473.54
913.181	6568.91
913.494	6467.89
913.806	6410.95
914.118	6405.07
914.43	6353.77
914.742	6385.41
915.054	6301.57
915.366	6272.65
915.678	6290.5
915.99	6246.66
916.302	6189.71
916.613	6174.8
916.925	6239.43
917.236	6144.06
917.548	6135.7
917.859	6132.31
918.171	6084.4
918.482	6031.52
918.794	6036.27
919.105	6021.8
919.416	5969.15
919.727	5963.05
920.038	5940.45
920.349	5903.39
920.66	5890.73
920.971	5879.89
921.282	5890.28
921.593	5774.13
921.903	5763.05
922.214	5744.75
922.525	5722.83
922.835	5708.59
923.146	5700.01
923.456	5698.88
923.767	5647.35
924.077	5648.71
924.387	5667.46
924.697	5622.95
925.008	5555.15
925.318	5595.6
925.628	5508.82
925.938	5512.44
926.248	5445.32
926.558	5450.29
926.867	5420.46
927.177	5428.37
927.487	5365.33
927.796	5368.94
928.106	5326
928.416	5302.95
928.725	5301.37
929.034	5283.07
929.344	5257.08
929.653	5237.64
929.962	5190.87
930.271	5164.2
930.581	5149.51
930.89	5105.67
931.199	5077.65
931.508	5086.46
931.817	5123.98
932.125	5049.4
932.434	5033.81
932.743	4970.08
933.051	5009.85
933.36	4966.47
933.669	4946.58
933.977	4914.49
934.286	4862.29
934.594	4887.6
934.902	4860.25
935.21	4840.59
935.519	4852.57
935.827	4808.96
936.135	4831.33
936.443	4714.95
936.751	4732.57
937.059	4753.14
937.367	4708.17
937.674	4722.86
937.982	4663.2
938.29	4577.78
938.597	4665.91
938.905	4582.29
939.213	4596.31
939.52	4555.18
939.827	4614.84
940.135	4531
940.442	4514.73
940.749	4538.23
941.056	4544.78
941.363	4476.99
941.67	4454.61
941.977	4392.7
942.284	4357.67
942.591	4363.54
942.898	4345.46
943.205	4382.98
943.511	4307.73
943.818	4313.15
944.125	4284.22
944.431	4235.19
944.738	4264.34
945.044	4210.78
945.35	4168.52
945.657	4206.03
945.963	4184.34
946.269	4152.7
946.575	4135.98
946.881	4113.61
947.187	4086.94
947.493	4062.99
947.799	4024.12
948.105	4076.09
948.41	4013.5
948.716	4043.55
949.022	4022.54
949.327	4004.68
949.633	3964.46
949.938	3919.94
950.244	3897.12
950.549	3911.58
950.854	3909.77
951.16	3884.46
951.465	3891.01
951.77	3845.59
952.075	3791.81
952.38	3806.5
952.685	3841.07
952.99	3777.57
953.294	3782.99
953.599	3758.81
953.904	3721.75
954.209	3757.46
954.513	3693.96
954.818	3691.7
955.122	3692.37
955.426	3656.44
955.731	3615.09
956.035	3633.62
956.339	3624.81
956.643	3595.43
956.948	3587.74
957.252	3553.85
957.556	3535.99
957.86	3538.93
958.163	3484.47
958.467	3548.42
958.771	3491.48
959.075	3474.75
959.378	3469.33
959.682	3441.99
959.985	3485.6
960.289	3422.33
960.592	3423.46
960.896	3414.42
961.199	3395.89
961.502	3411.25
961.805	3366.28
962.108	3334.19
962.411	3348.88
962.714	3308.43
963.017	3302.1
963.32	3278.83
963.623	3238.6
963.926	3294.87
964.228	3249
964.531	3231.6
964.833	3234.99
965.136	3206.96
965.438	3176.91
965.741	3159.96
966.043	3146.63
966.345	3178.94
966.648	3105.05
966.95	3151.6
967.252	3056.23
967.554	3085.84
967.856	3097.14
968.158	3077.02
968.46	3084.48
968.761	3010.81
969.063	3037.7
969.365	3043.13
969.666	2998.38
969.968	2957.7
970.269	2971.49
970.571	2929.68
970.872	2923.81
971.174	2925.39
971.475	2914.09
971.776	2902.56
972.077	2892.17
972.378	2886.75
972.679	2853.98
972.98	2879.74
973.281	2836.8
973.582	2847.88
973.883	2804.26
974.183	2811.04
974.484	2795.68
974.785	2792.74
975.085	2836.13
975.386	2797.26
975.686	2751.61
975.986	2726.07
976.287	2750.03
976.587	2726.75
976.887	2695.79
977.187	2699.18
977.487	2670.71
977.787	2658.05
978.087	2666.86
978.387	2640.42
978.687	2655.57
978.987	2621.22
979.286	2612.63
979.586	2608.11
979.885	2578.28
980.185	2558.85
980.484	2561.78
980.784	2564.49
981.083	2543.03
981.382	2498.28
981.682	2536.25
981.981	2525.85
982.28	2514.78
982.579	2512.74
982.878	2479.3
983.177	2490.37
983.475	2453.31
983.774	2422.35
984.073	2447.44
984.372	2405.63
984.67	2403.37
984.969	2409.02
985.267	2386.65
985.566	2367.44
985.864	2365.86
986.162	2363.37
986.461	2348.91
986.759	2311.39
987.057	2338.74
987.355	2331.96
987.653	2333.54
987.951	2299.87
988.249	2311.17
988.547	2257.61
988.844	2278.17
989.142	2275.69
989.44	2238.18
989.737	2238.18
990.035	2239.31
990.332	2221.9
990.63	2190.27
990.927	2190.95
991.224	2177.61
991.521	2192.53
991.819	2161.34
992.116	2144.84
992.413	2148.46
992.71	2091.06
993.006	2117.05
993.303	2131.29
993.6	2104.62
993.897	2113.66
994.193	2083.6
994.49	2065.98
994.787	2052.87
995.083	2078.18
995.379	2002.25
995.676	2049.48
995.972	2056.49
996.268	2038.63
996.565	2046.77
996.861	2002.7
997.157	1973.32
997.453	1972.42
997.749	1963.38
998.044	1945.3
998.34	1967.22
998.636	1915.7
998.932	1960.44
999.227	1903.95
999.523	1875.02
999.818	1885.19
1000.114	1877.51
1000.409	1869.15
1000.704	1879.09
1001	1864.17
1001.295	1804.06
1001.59	1833.21
1001.885	1833.67
1002.18	1841.58
1002.475	1800.22
1002.77	1806.32
1003.065	1818.75
1003.359	1839.54
1003.654	1765.65
1003.949	1789.15
1004.243	1761.8
1004.538	1736.95
1004.832	1739.88
1005.127	1743.5
1005.421	1743.95
1005.715	1718.87
1006.009	1713.44
1006.304	1686.55
1006.598	1689.72
1006.892	1698.53
1007.186	1677.06
1007.48	1655.37
1007.773	1647.46
1008.067	1641.81
1008.361	1621.47
1008.655	1647
1008.948	1618.98
1009.242	1616.05
1009.535	1608.81
1009.829	1595.93
1010.122	1580.11
1010.415	1616.05
1010.708	1545.31
1011.001	1564.52
1011.295	1559.78
1011.588	1550.96
1011.881	1517.97
1012.173	1540.11
1012.466	1541.47
1012.759	1526.78
1013.052	1503.96
1013.344	1521.36
1013.637	1462.6
1013.93	1484.3
1014.222	1485.65
1014.514	1468.48
1014.807	1469.38
1015.099	1449.95
1015.391	1436.16
1015.683	1449.5
1015.976	1424.86
1016.268	1393.45
1016.56	1413.11
1016.851	1387.58
1017.143	1369.95
1017.435	1402.72
1017.727	1359.33
1018.018	1327.69
1018.31	1357.29
1018.602	1340.35
1018.893	1344.19
1019.185	1315.94
1019.476	1321.59
1019.767	1326.34
1020.058	1281.36
1020.35	1282.04
1020.641	1300.35
1020.932	1253.79
1021.223	1276.84
1021.514	1253.34
1021.804	1230.07
1022.095	1250.18
1022.386	1259.44
1022.677	1221.48
1022.967	1223.74
1023.258	1191.2
1023.548	1180.58
1023.839	1194.59
1024.129	1202.5
1024.419	1172.21
1024.709	1203.85
1025	1188.26
1025.29	1164.08
1025.58	1148.26
1025.87	1136.96
1026.16	1141.48
1026.449	1126.57
1026.739	1120.69
1027.029	1111.65
1027.319	1110.07
1027.608	1099
1027.898	1089.28
1028.187	1093.12
1028.477	1084.76
1028.766	1080.92
1029.055	1075.72
1029.344	1044.31
1029.634	1046.79
1029.923	1060.13
1030.212	1054.25
1030.501	1035.04
1030.79	1046.12
1031.078	1009.96
1031.367	1033.46
1031.656	1000.24
1031.945	1006.57
1032.233	986.91
1032.522	993.46
1032.81	972.22
1033.099	1011.99
1033.387	970.41
1033.675	965.21
1033.963	965.89
1034.251	949.85
1034.54	947.59
1034.828	942.62
1035.116	944.88
1035.403	942.62
1035.691	927.7
1035.979	930.87
1036.267	921.83
1036.554	891.32
1036.842	889.06
1037.129	896.29
1037.417	913.01
1037.704	910.07
1037.992	893.35
1038.279	873.92
1038.566	869.17
1038.853	869.17
1039.14	869.17
