Data from hue_330_FLMS001491_75.txt Node
Date: Mon Feb 06 15:45:52 GMT 2017
User: dcchb
Spectrometer: FLMS00149
Trigger mode: 0
Integration Time (sec): 2.000000E-2
Scans to average: 10
Electric dark correction enabled: true
Nonlinearity correction enabled: false
Boxcar width: 0
XAxis mode: Wavelengths
Number of Pixels in Spectrum: 2048
>>>>>Begin Spectral Data<<<<<
341.393	-15.4
341.776	-15.4
342.16	-15.4
342.543	-56.75
342.927	-67.37
343.31	-78.9
343.693	-79.35
344.077	-68.95
344.46	-49.52
344.843	-51.1
345.226	-58.78
345.61	-47.94
345.993	-19.24
346.376	9.01
346.759	0.2
347.142	37.03
347.525	36.58
347.908	61.21
348.291	93.98
348.674	96.01
349.057	119.74
349.44	130.82
349.823	127.43
350.206	167.42
350.588	193.64
350.971	190.02
351.354	215.79
351.737	232.06
352.119	250.36
352.502	252.85
352.884	285.61
353.267	298.95
353.65	288.1
354.032	303.92
354.414	332.84
354.797	317.7
355.179	308.89
355.562	307.99
355.944	331.26
356.326	330.36
356.709	342.11
357.091	346.86
357.473	356.8
357.855	359.06
358.238	338.27
358.62	341.88
359.002	324.93
359.384	335.1
359.766	319.96
360.148	338.95
360.53	333.75
360.912	350.25
361.294	340.53
361.676	320.64
362.057	334.43
362.439	322
362.821	323.58
363.203	326.52
363.584	349.34
363.966	315.44
364.348	310.92
364.729	309.34
365.111	317.48
365.493	331.04
365.874	340.98
366.256	328.78
366.637	298.72
367.019	311.83
367.4	333.75
367.781	328.55
368.163	322.9
368.544	286.52
368.925	293.75
369.306	297.37
369.688	306.18
370.069	322.68
370.45	323.58
370.831	317.25
371.212	303.01
371.593	316.57
371.974	343.69
372.355	306.4
372.736	316.57
373.117	339.17
373.498	327.87
373.879	329.68
374.26	305.5
374.641	315.44
375.021	312.96
375.402	320.19
375.783	333.52
376.163	328.55
376.544	347.31
376.925	334.2
377.305	305.95
377.686	314.31
378.066	331.04
378.447	347.53
378.827	317.25
379.208	335.56
379.588	327.87
379.968	326.06
380.349	337.36
380.729	335.1
381.109	314.09
381.489	327.19
381.87	334.2
382.25	330.81
382.63	338.27
383.01	355.44
383.39	345.27
383.77	336.46
384.15	342.56
384.53	355.89
384.91	339.4
385.29	325.16
385.67	348.89
386.049	357.93
386.429	343.01
386.809	338.49
387.189	353.63
387.568	352.05
387.948	340.98
388.328	369
388.707	338.04
389.087	359.28
389.466	363.58
389.846	355.89
390.225	381.88
390.605	359.28
390.984	356.8
391.363	362
391.743	350.7
392.122	364.26
392.501	388.44
392.881	388.89
393.26	373.07
393.639	395.22
394.018	382.11
394.397	371.04
394.776	364.48
395.155	367.42
395.534	370.36
395.913	375.56
396.292	380.3
396.671	373.3
397.05	393.63
397.429	382.11
397.808	389.57
398.186	388.89
398.565	385.95
398.944	386.18
399.323	398.61
399.701	406.74
400.08	401.32
400.458	384.82
400.837	392.5
401.215	416.01
401.594	400.19
401.972	401.32
402.351	412.16
402.729	417.81
403.107	415.78
403.486	421.88
403.864	412.39
404.242	422.79
404.62	426.85
404.999	444.48
405.377	439.73
405.755	439.73
406.133	440.19
406.511	430.92
406.889	465.72
407.267	437.25
407.645	444.93
408.023	463.69
408.401	455.33
408.779	450.81
409.156	476.12
409.534	471.6
409.912	486.29
410.29	484.7
410.667	469.34
411.045	479.06
411.422	507.53
411.8	502.33
412.178	503.46
412.555	507.76
412.933	517.92
413.31	513.4
413.687	531.71
414.065	526.29
414.442	523.57
414.819	541.2
415.197	540.75
415.574	550.69
415.951	561.76
416.328	565.61
416.705	560.86
417.082	564.93
417.46	574.19
417.837	585.72
418.214	585.04
418.591	606.51
418.967	608.32
419.344	611.93
419.721	604.48
420.098	597.02
420.475	631.82
420.852	635.21
421.228	625.72
421.605	641.76
421.982	636.34
422.358	657.36
422.735	658.71
423.111	693.29
423.488	671.59
423.864	682.44
424.241	696.22
424.617	681.99
424.994	689.9
425.37	713.17
425.746	721.31
426.123	719.95
426.499	694.87
426.875	715.66
427.251	725.38
427.627	724.25
428.003	748.65
428.379	768.77
428.756	749.33
429.132	769.67
429.507	777.58
429.883	783.23
430.259	831.81
430.635	801.76
431.011	806.5
431.387	817.13
431.763	854.41
432.138	837.24
432.514	849.44
432.89	855.09
433.265	866.62
433.641	866.16
434.016	898.03
434.392	887.41
434.767	919.5
435.143	902.77
435.518	910.23
435.894	930.12
436.269	924.69
436.644	946.84
437.02	961.08
437.395	980.96
437.77	985.93
438.145	982.09
438.52	1007.18
438.895	1016.22
439.271	980.51
439.646	1032.04
440.021	1027.97
440.395	1014.63
440.77	1023.45
441.145	1001.75
441.52	1036.33
441.895	1037.68
442.27	1058.93
442.645	1047.18
443.019	1080.62
443.394	1054.63
443.769	1050.57
444.143	1076.78
444.518	1094.86
444.892	1110.45
445.267	1088.08
445.641	1100.28
446.016	1087.63
446.39	1113.39
446.764	1143.9
447.139	1120.39
447.513	1135.54
447.887	1153.84
448.262	1129.43
448.636	1149.55
449.01	1144.8
449.384	1171.92
449.758	1161.98
450.132	1180.28
450.506	1146.38
450.88	1178.25
451.254	1172.82
451.628	1191.13
452.002	1193.84
452.376	1191.13
452.75	1172.37
453.123	1220.05
453.497	1200.84
453.871	1219.37
454.244	1255.76
454.618	1240.62
454.992	1267.06
455.365	1271.58
455.739	1293.5
456.112	1290.79
456.486	1291.69
456.859	1307.96
457.232	1311.58
457.606	1348.18
457.979	1349.31
458.352	1325.81
458.725	1378.69
459.099	1379.82
459.472	1399.93
459.845	1410.56
460.218	1394.51
460.591	1438.8
460.964	1445.58
461.337	1440.39
461.71	1481.74
462.083	1477.9
462.456	1459.37
462.829	1514.06
463.201	1505.69
463.574	1502.31
463.947	1524.45
464.32	1557.67
464.692	1569.42
465.065	1569.2
465.438	1594.05
465.81	1584.11
466.183	1613.26
466.555	1659.36
466.928	1633.15
467.3	1641.74
467.672	1654.17
468.045	1676.09
468.417	1701.4
468.789	1722.41
469.161	1720.38
469.534	1751.56
469.906	1776.2
470.278	1804.44
470.65	1821.39
471.022	1853.26
471.394	1872.24
471.766	1863.43
472.138	1891.45
472.51	1921.28
472.882	1985.68
473.253	1931.67
473.625	1979.35
473.997	1999.24
474.369	2040.82
474.74	2026.81
475.112	2081.5
475.484	2098
475.855	2130.31
476.227	2125.11
476.598	2174.38
476.97	2215.51
477.341	2257.54
477.713	2247.14
478.084	2273.81
478.455	2317.2
478.827	2352.68
479.198	2383.86
479.569	2402.62
479.94	2424.31
480.311	2466.57
480.682	2529.4
481.053	2561.49
481.424	2582.95
481.795	2607.13
482.166	2645.33
482.537	2669.51
482.908	2704.99
483.279	2714.02
483.65	2777.98
484.021	2799.9
484.391	2804.19
484.762	2860.46
485.133	2876.51
485.503	2937.3
485.874	2960.35
486.244	3014.13
486.615	3052.09
486.985	3098.42
487.356	3168.02
487.726	3160.57
488.097	3188.36
488.467	3218.87
488.837	3266.55
489.207	3274.24
489.578	3348.36
489.948	3337.29
490.318	3436.94
490.688	3431.52
491.058	3469.49
491.428	3518.07
491.798	3536.6
492.168	3572.76
492.538	3598.3
492.908	3606.88
493.278	3680.1
493.648	3663.38
494.017	3720.1
494.387	3730.27
494.757	3757.16
495.126	3824.73
495.496	3814.33
495.866	3833.54
496.235	3849.81
496.605	3937.72
496.974	3933.2
497.344	3941.56
497.713	4024.05
498.082	4014.56
498.452	4013.88
498.821	4035.12
499.19	4054.33
499.559	4076.02
499.928	4114.44
500.298	4114.89
500.667	4152.86
501.036	4175
501.405	4207.54
501.774	4182.91
502.143	4234.66
502.512	4262.46
502.88	4236.92
503.249	4257.26
503.618	4334.32
503.987	4270.59
504.356	4358.95
504.724	4346.98
505.093	4364.83
505.462	4337.48
505.83	4365.51
506.199	4396.24
506.567	4443.7
506.936	4369.8
507.304	4489.8
507.672	4497.25
508.041	4503.13
508.409	4541.32
508.777	4542.68
509.145	4603.69
509.514	4585.16
509.882	4567.76
510.25	4649.34
510.618	4603.01
510.986	4635.1
511.354	4677.81
511.722	4717.59
512.09	4753.52
512.458	4719.4
512.826	4741.54
513.193	4796
513.561	4723.69
513.929	4809.79
514.297	4818.6
514.664	4817.47
515.032	4864.7
515.4	4889.33
515.767	4856.57
516.135	4845.95
516.502	4871.71
516.869	4937.47
517.237	4918.49
517.604	4907.41
517.972	4960.52
518.339	4969.78
518.706	4988.54
519.073	5001.42
519.44	5010.01
519.808	4998.03
520.175	4992.83
520.542	5098.59
520.909	5026.28
521.276	5103.11
521.643	5090.69
522.009	5168.2
522.376	5188.99
522.743	5155.77
523.11	5221.76
523.477	5250.68
523.843	5247.07
524.21	5314.41
524.577	5377.91
524.943	5330
525.31	5350.57
525.676	5401.86
526.043	5440.28
526.409	5423.78
526.776	5489.32
527.142	5487.96
527.508	5542.88
527.874	5546.04
528.241	5566.83
528.607	5571.35
528.973	5578.36
529.339	5622.87
529.705	5656.09
530.071	5744
530.437	5708.75
530.803	5767.96
531.169	5810.21
531.535	5810.67
531.901	5833.94
532.267	5880.5
532.632	5839.59
532.998	5920.49
533.364	5877.33
533.73	5949.65
534.095	5971.79
534.461	6002.07
534.826	6001.85
535.192	6039.36
535.557	6073.71
535.923	6129.75
536.288	6111.22
536.653	6153.93
537.019	6132.47
537.384	6194.61
537.749	6191.22
538.114	6261.73
538.479	6238.45
538.845	6273.93
539.21	6274.38
539.575	6335.85
539.94	6366.36
540.305	6365.23
540.67	6386.7
541.034	6445.23
541.399	6446.36
541.764	6476.41
542.129	6480.03
542.494	6542.62
542.858	6522.96
543.223	6591.21
543.587	6618.78
543.952	6682.28
544.316	6703.07
544.681	6652.68
545.045	6729.29
545.41	6803.18
545.774	6762.51
546.138	6755.5
546.503	6815.61
546.867	6820.58
547.231	6917.76
547.595	6914.37
547.959	6937.42
548.324	6995.95
548.688	6960.01
549.052	6996.17
549.416	7078.43
549.779	7039.11
550.143	7054.7
550.507	7061.48
550.871	7121.14
551.235	7122.5
551.599	7130.86
551.962	7167.47
552.326	7239.33
552.689	7206.56
553.053	7209.73
553.417	7228.03
553.78	7380.57
554.143	7284.75
554.507	7316.16
554.87	7326.56
555.234	7395.94
555.597	7389.38
555.96	7400.68
556.323	7454.69
556.686	7412.21
557.05	7499.89
557.413	7495.59
557.776	7527.91
558.139	7576.95
558.502	7574.24
558.865	7507.34
559.228	7638.64
559.59	7618.53
559.953	7655.14
560.316	7731.07
560.679	7703.95
561.041	7819.2
561.404	7825.75
561.767	7878.18
562.129	7781.91
562.492	7883.15
562.854	7910.5
563.217	7861.01
563.579	7914.79
563.941	7939.2
564.304	8009.25
564.666	7996.82
565.028	8035.24
565.39	8091.74
565.753	8092.87
566.115	8088.57
566.477	8115.46
566.839	8214.22
567.201	8249.02
567.563	8244.27
567.925	8270.49
568.287	8287.89
568.648	8308.45
569.01	8331.05
569.372	8379.64
569.734	8382.35
570.095	8514.32
570.457	8487.43
570.819	8532.4
571.18	8551.61
571.542	8664.15
571.903	8682.46
572.265	8727.88
572.626	8776.01
572.987	8798.61
573.349	8799.97
573.71	8875.44
574.071	8987.76
574.432	8967.65
574.794	9100.07
575.155	9111.6
575.516	9084.48
575.877	9242.44
576.238	9227.75
576.599	9344.81
576.96	9424.36
577.32	9504.81
577.681	9626.16
578.042	9703.45
578.403	9727.4
578.763	9855.08
579.124	9911.35
579.485	10081.06
579.845	10209.87
580.206	10255.07
580.566	10361.06
580.927	10516.31
581.287	10649.41
581.648	10667.71
582.008	10925.56
582.368	10994.94
582.728	11192.9
583.089	11366.9
583.449	11528.48
583.809	11771.87
584.169	11874.01
584.529	11982.93
584.889	12302.7
585.249	12523.03
585.609	12651.16
585.969	12910.14
586.329	12973.87
586.688	13306.51
587.048	13586.06
587.408	13735.43
587.768	13902.43
588.127	14191.01
588.487	14377.22
588.846	14740.38
589.206	14887.49
589.565	15131.1
589.925	15541.94
590.284	15659
590.643	15982.38
591.003	16269.6
591.362	16548.01
591.721	16709.59
592.08	17006.08
592.44	17382.79
592.799	17636.8
593.158	17813.74
593.517	18182.77
593.876	18503.89
594.235	18782.08
594.593	19058
594.952	19305.45
595.311	19610.3
595.67	19913.8
596.029	20253.22
596.387	20572.54
596.746	20879.42
597.104	21059.31
597.463	21388.34
597.822	21694.09
598.18	21913.07
598.538	22291.14
598.897	22568.42
599.255	22655.2
599.613	23323.65
599.972	23407.49
600.33	23695.62
600.688	23833.24
601.046	24296.28
601.404	24643.39
601.762	24860.11
602.12	25157.05
602.478	25454.44
602.836	25658.28
603.194	25829.58
603.552	26116.12
603.91	26223.46
604.268	26643.79
604.625	26793.62
604.983	27132.14
605.341	27242.19
605.698	27683.54
606.056	27786.81
606.413	28108.39
606.771	28476.74
607.128	28611.2
607.485	28689.16
607.843	28969.83
608.2	29264.29
608.557	29543.83
608.914	29714.67
609.272	29970.71
609.629	30078.73
609.986	30432.39
610.343	30403.01
610.7	31011.59
611.057	31083.9
611.414	31203.67
611.771	31396.89
612.127	31719.59
612.484	31909.19
612.841	32129.07
613.198	32111.67
613.554	32293.36
613.911	32569.28
614.267	32677.3
614.624	32867.36
614.98	33108.25
615.337	33388.47
615.693	33428.25
616.05	33492.42
616.406	33794.34
616.762	33803.38
617.118	34028.91
617.475	34144.84
617.831	34267.55
618.187	34395.23
618.543	34653.52
618.899	34852.16
619.255	35010.35
619.611	34960.63
619.967	35143.23
620.323	35359.95
620.678	35269.55
621.034	35340.74
621.39	35508.19
621.746	35496.89
622.101	36005.13
622.457	35726.94
622.812	35992.02
623.168	36013.26
623.523	36189.75
623.879	36323.08
624.234	36271.56
624.589	36549.97
624.945	36573.02
625.3	36628.84
625.655	36657.54
626.01	36778.44
626.365	37005.78
626.72	36901.83
627.075	37075.61
627.43	36954.25
627.785	37018.21
628.14	37154.48
628.495	37322.61
628.85	37212.1
629.205	37297.52
629.559	37478.31
629.914	37317.86
630.269	37465.65
630.623	37242.16
630.978	37406.9
631.332	37548.36
631.687	37702.71
632.041	37520.57
632.396	37571.41
632.75	37463.85
633.104	37607.34
633.459	37435.37
633.813	37571.64
634.167	37655.48
634.521	37598.31
634.875	37741.58
635.229	37688.92
635.583	37594.24
635.937	37658.42
636.291	37465.2
636.645	37623.84
636.999	37586.55
637.352	37764.63
637.706	37548.81
638.06	37739.54
638.413	37570.28
638.767	37568.7
639.121	37617.97
639.474	37412.77
639.828	37535.93
640.181	37593.11
640.534	37617.29
640.888	37627.91
641.241	37394.69
641.594	37429.72
641.947	37630.39
642.301	37507.01
642.654	37580.9
643.007	37570.06
643.36	37611.19
643.713	37384.75
644.066	37722.82
644.419	37369.61
644.771	37176.85
645.124	36809.17
645.477	36917.87
645.83	36585.45
646.182	36460.93
646.535	36412.12
646.888	36540.48
647.24	36248.74
647.593	36464.78
647.945	36407.6
648.298	36176.87
648.65	36268.17
649.002	36256.19
649.355	36455.51
649.707	36269.98
650.059	36495.51
650.411	36792.45
650.763	36845.78
651.115	37344.3
651.467	37219.33
651.819	37226.11
652.171	37059.11
652.523	37057.08
652.875	36981.37
653.227	36920.81
653.578	37167.58
653.93	37090.3
654.282	36895.72
654.633	36910.87
654.985	36970.53
655.337	36841.71
655.688	37011.88
656.039	37165.1
656.391	36904.76
656.742	36772.79
657.094	36896.85
657.445	36991.54
657.796	36993.12
658.147	36936.63
658.498	36825.22
658.849	36961.26
659.2	36821.83
659.551	36594.94
659.902	36949.51
660.253	36928.27
660.604	36908.61
660.955	36707.71
661.306	36867.93
661.656	36724.43
662.007	36775.28
662.358	36750.19
662.708	36761.49
663.059	36750.42
663.409	36567.82
663.76	36951.54
664.11	36709.29
664.461	36900.24
664.811	36689.85
665.161	36748.84
665.511	36615.28
665.862	36827.03
666.212	36838.33
666.562	36773.92
666.912	36776.41
667.262	36796.07
667.612	36690.53
667.962	36726.01
668.312	36568.5
668.662	36813.02
669.011	36734.6
669.361	36764.43
669.711	36824.99
670.06	36523.98
670.41	36524.21
670.76	36502.06
671.109	36661.38
671.459	36640.14
671.808	36497.54
672.157	36571.44
672.507	36458.67
672.856	36445.34
673.205	36488.28
673.554	36491.44
673.904	36422.06
674.253	36578.44
674.602	36483.08
674.951	35846.94
675.3	35846.94
675.649	36298.9
675.998	36282.63
676.346	36285.12
676.695	36486.24
677.044	35999.7
677.393	36301.16
677.741	36389.98
678.09	36098.23
678.438	36063.88
678.787	36220.49
679.135	36097.33
679.484	35860.27
679.832	36094.84
680.181	36039.02
680.529	36021.85
680.877	35914.96
681.225	35888.52
681.573	36114.95
681.922	35792.7
682.27	35693.72
682.618	35810.33
682.966	35631.8
683.314	35685.14
683.661	35545.25
684.009	35434.75
684.357	35431.13
684.705	35333.73
685.053	35422.09
685.4	35317.91
685.748	35166.05
686.095	35178.71
686.443	35042.21
686.79	35036.79
687.138	35157.24
687.485	35034.98
687.832	34978.94
688.18	34883.35
688.527	34831.15
688.874	34831.15
689.221	34763.8
689.568	34637.93
689.915	34535.11
690.262	34569.01
690.609	34368.33
690.956	34401.33
691.303	34270.03
691.65	34095.8
691.997	34069.13
692.344	33996.82
692.69	33991.85
693.037	34034.56
693.383	33748.24
693.73	33851.51
694.077	33629.37
694.423	33750.5
694.769	33572.65
695.116	33478.87
695.462	33394.8
695.808	33307.12
696.155	33439.09
696.501	33055.83
696.847	33219.66
697.193	32980.12
697.539	33114.58
697.885	32880.46
698.231	32771.31
698.577	32584.43
698.923	32683.18
699.269	32439.34
699.614	32375.17
699.96	32337.88
700.306	32254.94
700.651	32134.95
700.997	32197.09
701.342	32133.59
701.688	32021.05
702.033	32064.21
702.379	31816.54
702.724	31776.31
703.069	31751.45
703.415	31575.86
703.76	31505.13
704.105	31439.15
704.45	31521.63
704.795	31391.01
705.14	31217.68
705.485	31184.91
705.83	31100.62
706.175	31143.56
706.52	30995.54
706.865	30907.41
707.209	30876.45
707.554	30729.56
707.899	30908.99
708.243	30609.56
708.588	30495.67
708.932	30298.16
709.277	30365.28
709.621	30464.26
709.966	30221.32
710.31	30337.93
710.654	30043.48
710.998	30110.14
711.342	30010.93
711.687	29997.83
712.031	29962.57
712.375	29735.01
712.719	29842.35
713.063	29803.03
713.407	29862.92
713.75	29662.47
714.094	29693.2
714.438	29621.57
714.782	29566.65
715.125	29332.76
715.469	29489.14
715.812	29314.23
716.156	29082.37
716.499	29270.39
716.843	29226.1
717.186	29142.03
717.53	29175.25
717.873	29094.12
718.216	29084.86
718.559	28925.76
718.902	28722.15
719.246	28910.4
719.589	28739.33
719.932	28619.56
720.275	28664.98
720.617	28507.24
720.96	28489.62
721.303	28500.47
721.646	28511.76
721.989	28413.24
722.331	28451.2
722.674	28334.37
723.016	28345.89
723.359	28233.58
723.701	28323.75
724.044	28086.01
724.386	28058.89
724.729	28030.87
725.071	27883.76
725.413	28013.7
725.755	28027.94
726.097	27670.2
726.439	27685.12
726.782	27753.37
727.124	27851.67
727.465	27709.07
727.807	27681.05
728.149	27528.06
728.491	27447.61
728.833	27487.61
729.175	27434.73
729.516	27454.62
729.858	27442.41
730.199	27386.14
730.541	27338.91
730.882	27291.23
731.224	27246.94
731.565	27098.47
731.906	27125.36
732.248	27134.17
732.589	26921.07
732.93	27091.69
733.271	26961.75
733.612	27075.64
733.953	26923.56
734.294	26874.97
734.635	26769.21
734.976	26894.63
735.317	26778.48
735.658	26607.18
735.999	26659.84
736.339	26744.58
736.68	26644.47
737.021	26550.91
737.361	26543
737.702	26576.22
738.042	26624.36
738.383	26385.49
738.723	26554.3
739.063	26329.67
739.404	26459.84
739.744	26289.68
740.084	26330.35
740.424	26357.47
740.764	26142.34
741.104	26370.35
741.444	26094.2
741.784	26052.62
742.124	26062.56
742.464	25955
742.804	25904.6
743.143	25922.23
743.483	25929.91
743.823	25709.13
744.162	25726.07
744.502	25834.32
744.841	25706.87
745.181	25743.48
745.52	25565.18
745.86	25696.7
746.199	25538.96
746.538	25560.43
746.877	25553.42
747.216	25493.31
747.556	25443.14
747.895	25457.61
748.234	25460.09
748.573	25284.05
748.911	25268.69
749.25	25254.22
749.589	25112.53
749.928	25227.33
750.267	25111.4
750.605	25108.24
750.944	25032.31
751.283	24938.3
751.621	25016.72
751.96	24812.65
752.298	24864.85
752.636	24769.72
752.975	24772.43
753.313	24631.87
753.651	24766.55
753.989	24645.43
754.327	24555.71
754.666	24394.36
755.004	24467.35
755.342	24443.17
755.679	24506.22
756.017	24318.43
756.355	24288.6
756.693	24194.36
757.031	24269.39
757.368	24012.67
757.706	24183.74
758.044	23988.27
758.381	24000.02
758.719	23771.55
759.056	23951.21
759.394	23765.67
759.731	23620.37
760.068	23662.85
760.405	23455.17
760.743	23576.08
761.08	23584.44
761.417	23304.22
761.754	23252.47
762.091	23212.24
762.428	23149.19
762.765	23056.99
763.102	23048.18
763.438	22908.52
763.775	22797.11
764.112	22814.74
764.449	22868.3
764.785	22774.29
765.122	22467.4
765.458	22517.35
765.795	22473.51
766.131	22469.44
766.467	22414.75
766.804	22199.39
767.14	22077.36
767.476	22192.83
767.812	22027.87
768.148	22106.51
768.485	21867.19
768.821	21751.26
769.157	21807.31
769.492	21676.92
769.828	21619.29
770.164	21397.6
770.5	21440.31
770.836	21495.23
771.171	21364.83
771.507	21305.85
771.842	21185.4
772.178	21099.3
772.513	21056.37
772.849	20960.1
773.184	20836.26
773.519	20832.64
773.855	20805.75
774.19	20720.1
774.525	20541.13
774.86	20573.44
775.195	20506.33
775.53	20457.51
775.865	20289.38
776.2	20204.64
776.535	20028.82
776.87	20038.31
777.205	19966
777.539	19844.65
777.874	19910.63
778.209	19765.55
778.543	19709.51
778.878	19595.16
779.212	19649.4
779.547	19472.23
779.881	19493.7
780.215	19378.67
780.55	19552.45
780.884	19169.19
781.218	19339.8
781.552	19109.53
781.886	19118.57
782.22	19015.97
782.554	18911.56
782.888	18812.13
783.222	18707.95
783.556	18543.89
783.889	18587.28
784.223	18489.66
784.557	18405.82
784.89	18495.98
785.224	18445.81
785.557	18288.08
785.891	18186.16
786.224	18237.23
786.558	18190.23
786.891	17994.53
787.224	17824.36
787.557	17893.74
787.891	17954.98
788.224	17806.51
788.557	17809.22
788.89	17673.63
789.223	17690.81
789.556	17531.04
789.888	17514.09
790.221	17446.74
790.554	17305.05
790.887	17266.64
791.219	17242.23
791.552	17212.63
791.884	17188.9
792.217	17033.2
792.549	17009.69
792.882	16921.33
793.214	16894.67
793.546	16919.07
793.879	16737.84
794.211	16658.97
794.543	16746.42
794.875	16639.08
795.207	16708.91
795.539	16562.47
795.871	16525.64
796.203	16340.56
796.535	16313.67
796.867	16208.59
797.198	16197.96
797.53	16195.7
797.862	16103.96
798.193	16114.12
798.525	15969.5
798.856	16028.25
799.188	15890.18
799.519	15775.15
799.85	15798.88
800.182	15761.37
800.513	15709.62
800.844	15629.17
801.175	15580.58
801.506	15598.43
801.837	15531.31
802.168	15487.7
802.499	15498.1
802.83	15421.94
803.161	15355.95
803.491	15261.94
803.822	15374.71
804.153	15264.43
804.483	15119.8
804.814	15077.09
805.145	15078.67
805.475	14995.51
805.805	14958.45
806.136	15003.19
806.466	14965.68
806.796	14885.91
807.126	14749.64
807.457	14767.95
807.787	14732.69
808.117	14680.94
808.447	14597.55
808.777	14619.25
809.107	14603.2
809.436	14527.27
809.766	14517.1
810.096	14481.85
810.426	14355.98
810.755	14339.71
811.085	14324.34
811.414	14330.67
811.744	14195.53
812.073	14259.26
812.403	14183.1
812.732	14092.71
813.061	14103.78
813.39	14019.49
813.719	13942.2
814.049	14054.52
814.378	14031.69
814.707	13921.19
815.036	13928.19
815.365	13796.67
815.693	13784.02
816.022	13786.28
816.351	13721.19
816.68	13619.27
817.008	13685.49
817.337	13539.28
817.665	13546.73
817.994	13572.27
818.322	13507.19
818.651	13492.05
818.979	13412.5
819.307	13487.53
819.636	13371.6
819.964	13303.35
820.292	13401.65
820.62	13369.11
820.948	13314.42
821.276	13369.56
821.604	13228.55
821.932	13331.37
822.259	13332.28
822.587	13274.65
822.915	13253.18
823.243	13253.86
823.57	13306.74
823.898	13264.03
824.225	13205.5
824.553	13222
824.88	13223.8
825.207	13224.26
825.535	13202.79
825.862	13200.98
826.189	13198.49
826.516	13222.9
826.843	13290.24
827.17	13199.85
827.497	13277.36
827.824	13245.95
828.151	13267.19
828.478	13221.32
828.805	13289.57
829.131	13226.97
829.458	13210.7
829.785	13109.23
830.111	13200.08
830.438	13207.99
830.764	13178.38
831.09	13160.3
831.417	13061.32
831.743	13245.5
832.069	13198.27
832.395	13047.54
832.722	13219.29
833.048	13165.05
833.374	13111.94
833.7	13061.55
834.026	13159.17
834.351	13030.59
834.677	13124.37
835.003	13072.62
835.329	13013.41
835.654	13048.67
835.98	12982.91
836.306	12878.28
836.631	12930.93
836.956	12986.75
837.282	12969.8
837.607	12924.83
837.932	12857.03
838.258	12828.11
838.583	12783.59
838.908	12733.42
839.233	12825.4
839.558	12751.05
839.883	12729.13
840.208	12673.76
840.533	12680.54
840.858	12688
841.182	12635.57
841.507	12659.98
841.832	12587.66
842.156	12564.39
842.481	12549.25
842.805	12475.8
843.13	12461.79
843.454	12427.22
843.778	12380.89
844.103	12339.31
844.427	12312.64
844.751	12334.79
845.075	12387.89
845.399	12247.56
845.723	12264.28
846.047	12121.01
846.371	12065.64
846.695	12057.96
847.019	12038.75
847.343	11962.82
847.666	11856.38
847.99	11841.92
848.313	11818.64
848.637	11771.64
848.96	11772.77
849.284	11702.04
849.607	11631.76
849.931	11641.02
850.254	11554.02
850.577	11467.24
850.9	11401.25
851.223	11394.47
851.546	11326.91
851.869	11303.18
852.192	11326.91
852.515	11281.03
852.838	11224.99
853.161	11128.94
853.483	11068.83
853.806	11079.23
854.129	11067.25
854.451	11059.34
854.774	10937.54
855.096	10924.2
855.419	10911.32
855.741	10844.21
856.063	10782.51
856.385	10749.97
856.708	10716.3
857.03	10711.78
857.352	10699.58
857.674	10654.61
857.996	10607.83
858.318	10561.5
858.64	10564.89
858.961	10594.95
859.283	10553.59
859.605	10535.06
859.926	10453.93
860.248	10449.41
860.57	10402.64
860.891	10422.52
861.212	10323.54
861.534	10309.31
861.855	10364.22
862.176	10271.11
862.498	10301.4
862.819	10296.88
863.14	10227.27
863.461	10216.65
863.782	10197.67
864.103	10182.08
864.424	10144.11
864.745	10138.24
865.065	10061.63
865.386	10105.24
865.707	10066.83
866.027	10043.78
866.348	10022.99
866.668	10022.76
866.989	9983.44
867.309	9893.72
867.63	9935.53
867.95	10000.39
868.27	9887.4
868.59	9872.48
868.91	9890.33
869.23	9831.13
869.55	9859.37
869.87	9856.89
870.19	9854.18
870.51	9841.29
870.83	9835.87
871.15	9778.7
871.469	9771.69
871.789	9766.27
872.109	9754.97
872.428	9692.82
872.748	9705.93
873.067	9655.54
873.386	9686.04
873.706	9670.45
874.025	9617.12
874.344	9671.13
874.663	9652.15
874.982	9573.73
875.301	9535.54
875.62	9575.09
875.939	9519.5
876.258	9551.59
876.577	9512.94
876.896	9468.65
877.214	9409.89
877.533	9454.19
877.852	9455.32
878.17	9437.92
878.489	9437.46
878.807	9371.48
879.125	9366.28
879.444	9387.52
879.762	9353.62
880.08	9394.98
880.398	9326.28
880.716	9321.99
881.034	9239.05
881.352	9329.44
881.67	9238.37
881.988	9231.37
882.306	9173.52
882.624	9140.75
882.941	9123.8
883.259	9135.32
883.577	9109.11
883.894	9123.57
884.212	9050.81
884.529	9034.31
884.846	8986.18
885.164	8995.44
885.481	9014.42
885.798	9031.82
886.115	8963.58
886.432	8921.55
886.75	8885.84
887.067	8906.18
887.383	8810.36
887.7	8867.99
888.017	8777.59
888.334	8825.05
888.651	8759.06
888.967	8742.79
889.284	8690.82
889.6	8688.1
889.917	8605.4
890.233	8672.06
890.55	8635.22
890.866	8599.75
891.182	8554.78
891.498	8542.35
891.815	8579.63
892.131	8528.34
892.447	8453.99
892.763	8440.43
893.079	8466.87
893.395	8405.85
893.71	8402.91
894.026	8392.07
894.342	8421.45
894.657	8292.86
894.973	8268.91
895.289	8311.84
895.604	8260.55
895.92	8181.45
896.235	8163.37
896.55	8182.36
896.865	8198.63
897.181	8130.61
897.496	8077.05
897.811	8113.88
898.126	8040.66
898.441	7994.56
898.756	7990.95
899.071	7914.57
899.386	7885.19
899.7	7816.72
900.015	7836.15
900.33	7802.48
900.644	7791.86
900.959	7797.96
901.273	7721.58
901.588	7687.68
901.902	7641.58
902.216	7622.6
902.531	7632.54
902.845	7571.07
903.159	7601.35
903.473	7518.87
903.787	7531.07
904.101	7411.98
904.415	7436.16
904.729	7393.45
905.042	7335.82
905.356	7317.52
905.67	7367.91
905.984	7303.28
906.297	7257.18
906.611	7259.22
906.924	7277.29
907.237	7207.47
907.551	7155.04
907.864	7127.24
908.177	7148.71
908.491	7091.54
908.804	7065.55
909.117	7005.44
909.43	6947.13
909.743	7009.5
910.056	6920.92
910.368	6911.2
910.681	6887.25
910.994	6844.99
911.307	6810.19
911.619	6782.39
911.932	6817.19
912.244	6775.61
912.557	6757.99
912.869	6683.64
913.181	6641.38
913.494	6682.51
913.806	6628.72
914.118	6597.76
914.43	6579.91
914.742	6536.75
915.054	6520.03
915.366	6488.16
915.678	6449.29
915.99	6442.29
916.302	6349.41
916.613	6345.12
916.925	6355.96
917.236	6287.94
917.548	6301.95
917.859	6344.66
918.171	6238.68
918.482	6228.06
918.794	6185.8
919.105	6211.11
919.416	6172.01
919.727	6112.13
920.038	6118.23
920.349	6079.36
920.66	5991.9
920.971	6013.15
921.282	6037.78
921.593	5969.76
921.903	5999.81
922.214	5952.81
922.525	5915.07
922.835	5870.55
923.146	5853.38
923.456	5877.56
923.767	5826.71
924.077	5791.01
924.387	5743.78
924.697	5732.25
925.008	5748.52
925.318	5688.18
925.628	5764.57
925.938	5664
926.248	5612.48
926.558	5602.54
926.867	5572.93
927.177	5532.93
927.487	5518.47
927.796	5486.61
928.106	5499.49
928.416	5447.51
928.725	5413.84
929.034	5390.11
929.344	5399.6
929.653	5373.84
929.962	5370.68
930.271	5329.1
930.581	5302.88
930.89	5271.7
931.199	5226.05
931.508	5224.69
931.817	5193.51
932.125	5227.86
932.434	5136.33
932.743	5166.84
933.051	5111.48
933.36	5096.11
933.669	5028.77
933.977	5075.09
934.286	5043.91
934.594	5014.98
934.902	4976.56
935.21	4968.43
935.519	4958.94
935.827	4927.75
936.135	4860.86
936.443	4891.82
936.751	4870.8
937.059	4836
937.367	4818.38
937.674	4762.33
937.982	4773.63
938.29	4742.45
938.597	4757.36
938.905	4709.9
939.213	4675.33
939.52	4704.93
939.827	4659.51
940.135	4671.04
940.442	4626.06
940.749	4619.74
941.056	4564.15
941.363	4552.85
941.67	4550.36
941.977	4520.08
942.284	4468.55
942.591	4488.89
942.898	4449.57
943.205	4406.41
943.511	4422.45
943.818	4440.08
944.125	4369.8
944.431	4375.9
944.738	4325.28
945.044	4343.81
945.35	4292.74
945.657	4276.02
945.963	4244.61
946.269	4320.31
946.575	4264.94
946.881	4164.61
947.187	4239.63
947.493	4224.95
947.799	4161.44
948.105	4177.94
948.41	4130.26
948.716	4131.16
949.022	4110.37
949.327	4093.42
949.633	4065.85
949.938	4050.26
950.244	4022.46
950.549	3993.09
950.854	4003.48
951.16	4003.93
951.465	3959.19
951.77	3934.11
952.075	3915.35
952.38	3927.55
952.685	3910.15
952.99	3876.03
953.294	3873.99
953.599	3880.55
953.904	3841.45
954.209	3805.75
954.513	3830.83
954.818	3769.14
955.122	3762.81
955.426	3716.03
955.731	3761.91
956.035	3647.56
956.339	3706.77
956.643	3652.76
956.948	3674.45
957.252	3644.17
957.556	3667.45
957.86	3617.96
958.163	3606.2
958.467	3604.17
958.771	3554.23
959.075	3584.06
959.378	3543.38
959.682	3546.09
959.985	3516.94
960.289	3501.57
960.592	3474.46
960.896	3448.47
961.199	3453.89
961.502	3462.03
961.805	3429.03
962.108	3407.79
962.411	3396.04
962.714	3363.5
963.017	3335.25
963.32	3353.33
963.623	3327.12
963.926	3347.45
964.228	3316.27
964.531	3303.39
964.833	3248.25
965.136	3235.14
965.438	3223.84
965.741	3224.29
966.043	3215.93
966.345	3217.97
966.648	3189.72
966.95	3173
967.252	3161.7
967.554	3141.81
967.856	3140
968.158	3123.28
968.46	3106.78
968.761	3068.37
969.063	3093.22
969.365	3061.59
969.666	3095.71
969.968	3082.15
970.269	3022.94
970.571	2999.21
970.872	2988.37
971.174	2991.76
971.475	2988.14
971.776	2984.07
972.077	2920.57
972.378	2965.77
972.679	2914.02
972.98	2913.34
973.281	2908.14
973.582	2908.37
973.883	2854.81
974.183	2845.09
974.484	2834.25
974.785	2834.25
975.085	2873.79
975.386	2814.14
975.686	2789.73
975.986	2782.27
976.287	2755.83
976.587	2738.66
976.887	2735.04
977.187	2769.39
977.487	2730.07
977.787	2715.38
978.087	2710.18
978.387	2666.34
978.687	2712.89
978.987	2673.12
979.286	2657.08
979.586	2655.27
979.885	2638.77
980.185	2628.38
980.484	2594.03
980.784	2607.13
981.083	2591.99
981.382	2584.08
981.682	2588.6
981.981	2581.82
982.28	2538.44
982.579	2531.2
982.878	2559.9
983.177	2512.45
983.475	2513.58
983.774	2525.56
984.073	2495.27
984.372	2486.01
984.67	2485.33
984.969	2485.78
985.267	2445.33
985.566	2441.04
985.864	2432.22
986.162	2397.87
986.461	2412.11
986.759	2421.83
987.057	2387.48
987.355	2334.83
987.653	2373.92
987.951	2349.74
988.249	2312.23
988.547	2340.48
988.844	2312.23
989.142	2305.45
989.44	2302.96
989.737	2257.77
990.035	2248.5
990.332	2299.12
990.63	2271.55
990.927	2240.36
991.224	2240.36
991.521	2231.33
991.819	2215.05
992.116	2225.45
992.413	2168.28
992.71	2169.41
993.006	2190.65
993.303	2175.73
993.6	2142.74
993.897	2148.16
994.193	2132.8
994.49	2113.14
994.787	2108.84
995.083	2081.72
995.379	2110.65
995.676	2079.47
995.972	2105.68
996.268	2066.13
996.565	2071.78
996.861	2020.03
997.157	2002.4
997.453	2032.91
997.749	1996.3
998.044	1974.61
998.34	2028.39
998.636	1966.02
998.932	1982.97
999.227	1985.91
999.523	1971.9
999.818	1944.55
1000.114	1933.48
1000.409	1918.11
1000.704	1919.02
1001	1916.08
1001.295	1889.19
1001.59	1870.66
1001.885	1886.25
1002.18	1898.23
1002.475	1859.81
1002.77	1879.47
1003.065	1836.76
1003.359	1850.54
1003.654	1805.12
1003.949	1821.39
1004.243	1809.42
1004.538	1766.93
1004.832	1774.84
1005.127	1770.32
1005.421	1748.85
1005.715	1774.39
1006.009	1735.52
1006.304	1741.39
1006.598	1721.51
1006.892	1732.36
1007.186	1700.04
1007.48	1728.06
1007.773	1685.8
1008.067	1702.53
1008.361	1668.18
1008.655	1636.54
1008.948	1660.49
1009.242	1631.57
1009.535	1617.56
1009.829	1619.14
1010.122	1633.15
1010.415	1613.49
1010.708	1578.24
1011.001	1616.43
1011.295	1576.43
1011.588	1565.81
1011.881	1542.98
1012.173	1546.6
1012.466	1535.75
1012.759	1550.89
1013.052	1539.82
1013.344	1525.36
1013.637	1537.33
1013.93	1468.18
1014.222	1519.93
1014.514	1498.92
1014.807	1468.18
1015.099	1464.79
1015.391	1460.72
1015.683	1456.2
1015.976	1445.81
1016.268	1421.63
1016.56	1390.44
1016.851	1455.75
1017.143	1414.4
1017.435	1381.63
1017.727	1386.15
1018.018	1407.62
1018.31	1367.85
1018.602	1368.98
1018.893	1361.52
1019.185	1351.12
1019.476	1353.16
1019.767	1335.53
1020.058	1318.36
1020.35	1333.5
1020.641	1277.23
1020.932	1307.06
1021.223	1319.26
1021.514	1279.03
1021.804	1286.94
1022.095	1257.57
1022.386	1251.01
1022.677	1291.01
1022.967	1263.89
1023.258	1273.61
1023.548	1225.25
1023.839	1220.5
1024.129	1221.63
1024.419	1204.46
1024.709	1174.4
1025	1215.31
1025.29	1204.46
1025.58	1166.95
1025.87	1158.81
1026.16	1162.65
1026.449	1188.87
1026.739	1144.12
1027.029	1114.52
1027.319	1126.27
1027.608	1137.34
1027.898	1125.37
1028.187	1125.59
1028.477	1102.54
1028.766	1095.99
1029.055	1093.73
1029.344	1088.76
1029.634	1076.1
1029.923	1063.22
1030.212	1091.47
1030.501	1085.59
1030.79	1067.97
1031.078	1035.42
1031.367	1043.11
1031.656	1045.37
1031.945	1010.79
1032.233	1012.37
1032.522	1008.08
1032.81	1032.04
1033.099	987.29
1033.387	1007.63
1033.675	984.13
1033.963	983.45
1034.251	956.33
1034.54	990
1034.828	967.63
1035.116	953.17
1035.403	964.24
1035.691	945.71
1035.979	953.62
1036.267	912.72
1036.554	946.39
1036.842	931.47
1037.129	907.29
1037.417	902.09
1037.704	910.68
1037.992	903.45
1038.279	880.17
1038.566	888.08
1038.853	888.08
1039.14	888.08
