Data from hue_24_FLMS001491_00089.txt Node
Date: Tue Feb 07 17:12:53 GMT 2017
User: dcchb
Spectrometer: FLMS00149
Trigger mode: 0
Integration Time (sec): 2.000000E-2
Scans to average: 10
Electric dark correction enabled: true
Nonlinearity correction enabled: false
Boxcar width: 0
XAxis mode: Wavelengths
Number of Pixels in Spectrum: 2048
>>>>>Begin Spectral Data<<<<<
341.393	-20.97
341.776	-20.97
342.16	-20.97
342.543	-70.01
342.927	-70.69
343.31	-72.72
343.693	-73.85
344.077	-54.87
344.46	-44.02
344.843	-40.86
345.226	-46.28
345.61	-34.08
345.993	-31.37
346.376	-7.87
346.759	3.21
347.142	30.1
347.525	53.6
347.908	52.92
348.291	77.78
348.674	100.38
349.057	87.95
349.44	97.44
349.823	129.3
350.206	155.07
350.588	210.88
350.971	204.56
351.354	213.37
351.737	250.88
352.119	262.86
352.502	242.3
352.884	268.28
353.267	273.03
353.65	279.81
354.032	297.44
354.414	325.46
354.797	319.58
355.179	320.71
355.562	316.42
355.944	339.02
356.326	323.65
356.709	322.07
357.091	356.87
357.473	331.56
357.855	355.06
358.238	329.07
358.62	330.66
359.002	353.03
359.384	341.05
359.766	342.18
360.148	342.86
360.53	346.7
360.912	345.34
361.294	337.89
361.676	326.59
362.057	329.98
362.439	335.17
362.821	325.46
363.203	322.75
363.584	323.42
363.966	319.58
364.348	328.62
364.729	328.85
365.111	307.6
365.493	328.85
365.874	326.59
366.256	317.32
366.637	297.66
367.019	291.11
367.4	310.77
367.781	311.22
368.163	319.36
368.544	318.45
368.925	334.27
369.306	333.59
369.688	297.89
370.069	336.98
370.45	320.03
370.831	313.25
371.212	298.11
371.593	318.68
371.974	340.37
372.355	336.3
372.736	336.3
373.117	338.56
373.498	296.76
373.879	329.3
374.26	305.12
374.641	320.26
375.021	341.28
375.402	324.33
375.783	327.49
376.163	341.73
376.544	332.01
376.925	348.51
377.305	334.95
377.686	331.11
378.066	322.52
378.447	316.42
378.827	304.67
379.208	300.6
379.588	340.37
379.968	323.65
380.349	334.5
380.729	338.79
381.109	342.18
381.489	340.82
381.87	327.49
382.25	318
382.63	335.4
383.01	341.73
383.39	348.28
383.77	336.98
384.15	355.29
384.53	346.25
384.91	333.14
385.29	359.13
385.67	349.41
386.049	355.29
386.429	328.4
386.809	332.69
387.189	357.32
387.568	347.83
387.948	365.68
388.328	349.86
388.707	358.9
389.087	342.41
389.466	351.22
389.846	390.99
390.225	361.16
390.605	374.5
390.984	368.85
391.363	383.08
391.743	378.34
392.122	359.58
392.501	380.15
392.881	395.74
393.26	374.95
393.639	399.81
394.018	376.98
394.397	384.21
394.776	390.99
395.155	374.72
395.534	396.19
395.913	395.96
396.292	358.45
396.671	372.24
397.05	390.77
397.429	387.6
397.808	379.69
398.186	401.84
398.565	393.93
398.944	394.83
399.323	389.18
399.701	407.04
400.08	405.23
400.458	414.72
400.837	382.18
401.215	422.86
401.594	394.16
401.972	404.33
402.351	414.72
402.729	406.13
403.107	401.61
403.486	417.21
403.864	416.53
404.242	419.47
404.62	409.98
404.999	421.73
405.377	429.18
405.755	451.78
406.133	444.1
406.511	446.36
406.889	431.22
407.267	452.69
407.645	455.62
408.023	441.61
408.401	406.81
408.779	443.65
409.156	466.02
409.534	459.69
409.912	450.88
410.29	453.82
410.667	452.46
411.045	470.31
411.422	462.86
411.8	462.63
412.178	475.96
412.555	482.06
412.933	466.47
413.31	498.79
413.687	482.52
414.065	480.26
414.442	490.2
414.819	480.03
415.197	517.77
415.574	508.96
415.951	526.81
416.328	489.97
416.705	503.31
417.082	538.11
417.46	513.48
417.837	527.49
418.214	515.28
418.591	519.35
418.967	525.68
419.344	532.46
419.721	528.39
420.098	534.04
420.475	519.12
420.852	553.93
421.228	547.6
421.605	547.6
421.982	547.37
422.358	545.79
422.735	559.12
423.111	548.05
423.488	539.69
423.864	572
424.241	573.36
424.617	561.61
424.994	565.68
425.37	569.07
425.746	582.63
426.123	570.2
426.499	576.52
426.875	594.38
427.251	578.56
427.627	578.11
428.003	595.73
428.379	611.33
428.756	607.26
429.132	603.64
429.507	636.86
429.883	631.89
430.259	635.73
430.635	640.03
431.011	623.98
431.387	642.51
431.763	640.7
432.138	674.6
432.514	645.45
432.89	668.73
433.265	687.03
433.641	679.12
434.016	685
434.392	700.59
434.767	703.07
435.143	672.12
435.518	699.91
435.894	689.52
436.269	714.6
436.644	720.7
437.02	727.48
437.395	735.62
437.77	741.94
438.145	748.27
438.52	739.46
438.895	775.62
439.271	746.46
439.646	759.34
440.021	756.86
440.395	789.17
440.77	793.47
441.145	765.67
441.52	812
441.895	773.13
442.27	784.2
442.645	777.42
443.019	828.5
443.394	807.03
443.769	807.03
444.143	823.98
444.518	848.83
444.892	814.03
445.267	828.5
445.641	849.96
446.016	832.56
446.39	846.12
446.764	855.84
447.139	854.48
447.513	847.03
447.887	858.78
448.262	895.61
448.636	849.06
449.01	871.66
449.384	901.04
449.758	880.25
450.132	906.23
450.506	885.44
450.88	919.11
451.254	898.32
451.628	913.69
452.002	930.41
452.376	936.06
452.75	953.01
453.123	957.98
453.497	946.01
453.871	952.11
454.244	980.36
454.618	978.55
454.992	1004.31
455.365	1022.16
455.739	1026
456.112	1028.94
456.486	1035.04
456.859	1025.78
457.232	1054.25
457.606	1070.75
457.979	1069.39
458.352	1084.53
458.725	1084.08
459.099	1087.02
459.472	1111.65
459.845	1114.36
460.218	1140.35
460.591	1154.59
460.964	1141.26
461.337	1175.6
461.71	1184.64
462.083	1203.17
462.456	1188.94
462.829	1210.86
463.201	1245.89
463.574	1245.89
463.947	1249.28
464.32	1284.3
464.692	1289.27
465.065	1300.12
465.438	1308.48
465.81	1313.45
466.183	1353.45
466.555	1361.36
466.928	1362.04
467.3	1373.11
467.672	1391.64
468.045	1436.39
468.417	1455.37
468.789	1463.05
469.161	1467.8
469.534	1501.02
469.906	1497.63
470.278	1510.96
470.65	1537.4
471.022	1571.98
471.394	1620.11
471.766	1607.68
472.138	1630.28
472.51	1634.35
472.882	1692.2
473.253	1718.19
473.625	1736.72
473.997	1747.57
474.369	1797.06
474.74	1789.83
475.112	1827.56
475.484	1851.97
475.855	1923.61
476.227	1942.82
476.598	2008.13
476.97	1996.37
477.341	2050.38
477.713	2075.02
478.084	2058.97
478.455	2147.1
478.827	2184.17
479.198	2225.29
479.569	2280.89
479.94	2318.85
480.311	2352.52
480.682	2400.66
481.053	2435.23
481.424	2510.94
481.795	2524.04
482.166	2587.32
482.537	2591.39
482.908	2665.96
483.279	2688.79
483.65	2740.54
484.021	2833.87
484.391	2856.46
484.762	2885.62
485.133	2952.28
485.503	2984.82
485.874	3022.79
486.244	3078.61
486.615	3149.34
486.985	3186.63
487.356	3282.67
487.726	3306.62
488.097	3375.32
488.467	3390.91
488.837	3470.69
489.207	3478.14
489.578	3543.68
489.948	3593.17
490.318	3645.37
490.688	3711.58
491.058	3735.99
491.428	3819.38
491.798	3863.44
492.168	3914.74
492.538	4004.46
492.908	4008.07
493.278	4072.7
493.648	4070.9
494.017	4139.37
494.387	4184.11
494.757	4215.52
495.126	4288.52
495.496	4255.07
495.866	4342.98
496.235	4361.28
496.605	4415.52
496.974	4503.88
497.344	4476.99
497.713	4542.75
498.082	4552.69
498.452	4679.69
498.821	4629.75
499.19	4671.56
499.559	4714.95
499.928	4736.19
500.298	4781.16
500.667	4852.57
501.036	4861.38
501.405	4886.02
501.774	4890.76
502.143	4951.1
502.512	4972.79
502.88	5026.8
503.249	5042.62
503.618	5133.01
503.987	5115.84
504.356	5114.94
504.724	5131.21
505.093	5189.51
505.462	5193.13
505.83	5247.14
506.199	5260.92
506.567	5308.15
506.936	5373.69
507.304	5360.35
507.672	5386.12
508.041	5430.18
508.409	5480.35
508.777	5564.87
509.145	5565.55
509.514	5583.62
509.882	5590.63
510.25	5631.76
510.618	5660.46
510.986	5687.12
511.354	5669.72
511.722	5660.68
512.09	5751.3
512.458	5779.33
512.826	5802.38
513.193	5792.43
513.561	5831.75
513.929	5887.12
514.297	5944.74
514.664	5942.26
515.032	5963.73
515.4	5980.9
515.767	6015.93
516.135	6097.06
516.502	6019.55
516.869	6133.89
517.237	6161.01
517.604	6178.64
517.972	6201.46
518.339	6163.27
518.706	6234.45
519.073	6269.48
519.44	6287.79
519.808	6364.85
520.175	6285.98
520.542	6388.8
520.909	6376.6
521.276	6363.72
521.643	6449.59
522.009	6490.49
522.376	6525.07
522.743	6566.42
523.11	6615.69
523.477	6691.39
523.843	6661.11
524.21	6718.51
524.577	6768.9
524.943	6790.37
525.31	6819.07
525.676	6911.5
526.043	6947.88
526.409	7009.58
526.776	7044.6
527.142	7026.52
527.508	7105.17
527.874	7170.7
528.241	7177.03
528.607	7177.48
528.973	7195.33
529.339	7249.57
529.705	7306.74
530.071	7369.79
530.437	7418.15
530.803	7445.95
531.169	7461.09
531.535	7443.46
531.901	7462.22
532.267	7559.84
532.632	7601.88
532.998	7602.1
533.364	7622.67
533.73	7764.58
534.095	7711.25
534.461	7707.64
534.826	7828.76
535.192	7825.83
535.557	7901.53
535.923	7863.34
536.288	7903.56
536.653	7947.86
537.019	7929.55
537.384	7964.35
537.749	8004.35
538.114	8110.11
538.479	8118.7
538.845	8175.19
539.21	8058.14
539.575	8100.62
539.94	8148.53
540.305	8266.72
540.67	8243.67
541.034	8280.73
541.399	8347.39
541.764	8310.33
542.129	8368.86
542.494	8408.86
542.858	8529.54
543.223	8445.7
543.587	8525.92
543.952	8540.61
544.316	8537.22
544.681	8576.77
545.045	8682.53
545.41	8678.91
545.774	8624.45
546.138	8769.3
546.503	8727.27
546.867	8742.41
547.231	8854.05
547.595	8906.02
547.959	8888.85
548.324	8891.33
548.688	8905.34
549.052	8955.97
549.416	9017.88
549.779	8980.82
550.143	9025.34
550.507	9120.71
550.871	9137.88
551.235	9153.25
551.599	9180.82
551.962	9215.39
552.326	9201.83
552.689	9256.07
553.053	9255.39
553.417	9304.88
553.78	9441.38
554.143	9362.96
554.507	9430.3
554.87	9541.49
555.234	9572.9
555.597	9455.39
555.96	9493.58
556.323	9580.58
556.686	9599.56
557.05	9641.14
557.413	9721.37
557.776	9722.72
558.139	9727.02
558.502	9709.84
558.865	9765.89
559.228	9843.85
559.59	9864.19
559.953	9961.14
560.316	9979.67
560.679	9956.16
561.041	10107.12
561.404	10052.21
561.767	10115.48
562.129	10036.39
562.492	10173.56
562.854	10188.48
563.217	10214.24
563.579	10206.55
563.941	10331.97
564.304	10319.77
564.666	10400.22
565.028	10422.59
565.39	10374.23
565.753	10487.22
566.115	10572.87
566.477	10567.67
566.839	10588.01
567.201	10683.38
567.563	10596.6
567.925	10743.71
568.287	10743.04
568.648	10781.91
569.01	10908.23
569.372	10969.02
569.734	10958.17
570.095	10941
570.457	10936.48
570.819	11003.82
571.18	11115
571.542	11143.7
571.903	11105.06
572.265	11221.22
572.626	11316.58
572.987	11372.17
573.349	11365.39
573.71	11450.81
574.071	11535.33
574.432	11467.31
574.794	11678.83
575.155	11666.4
575.516	11638.15
575.877	11716.12
576.238	11839.73
576.599	11943.68
576.96	11977.13
577.32	12055.77
577.681	12173.73
578.042	12239.95
578.403	12265.03
578.763	12456.21
579.124	12479.26
579.485	12633.61
579.845	12659.6
580.206	12827.28
580.566	12920.15
580.927	13021.62
581.287	13292.35
581.648	13285.12
582.008	13476.3
582.368	13643.75
582.728	13773.92
583.089	13836.06
583.449	14032.22
583.809	14145.43
584.169	14351.53
584.529	14486.89
584.889	14787.22
585.249	14819.09
585.609	15034.68
585.969	15353.09
586.329	15453.65
586.688	15698.16
587.048	15928.44
587.408	16118.71
587.768	16240.97
588.127	16615.65
588.487	16843.44
588.846	17165.24
589.206	17360.94
589.565	17577.66
589.925	17896.07
590.284	18009.29
590.643	18289.05
591.003	18641.81
591.362	18953.89
591.721	19116.38
592.08	19498.51
592.44	19757.26
592.799	20102.56
593.158	20335.55
593.517	20625.94
593.876	20905.26
594.235	21191.8
594.593	21598.57
594.952	21924.44
595.311	22147.93
595.67	22478.1
596.029	22965.09
596.387	23163.05
596.746	23589.93
597.104	23734.11
597.463	24031.73
597.822	24407.99
598.18	24628.77
598.538	24823.8
598.897	25376.55
599.255	25353.5
599.613	26117.1
599.972	26160.94
600.33	26499.91
600.688	26660.58
601.046	27174.92
601.404	27580.79
601.762	27704.62
602.12	28131.51
602.478	28476.58
602.836	28855.78
603.194	28924.25
603.552	29264.36
603.91	29363.11
604.268	29839.71
604.625	29967.16
604.983	30538.67
605.341	30536.64
605.698	30876.07
606.056	31231.54
606.413	31530.29
606.771	31709.94
607.128	32126.88
607.485	32136.37
607.843	32447.32
608.2	32803.02
608.557	33143.8
608.914	33329.11
609.272	33606.62
609.629	33826.5
609.986	34132.25
610.343	34128.41
610.7	34610.21
611.057	34814.49
611.414	35017.88
611.771	35304.2
612.127	35381.48
612.484	35686.34
612.841	35878.87
613.198	35890.17
613.554	36192.54
613.911	36663.49
614.267	36799.75
614.624	36836.14
614.98	36973.08
615.337	37442.67
615.693	37512.5
616.05	37565.61
616.406	37982.32
616.762	37981.87
617.118	38101.19
617.475	38199.04
617.831	38511.57
618.187	38531.23
618.543	38826.59
618.899	39188.39
619.255	39113.14
619.611	39239.91
619.967	39643.97
620.323	39607.59
620.678	39582.5
621.034	39561.26
621.39	39903.17
621.746	39850.75
622.101	40448.47
622.457	40193.79
622.812	40411.64
623.168	40557.85
623.523	40715.58
623.879	40996.03
624.234	40756.48
624.589	40871.51
624.945	40955.8
625.3	41097.04
625.655	41150.15
626.01	41266.98
626.365	41424.72
626.72	41336.58
627.075	41399.41
627.43	41483.92
627.785	41299.3
628.14	41660.42
628.495	41655.44
628.85	41868.32
629.205	41672.17
629.559	42096.34
629.914	41673.07
630.269	41922.1
630.623	41853.86
630.978	41880.52
631.332	42151.93
631.687	42144.02
632.041	42108.09
632.396	42099.27
632.75	42115.55
633.104	42220.63
633.459	41922.78
633.813	42129.33
634.167	42172.94
634.521	42122.55
634.875	42361.41
635.229	42254.3
635.583	42014.08
635.937	42213.85
636.291	42110.8
636.645	42161.19
636.999	42119.61
637.352	42319.61
637.706	42122.32
638.06	42246.62
638.413	42301.98
638.767	42024.25
639.121	42171.81
639.474	42111.48
639.828	42095.43
640.181	42223.34
640.534	42113.74
640.888	42082.55
641.241	41987.41
641.594	41967.53
641.947	42111.7
642.301	41912.61
642.654	42024.93
643.007	42097.47
643.36	41966.85
643.713	41961.2
644.066	42212.49
644.419	41835.55
644.771	41686.4
645.124	41379.75
645.477	41270.37
645.83	41081
646.182	40917.84
646.535	40906.99
646.888	40922.13
647.24	40714.68
647.593	40993.54
647.945	40943.6
648.298	40823.83
648.65	40782.92
649.002	40690.5
649.355	40973.65
649.707	40819.53
650.059	41011.17
650.411	41368.9
650.763	41432.4
651.115	41730.47
651.467	41658.61
651.819	41596.91
652.171	41568.89
652.523	41518.5
652.875	41530.48
653.227	41379.07
653.578	41673.75
653.93	41454.32
654.282	41447.99
654.633	41281.44
654.985	41445.05
655.337	41495.67
655.688	41579.29
656.039	41619.06
656.391	41191.28
656.742	41411.83
657.094	41464.49
657.445	41572.73
657.796	41441.89
658.147	41384.94
658.498	41330.03
658.849	41521.89
659.2	41247.32
659.551	41101.33
659.902	41363.7
660.253	41288.45
660.604	41404.6
660.955	41228.34
661.306	41438.27
661.656	41324.83
662.007	41251.16
662.358	41257.71
662.708	41286.87
663.059	41295.45
663.409	40941.34
663.76	41288.9
664.11	41281.44
664.461	41398.5
664.811	41313.76
665.161	41385.17
665.511	41159.41
665.862	41236.92
666.212	41330.03
666.562	41370.25
666.912	41277.83
667.262	41062.92
667.612	41287.09
667.962	41172.75
668.312	41148.79
668.662	41170.71
669.011	41096.14
669.361	41054.56
669.711	41057.27
670.06	41029.7
670.41	40952.19
670.76	41074.22
671.109	41154.67
671.459	40973.2
671.808	40916.93
672.157	41025.63
672.507	40820.66
672.856	40965.07
673.205	40848.23
673.554	40966.65
673.904	40836.03
674.253	41058.17
674.602	41010.26
674.951	40438.75
675.3	40200.12
675.649	40900.89
675.998	40859.53
676.346	40813.21
676.695	40761.68
677.044	40657.28
677.393	40758.74
677.741	40731.63
678.09	40813.66
678.438	40545.64
678.787	40634.23
679.135	40685.75
679.484	40369.15
679.832	40508.13
680.181	40334.12
680.529	40382.48
680.877	40358.53
681.225	40289.6
681.573	40455.25
681.922	40231.98
682.27	39974.81
682.618	40127.8
682.966	39940.46
683.314	40014.81
683.661	39897.75
684.009	39795.83
684.357	39726
684.705	39743.86
685.053	39780.92
685.4	39672.45
685.748	39465.22
686.095	39515.61
686.443	39394.94
686.79	39312.46
687.138	39357.88
687.485	39488.72
687.832	39287.6
688.18	39329.86
688.527	39079.24
688.874	39031.56
689.221	38882.64
689.568	38888.06
689.915	38806.03
690.262	38887.83
690.609	38803.09
690.956	38573.72
691.303	38668.4
691.65	38337.57
691.997	38428.41
692.344	38253.73
692.69	38195.2
693.037	38085.59
693.383	37814.87
693.73	38039.27
694.077	37764.93
694.423	37762.21
694.769	37693.97
695.116	37574.87
695.462	37524.03
695.808	37395.67
696.155	37383.92
696.501	37181.21
696.847	37060.99
697.193	36868.68
697.539	37114.09
697.885	36678.63
698.231	36606.99
698.577	36718.17
698.923	36590.04
699.269	36439.76
699.614	36387.56
699.96	36237.96
700.306	36309.6
700.651	36109.15
700.997	35915.93
701.342	35831.87
701.688	35905.31
702.033	35802.26
702.379	35735.6
702.724	35605.21
703.069	35786.22
703.415	35273.24
703.76	35411.77
704.105	35384.65
704.45	35370.19
704.795	35135.84
705.14	34952.12
705.485	34898.11
705.83	34875.96
706.175	35019.69
706.52	34958.67
706.865	34674.38
707.209	34679.13
707.554	34474.62
707.899	34719.13
708.243	34507.61
708.588	34328.86
708.932	34198.47
709.277	34198.92
709.621	34173.38
709.966	34032.59
710.31	34061.52
710.654	33638.25
710.998	33812.49
711.342	33752.83
711.687	33651.81
712.031	33537.92
712.375	33496.79
712.719	33515.09
713.063	33459.28
713.407	33532.72
713.75	33198.94
714.094	33280.07
714.438	33172.96
714.782	33124.37
715.125	32958.27
715.469	32989.46
715.812	32756.02
716.156	32684.61
716.499	32699.75
716.843	32725.51
717.186	32532.97
717.53	32581.33
717.873	32753.53
718.216	32620.2
718.559	32583.59
718.902	32215.69
719.246	32336.37
719.589	32120.1
719.932	32067.22
720.275	32177.5
720.617	32034.45
720.96	32018.86
721.303	31942.93
721.646	31939.32
721.989	31788.13
722.331	31941.8
722.674	31698.64
723.016	31823.39
723.359	31703.62
723.701	31677.63
724.044	31534.13
724.386	31396.96
724.729	31514.47
725.071	31502.94
725.413	31439.22
725.755	31383.62
726.097	31270.63
726.439	31121.48
726.782	31146.79
727.124	31288.03
727.465	31057.98
727.807	31057.08
728.149	30948.16
728.491	30842.62
728.833	30916.74
729.175	30680.59
729.516	30653.02
729.858	30666.58
730.199	30832.9
730.541	30613.93
730.882	30726.92
731.224	30614.6
731.565	30470.2
731.906	30395.4
732.248	30595.85
732.589	30385.68
732.93	30258.91
733.271	30290.09
733.612	30214.84
733.953	30239.25
734.294	30152.92
734.635	30056.43
734.976	30060.49
735.317	29932.14
735.658	30014.17
735.999	30002.64
736.339	29874.74
736.68	30044.45
737.021	29818.24
737.361	29856.21
737.702	29935.53
738.042	29782.08
738.383	29660.51
738.723	29711.35
739.063	29592.94
739.404	29729.66
739.744	29566.95
740.084	29445.14
740.424	29535.54
740.764	29516.33
741.104	29510.23
741.444	29369.89
741.784	29288.99
742.124	29353.17
742.464	29317.46
742.804	29185.94
743.143	29237.47
743.483	29164.47
743.823	29070.01
744.162	29103.01
744.502	29142.33
744.841	29041.54
745.181	29144.59
745.52	28922.22
745.86	28975.55
746.199	28858.94
746.538	28848.32
746.877	28963.8
747.216	28927.87
747.556	28817.82
747.895	28857.36
748.234	28602.23
748.573	28573.3
748.911	28505.73
749.25	28657.37
749.589	28471.38
749.928	28516.35
750.267	28494.21
750.605	28362.23
750.944	28442.46
751.283	28265.74
751.621	28294.21
751.96	28152.52
752.298	28238.4
752.636	28142.58
752.975	28082.47
753.313	27998.4
753.651	28072.98
753.989	27863.04
754.327	27827.11
754.666	27668.24
755.004	27726.54
755.342	27769.48
755.679	27732.42
756.017	27488.59
756.355	27676.15
756.693	27463.28
757.031	27519.09
757.368	27324.75
757.706	27337.18
758.044	27322.49
758.381	27192.32
758.719	27133.11
759.056	27119.1
759.394	27065.32
759.731	26972.67
760.068	26930.63
760.405	26818.77
760.743	26653.35
761.08	26898.32
761.417	26715.95
761.754	26609.06
762.091	26574.48
762.428	26395.73
762.765	26253.14
763.102	26344.66
763.438	26247.26
763.775	26139.24
764.112	26221.05
764.449	26251.33
764.785	26011.34
765.122	25939.7
765.458	25765.24
765.795	25613.83
766.131	25661.06
766.467	25777.9
766.804	25366.16
767.14	25431.24
767.476	25300.62
767.812	25224.46
768.148	25200.51
768.485	25145.37
768.821	25001.64
769.157	24909.67
769.492	24841.2
769.828	24822.67
770.164	24640.98
770.5	24676.23
770.836	24445.28
771.171	24424.26
771.507	24388.33
771.842	24278.27
772.178	24269.69
772.513	24140.65
772.849	24074.21
773.184	24110.82
773.519	23948.11
773.855	23795.57
774.19	23694.79
774.525	23618.63
774.86	23671.28
775.195	23557.62
775.53	23339.32
775.865	23511.97
776.2	23243.72
776.535	23049.15
776.87	23071.07
777.205	23001.47
777.539	22942.49
777.874	22990.62
778.209	22768.71
778.543	22571.43
778.878	22597.41
779.212	22547.92
779.547	22372.34
779.881	22552.22
780.215	22345.44
780.55	22396.52
780.884	22107.94
781.218	22105.45
781.552	22020.03
781.886	21862.97
782.22	21885.57
782.554	21724.44
782.888	21608.51
783.222	21513.83
783.556	21463.21
783.889	21326.94
784.223	21318.13
784.557	21064.35
784.89	21219.82
785.224	21030
785.557	20991.58
785.891	20878.59
786.224	20844.24
786.558	20895.09
786.891	20552.95
787.224	20650.35
787.557	20469.56
787.891	20547.52
788.224	20521.99
788.557	20408.09
788.89	20339.85
789.223	20375.55
789.556	20141.66
789.888	20117.48
790.221	20002.23
790.554	19953.19
790.887	19948.9
791.219	19782.57
791.552	19731.5
791.884	19630.94
792.217	19643.37
792.549	19604.27
792.882	19456.25
793.214	19329.7
793.546	19437.72
793.879	19209.71
794.211	19182.59
794.543	19204.96
794.875	19197.96
795.207	19154.79
795.539	19018.75
795.871	19002.93
796.203	18853.56
796.535	18813.56
796.867	18699.44
797.198	18731.75
797.53	18668.93
797.862	18552.32
798.193	18604.3
798.525	18394.13
798.856	18421.93
799.188	18282.73
799.519	18154.59
799.85	18143.07
800.182	18133.58
800.513	18188.49
800.844	17937.88
801.175	18029.62
801.506	17977.65
801.837	17844.54
802.168	17867.14
802.499	17679.35
802.83	17736.98
803.161	17623.76
803.491	17643.19
803.822	17678.22
804.153	17520.71
804.483	17392.81
804.814	17424.22
805.145	17286.59
805.475	17254.28
805.805	17190.1
806.136	17261.74
806.466	17168.18
806.796	17149.87
807.126	16962.31
807.457	17020.16
807.787	17005.24
808.117	16748.53
808.447	16829.43
808.777	16739.26
809.107	16739.72
809.436	16769.54
809.766	16634.18
810.096	16564.58
810.426	16576.1
810.755	16532.04
811.085	16532.49
811.414	16506.73
811.744	16408.65
812.073	16339.95
812.403	16306.51
812.732	16220.86
813.061	16232.38
813.39	16177.24
813.719	16126.4
814.049	16134.31
814.378	16130.01
814.707	15993.52
815.036	16007.76
815.365	15908.32
815.693	15839.17
816.022	15802.79
816.351	15783.81
816.68	15714.21
817.008	15727.76
817.337	15572.29
817.665	15555.79
817.994	15612.74
818.322	15514.21
818.651	15530.26
818.979	15298.17
819.307	15462.23
819.636	15492.97
819.964	15323.71
820.292	15361.45
820.62	15336.14
820.948	15318.51
821.276	15441.9
821.604	15292.97
821.932	15293.2
822.259	15313.54
822.587	15279.87
822.915	15236.48
823.243	15224.27
823.57	15155.58
823.898	15275.8
824.225	15196.03
824.553	15127.78
824.88	15192.19
825.207	15254.56
825.535	15166.42
825.862	15273.09
826.189	15158.51
826.516	15177.04
826.843	15252.75
827.17	15216.14
827.497	15248.45
827.824	15167.55
828.151	15224.73
828.478	15162.58
828.805	15192.64
829.131	15221.34
829.458	15087.1
829.785	15046.43
830.111	15108.12
830.438	15192.19
830.764	15189.7
831.09	15149.93
831.417	15078.74
831.743	15151.06
832.069	15235.35
832.395	15021.79
832.722	15041.68
833.048	15050.49
833.374	15021.79
833.7	14970.27
834.026	14961.91
834.351	14995.58
834.677	14993.55
835.003	14948.58
835.329	14943.38
835.654	14909.48
835.98	14884.85
836.306	14940.89
836.631	14921.68
836.956	14798.98
837.282	14916.03
837.607	14804.85
837.932	14753.1
838.258	14796.26
838.583	14806.43
838.908	14764.17
839.233	14689.83
839.558	14713.78
839.883	14626.1
840.208	14570.51
840.533	14602.14
840.858	14488.25
841.182	14613.44
841.507	14538.42
841.832	14494.8
842.156	14480.79
842.481	14502.03
842.805	14289.84
843.13	14413.67
843.454	14375.94
843.778	14273.57
844.103	14313.34
844.427	14182.72
844.751	14192.89
845.075	14165.77
845.399	14104.53
845.723	13959.68
846.047	14109.73
846.371	14019.33
846.695	13907.02
847.019	13820.47
847.343	13813.01
847.666	13670.64
847.99	13618.22
848.313	13615.96
848.637	13532.34
848.96	13509.07
849.284	13459.8
849.607	13392.01
849.931	13368.05
850.254	13213.03
850.577	13226.81
850.9	13121.05
851.223	13113.37
851.546	13012.81
851.869	13002.86
852.192	12964.45
852.515	12903.21
852.838	12813.72
853.161	12802.87
853.483	12713.61
853.806	12741.63
854.129	12668.64
854.451	12667.51
854.774	12495.08
855.096	12479.49
855.419	12511.8
855.741	12473.84
856.063	12349.77
856.385	12360.17
856.708	12353.84
857.03	12319.72
857.352	12357.23
857.674	12254.86
857.996	12196.11
858.318	12121.98
858.64	12156.78
858.961	12038.82
859.283	12082.66
859.605	11971.48
859.926	11999.95
860.248	11973.29
860.57	11895.55
860.891	11992.72
861.212	11934.19
861.534	11774.2
861.855	11787.98
862.176	11791.6
862.498	11764.03
862.819	11777.81
863.14	11682.9
863.461	11738.26
863.782	11716.57
864.103	11717.02
864.424	11728.77
864.745	11656.69
865.065	11538.5
865.386	11519.97
865.707	11526.07
866.027	11489.91
866.348	11514.77
866.668	11451.94
866.989	11455.56
867.309	11396.8
867.63	11449.68
867.95	11394.55
868.27	11346.86
868.59	11355.9
868.91	11331.27
869.23	11260.99
869.55	11217.15
869.87	11271.84
870.19	11284.49
870.51	11244.49
870.83	11269.12
871.15	11236.58
871.469	11154.55
871.789	11246.53
872.109	11185.28
872.428	11065.51
872.748	11133.31
873.067	11111.84
873.386	11157.94
873.706	11090.37
874.025	11029.36
874.344	10958.85
874.663	11014.44
874.982	10954.78
875.301	10979.87
875.62	11012.41
875.939	10942.58
876.258	10952.97
876.577	10842.24
876.896	10924.73
877.214	10786.2
877.533	10800.44
877.852	10805.63
878.17	10859.87
878.489	10778.52
878.807	10838.18
879.125	10763.38
879.444	10724.28
879.762	10699.65
880.08	10709.14
880.398	10648.58
880.716	10638.86
881.034	10668.91
881.352	10560.89
881.67	10572.42
881.988	10570.61
882.306	10510.27
882.624	10465.53
882.941	10443.16
883.259	10503.5
883.577	10397.28
883.894	10366.1
884.212	10339.21
884.529	10365.65
884.846	10323.61
885.164	10310.28
885.481	10343.05
885.798	10257.85
886.115	10231.86
886.432	10192.32
886.75	10216.5
887.067	10213.56
887.383	10143.28
887.7	10188.93
888.017	10122.71
888.334	10082.04
888.651	10081.13
888.967	10008.14
889.284	10044.07
889.6	9904.19
889.917	9876.39
890.233	9984.86
890.55	9880.46
890.866	9924.98
891.182	9861.25
891.498	9752.55
891.815	9798.2
892.131	9730.41
892.447	9590.75
892.763	9661.94
893.079	9613.12
893.395	9627.13
893.71	9584.2
894.026	9614.48
894.342	9555.72
894.657	9539.68
894.973	9472.34
895.289	9520.02
895.604	9467.59
895.92	9444.09
896.235	9302.85
896.55	9317.99
896.865	9310.76
897.181	9258.56
897.496	9268.73
897.811	9198.22
898.126	9209.07
898.441	9153.7
898.756	9167.94
899.071	9026.02
899.386	9087.71
899.7	8949.64
900.015	8919.36
900.33	8922.07
900.644	8915.97
900.959	8881.62
901.273	8892.01
901.588	8840.71
901.902	8776.08
902.216	8765.46
902.531	8750.32
902.845	8688.4
903.159	8705.58
903.473	8697.67
903.787	8556.65
904.101	8540.38
904.415	8546.26
904.729	8540.38
905.042	8500.38
905.356	8452.48
905.67	8468.52
905.984	8465.81
906.297	8351.46
906.611	8314.85
906.924	8305.81
907.237	8300.16
907.551	8167.74
907.864	8155.99
908.177	8226.04
908.491	8168.19
908.804	8100.85
909.117	8046.84
909.43	8064.92
909.743	8014.75
910.056	7981.08
910.368	7908.76
910.681	7922.32
910.994	7908.76
911.307	7866.95
911.619	7793.28
911.932	7793.06
912.244	7692.72
912.557	7748.09
912.869	7704.92
913.181	7676.45
913.494	7647.75
913.806	7525.27
914.118	7576.11
914.43	7495.21
914.742	7552.16
915.054	7491.37
915.366	7425.38
915.678	7396.01
915.99	7370.92
916.302	7304.48
916.613	7292.73
916.925	7309
917.236	7227.2
917.548	7176.12
917.859	7240.53
918.171	7130.48
918.482	7089.35
918.794	7140.65
919.105	7102.45
919.416	7016.81
919.727	7029.46
920.038	7005.96
920.349	6958.05
920.66	6913.53
920.971	6925.06
921.282	6873.76
921.593	6893.19
921.903	6781.11
922.214	6813.65
922.525	6764.38
922.835	6791.5
923.146	6675.35
923.456	6714.67
923.767	6655.23
924.077	6650.26
924.387	6650.71
924.697	6550.15
925.008	6496.14
925.318	6498.85
925.628	6483.49
925.938	6475.35
926.248	6383.38
926.558	6361.01
926.867	6349.93
927.177	6370.5
927.487	6296.6
927.796	6228.58
928.106	6279.43
928.416	6207.34
928.725	6210.73
929.034	6138.64
929.344	6189.71
929.653	6109.26
929.962	6114.68
930.271	6060
930.581	6040.34
930.89	6032.2
931.199	5963.05
931.508	5959.89
931.817	5892.32
932.125	5910.4
932.434	5891.64
932.743	5821.81
933.051	5813.9
933.36	5740.91
933.669	5732.55
933.977	5761.92
934.286	5736.61
934.594	5724.41
934.902	5662.49
935.21	5655.71
935.519	5666.56
935.827	5656.62
936.135	5572.33
936.443	5589.73
936.751	5581.36
937.059	5537.07
937.367	5492.55
937.674	5488.49
937.982	5473.12
938.29	5411.43
938.597	5457.3
938.905	5387.7
939.213	5357.19
939.52	5316.96
939.827	5300.47
940.135	5272.45
940.442	5245.78
940.749	5234.26
941.056	5227.25
941.363	5180.47
941.67	5200.36
941.977	5153.81
942.284	5123.98
942.591	5080.13
942.898	5052.34
943.205	5065.22
943.511	5038.33
943.818	5058.44
944.125	4999.23
944.431	5033.36
944.738	4980.02
945.044	4970.08
945.35	4871.33
945.657	4883.53
945.963	4876.75
946.269	4823.19
946.575	4888.05
946.881	4806.02
947.187	4827.26
947.493	4732.8
947.799	4743.42
948.105	4684.89
948.41	4718.11
948.716	4670.88
949.022	4630.43
949.327	4658.45
949.633	4598.11
949.938	4626.36
950.244	4591.79
950.549	4581.39
950.854	4543.2
951.16	4506.59
951.465	4474.73
951.77	4469.76
952.075	4519.02
952.38	4474.73
952.685	4414.62
952.99	4423.65
953.294	4385.46
953.599	4355.86
953.904	4309.99
954.209	4345.92
954.513	4314.28
954.818	4349.31
955.122	4289.42
955.426	4246.94
955.731	4223.43
956.035	4226.82
956.339	4192.47
956.643	4225.92
956.948	4141.18
957.252	4140.5
957.556	4119.26
957.86	4072.93
958.163	4081.29
958.467	4100.5
958.771	4041.74
959.075	4049.2
959.378	4004.46
959.682	4018.92
959.985	4009.2
960.289	3980.5
960.592	3921.52
960.896	3918.36
961.199	3909.54
961.502	3880.62
961.805	3884.23
962.108	3898.24
962.411	3860.05
962.714	3837
963.017	3811.24
963.32	3818.93
963.623	3804.46
963.926	3803.33
964.228	3728.76
964.531	3718.81
964.833	3709.78
965.136	3722.66
965.438	3678.14
965.741	3666.39
966.043	3657.57
966.345	3629.1
966.648	3631.36
966.95	3637.01
967.252	3590.68
967.554	3582.32
967.856	3547.97
968.158	3510.23
968.46	3549.1
968.761	3517.24
969.063	3481.31
969.365	3457.35
969.666	3445.15
969.968	3463
970.269	3441.76
970.571	3445.15
970.872	3441.99
971.174	3405.83
971.475	3365.38
971.776	3398.6
972.077	3321.99
972.378	3370.35
972.679	3328.32
972.98	3320.41
973.281	3291.93
973.582	3273.4
973.883	3265.95
974.183	3263.91
974.484	3225.72
974.785	3196.34
975.085	3186.17
975.386	3222.56
975.686	3177.36
975.986	3167.42
976.287	3197.92
976.587	3119.73
976.887	3087.64
977.187	3114.99
977.487	3082.22
977.787	3055.56
978.087	3073.18
978.387	3060.75
978.687	3047.42
978.987	3033.18
979.286	3003.58
979.586	3004.48
979.885	3000.87
980.185	2953.41
980.484	2934.43
980.784	2931.04
981.083	2951.6
981.382	2929.23
981.682	2932.85
981.981	2904.37
982.28	2864.15
982.579	2840.42
982.878	2827.31
983.177	2829.57
983.475	2853.53
983.774	2771.72
984.073	2789.12
984.372	2813.53
984.67	2754.09
984.969	2787.54
985.267	2771.49
985.566	2731.04
985.864	2747.77
986.162	2738.5
986.461	2703.02
986.759	2716.81
987.057	2692.4
987.355	2660.09
987.653	2650.37
987.951	2668.67
988.249	2656.7
988.547	2618.5
988.844	2608.79
989.142	2583.25
989.44	2574.21
989.737	2563.82
990.035	2557.26
990.332	2510.71
990.63	2576.47
990.927	2533.08
991.224	2523.82
991.521	2482.46
991.819	2521.11
992.116	2467.32
992.413	2473.2
992.71	2457.38
993.006	2442.92
993.303	2415.57
993.6	2451.05
993.897	2402.24
994.193	2368.79
994.49	2361.79
994.787	2391.17
995.083	2358.17
995.379	2368.57
995.676	2329.7
995.972	2351.17
996.268	2320.21
996.565	2309.81
996.861	2261.9
997.157	2294.22
997.453	2265.52
997.749	2239.98
998.044	2231.4
998.34	2247.89
998.636	2257.61
998.932	2210.38
999.227	2221.9
999.523	2191.62
999.818	2177.84
1000.114	2161.34
1000.409	2148.69
1000.704	2151.17
1001	2162.92
1001.295	2139.87
1001.59	2139.42
1001.885	2121.12
1002.18	2100.33
1002.475	2080.67
1002.77	2088.58
1003.065	2046.99
1003.359	2031.85
1003.654	2033.21
1003.949	2026.2
1004.243	1992.08
1004.538	2007.22
1004.832	1996.37
1005.127	1958.41
1005.421	1973.55
1005.715	1984.4
1006.009	1943.49
1006.304	1915.47
1006.598	1922.7
1006.892	1909.6
1007.186	1897.85
1007.48	1888.58
1007.773	1876.83
1008.067	1868.02
1008.361	1849.71
1008.655	1866.89
1008.948	1824.18
1009.242	1827.79
1009.535	1808.81
1009.829	1828.24
1010.122	1795.93
1010.415	1813.33
1010.708	1758.64
1011.001	1770.62
1011.295	1769.49
1011.588	1746.21
1011.881	1734.01
1012.173	1736.72
1012.466	1740.11
1012.759	1714.57
1013.052	1720
1013.344	1707.57
1013.637	1703.95
1013.93	1703.73
1014.222	1660.79
1014.514	1673.22
1014.807	1665.99
1015.099	1641.13
1015.391	1616.72
1015.683	1599.77
1015.976	1631.41
1016.268	1614.01
1016.56	1545.54
1016.851	1582.37
1017.143	1577.85
1017.435	1585.99
1017.727	1525.88
1018.018	1523.39
1018.31	1536.27
1018.602	1520.68
1018.893	1518.87
1019.185	1470.29
1019.476	1477.97
1019.767	1496.05
1020.058	1484.07
1020.35	1458.08
1020.641	1466.9
1020.932	1428.25
1021.223	1411.3
1021.514	1391.87
1021.804	1400.68
1022.095	1389.61
1022.386	1376.96
1022.677	1393.45
1022.967	1356.39
1023.258	1379.67
1023.548	1346.45
1023.839	1347.58
1024.129	1328.82
1024.419	1340.8
1024.709	1320.23
1025	1348.48
1025.29	1290.4
1025.58	1300.8
1025.87	1292.89
1026.16	1294.7
1026.449	1264.42
1026.739	1266.9
1027.029	1249.05
1027.319	1268.94
1027.608	1227.35
1027.898	1225.77
1028.187	1246.56
1028.477	1199.11
1028.766	1207.69
1029.055	1183.29
1029.344	1203.85
1029.634	1173.8
1029.923	1192.78
1030.212	1183.51
1030.501	1174.02
1030.79	1158.2
1031.078	1178.54
1031.367	1148.26
1031.656	1122.5
1031.945	1123.18
1032.233	1114.14
1032.522	1137.87
1032.81	1104.42
1033.099	1100.35
1033.387	1091.09
1033.675	1065.33
1033.963	1096.74
1034.251	1067.81
1034.54	1057.87
1034.828	1065.1
1035.116	1063.07
1035.403	1021.03
1035.691	1043.4
1035.979	1027.81
1036.267	1031.88
1036.554	1027.81
1036.842	1019.9
1037.129	1014.48
1037.417	982.62
1037.704	988.49
1037.992	993.01
1038.279	971.54
1038.566	997.76
1038.853	997.76
1039.14	997.76
