Data from hue_330_FLMS001491_66.txt Node
Date: Mon Feb 06 15:45:44 GMT 2017
User: dcchb
Spectrometer: FLMS00149
Trigger mode: 0
Integration Time (sec): 2.000000E-2
Scans to average: 10
Electric dark correction enabled: true
Nonlinearity correction enabled: false
Boxcar width: 0
XAxis mode: Wavelengths
Number of Pixels in Spectrum: 2048
>>>>>Begin Spectral Data<<<<<
341.393	-9.24
341.776	-9.24
342.16	-9.24
342.543	-67.77
342.927	-56.47
343.31	-55.34
343.693	-78.61
344.077	-62.57
344.46	-73.87
344.843	-58.95
345.226	-56.47
345.61	-29.35
345.993	-41.78
346.376	-4.04
346.759	26.24
347.142	21.5
347.525	54.72
347.908	69.86
348.291	81.38
348.674	85
349.057	122.28
349.44	119.12
349.823	140.82
350.206	145.56
350.588	174.26
350.971	219.68
351.354	218.1
351.737	257.65
352.119	250.64
352.502	249.06
352.884	274.6
353.267	288.83
353.65	289.74
354.032	296.52
354.414	309.85
354.797	324.31
355.179	314.82
355.562	327.48
355.944	314.37
356.326	329.96
356.709	333.58
357.091	328.38
357.473	357.31
357.855	343.97
358.238	349.85
358.62	347.14
359.002	335.16
359.384	324.09
359.766	323.18
360.148	331.77
360.53	340.36
360.912	339
361.294	329.96
361.676	346.23
362.057	331.54
362.439	343.52
362.821	318.21
363.203	302.85
363.584	292
363.966	313.47
364.348	316.63
364.729	334.48
365.111	307.82
365.493	327.03
365.874	305.1
366.256	316.63
366.637	316.86
367.019	320.47
367.4	302.39
367.781	297.2
368.163	318.44
368.544	328.16
368.925	310.3
369.306	303.98
369.688	313.01
370.069	311.66
370.45	292
370.831	312.11
371.212	321.6
371.593	296.52
371.974	292.22
372.355	299.23
372.736	308.27
373.117	302.62
373.498	320.47
373.879	330.64
374.26	292.68
374.641	327.25
375.021	300.59
375.402	298.55
375.783	318.66
376.163	310.08
376.544	305.56
376.925	342.39
377.305	329.29
377.686	304.43
378.066	320.02
378.447	338.78
378.827	336.74
379.208	340.58
379.588	336.06
379.968	340.58
380.349	333.8
380.729	311.88
381.109	315.27
381.489	335.16
381.87	319.79
382.25	328.61
382.63	330.19
383.01	325.67
383.39	329.96
383.77	357.31
384.15	350.53
384.53	336.06
384.91	332.22
385.29	353.01
385.67	345.78
386.049	357.53
386.429	327.25
386.809	339.68
387.189	346.23
387.568	342.62
387.948	350.08
388.328	337.65
388.707	350.98
389.087	343.52
389.466	349.62
389.846	365.44
390.225	346.69
390.605	344.43
390.984	341.94
391.363	351.88
391.743	354.6
392.122	362.28
392.501	368.15
392.881	359.79
393.26	372.9
393.639	365.22
394.018	363.86
394.397	344.2
394.776	375.84
395.155	374.26
395.534	394.37
395.913	369.51
396.292	371.32
396.671	367.25
397.05	380.13
397.429	375.16
397.808	372.9
398.186	384.88
398.565	349.62
398.944	394.14
399.323	390.75
399.701	396.4
400.08	391.88
400.458	383.07
400.837	407.48
401.215	433.01
401.594	381.94
401.972	391.88
402.351	394.37
402.729	387.36
403.107	398.21
403.486	394.82
403.864	410.19
404.242	400.7
404.62	416.29
404.999	428.72
405.377	410.86
405.755	419.9
406.133	433.46
406.511	400.92
406.889	433.01
407.267	456.29
407.645	413.35
408.023	425.33
408.401	425.55
408.779	442.73
409.156	444.76
409.534	449.06
409.912	471.43
410.29	466
410.667	463.74
411.045	468.04
411.422	479.79
411.8	460.81
412.178	475.04
412.555	483.63
412.933	503.52
413.31	513.24
413.687	518.88
414.065	507.36
414.442	523.4
414.819	529.96
415.197	500.13
415.574	532.9
415.951	527.47
416.328	527.7
416.705	538.09
417.082	529.51
417.46	533.57
417.837	553.46
418.214	558.66
418.591	555.27
418.967	569.05
419.344	584.42
419.721	587.13
420.098	598.43
420.475	586.68
420.852	594.81
421.228	613.35
421.605	624.19
421.982	608.15
422.358	630.97
422.735	619.22
423.111	628.71
423.488	634.36
423.864	626.68
424.241	654.47
424.617	658.32
424.994	637.75
425.37	661.25
425.746	669.16
426.123	670.07
426.499	675.72
426.875	693.12
427.251	679.33
427.627	699.9
428.003	719.56
428.379	694.93
428.756	706.68
429.132	735.15
429.507	745.09
429.883	746.45
430.259	746.68
430.635	755.49
431.011	756.39
431.387	766.56
431.763	785.54
432.138	782.38
432.514	800.23
432.89	805.66
433.265	776.05
433.641	831.87
434.016	820.57
434.392	835.26
434.767	826
435.143	861.25
435.518	861.02
435.894	871.42
436.269	871.87
436.644	892.66
437.02	866.67
437.395	875.49
437.77	882.94
438.145	913.68
438.52	908.93
438.895	944.41
439.271	910.06
439.646	910.51
440.021	945.99
440.395	927.46
440.77	917.52
441.145	946.9
441.52	969.27
441.895	975.14
442.27	987.8
442.645	976.5
443.019	991.41
443.394	981.92
443.769	995.93
444.143	994.8
444.518	1035.03
444.892	1008.59
445.267	999.78
445.641	1035.71
446.016	1016.05
446.39	995.93
446.764	1028.02
447.139	1047.46
447.513	1040.68
447.887	1032.77
448.262	1045.88
448.636	1033.67
449.01	1058.98
449.384	1055.59
449.758	1045.42
450.132	1074.35
450.506	1072.09
450.88	1051.53
451.254	1076.84
451.628	1102.15
452.002	1130.62
452.376	1109.6
452.75	1084.75
453.123	1107.57
453.497	1109.83
453.871	1107.8
454.244	1141.24
454.618	1131.75
454.992	1146.89
455.365	1167
455.739	1192.99
456.112	1160.68
456.486	1191.41
456.859	1192.77
457.232	1210.17
457.606	1186.89
457.979	1164.97
458.352	1209.26
458.725	1206.32
459.099	1245.19
459.472	1252.88
459.845	1288.58
460.218	1264.4
460.591	1285.87
460.964	1264.63
461.337	1291.52
461.71	1284.06
462.083	1347.56
462.456	1352.31
462.829	1323.84
463.201	1336.04
463.574	1354.34
463.947	1357.28
464.32	1406.54
464.692	1404.51
465.065	1386.21
465.438	1382.59
465.81	1422.59
466.183	1428.24
466.555	1451.97
466.928	1449.26
467.3	1449.48
467.672	1494.23
468.045	1514.34
468.417	1505.53
468.789	1525.64
469.161	1510.27
469.534	1512.08
469.906	1579.87
470.278	1579.2
470.65	1603.15
471.022	1606.54
471.394	1642.92
471.766	1666.43
472.138	1671.62
472.51	1708.68
472.882	1701.9
473.253	1745.75
473.625	1740.32
473.997	1756.59
474.369	1786.87
474.74	1799.3
475.112	1791.39
475.484	1817.61
475.855	1891.05
476.227	1851.05
476.598	1919.3
476.97	1932.18
477.341	1948.68
477.713	1967.89
478.084	1973.08
478.455	2020.77
478.827	2058.28
479.198	2086.98
479.569	2049.47
479.94	2092.85
480.311	2145.73
480.682	2166.3
481.053	2224.15
481.424	2223.92
481.795	2252.4
482.166	2238.84
482.537	2300.31
482.908	2336.69
483.279	2369.91
483.65	2405.16
484.021	2416.46
484.391	2457.59
484.762	2480.19
485.133	2469.79
485.503	2487.87
485.874	2560.41
486.244	2556.35
486.615	2581.2
486.985	2614.42
487.356	2643.8
487.726	2667.53
488.097	2744.81
488.467	2729.67
488.837	2796.34
489.207	2777.81
489.578	2851.25
489.948	2870.46
490.318	2873.63
490.688	2900.97
491.058	2931.93
491.428	2957.92
491.798	2989.55
492.168	3035.43
492.538	3012.15
492.908	3117.91
493.278	3105.71
493.648	3139.61
494.017	3133.51
494.387	3176.89
494.757	3199.94
495.126	3213.5
495.496	3246.95
495.866	3238.59
496.235	3297.12
496.605	3298.7
496.974	3298.7
497.344	3387.74
497.713	3312.71
498.082	3324.01
498.452	3382.31
498.821	3357.91
499.19	3398.13
499.559	3420.5
499.928	3415.31
500.298	3459.15
500.667	3497.11
501.036	3501.63
501.405	3510.9
501.774	3502.54
502.143	3557.45
502.512	3569.2
502.88	3571.01
503.249	3606.49
503.618	3608.75
503.987	3622.53
504.356	3603.78
504.724	3592.7
505.093	3589.76
505.462	3626.15
505.83	3678.8
506.199	3668.41
506.567	3744.79
506.936	3687.39
507.304	3756.99
507.672	3761.74
508.041	3751.57
508.409	3773.26
508.777	3787.5
509.145	3810.78
509.514	3819.59
509.882	3815.75
510.25	3824.11
510.618	3810.32
510.986	3886.48
511.354	3893.26
511.722	3837.67
512.09	3908.4
512.458	3868.63
512.826	3935.74
513.193	3951.56
513.561	3952.92
513.929	3949.3
514.297	3968.96
514.664	3982.75
515.032	4009.64
515.4	3987.49
515.767	4017.55
516.135	3996.99
516.502	3975.29
516.869	4060.26
517.237	4064.78
517.604	3999.02
517.972	4096.19
518.339	4075.4
518.706	4121.05
519.073	4083.54
519.44	4151.56
519.808	4150.43
520.175	4156.3
520.542	4240.37
520.909	4198.11
521.276	4148.17
521.643	4214.15
522.009	4267.71
522.376	4249.86
522.743	4270.88
523.11	4297.32
523.477	4308.39
523.843	4339.58
524.21	4327.37
524.577	4371.66
524.943	4351.1
525.31	4381.16
525.676	4406.69
526.043	4446.47
526.409	4473.58
526.776	4482.4
527.142	4493.7
527.508	4533.69
527.874	4578.21
528.241	4527.59
528.607	4549.51
528.973	4616.4
529.339	4584.99
529.705	4624.31
530.071	4704.76
530.437	4688.04
530.803	4693.69
531.169	4760.58
531.535	4725.33
531.901	4733.69
532.267	4757.87
532.632	4747.25
532.998	4808.04
533.364	4812.78
533.73	4816.62
534.095	4879.67
534.461	4909.73
534.826	4932.78
535.192	4947.24
535.557	4970.07
535.923	4959.67
536.288	4997.64
536.653	5073.12
537.019	5005.09
537.384	5052.32
537.749	5014.59
538.114	5072.44
538.479	5078.09
538.845	5113.57
539.21	5112.21
539.575	5121.25
539.94	5205.32
540.305	5188.82
540.67	5180.46
541.034	5236.05
541.399	5249.16
541.764	5265.88
542.129	5296.61
542.494	5314.69
542.858	5363.28
543.223	5349.49
543.587	5439.89
543.952	5387.91
544.316	5387.91
544.681	5417.51
545.045	5482.37
545.41	5454.12
545.774	5460.68
546.138	5478.98
546.503	5491.18
546.867	5526.89
547.231	5568.47
547.595	5631.52
547.959	5615.47
548.324	5630.16
548.688	5690.95
549.052	5643.04
549.416	5719.2
549.779	5697.28
550.143	5729.82
550.507	5765.07
550.871	5732.31
551.235	5779.99
551.599	5828.35
551.962	5777.5
552.326	5794.9
552.689	5839.42
553.053	5878.07
553.417	5853.43
553.78	5954.22
554.143	5873.32
554.507	5940.89
554.87	5916.26
555.234	6019.08
555.597	6020.66
555.96	5973.43
556.323	6041.45
556.686	6005.75
557.05	6117.16
557.413	6064.28
557.776	6123.94
558.139	6091.85
558.502	6125.52
558.865	6114.67
559.228	6230.15
559.59	6159.64
559.953	6180.88
560.316	6226.53
560.679	6287.32
561.041	6262.01
561.404	6322.57
561.767	6303.82
562.129	6321.22
562.492	6340.2
562.854	6312.86
563.217	6423.81
563.579	6398.5
563.941	6436.92
564.304	6424.27
564.666	6456.13
565.028	6523.92
565.39	6515.56
565.753	6594.21
566.115	6571.83
566.477	6604.6
566.839	6616.8
567.201	6641.44
567.563	6611.38
567.925	6688.67
568.287	6654.99
568.648	6767.31
569.01	6733.41
569.372	6797.14
569.734	6779.51
570.095	6866.51
570.457	6868.77
570.819	6890.92
571.18	6901.32
571.542	6928.89
571.903	6951.71
572.265	7003.91
572.626	7050.69
572.987	7048.88
573.349	7064.48
573.71	7104.93
574.071	7223.12
574.432	7238.03
574.794	7290.46
575.155	7339.27
575.516	7369.1
575.877	7450.45
576.238	7519.6
576.599	7555.76
576.96	7596.89
577.32	7654.06
577.681	7763.67
578.042	7816.77
578.403	7904.45
578.763	7996.65
579.124	8070.55
579.485	8151
579.845	8278.68
580.206	8314.61
580.566	8473.93
580.927	8575.85
581.287	8664.43
581.648	8819.01
582.008	8926.8
582.368	9073.46
582.728	9236.85
583.089	9295.83
583.449	9453.11
583.809	9637.51
584.169	9792.99
584.529	9958.86
584.889	10164.96
585.249	10337.84
585.609	10459.19
585.969	10717.03
586.329	10894.43
586.688	11082.67
587.048	11294.65
587.408	11393.18
587.768	11732.83
588.127	12006.72
588.487	12165.13
588.846	12510.89
589.206	12544.11
589.565	12914.49
589.925	13143.64
590.284	13311.54
590.643	13631.76
591.003	13881.25
591.362	14201.91
591.721	14403.72
592.08	14648.46
592.44	15047.99
592.799	15208.44
593.158	15528.21
593.517	15682.1
593.876	16146.5
594.235	16371.58
594.593	16699.7
594.952	17031.67
595.311	17183.76
595.67	17540.36
596.029	17885.66
596.387	18216.27
596.746	18563.16
597.104	18751.85
597.463	18975.57
597.822	19392.74
598.18	19603.35
598.538	19771.94
598.897	20228.87
599.255	20390.23
599.613	20803.32
599.972	21015.97
600.33	21306.81
600.688	21459.8
601.046	21822.73
601.404	22254.13
601.762	22440.12
602.12	22796.94
602.478	23105.41
602.836	23298.4
603.194	23504.27
603.552	23868.55
603.91	23934.31
604.268	24343.79
604.625	24450.23
604.983	24805.7
605.341	24896.32
605.698	25325.01
606.056	25574.27
606.413	25768.16
606.771	26199.34
607.128	26343.52
607.485	26419.45
607.843	26675.03
608.2	27019.66
608.557	27302.36
608.914	27267.33
609.272	27732.41
609.629	27981.89
609.986	28185.95
610.343	28431.82
610.7	28674.3
611.057	28764.24
611.414	29020.28
611.771	29147.06
612.127	29411.23
612.484	29600.38
612.841	29853.93
613.198	29989.3
613.554	30191.78
613.911	30479.23
614.267	30522.39
614.624	30646.91
614.98	30869.05
615.337	31106.33
615.693	31306.32
616.05	31315.14
616.406	31699.99
616.762	31772.3
617.118	31928.45
617.475	32037.15
617.831	32261.33
618.187	32358.95
618.543	32412.96
618.899	32802.33
619.255	32827.87
619.611	33067.86
619.967	33188.76
620.323	33283.22
620.678	33152.83
621.034	33273.5
621.39	33480.28
621.746	33519.15
622.101	34022.18
622.457	33602.99
622.812	33789.42
623.168	34155.74
623.523	34075.74
623.879	34371.33
624.234	34124.33
624.589	34421.95
624.945	34463.53
625.3	34616.75
625.655	34530.87
626.01	34706.91
626.365	34801.37
626.72	34894.7
627.075	34922.95
627.43	35043.85
627.785	34841.37
628.14	35127.24
628.495	35184.41
628.85	35298.08
629.205	35196.16
629.559	35461.69
629.914	35266.45
630.269	35383.96
630.623	35345.77
630.978	35345.09
631.332	35527.91
631.687	35572.43
632.041	35558.87
632.396	35612.88
632.75	35577.17
633.104	35589.6
633.459	35654.91
633.813	35522.26
634.167	35535.82
634.521	35629.15
634.875	35695.59
635.229	35665.98
635.583	35675.25
635.937	35568.58
636.291	35641.35
636.645	35567
636.999	35525.87
637.352	35750.5
637.706	35646.77
638.06	35629.83
638.413	35749.6
638.767	35654.91
639.121	35609.94
639.474	35515.93
639.828	35572.2
640.181	35687
640.534	35598.19
640.888	35549.6
641.241	35414.46
641.594	35502.82
641.947	35600.22
642.301	35493.56
642.654	35592.76
643.007	35563.61
643.36	35616.04
643.713	35446.55
644.066	35693.55
644.419	35315.26
644.771	35363.62
645.124	35032.78
645.477	34842.05
645.83	34837.76
646.182	34418.33
646.535	34517.76
646.888	34572.45
647.24	34436.41
647.593	34590.53
647.945	34581.27
648.298	34426.02
648.65	34313.02
649.002	34326.58
649.355	34439.57
649.707	34242.07
650.059	34464.88
650.411	34963.85
650.763	34938.09
651.115	35364.3
651.467	35158.88
651.819	35150.74
652.171	35159.78
652.523	35171.08
652.875	35031.2
653.227	34972.89
653.578	35233.45
653.93	35161.14
654.282	35110.07
654.633	34937.64
654.985	34995.94
655.337	35026.68
655.688	35141.25
656.039	35091.31
656.391	34885.66
656.742	34837.98
657.094	35039.78
657.445	35153.68
657.796	34976.51
658.147	34915.04
658.498	34884.76
658.849	34987.36
659.2	34948.71
659.551	34896.74
659.902	35002.05
660.253	34894.7
660.604	34825.33
660.955	34816.74
661.306	34949.39
661.656	34820.81
662.007	34809.96
662.358	34994.36
662.708	34685.67
663.059	34697.42
663.409	34621.04
663.76	34853.12
664.11	34846.8
664.461	34892.9
664.811	34889.73
665.161	34796.18
665.511	34743.52
665.862	34777.19
666.212	34916.4
666.562	34924.99
666.912	34746.69
667.262	34782.39
667.612	34743.07
667.962	34861.48
668.312	34742.39
668.662	34984.19
669.011	34767.7
669.361	34801.15
669.711	34740.58
670.06	34617.42
670.41	34634.37
670.76	34639.34
671.109	34832.33
671.459	34685.67
671.808	34659
672.157	34715.05
672.507	34351.44
672.856	34521.83
673.205	34602.96
673.554	34682.73
673.904	34459.46
674.253	34695.61
674.602	34501.27
674.951	34038.46
675.3	33925.92
675.649	34440.93
675.998	34374.72
676.346	34258.56
676.695	34546.46
677.044	34320.71
677.393	34294.49
677.741	34361.16
678.09	34307.15
678.438	34238
678.787	34329.52
679.135	34270.77
679.484	34077.32
679.832	34235.06
680.181	34029.87
680.529	34140.15
680.877	34009.3
681.225	33908.97
681.573	34181.5
681.922	33920.27
682.27	33890.21
682.618	33833.26
682.966	33838.01
683.314	33859.93
683.661	33718.24
684.009	33606.6
684.357	33508.75
684.705	33566.15
685.053	33460.84
685.4	33494.06
685.748	33383.33
686.095	33309.21
686.443	33275.31
686.79	33166.16
687.138	33249.78
687.485	33246.39
687.832	33121.64
688.18	33019.5
688.527	32925.26
688.874	33040.06
689.221	32806.4
689.568	32705.83
689.915	32838.49
690.262	32663.58
690.609	32704.48
690.956	32550.36
691.303	32520.3
691.65	32425.16
691.997	32381.78
692.344	32199.41
692.69	32186.3
693.037	32143.36
693.383	32056.59
693.73	32093.65
694.077	31908.12
694.423	31826.08
694.769	31711.74
695.116	31728.23
695.462	31669.7
695.808	31580.67
696.155	31657.5
696.501	31357.4
696.847	31351.07
697.193	31098.87
697.539	31239.66
697.885	30973.9
698.231	31005.09
698.577	30857.97
698.923	30916.96
699.269	30695.49
699.614	30584.31
699.96	30664.31
700.306	30583.18
700.651	30549.28
700.997	30402.17
701.342	30323.98
701.688	30268.16
702.033	30140.48
702.379	30031.55
702.724	29984.55
703.069	30131.89
703.415	29759.02
703.76	29846.48
704.105	29829.98
704.45	29680.38
704.795	29689.42
705.14	29573.94
705.485	29515.64
705.83	29373.72
706.175	29390.44
706.52	29336.43
706.865	29250.56
707.209	29216.89
707.554	28960.4
707.899	29120.17
708.243	29093.5
708.588	28931.92
708.932	28644.7
709.277	28783.23
709.621	28771.02
709.966	28575.32
710.31	28536.68
710.654	28273.86
710.998	28432.95
711.342	28395.21
711.687	28308.21
712.031	28130.59
712.375	28127.2
712.719	28194.09
713.063	28061.66
713.407	28165.62
713.75	27961.1
714.094	27972.63
714.438	27855.12
714.782	27855.79
715.125	27788.45
715.469	27833.42
715.812	27614.44
716.156	27557.5
716.499	27510.49
716.843	27565.41
717.186	27336.94
717.53	27577.16
717.873	27442.02
718.216	27401.57
718.559	27366.31
718.902	27007.45
719.246	27250.61
719.589	27087
719.932	26998.87
720.275	26876.61
720.617	27076.38
720.96	26930.17
721.303	26985.53
721.646	27062.59
721.989	26823.05
722.331	26797.74
722.674	26781.24
723.016	26747.12
723.359	26628.25
723.701	26614.7
724.044	26547.13
724.386	26373.12
724.729	26433.01
725.071	26443.17
725.413	26388.71
725.755	26381.03
726.097	26254.25
726.439	26181.49
726.782	26148.27
727.124	26216.97
727.465	26128.38
727.807	26192.79
728.149	26069.85
728.491	26016.75
728.833	26034.37
729.175	25952.34
729.516	25950.76
729.858	25838.44
730.199	25842.06
730.541	25737.43
730.882	25897.88
731.224	25763.87
731.565	25591.67
731.906	25560.03
732.248	25661.95
732.589	25525.46
732.93	25521.17
733.271	25426.03
733.612	25493.82
733.953	25480.94
734.294	25473.03
734.635	25320.49
734.976	25360.72
735.317	25207.5
735.658	25255.41
735.999	25278.23
736.339	25118.92
736.68	25249.31
737.021	25109.2
737.361	25018.58
737.702	25146.26
738.042	24977.22
738.383	25017.68
738.723	24969.54
739.063	24864.46
739.404	24895.64
739.744	24824.23
740.084	24703.11
740.424	24781.52
740.764	24534.75
741.104	24789.66
741.444	24616.1
741.784	24606.61
742.124	24602.32
742.464	24450.23
742.804	24554.41
743.143	24330.91
743.483	24477.12
743.823	24305.15
744.162	24258.83
744.502	24370.69
744.841	24291.14
745.181	24287.53
745.52	24229.67
745.86	24217.02
746.199	24090.02
746.538	24135.44
746.877	24144.25
747.216	24162.56
747.556	24146.06
747.895	24106.51
748.234	23910.36
748.573	23886.86
748.911	23935.9
749.25	23848.21
749.589	23807.76
749.928	23820.19
750.267	23810.48
750.605	23611.61
750.944	23641.44
751.283	23699.29
751.621	23614.77
751.96	23547.43
752.298	23442.35
752.636	23483.7
752.975	23375.91
753.313	23209.59
753.651	23370.94
753.989	23301.11
754.327	23166.2
754.666	23114.45
755.004	23154.22
755.342	23002.36
755.679	23007.11
756.017	22825.19
756.355	22985.19
756.693	22841.91
757.031	22951.97
757.368	22761.24
757.706	22604.18
758.044	22620.68
758.381	22633.11
758.719	22533
759.056	22594.01
759.394	22589.04
759.731	22297.75
760.068	22284.87
760.405	22194.25
760.743	22191.76
761.08	22242.61
761.417	21978.66
761.754	22013.23
762.091	21947.02
762.428	21835.16
762.765	21719.68
763.102	21806.01
763.438	21693.7
763.775	21541.38
764.112	21542.51
764.449	21599.46
764.785	21451.22
765.122	21329.41
765.458	21371.9
765.795	21300.71
766.131	21243.31
766.467	21026.59
766.804	21058.91
767.14	20960.38
767.476	20855.3
767.812	20758.35
768.148	20871.8
768.485	20637.68
768.821	20621.18
769.157	20552.48
769.492	20560.17
769.828	20598.36
770.164	20323.11
770.5	20199.5
770.836	20268.2
771.171	20137.35
771.507	20165.6
771.842	19929.9
772.178	19990.92
772.513	19926.28
772.849	19844.93
773.184	19781.88
773.519	19723.8
773.855	19684.26
774.19	19588.44
774.525	19557.71
774.86	19599.74
775.195	19321.78
775.53	19352.51
775.865	19240.65
776.2	19133.08
776.535	19014.22
776.87	19010.15
777.205	18941.9
777.539	18847.44
777.874	18954.33
778.209	18781.91
778.543	18713.89
778.878	18448.58
779.212	18572.65
779.547	18468.02
779.881	18425.76
780.215	18344.63
780.55	18354.8
780.884	18286.33
781.218	18147.8
781.552	18193.22
781.886	18037.07
782.22	18002.04
782.554	17890.41
782.888	17762.95
783.222	17756.85
783.556	17663.29
783.889	17589.62
784.223	17467.82
784.557	17380.59
784.89	17485.44
785.224	17444.09
785.557	17281.61
785.891	17182.4
786.224	17143.31
786.558	17180.82
786.891	17026.7
787.224	17035.51
787.557	16893.14
787.891	16920.26
788.224	16939.7
788.557	16861.51
788.89	16778.8
789.223	16753.94
789.556	16610.66
789.888	16547.16
790.221	16515.75
790.554	16400.05
790.887	16314.18
791.219	16343.55
791.552	16318.7
791.884	16249.54
792.217	16141.52
792.549	16158.25
792.882	16041.41
793.214	15934.07
793.546	15923.23
793.879	15869.67
794.211	15781.76
794.543	15857.24
794.875	15764.59
795.207	15807.07
795.539	15653.63
795.871	15635.1
796.203	15579.96
796.535	15442.56
796.867	15414.54
797.198	15341.09
797.53	15314.2
797.862	15270.81
798.193	15322.56
798.525	15040.31
798.856	15034.44
799.188	14998.28
799.519	15058.39
799.85	14878.51
800.182	14951.95
800.513	14868.56
800.844	14794.89
801.175	14863.59
801.506	14808
801.837	14786.76
802.168	14615.24
802.499	14651.17
802.83	14559.19
803.161	14505.41
803.491	14489.59
803.822	14474.45
804.153	14410.72
804.483	14311.97
804.814	14209.6
805.145	14230.84
805.475	14283.27
805.805	14165.76
806.136	14219.09
806.466	14205.76
806.796	14109.71
807.126	14005.76
807.457	13939.1
807.787	13923.96
808.117	13854.35
808.447	13908.82
808.777	13911.3
809.107	13833.11
809.436	13755.15
809.766	13785.65
810.096	13757.86
810.426	13630.18
810.755	13616.39
811.085	13652.1
811.414	13579.33
811.744	13421.82
812.073	13425.89
812.403	13406.46
812.732	13431.99
813.061	13250.08
813.39	13252.34
813.719	13228.61
814.049	13293.92
814.378	13210.3
814.707	13227.48
815.036	13132.11
815.365	13109.51
815.693	12973.47
816.022	13011.44
816.351	12981.16
816.68	12903.42
817.008	12973.02
817.337	12825.45
817.665	12801.5
817.994	12789.3
818.322	12844.66
818.651	12726.47
818.979	12768.96
819.307	12701.62
819.636	12605.8
819.964	12608.96
820.292	12695.06
820.62	12636.31
820.948	12626.36
821.276	12645.35
821.604	12631.79
821.932	12705.68
822.259	12661.62
822.587	12596.08
822.915	12541.39
823.243	12601.5
823.57	12509.3
823.898	12615.97
824.225	12472.24
824.553	12460.27
824.88	12521.28
825.207	12542.07
825.535	12480.15
825.862	12477.67
826.189	12415.75
826.516	12491.9
826.843	12596.53
827.17	12537.33
827.497	12493.26
827.824	12498.68
828.151	12519.47
828.478	12508.4
828.805	12529.64
829.131	12455.29
829.458	12471.34
829.785	12443.32
830.111	12480.15
830.438	12477.67
830.764	12446.48
831.09	12483.99
831.417	12379.14
831.743	12392.47
832.069	12427.27
832.395	12359.03
832.722	12472.69
833.048	12395.18
833.374	12378.46
833.7	12321.74
834.026	12345.69
834.351	12377.78
834.677	12301.4
835.003	12355.41
835.329	12299.37
835.654	12323.77
835.98	12223.44
836.306	12276.99
836.631	12189.31
836.956	12287.84
837.282	12212.36
837.607	12186.6
837.932	12232.7
838.258	12201.74
838.583	12130.56
838.908	12115.87
839.233	12166.49
839.558	12091.01
839.883	12048.53
840.208	11987.74
840.533	12023.89
840.858	11979.6
841.182	11983.89
841.507	11973.5
841.832	11872.94
842.156	11849.66
842.481	11877.23
842.805	11761.98
843.13	11712.49
843.454	11808.98
843.778	11690.12
844.103	11754.75
844.427	11623
844.751	11683.11
845.075	11673.62
845.399	11577.12
845.723	11539.39
846.047	11601.08
846.371	11473.4
846.695	11441.99
847.019	11378.49
847.343	11334.42
847.666	11313.18
847.99	11252.61
848.313	11241.77
848.637	11155.89
848.96	11143.01
849.284	11069.79
849.607	11042.68
849.931	11026.18
850.254	10939.4
850.577	10856.47
850.9	10835.68
851.223	10775.34
851.546	10688.56
851.869	10637.49
852.192	10736.47
852.515	10647.43
852.838	10583.03
853.161	10588.68
853.483	10470.26
853.806	10503.71
854.129	10523.14
854.451	10406.08
854.774	10339.42
855.096	10242.92
855.419	10327.67
855.741	10277.5
856.063	10178.74
856.385	10151.63
856.708	10148.91
857.03	10152.98
857.352	10168.35
857.674	10050.16
857.996	10079.76
858.318	9991.86
858.64	10055.81
858.961	9976.26
859.283	9935.81
859.605	9914.57
859.926	9945.98
860.248	9892.88
860.57	9874.34
860.891	9875.02
861.212	9807
861.534	9826.89
861.855	9725.42
862.176	9802.93
862.498	9702.82
862.819	9662.37
863.14	9641.58
863.461	9641.36
863.782	9623.73
864.103	9657.4
864.424	9558.42
864.745	9632.77
865.065	9550.29
865.386	9533.34
865.707	9524.75
866.027	9517.29
866.348	9482.49
866.668	9488.14
866.989	9453.56
867.309	9379.89
867.63	9378.99
867.95	9377.63
868.27	9375.37
868.59	9345.09
868.91	9351.42
869.23	9303.06
869.55	9290.63
869.87	9348.03
870.19	9331.08
870.51	9252.89
870.83	9277.98
871.15	9211.31
871.469	9218.32
871.789	9226.68
872.109	9311.2
872.428	9141.48
872.748	9218.99
873.067	9171.99
873.386	9217.41
873.706	9147.13
874.025	9111.88
874.344	9102.39
874.663	9135.61
874.982	9091.99
875.301	9053.58
875.62	9065.33
875.939	9017.87
876.258	9080.69
876.577	8931.32
876.896	8966.12
877.214	8998.44
877.533	8969.74
877.852	8931.09
878.17	8956.4
878.489	8934.03
878.807	8884.77
879.125	8974.93
879.444	8872.34
879.762	8814.49
880.08	8788.72
880.398	8821.27
880.716	8769.29
881.034	8767.03
881.352	8753.7
881.67	8783.53
881.988	8743.08
882.306	8701.95
882.624	8739.23
882.941	8657.2
883.259	8607.94
883.577	8623.53
883.894	8586.47
884.212	8583.98
884.529	8551.89
884.846	8541.27
885.164	8584.89
885.481	8541.05
885.798	8510.54
886.115	8441.16
886.432	8417.43
886.75	8433.25
887.067	8424.44
887.383	8429.86
887.7	8356.19
888.017	8306.48
888.334	8365.91
888.651	8258.34
888.967	8229.64
889.284	8261.05
889.6	8254.5
889.917	8163.2
890.233	8136.99
890.55	8099.02
890.866	8144.45
891.182	8148.74
891.498	8077.1
891.815	8082.75
892.131	8109.42
892.447	8026.71
892.763	8028.52
893.079	7995.52
893.395	7900.84
893.71	7899.71
894.026	7918.24
894.342	7931.57
894.657	7832.14
894.973	7835.98
895.289	7795.98
895.604	7815.42
895.92	7832.82
896.235	7733.84
896.55	7642.31
896.865	7714.4
897.181	7623.33
897.496	7727.51
897.811	7546.04
898.126	7583.78
898.441	7549.21
898.756	7532.94
899.071	7494.75
899.386	7516.21
899.7	7406.61
900.015	7410.23
900.33	7365.71
900.644	7365.03
900.959	7368.2
901.273	7300.85
901.588	7296.56
901.902	7255.2
902.216	7240.74
902.531	7172.5
902.845	7198.26
903.159	7182.21
903.473	7134.98
903.787	7110.12
904.101	7049.33
904.415	7042.55
904.729	7082.33
905.042	6960.75
905.356	6949
905.67	6981.31
905.984	6918.04
906.297	6936.57
906.611	6846.85
906.924	6834.42
907.237	6805.05
907.551	6803.24
907.864	6797.82
908.177	6709.91
908.491	6718.95
908.804	6633.3
909.117	6677.14
909.43	6662.45
909.743	6594.88
910.056	6630.81
910.368	6556.47
910.681	6515.34
910.994	6482.34
911.307	6460.88
911.619	6439.18
911.932	6433.08
912.244	6393.31
912.557	6352.4
912.869	6328
913.181	6349.69
913.494	6316.25
913.806	6250.94
914.118	6215.23
914.43	6208.23
914.742	6226.08
915.054	6140.88
915.366	6131.39
915.678	6139.3
915.99	6083.48
916.302	6058.85
916.613	6079.64
916.925	5988.57
917.236	6017.05
917.548	6000.55
917.859	5987.67
918.171	5936.14
918.482	5910.83
918.794	5902.02
919.105	5827.67
919.416	5852.76
919.727	5807.79
920.038	5800.55
920.349	5793.1
920.66	5744.96
920.971	5760.78
921.282	5712.65
921.593	5621.35
921.903	5626.1
922.214	5630.39
922.525	5634
922.835	5599.2
923.146	5589.03
923.456	5527.34
923.767	5486.21
924.077	5543.84
924.387	5453.67
924.697	5482.14
925.008	5402.6
925.318	5396.95
925.628	5354.01
925.938	5367.8
926.248	5307.01
926.558	5313.33
926.867	5308.59
927.177	5272.43
927.487	5243.05
927.796	5182.49
928.106	5208.25
928.416	5194.92
928.725	5132.77
929.034	5144.07
929.344	5108.37
929.653	5103.17
929.962	5048.03
930.271	5079.89
930.581	5000.35
930.89	4939.79
931.199	4979.11
931.508	4944.31
931.817	4950.41
932.125	4897.98
932.434	4889.39
932.743	4868.83
933.051	4847.58
933.36	4843.06
933.669	4796.96
933.977	4781.37
934.286	4792.67
934.594	4754.03
934.902	4704.31
935.21	4686.46
935.519	4690.75
935.827	4642.84
936.135	4585.67
936.443	4633.58
936.751	4596.97
937.059	4594.48
937.367	4556.74
937.674	4550.42
937.982	4555.16
938.29	4519.01
938.597	4501.6
938.905	4488.05
939.213	4465.9
939.52	4466.8
939.827	4389.97
940.135	4389.97
940.442	4397.43
940.749	4390.87
941.056	4377.31
941.363	4312.91
941.67	4328.95
941.977	4364.89
942.284	4254.15
942.591	4239.24
942.898	4222.97
943.205	4252.12
943.511	4192.91
943.818	4167.15
944.125	4147.49
944.431	4105.46
944.738	4137.55
945.044	4149.52
945.35	4112.69
945.657	4067.27
945.963	4077.21
946.269	4037.66
946.575	4036.76
946.881	3998.34
947.187	4000.38
947.493	4001.96
947.799	3980.26
948.105	3950.43
948.41	3933.71
948.716	3935.29
949.022	3867.27
949.327	3872.92
949.633	3851.45
949.938	3820.94
950.244	3869.76
950.549	3842.19
950.854	3791.12
951.16	3809.19
951.465	3778.91
951.77	3721.51
952.075	3736.65
952.38	3698.01
952.685	3727.61
952.99	3701.4
953.294	3698.46
953.599	3614.4
953.904	3629.31
954.209	3572.59
954.513	3595.64
954.818	3590.89
955.122	3565.81
955.426	3535.3
955.731	3533.27
956.035	3509.54
956.339	3522.65
956.643	3488.75
956.948	3460.95
957.252	3481.07
957.556	3441.52
957.86	3423.89
958.163	3407.62
958.467	3423.89
958.771	3384.8
959.075	3360.62
959.378	3343.67
959.682	3375.53
959.985	3304.57
960.289	3345.48
960.592	3326.04
960.896	3293.05
961.199	3278.13
961.502	3294.18
961.805	3272.03
962.108	3260.51
962.411	3171.47
962.714	3220.73
963.017	3180.74
963.32	3192.71
963.623	3155.2
963.926	3139.15
964.228	3140.28
964.531	3140.96
964.833	3108.65
965.136	3061.87
965.438	3090.57
965.741	3046.05
966.043	3048.08
966.345	3060.29
966.648	3064.13
966.95	3015.77
967.252	3013.73
967.554	2994.75
967.856	2982.32
968.158	2935.54
968.46	2957.69
968.761	2971.02
969.063	2930.12
969.365	2914.3
969.666	2902.1
969.968	2868.88
970.269	2891.03
970.571	2885.15
970.872	2858.48
971.174	2850.12
971.475	2790.01
971.776	2816.68
972.077	2818.94
972.378	2809.45
972.679	2790.92
972.98	2783.01
973.281	2782.1
973.582	2753.4
973.883	2713.86
974.183	2738.04
974.484	2719.73
974.785	2715.21
975.085	2697.13
975.386	2685.38
975.686	2643.35
975.986	2670.47
976.287	2640.86
976.587	2619.17
976.887	2628.21
977.187	2625.04
977.487	2582.79
977.787	2596.57
978.087	2563.12
978.387	2565.38
978.687	2549.34
978.987	2586.85
979.286	2546.18
979.586	2555.44
979.885	2507.98
980.185	2519.06
980.484	2482.9
980.784	2492.62
981.083	2482.22
981.382	2410.13
981.682	2467.76
981.981	2440.87
982.28	2438.16
982.579	2411.49
982.878	2416.24
983.177	2423.92
983.475	2406.29
983.774	2384.82
984.073	2362
984.372	2373.07
984.67	2349.57
984.969	2359.74
985.267	2348.44
985.566	2300.98
985.864	2316.35
986.162	2282.91
986.461	2278.39
986.759	2294.88
987.057	2301.89
987.355	2224.83
987.653	2281.55
987.951	2232.51
988.249	2261.89
988.547	2223.25
988.844	2223.47
989.142	2189.8
989.44	2164.94
989.737	2169.46
990.035	2181.67
990.332	2142.34
990.63	2163.36
990.927	2178.95
991.224	2129.01
991.521	2104.61
991.819	2134.21
992.116	2111.16
992.413	2081.56
992.71	2072.06
993.006	2061.22
993.303	2063.7
993.6	2064.83
993.897	2066.87
994.193	2051.05
994.49	1987.77
994.787	2018.73
995.083	2009.24
995.379	1974.44
995.676	1973.76
995.972	1946.87
996.268	1953.42
996.565	1977.15
996.861	1956.36
997.157	1940.77
997.453	1950.94
997.749	1916.36
998.044	1931.5
998.34	1911.16
998.636	1882.92
998.932	1879.98
999.227	1898.28
999.523	1858.06
999.818	1836.36
1000.114	1839.3
1000.409	1817.38
1000.704	1856.93
1001	1816.03
1001.295	1800.66
1001.59	1806.99
1001.885	1778.51
1002.18	1767.67
1002.475	1750.72
1002.77	1768.12
1003.065	1784.39
1003.359	1781
1003.654	1722.69
1003.949	1688.35
1004.243	1727.89
1004.538	1699.42
1004.832	1704.16
1005.127	1676.14
1005.421	1703.71
1005.715	1673.2
1006.009	1664.84
1006.304	1649.25
1006.598	1637.95
1006.892	1639.53
1007.186	1650.15
1007.48	1617.61
1007.773	1607.44
1008.067	1582.36
1008.361	1610.16
1008.655	1574.9
1008.948	1601.34
1009.242	1582.59
1009.535	1582.59
1009.829	1557.28
1010.122	1584.17
1010.415	1540.33
1010.708	1518.18
1011.001	1524.06
1011.295	1505.3
1011.588	1533.1
1011.881	1491.51
1012.173	1472.98
1012.466	1510.27
1012.759	1481.57
1013.052	1455.13
1013.344	1453.32
1013.637	1423.04
1013.93	1423.95
1014.222	1423.95
1014.514	1448.8
1014.807	1418.3
1015.099	1372.42
1015.391	1408.13
1015.683	1414.45
1015.976	1395.47
1016.268	1382.14
1016.56	1369.94
1016.851	1339.2
1017.143	1361.8
1017.435	1370.16
1017.727	1331.97
1018.018	1332.65
1018.31	1333.1
1018.602	1312.54
1018.893	1321.12
1019.185	1286.1
1019.476	1289.94
1019.767	1292.88
1020.058	1255.14
1020.35	1277.06
1020.641	1263.5
1020.932	1225.53
1021.223	1249.26
1021.514	1212.43
1021.804	1236.38
1022.095	1202.71
1022.386	1220.11
1022.677	1216.27
1022.967	1197.74
1023.258	1182.37
1023.548	1174.01
1023.839	1177.4
1024.129	1188.92
1024.419	1147.57
1024.709	1156.38
1025	1143.28
1025.29	1136.72
1025.58	1137.4
1025.87	1125.65
1026.16	1138.98
1026.449	1120
1026.739	1093.78
1027.029	1111.64
1027.319	1077.97
1027.608	1059.44
1027.898	1065.08
1028.187	1060.11
1028.477	1068.25
1028.766	1042.03
1029.055	1036.39
1029.344	1040.23
1029.634	1057.63
1029.923	1037.74
1030.212	1027.57
1030.501	1030.51
1030.79	1008.36
1031.078	1020.57
1031.367	1001.36
1031.656	992.32
1031.945	981.02
1032.233	985.09
1032.522	978.31
1032.81	959.55
1033.099	959.55
1033.387	944.18
1033.675	944.41
1033.963	941.25
1034.251	944.41
1034.54	927.01
1034.828	931.98
1035.116	906.9
1035.403	907.12
1035.691	907.35
1035.979	906.67
1036.267	889.27
1036.554	901.47
1036.842	879.33
1037.129	891.08
1037.417	883.17
1037.704	883.62
1037.992	882.26
1038.279	847.92
1038.566	849.05
1038.853	849.05
1039.14	849.05
