Data from hue_130_FLMS001491_00003.txt Node
Date: Tue Feb 07 16:57:04 GMT 2017
User: dcchb
Spectrometer: FLMS00149
Trigger mode: 0
Integration Time (sec): 2.000000E-2
Scans to average: 10
Electric dark correction enabled: true
Nonlinearity correction enabled: false
Boxcar width: 0
XAxis mode: Wavelengths
Number of Pixels in Spectrum: 2048
>>>>>Begin Spectral Data<<<<<
341.393	-15.13
341.776	-15.13
342.16	-15.13
342.543	-84.28
342.927	-78.4
343.31	-89.02
343.693	-58.52
344.077	-79.08
344.46	-62.58
344.843	-50.15
345.226	-53.54
345.61	-27.1
345.993	-12.19
346.376	-7.22
346.759	5.21
347.142	48.6
347.525	55.38
347.908	59.45
348.291	68.49
348.674	85.21
349.057	117.07
349.44	122.04
349.823	146.45
350.206	159.33
350.588	188.48
350.971	203.4
351.354	204.98
351.737	249.27
352.119	238.2
352.502	235.71
352.884	279.55
353.267	267.8
353.65	309.38
354.032	300.8
354.414	315.03
354.797	322.49
355.179	313.9
355.562	319.78
355.944	340.57
356.326	328.14
356.709	324.98
357.091	326.79
357.473	334.69
357.855	365.88
358.238	327.01
358.62	342.83
359.002	345.32
359.384	326.79
359.766	327.24
360.148	359.1
360.53	332.66
360.912	312.32
361.294	337.63
361.676	334.24
362.057	334.92
362.439	342.15
362.821	316.16
363.203	313.68
363.584	334.92
363.966	347.35
364.348	342.6
364.729	319.33
365.111	315.71
365.493	310.29
365.874	328.37
366.256	317.07
366.637	294.92
367.019	329.5
367.4	301.25
367.781	297.18
368.163	295.83
368.544	309.38
368.925	325.43
369.306	310.51
369.688	294.92
370.069	323.85
370.45	334.92
370.831	316.39
371.212	315.94
371.593	325.43
371.974	293.34
372.355	322.72
372.736	306.45
373.117	303.51
373.498	287.01
373.879	297.63
374.26	301.02
374.641	297.41
375.021	307.35
375.402	307.58
375.783	322.27
376.163	336.28
376.544	329.72
376.925	329.95
377.305	346.45
377.686	315.71
378.066	333.56
378.447	327.01
378.827	327.24
379.208	317.07
379.588	324.3
379.968	342.6
380.349	316.84
380.729	347.12
381.109	329.05
381.489	336.05
381.87	318.2
382.25	327.46
382.63	321.59
383.01	333.56
383.39	342.83
383.77	322.94
384.15	354.81
384.53	349.38
384.91	342.15
385.29	338.99
385.67	347.8
386.049	360.68
386.429	350.74
386.809	349.38
387.189	322.49
387.568	368.59
387.948	357.97
388.328	376.5
388.707	368.59
389.087	373.56
389.466	376.05
389.846	372.66
390.225	361.59
390.605	379.44
390.984	382.38
391.363	362.04
391.743	365.65
392.122	369.27
392.501	375.6
392.881	396.61
393.26	377.18
393.639	388.25
394.018	379.44
394.397	373.79
394.776	363.85
395.155	377.63
395.534	389.38
395.913	386.67
396.292	382.83
396.671	387.12
397.05	384.18
397.429	396.16
397.808	377.41
398.186	386.44
398.565	393.45
398.944	394.35
399.323	399.33
399.701	398.65
400.08	408.82
400.458	402.26
400.837	418.08
401.215	404.3
401.594	410.17
401.972	414.01
402.351	425.31
402.729	425.99
403.107	421.25
403.486	394.13
403.864	418.76
404.242	437.29
404.62	433.22
404.999	428.93
405.377	447.69
405.755	409.27
406.133	433.68
406.511	441.13
406.889	441.58
407.267	444.97
407.645	456.73
408.023	427.8
408.401	455.6
408.779	477.97
409.156	474.13
409.534	484.97
409.912	459.44
410.29	490.4
410.667	481.13
411.045	492.66
411.422	467.35
411.8	490.85
412.178	470.51
412.555	496.05
412.933	484.75
413.31	493.79
413.687	498.53
414.065	512.99
414.442	494.24
414.819	509.15
415.197	503.73
415.574	530.17
415.951	521.36
416.328	519.1
416.705	530.85
417.082	527.46
417.46	543.95
417.837	521.58
418.214	541.92
418.591	517.06
418.967	548.02
419.344	520
419.721	535.59
420.098	558.42
420.475	550.96
420.852	552.99
421.228	548.93
421.605	526.78
421.982	580.11
422.358	582.37
422.735	580.34
423.111	579.21
423.488	590.06
423.864	585.99
424.241	593.9
424.617	573.56
424.994	620.34
425.37	615.37
425.746	588.02
426.123	612.2
426.499	614.24
426.875	618.08
427.251	644.74
427.627	642.48
428.003	646.78
428.379	635.93
428.756	628.47
429.132	652.88
429.507	642.26
429.883	663.73
430.259	674.35
430.635	674.35
431.011	670.5
431.387	717.74
431.763	669.83
432.138	689.94
432.514	704.85
432.89	721.58
433.265	720.9
433.641	698.07
434.016	724.97
434.392	733.55
434.767	724.29
435.143	739.66
435.518	762.93
435.894	784.4
436.269	733.78
436.644	774.91
437.02	785.53
437.395	792.08
437.77	782.82
438.145	797.73
438.52	797.51
438.895	814
439.271	800.45
439.646	833.89
440.021	840.22
440.395	844.29
440.77	844.06
441.145	864.4
441.52	848.58
441.895	870.5
442.27	874.34
442.645	848.81
443.019	864.62
443.394	849.48
443.769	872.31
444.143	868.69
444.518	923.38
444.892	878.86
445.267	897.39
445.641	917.5
446.016	919.54
446.39	922.48
446.764	934.23
447.139	926.09
447.513	946.88
447.887	925.87
448.262	940.1
448.636	978.97
449.01	953.89
449.384	990.95
449.758	971.97
450.132	1004.51
450.506	1021
450.88	983.27
451.254	1024.17
451.628	1013.32
452.002	1020.1
452.376	1029.14
452.75	1057.39
453.123	1048.35
453.497	1071.85
453.871	1086.54
454.244	1085.18
454.618	1111.62
454.992	1118.18
455.365	1117.95
455.739	1157.95
456.112	1151.85
456.486	1181
456.859	1140.78
457.232	1224.39
457.606	1152.3
457.979	1214.22
458.352	1236.59
458.725	1246.76
459.099	1250.6
459.472	1278.85
459.845	1317.95
460.218	1291.51
460.591	1314.78
460.964	1332.18
461.337	1354.78
461.71	1357.49
462.083	1373.76
462.456	1395.91
462.829	1383.48
463.201	1450.37
463.574	1432.07
463.947	1486.75
464.32	1504.38
464.692	1513.87
465.065	1510.93
465.438	1532.86
465.81	1551.84
466.183	1577.6
466.555	1611.27
466.928	1638.39
467.3	1648.11
467.672	1662.57
468.045	1714.09
468.417	1728.56
468.789	1762
469.161	1788.67
469.534	1823.24
469.906	1874.54
470.278	1878.38
470.65	1933.07
471.022	1955.89
471.394	2020.98
471.766	2043.35
472.138	2059.85
472.51	2098.72
472.882	2184.36
473.253	2162.44
473.625	2224.14
473.997	2290.12
474.369	2326.51
474.74	2337.81
475.112	2427.29
475.484	2472.27
475.855	2497.8
476.227	2571.92
476.598	2653.05
476.97	2723.11
477.341	2769.66
477.713	2827.28
478.084	2901.18
478.455	2996.32
478.827	3065.24
479.198	3165.13
479.569	3196.54
479.94	3302.98
480.311	3396.99
480.682	3464.33
481.053	3590.43
481.424	3696.19
481.795	3749.29
482.166	3851.66
482.537	3986.35
482.908	4109.51
483.279	4143.41
483.65	4292.1
484.021	4450.97
484.391	4495.72
484.762	4635.82
485.133	4736.39
485.503	4833.56
485.874	4964.63
486.244	5061.58
486.615	5260.67
486.985	5349.25
487.356	5544.28
487.726	5632.41
488.097	5790.6
488.467	5860.65
488.837	6037.6
489.207	6194.2
489.578	6352.39
489.948	6447.08
490.318	6593.29
490.688	6676.9
491.058	6829.67
491.428	7029.21
491.798	7146.27
492.168	7326.6
492.538	7440.04
492.908	7558.01
493.278	7769.53
493.648	7904.67
494.017	8030.31
494.387	8196.63
494.757	8310.3
495.126	8425.56
495.496	8584.2
495.866	8694.25
496.235	8866.45
496.605	8978.76
496.974	9118.64
497.344	9225.99
497.713	9388.24
498.082	9463.72
498.452	9665.3
498.821	9678.86
499.19	9830.49
499.559	10004.04
499.928	10070.48
500.298	10229.12
500.667	10333.3
501.036	10383.02
501.405	10549.34
501.774	10616.68
502.143	10738.71
502.512	10787.53
502.88	10919.73
503.249	11028.2
503.618	11094.19
503.987	11150.23
504.356	11315.2
504.724	11363.78
505.093	11414.4
505.462	11496.89
505.83	11625.92
506.199	11745.92
506.567	11948.63
506.936	11835.18
507.304	11962.41
507.672	12125.57
508.041	12136.42
508.409	12210.31
508.777	12403.53
509.145	12479.91
509.514	12485.34
509.882	12548.84
510.25	12608.04
510.618	12749.51
510.986	12678.78
511.354	12815.27
511.722	13007.36
512.09	13030.63
512.458	13014.81
512.826	13133
513.193	13198.99
513.561	13284.18
513.929	13300
514.297	13345.88
514.664	13445.31
515.032	13509.72
515.4	13573.89
515.767	13494.12
516.135	13628.36
516.502	13630.62
516.869	13825.19
517.237	13792.19
517.604	13689.82
517.972	13812.31
518.339	13907.67
518.706	13946.99
519.073	13926.2
519.44	13942.47
519.808	14087.55
520.175	14060.44
520.542	14183.82
520.909	14210.26
521.276	14238.06
521.643	14367.09
522.009	14413.87
522.376	14304.27
522.743	14428.34
523.11	14552.4
523.477	14594.21
523.843	14615.22
524.21	14709.46
524.577	14758.72
524.943	14770.93
525.31	14768.67
525.676	14902.67
526.043	14931.82
526.409	14883.46
526.776	15026.06
527.142	14940.64
527.508	14957.81
527.874	15076.68
528.241	15081.2
528.607	15015.66
528.973	15080.97
529.339	15179.73
529.705	15125.72
530.071	15122.1
530.437	15214.76
530.803	15263.57
531.169	15269.9
531.535	15154.19
531.901	15151.93
532.267	15219.73
532.632	15193.74
532.998	15112.61
533.364	15092.95
533.73	15182.21
534.095	15264.25
534.461	15209.56
534.826	15239.84
535.192	15180.41
535.557	15278.03
535.923	15135.89
536.288	15191.93
536.653	15171.59
537.019	15038.04
537.384	15059.05
537.749	15118.94
538.114	15071.71
538.479	15107.64
538.845	15013.4
539.21	14996.68
539.575	14956.91
539.94	14890.92
540.305	14944.71
540.67	14823.35
541.034	14831.26
541.399	14829.23
541.764	14776.8
542.129	14820.19
542.494	14800.53
542.858	14747.42
543.223	14575.68
543.587	14694.54
543.952	14533.87
544.316	14544.04
544.681	14570.25
545.045	14533.19
545.41	14591.27
545.774	14458.17
546.138	14397.15
546.503	14460.88
546.867	14398.96
547.231	14412.29
547.595	14364.61
547.959	14327.77
548.324	14269.92
548.688	14236.7
549.052	14196.25
549.416	14244.84
549.779	14152.86
550.143	14145.4
550.507	14223.59
550.871	14123.03
551.235	14074.22
551.599	14116.93
551.962	14012.98
552.326	14014.11
552.689	14064.28
553.053	13936.14
553.417	13928.91
553.78	14038.52
554.143	13917.84
554.507	13887.33
554.87	13913.32
555.234	13992.19
555.597	13776.83
555.96	13852.53
556.323	13867.67
556.686	13851.4
557.05	13911.96
557.413	13794.68
557.776	13830.38
558.139	13823.15
558.502	13893.43
558.865	13829.71
559.228	13829.03
559.59	13856.37
559.953	13843.49
560.316	13940.44
560.679	13825.87
561.041	13908.35
561.404	13892.3
561.767	13922.81
562.129	13858.86
562.492	13936.82
562.854	13862.25
563.217	13866.09
563.579	13897.28
563.941	13955.13
564.304	13929.37
564.666	13972.98
565.028	13941.12
565.39	13948.35
565.753	14031.06
566.115	13970.04
566.477	14023.37
566.839	14014.33
567.201	14104.5
567.563	14039.42
567.925	14090.72
568.287	14142.24
568.648	14135.01
569.01	14110.15
569.372	14186.53
569.734	14139.08
570.095	14193.77
570.457	14169.81
570.819	14152.86
571.18	14222.92
571.542	14310.37
571.903	14239.87
572.265	14220.21
572.626	14246.65
572.987	14267.66
573.349	14298.85
573.71	14350.15
574.071	14428.56
574.432	14363.93
574.794	14432.63
575.155	14328.45
575.516	14324.84
575.877	14407.77
576.238	14444.61
576.599	14408.9
576.96	14401.44
577.32	14377.04
577.681	14470.59
578.042	14457.49
578.403	14392.86
578.763	14453.65
579.124	14484.83
579.485	14503.14
579.845	14480.76
580.206	14424.04
580.566	14473.31
580.927	14442.35
581.287	14522.12
581.648	14439.41
582.008	14518.05
582.368	14415.91
582.728	14482.12
583.089	14436.92
583.449	14407.54
583.809	14399.18
584.169	14565.05
584.529	14364.38
584.889	14518.95
585.249	14323.48
585.609	14332.07
585.969	14436.7
586.329	14387.88
586.688	14400.31
587.048	14360.54
587.408	14315.12
587.768	14252.29
588.127	14369.58
588.487	14288.45
588.846	14439.41
589.206	14241.9
589.565	14259.07
589.925	14293.2
590.284	14256.36
590.643	14224.95
591.003	14300.88
591.362	14288.68
591.721	14270.6
592.08	14274.67
592.44	14198.74
592.799	14237.83
593.158	14201.9
593.517	14174.78
593.876	14260.88
594.235	14189.7
594.593	14215.69
594.952	14185.18
595.311	14168.68
595.67	14112.86
596.029	14297.49
596.387	14236.48
596.746	14320.09
597.104	14153.99
597.463	14186.76
597.822	14234.44
598.18	14143.37
598.538	14142.24
598.897	14155.57
599.255	14091.62
599.613	14225.63
599.972	14130.26
600.33	14238.74
600.688	14082.58
601.046	14195.35
601.404	14215.69
601.762	14216.14
602.12	14322.8
602.478	14147.66
602.836	14280.09
603.194	14187.89
603.552	14093.43
603.91	14103.37
604.268	14281.67
604.625	14159.42
604.983	14239.41
605.341	14109.93
605.698	14174.78
606.056	14313.99
606.413	14141.79
606.771	14323.93
607.128	14234.44
607.485	14225.85
607.843	14224.27
608.2	14300.43
608.557	14330.26
608.914	14242.35
609.272	14295.23
609.629	14305.4
609.986	14385.62
610.343	14314.44
610.7	14398.51
611.057	14330.71
611.414	14363.48
611.771	14378.39
612.127	14389.01
612.484	14369.35
612.841	14437.6
613.198	14372.07
613.554	14382.01
613.911	14419.97
614.267	14401.67
614.624	14371.16
614.98	14486.86
615.337	14439.41
615.693	14417.04
616.05	14486.41
616.406	14575
616.762	14458.84
617.118	14564.38
617.475	14495
617.831	14668.55
618.187	14545.39
618.543	14608.44
618.899	14676.01
619.255	14628.1
619.611	14532.29
619.967	14720.53
620.323	14699.29
620.678	14643.24
621.034	14644.83
621.39	14626.52
621.746	14588.11
622.101	14693.19
622.457	14575
622.812	14605.28
623.168	14652.51
623.523	14592.4
623.879	14726.86
624.234	14611.61
624.589	14685.05
624.945	14696.35
625.3	14764.82
625.655	14607.99
626.01	14712.4
626.365	14701.1
626.72	14607.77
627.075	14617.48
627.43	14590.59
627.785	14613.19
628.14	14613.19
628.495	14643.92
628.85	14581.55
629.205	14550.14
629.559	14661.78
629.914	14477.83
630.269	14675.79
630.623	14428.11
630.978	14528.9
631.332	14558.5
631.687	14523.47
632.041	14478.96
632.396	14511.72
632.75	14489.35
633.104	14568.67
633.459	14433.76
633.813	14398.05
634.167	14435.34
634.521	14467.2
634.875	14470.59
635.229	14354.66
635.583	14269.92
635.937	14393.99
636.291	14377.49
636.645	14338.62
636.999	14316.25
637.352	14267.44
637.706	14298.17
638.06	14255.46
638.413	14219.3
638.767	14268.57
639.121	14161.68
639.474	14110.38
639.828	14144.5
640.181	14073.54
640.534	14068.12
640.888	14135.91
641.241	14034.22
641.594	14057.95
641.947	14073.77
642.301	14020.44
642.654	14117.38
643.007	14048.23
643.36	14069.02
643.713	14037.84
644.066	14111.51
644.419	13999.65
644.771	13909.25
645.124	13718.3
645.477	13780.67
645.83	13590.84
646.182	13576.83
646.535	13556.95
646.888	13550.62
647.24	13431.98
647.593	13600.79
647.945	13581.13
648.298	13493.67
648.65	13416.61
649.002	13393.11
649.355	13530.73
649.707	13479.66
650.059	13573.22
650.411	13763.04
650.763	13776.15
651.115	13881.91
651.467	13805.75
651.819	13883.94
652.171	13905.86
652.523	13810.95
652.875	13803.49
653.227	13775.25
653.578	13895.47
653.93	13856.82
654.282	13819.76
654.633	13734.34
654.985	13758.52
655.337	13823.38
655.688	13787.45
656.039	13850.27
656.391	13728.69
656.742	13864.96
657.094	13788.13
657.445	13838.07
657.796	13820.44
658.147	13813.44
658.498	13787.22
658.849	13835.58
659.2	13787.9
659.551	13865.19
659.902	13759.65
660.253	13843.04
660.604	13869.48
660.955	13793.55
661.306	13887.56
661.656	13878.97
662.007	13761.23
662.358	13853.89
662.708	13928.46
663.059	13834.68
663.409	13839.42
663.76	13855.47
664.11	13876.49
664.461	13939.76
664.811	13919.87
665.161	13898.41
665.511	13787.45
665.862	13794
666.212	13904.51
666.562	13859.76
666.912	13906.32
667.262	13850.27
667.612	13830.61
667.962	13904.73
668.312	13867.45
668.662	13916.94
669.011	13928.01
669.361	13902.93
669.711	13805.07
670.06	13774.34
670.41	13828.58
670.76	13806.43
671.109	13869.93
671.459	13813.66
671.808	13807.33
672.157	13809.37
672.507	13709.26
672.856	13723.72
673.205	13759.65
673.554	13815.92
673.904	13766.21
674.253	13825.19
674.602	13730.5
674.951	13506.1
675.3	13481.02
675.649	13673.1
675.998	13641.69
676.346	13646.21
676.695	13727.79
677.044	13605.31
677.393	13641.46
677.741	13593.33
678.09	13537.51
678.438	13526.89
678.787	13588.13
679.135	13620.9
679.484	13506.55
679.832	13548.58
680.181	13479.89
680.529	13476.72
680.877	13391.75
681.225	13411.19
681.573	13461.81
681.922	13393.56
682.27	13292.77
682.618	13369.38
682.966	13291.64
683.314	13329.38
683.661	13237.63
684.009	13274.47
684.357	13174.36
684.705	13132.1
685.053	13123.06
685.4	13114.92
685.748	13117.86
686.095	13135.71
686.443	13093.23
686.79	12962.16
687.138	13033.8
687.485	13026.79
687.832	12904.99
688.18	12888.71
688.527	12853.01
688.874	12794.25
689.221	12853.46
689.568	12742.28
689.915	12785.21
690.262	12727.14
690.609	12737.08
690.956	12682.17
691.303	12620.02
691.65	12602.62
691.997	12574.15
692.344	12522.4
692.69	12499.12
693.037	12444.21
693.383	12321.72
693.73	12382.06
694.077	12286.7
694.423	12186.59
694.769	12186.59
695.116	12181.39
695.462	12082.63
695.808	12045.35
696.155	12098
696.501	11969.87
696.847	12112.24
697.193	11868.18
697.539	11963.99
697.885	11794.73
698.231	11782.98
698.577	11857.33
698.923	11714.96
699.269	11687.62
699.614	11616.88
699.96	11573.04
700.306	11590.67
700.651	11502.31
700.997	11454.63
701.342	11498.02
701.688	11417.34
702.033	11383.67
702.379	11361.3
702.724	11320.39
703.069	11334.41
703.415	11232.04
703.76	11206.73
704.105	11193.17
704.45	11162.66
704.795	11102.32
705.14	11087.63
705.485	11003.79
705.83	10934.64
706.175	11003.57
706.52	10936
706.865	10862.1
707.209	10878.82
707.554	10755.44
707.899	10852.84
708.243	10694.65
708.588	10733.29
708.932	10646.97
709.277	10645.61
709.621	10654.2
709.966	10626.85
710.31	10649.9
710.654	10557.02
710.998	10566.06
711.342	10564.93
711.687	10438.38
712.031	10464.6
712.375	10398.84
712.719	10431.6
713.063	10397.25
713.407	10416.01
713.75	10380.76
714.094	10366.75
714.438	10318.16
714.782	10336.92
715.125	10253.53
715.469	10263.93
715.812	10264.38
716.156	10198.16
716.499	10166.3
716.843	10171.72
717.186	10129.47
717.53	10170.37
717.873	10272.96
718.216	10201.78
718.559	10112.06
718.902	10069.35
719.246	10114.32
719.589	10047.89
719.932	10028
720.275	9997.94
720.617	9959.53
720.96	9988.9
721.303	10012.18
721.646	9985.06
721.989	9931.73
722.331	9992.07
722.674	9933.09
723.016	9931.5
723.359	9965.63
723.701	9892.41
724.044	9885.86
724.386	9799.08
724.729	9858.29
725.071	9902.58
725.413	9886.31
725.755	9832.52
726.097	9777.84
726.439	9743.71
726.782	9794.78
727.124	9766.54
727.465	9749.59
727.807	9740.1
728.149	9768.12
728.491	9686.77
728.833	9755.92
729.175	9749.14
729.516	9689.48
729.858	9690.38
730.199	9726.31
730.541	9704.84
730.882	9656.03
731.224	9709.14
731.565	9644.05
731.906	9674.56
732.248	9645.64
732.589	9703.71
732.93	9652.64
733.271	9680.21
733.612	9670.27
733.953	9761.34
734.294	9656.48
734.635	9684.28
734.976	9634.56
735.317	9628.69
735.658	9682.7
735.999	9690.61
736.339	9681.57
736.68	9696.48
737.021	9640.89
737.361	9598.86
737.702	9666.43
738.042	9659.87
738.383	9649.48
738.723	9678.4
739.063	9682.7
739.404	9708.23
739.744	9686.31
740.084	9748.91
740.424	9765.41
740.764	9732.41
741.104	9782.81
741.444	9830.49
741.784	9782.13
742.124	9776.03
742.464	9866.2
742.804	9787.1
743.143	9875.69
743.483	9877.27
743.823	9856.03
744.162	9892.86
744.502	9991.62
744.841	9922.92
745.181	10023.93
745.52	10019.19
745.86	10085.62
746.199	10112.97
746.538	10161.33
746.877	10162.01
747.216	10257.6
747.556	10283.81
747.895	10354.77
748.234	10362.68
748.573	10433.64
748.911	10485.61
749.25	10514.99
749.589	10542.11
749.928	10644.71
750.267	10687.19
750.605	10805.83
750.944	10877.69
751.283	10910.69
751.621	11104.35
751.96	11089.89
752.298	11231.81
752.636	11326.72
752.975	11310
753.313	11383.67
753.651	11619.6
753.989	11673.61
754.327	11714.51
754.666	11889.87
755.004	12055.29
755.342	12175.74
755.679	12322.63
756.017	12415.28
756.355	12625.9
756.693	12695.73
757.031	12912.67
757.368	12997.19
757.706	13096.62
758.044	13187.24
758.381	13503.16
758.719	13593.56
759.056	13784.74
759.394	13937.05
759.731	14013.43
760.068	14167.33
760.405	14277.15
760.743	14465.62
761.08	14719.18
761.417	14863.58
761.754	15046.85
762.091	15169.78
762.428	15397.35
762.765	15462.88
763.102	15703.33
763.438	15871.91
763.775	15933.15
764.112	16144.45
764.449	16382.63
764.785	16505.12
765.122	16640.93
765.458	16717.09
765.795	16943.52
766.131	17069.62
766.467	17248.83
766.804	17337.41
767.14	17460.35
767.476	17635.03
767.812	17677.97
768.148	17871.41
768.485	17920.9
768.821	18039.99
769.157	18223.72
769.492	18310.04
769.828	18418.06
770.164	18493.77
770.5	18636.59
770.836	18741.22
771.171	18727.88
771.507	18856.47
771.842	18982.11
772.178	19079.96
772.513	19166.29
772.849	19175.1
773.184	19268.66
773.519	19427.53
773.855	19408.54
774.19	19541.87
774.525	19555.88
774.86	19696.9
775.195	19712.72
775.53	19735.31
775.865	19698.71
776.2	19660.97
776.535	19737.12
776.87	19821.87
777.205	19786.39
777.539	19978.02
777.874	20030.45
778.209	19935.31
778.543	19929.43
778.878	19832.49
779.212	20037.91
779.547	20080.39
779.881	20055.31
780.215	20054.63
780.55	20101.86
780.884	20055.08
781.218	20158.81
781.552	20059.37
781.886	20192.03
782.22	20029.77
782.554	20052.82
782.888	20008.08
783.222	19979.6
783.556	19979.83
783.889	20034.29
784.223	19839.72
784.557	19960.39
784.89	19968.75
785.224	19837.46
785.557	19872.71
785.891	19834.29
786.224	19821.87
786.558	19842.66
786.891	19707.97
787.224	19733.28
787.557	19713.39
787.891	19767.4
788.224	19588.88
788.557	19711.36
788.89	19679.04
789.223	19670.46
789.556	19607.86
789.888	19538.26
790.221	19501.87
790.554	19335.55
790.887	19410.35
791.219	19329.68
791.552	19380.97
791.884	19328.32
792.217	19239.28
792.549	19206.74
792.882	19140.75
793.214	19091.26
793.546	19116.57
793.879	19102.56
794.211	18979.18
794.543	19147.99
794.875	19040.42
795.207	18946.18
795.539	18968.78
795.871	18825.06
796.203	18761.33
796.535	18745.06
796.867	18658.05
797.198	18680.88
797.53	18663.03
797.862	18501.45
798.193	18550.94
798.525	18428.46
798.856	18590.03
799.188	18337.39
799.519	18313.66
799.85	18169.71
800.182	18216.03
800.513	18223.49
800.844	18133.1
801.175	18167.9
801.506	18242.7
801.837	17971.74
802.168	17986.66
802.499	17993.67
802.83	17870.5
803.161	17924.74
803.491	17897.85
803.822	17837.74
804.153	17843.39
804.483	17652.88
804.814	17569.95
805.145	17604.75
805.475	17620.57
805.805	17491.08
806.136	17535.82
806.466	17537.41
806.796	17547.12
807.126	17417.86
807.457	17367.02
807.787	17352.55
808.117	17371.76
808.447	17159.11
808.777	17268.94
809.107	17171.54
809.436	17176.06
809.766	17197.75
810.096	16988.49
810.426	17063.97
810.755	17078.89
811.085	17019.45
811.414	16917.08
811.744	16845.67
812.073	16756.41
812.403	16781.04
812.732	16724.32
813.061	16633.48
813.39	16746.47
813.719	16592.57
814.049	16797.31
814.378	16659.01
814.707	16541.05
815.036	16592.35
815.365	16471.45
815.693	16264.45
816.022	16395.52
816.351	16254.05
816.68	16253.82
817.008	16293.6
817.337	16115.3
817.665	16156.88
817.994	16144.22
818.322	16091.57
818.651	16056.99
818.979	16029.88
819.307	16041.63
819.636	16070.55
819.964	15881.86
820.292	16011.34
820.62	15981.29
820.948	15976.32
821.276	15992.14
821.604	15913.49
821.932	15949.43
822.259	15999.82
822.587	16013.6
822.915	15921.4
823.243	15973.61
823.57	15879.82
823.898	15864.68
824.225	15894.06
824.553	15875.3
824.88	15814.51
825.207	15911.69
825.535	15855.19
825.862	15933.61
826.189	15936.32
826.516	15989.42
826.843	15978.35
827.17	16004.79
827.497	15976.09
827.824	15997.11
828.151	15950.33
828.478	15953.72
828.805	15985.13
829.131	16014.73
829.458	15860.84
829.785	15871.91
830.111	15967.5
830.438	16065.13
830.764	15876.21
831.09	15917.11
831.417	15812.03
831.743	15977.9
832.069	15958.46
832.395	15918.69
832.722	15837.11
833.048	15852.48
833.374	15889.54
833.7	15824.68
834.026	15859.48
834.351	15836.66
834.677	15781.52
835.003	15818.13
835.329	15794.18
835.654	15787.4
835.98	15753.05
836.306	15861.07
836.631	15681.18
836.956	15752.59
837.282	15753.95
837.607	15636.21
837.932	15645.03
838.258	15666.72
838.583	15531.81
838.908	15489.32
839.233	15586.27
839.558	15472.6
839.883	15369.33
840.208	15452.04
840.533	15405.48
840.858	15369.78
841.182	15329.55
841.507	15310.8
841.832	15192.16
842.156	15189.9
842.481	15247.52
842.805	15235.77
843.13	15100.63
843.454	15127.3
843.778	15059.96
844.103	15065.38
844.427	14966.85
844.751	15001.43
845.075	14979.51
845.399	14960.07
845.723	14829
846.047	14827.87
846.371	14739.97
846.695	14770.7
847.019	14689.57
847.343	14598.5
847.666	14475.79
847.99	14413.19
848.313	14475.57
848.637	14307.21
848.96	14327.77
849.284	14282.58
849.607	14208
849.931	14182.01
850.254	14082.13
850.577	13976.6
850.9	13840.1
851.223	13850.05
851.546	13848.69
851.869	13738.18
852.192	13794.45
852.515	13600.11
852.838	13657.28
853.161	13561.47
853.483	13579.77
853.806	13444.63
854.129	13521.47
854.451	13376.39
854.774	13365.76
855.096	13379.32
855.419	13271.98
855.741	13208.25
856.063	13119.22
856.385	13184.3
856.708	13142.95
857.03	13024.53
857.352	13107.69
857.674	13076.28
857.996	12939.11
858.318	12861.37
858.64	12900.47
858.961	12901.6
859.283	12829.06
859.605	12764.42
859.926	12703.86
860.248	12750.19
860.57	12652.79
860.891	12692.34
861.212	12576.18
861.534	12578.67
861.855	12545.45
862.176	12561.27
862.498	12555.16
862.819	12506.58
863.14	12462.29
863.461	12434.49
863.782	12385.9
864.103	12446.92
864.424	12360.14
864.745	12369.18
865.065	12267.71
865.386	12246.02
865.707	12262.29
866.027	12200.82
866.348	12193.82
866.668	12176.87
866.989	12161.28
867.309	12186.13
867.63	12126.25
867.95	12108.85
868.27	12065.69
868.59	12118.11
868.91	12045.8
869.23	11948.63
869.55	11985.69
869.87	11955.41
870.19	11916.99
870.51	11926.03
870.83	11968.06
871.15	11863.21
871.469	11943.88
871.789	11995.63
872.109	11839.48
872.428	11822.3
872.748	11747.73
873.067	11724.9
873.386	11795.64
873.706	11756.99
874.025	11690.33
874.344	11685.58
874.663	11822.98
874.982	11692.36
875.301	11681.29
875.62	11622.76
875.939	11622.99
876.258	11611.46
876.577	11557.22
876.896	11553.16
877.214	11550.9
877.533	11463.22
877.852	11534.17
878.17	11515.19
878.489	11518.58
878.807	11532.82
879.125	11400.62
879.444	11403.1
879.762	11440.84
880.08	11447.17
880.398	11339.83
880.716	11350.9
881.034	11335.08
881.352	11349.55
881.67	11264.8
881.988	11287.63
882.306	11249.66
882.624	11155.43
882.941	11121.3
883.259	11125.82
883.577	11132.38
883.894	11123.11
884.212	11035.66
884.529	11072.72
884.846	10974.19
885.164	11008.09
885.481	11008.76
885.798	10997.24
886.115	10849.22
886.432	10907.52
886.75	10849.22
887.067	10887.86
887.383	10834.08
887.7	10831.82
888.017	10710.69
888.334	10757.02
888.651	10724.03
888.967	10702.56
889.284	10715.66
889.6	10705.27
889.917	10485.16
890.233	10587.31
890.55	10481.09
890.866	10520.42
891.182	10492.62
891.498	10345.05
891.815	10399.06
892.131	10322.45
892.447	10298.73
892.763	10333.3
893.079	10320.42
893.395	10207.2
893.71	10163.59
894.026	10230.48
894.342	10168.56
894.657	10093.08
894.973	10067.55
895.289	10074.55
895.604	9987.32
895.92	9976.7
896.235	9904.61
896.55	9902.35
896.865	9855.57
897.181	9835.69
897.496	9798.17
897.811	9803.6
898.126	9733.32
898.441	9740.77
898.756	9754.56
899.071	9679.53
899.386	9635.24
899.7	9537.16
900.015	9506.88
900.33	9391.63
900.644	9410.16
900.959	9521.12
901.273	9355.02
901.588	9394.57
901.902	9354.12
902.216	9297.4
902.531	9259.43
902.845	9262.6
903.159	9188.02
903.473	9099.44
903.787	9086.78
904.101	9067.57
904.415	9070.28
904.729	9023.05
905.042	8928.82
905.356	8920.91
905.67	8893.11
905.984	8975.6
906.297	8856.5
906.611	8796.62
906.924	8765.43
907.237	8802.95
907.551	8700.8
907.864	8730.41
908.177	8668.26
908.491	8662.61
908.804	8584.87
909.117	8582.16
909.43	8486.57
909.743	8446.12
910.056	8437.31
910.368	8369.06
910.681	8293.58
910.994	8282.06
911.307	8334.94
911.619	8208.16
911.932	8239.35
912.244	8190.76
912.557	8199.8
912.869	8085
913.181	8069.18
913.494	8037.54
913.806	7988.5
914.118	8080.48
914.43	7905.79
914.742	7941.73
915.054	7890.43
915.366	7875.74
915.678	7872.35
915.99	7843.65
916.302	7727.04
916.613	7718.23
916.925	7730.66
917.236	7657.21
917.548	7657.89
917.859	7647.5
918.171	7574.28
918.482	7513.04
918.794	7496.09
919.105	7522.98
919.416	7384.9
919.727	7464
920.038	7391.91
920.349	7409.08
920.66	7335.19
920.971	7313.72
921.282	7262.42
921.593	7233.95
921.903	7163.44
922.214	7187.4
922.525	7155.76
922.835	7108.3
923.146	7079.15
923.456	7061.07
923.767	7014.07
924.077	6998.02
924.387	6937.46
924.697	6977.91
925.008	6945.59
925.318	6896.33
925.628	6900.17
925.938	6850.23
926.248	6841.64
926.558	6765.49
926.867	6786.73
927.177	6766.62
927.487	6689.56
927.796	6673.74
928.106	6677.13
928.416	6628.54
928.725	6590.35
929.034	6527.75
929.344	6567.07
929.653	6517.36
929.962	6476
930.271	6405.5
930.581	6413.18
930.89	6344.48
931.199	6372.05
931.508	6292.28
931.817	6304.03
932.125	6360.07
932.434	6311.26
932.743	6275.56
933.051	6227.65
933.36	6140.87
933.669	6131.6
933.977	6121.44
934.286	6116.92
934.594	6126.86
934.902	6036.47
935.21	5979.52
935.519	6050.25
935.827	5922.8
936.135	5932.06
936.443	5954.43
936.751	5905.62
937.059	5838.73
937.367	5850.03
937.674	5850.26
937.982	5824.04
938.29	5730.71
938.597	5763.25
938.905	5683.71
939.213	5698.85
939.52	5639.19
939.827	5605.74
940.135	5612.07
940.442	5577.95
940.749	5577.72
941.056	5598.06
941.363	5476.25
941.67	5494.56
941.977	5457.95
942.284	5458.63
942.591	5396.26
942.898	5391.51
943.205	5404.62
943.511	5380.21
943.818	5334.34
944.125	5264.96
944.431	5287.78
944.738	5263.38
945.044	5213.89
945.35	5232.19
945.657	5200.56
945.963	5210.95
946.269	5116.04
946.575	5145.42
946.881	5085.08
947.187	5089.37
947.493	5034.46
947.799	5073.33
948.105	5060.22
948.41	4974.8
948.716	4987.45
949.022	4970.73
949.327	4951.52
949.633	4920.11
949.938	4911.3
950.244	4965.53
950.549	4853.45
950.854	4858.19
951.16	4832.2
951.465	4836.95
951.77	4812.99
952.075	4784.52
952.38	4751.53
952.685	4756.73
952.99	4732.09
953.294	4677.41
953.599	4649.16
953.904	4662.94
954.209	4569.61
954.513	4607.35
954.818	4573.68
955.122	4545.88
955.426	4507.47
955.731	4510.63
956.035	4490.07
956.339	4440.12
956.643	4475.15
956.948	4422.5
957.252	4370.75
957.556	4425.43
957.86	4405.32
958.163	4353.57
958.467	4355.61
958.771	4339.56
959.075	4325.78
959.378	4273.12
959.682	4262.95
959.985	4219.56
960.289	4221.37
960.592	4204.2
960.896	4180.02
961.199	4134.37
961.502	4166.01
961.805	4118.1
962.108	4133.69
962.411	4107.25
962.714	4085.1
963.017	4070.42
963.32	4091.88
963.623	4063.86
963.926	4070.64
964.228	4026.12
964.531	3951.1
964.833	3950.19
965.136	3897.99
965.438	3917.88
965.741	3906.13
966.043	3878.1
966.345	3865
966.648	3851.66
966.95	3850.08
967.252	3791.1
967.554	3812.57
967.856	3778.22
968.158	3740.25
968.46	3743.64
968.761	3785.9
969.063	3762.18
969.365	3729.63
969.666	3703.87
969.968	3661.39
970.269	3601.28
970.571	3673.36
970.872	3642.63
971.174	3626.36
971.475	3584.78
971.776	3584.78
972.077	3558.56
972.378	3580.71
972.679	3528.51
972.98	3476.08
973.281	3512.46
973.582	3473.82
973.883	3498.45
974.183	3465.46
974.484	3436.31
974.785	3436.08
975.085	3442.86
975.386	3398.79
975.686	3399.02
975.986	3378.91
976.287	3359.25
976.587	3332.36
976.887	3359.02
977.187	3335.75
977.487	3322.19
977.787	3274.28
978.087	3277.22
978.387	3222.53
978.687	3208.07
978.987	3198.57
979.286	3178.91
979.586	3183.89
979.885	3148.41
980.185	3132.59
980.484	3153.15
980.784	3140.72
981.083	3088.29
981.382	3108.63
981.682	3084.68
981.981	3102.31
982.28	3077.45
982.579	3067.73
982.878	3052.82
983.177	3030.67
983.475	3025.02
983.774	3029.99
984.073	3009.43
984.372	2985.92
984.67	2972.37
984.969	2947.51
985.267	2921.29
985.566	2908.86
985.864	2909.99
986.162	2873.38
986.461	2884.46
986.759	2870.22
987.057	2857.34
987.355	2829.32
987.653	2808.08
987.951	2806.04
988.249	2828.87
988.547	2827.51
988.844	2776.44
989.142	2759.04
989.44	2752.26
989.737	2731.92
990.035	2722.88
990.332	2676.78
990.63	2710.9
990.927	2665.48
991.224	2661.41
991.521	2630.45
991.819	2625.93
992.116	2623.9
992.413	2599.27
992.71	2631.81
993.006	2619.15
993.303	2575.31
993.6	2564.24
993.897	2540.06
994.193	2560.62
994.49	2526.28
994.787	2517.46
995.083	2512.94
995.379	2501.42
995.676	2494.19
995.972	2469.33
996.268	2474.3
996.565	2452.38
996.861	2427.52
997.157	2438.59
997.453	2398.6
997.749	2396.79
998.044	2403.57
998.34	2367.64
998.636	2374.64
998.932	2361.99
999.227	2343.46
999.523	2337.35
999.818	2337.13
1000.114	2302.1
1000.409	2265.27
1000.704	2265.94
1001	2274.3
1001.295	2253.97
1001.59	2212.16
1001.885	2238.6
1002.18	2206.28
1002.475	2209.45
1002.77	2194.76
1003.065	2160.18
1003.359	2185.49
1003.654	2154.99
1003.949	2151.37
1004.243	2126.06
1004.538	2106.4
1004.832	2102.33
1005.127	2093.52
1005.421	2068.21
1005.715	2064.37
1006.009	2073.86
1006.304	2046.51
1006.598	2036.8
1006.892	2032.28
1007.186	1994.31
1007.48	1954.54
1007.773	1988.21
1008.067	1973.3
1008.361	1955.67
1008.655	1972.17
1008.948	1945.73
1009.242	1898.27
1009.535	1930.36
1009.829	1915.9
1010.122	1878.83
1010.415	1908.44
1010.708	1912.96
1011.001	1887.65
1011.295	1875.45
1011.588	1834.99
1011.881	1835.67
1012.173	1843.13
1012.466	1829.8
1012.759	1831.83
1013.052	1772.62
1013.344	1783.02
1013.637	1737.14
1013.93	1755.45
1014.222	1763.81
1014.514	1762
1014.807	1690.59
1015.099	1684.72
1015.391	1729.23
1015.683	1674.09
1015.976	1715.9
1016.268	1664.6
1016.56	1700.76
1016.851	1637.26
1017.143	1656.69
1017.435	1649.46
1017.727	1595.45
1018.018	1635.45
1018.31	1595
1018.602	1569.92
1018.893	1573.98
1019.185	1552.74
1019.476	1564.72
1019.767	1560.43
1020.058	1566.3
1020.35	1531.73
1020.641	1539.18
1020.932	1500.99
1021.223	1512.97
1021.514	1477.49
1021.804	1495.34
1022.095	1449.69
1022.386	1461.67
1022.677	1448.11
1022.967	1425.06
1023.258	1435.91
1023.548	1424.38
1023.839	1425.29
1024.129	1426.64
1024.419	1390.71
1024.709	1395.91
1025	1348.45
1025.29	1384.38
1025.58	1370.15
1025.87	1343.03
1026.16	1362.24
1026.449	1298.51
1026.739	1322.47
1027.029	1329.7
1027.319	1288.79
1027.608	1316.36
1027.898	1285.18
1028.187	1264.84
1028.477	1286.31
1028.766	1261
1029.055	1259.87
1029.344	1243.15
1029.634	1238.4
1029.923	1266.65
1030.212	1207.44
1030.501	1201.56
1030.79	1171.28
1031.078	1185.52
1031.367	1179.64
1031.656	1166.54
1031.945	1189.59
1032.233	1161.57
1032.522	1157.05
1032.81	1184.39
1033.099	1150.04
1033.387	1113.66
1033.675	1123.37
1033.963	1129.7
1034.251	1131.06
1034.54	1119.08
1034.828	1094.9
1035.116	1091.74
1035.403	1096.48
1035.691	1105.3
1035.979	1072.53
1036.267	1086.09
1036.554	1036.37
1036.842	1041.57
1037.129	1042.25
1037.417	1018.97
1037.704	1049.7
1037.992	1014.45
1038.279	976.71
1038.566	1007.45
1038.853	1007.45
1039.14	1007.45
