Data from hue_80_FLMS001491_70.txt Node
Date: Mon Feb 06 15:23:24 GMT 2017
User: dcchb
Spectrometer: FLMS00149
Trigger mode: 0
Integration Time (sec): 2.000000E-2
Scans to average: 10
Electric dark correction enabled: true
Nonlinearity correction enabled: false
Boxcar width: 0
XAxis mode: Wavelengths
Number of Pixels in Spectrum: 2048
>>>>>Begin Spectral Data<<<<<
341.393	-10.35
341.776	-10.35
342.16	-10.35
342.543	-65.72
342.927	-73.18
343.31	-75.66
343.693	-72.72
344.077	-64.36
344.46	-50.13
344.843	-35.21
345.226	-45.61
345.61	-40.63
345.993	3.66
346.376	-40.63
346.759	9.31
347.142	27.16
347.525	37.56
347.908	62.19
348.291	86.82
348.674	82.98
349.057	115.29
349.44	120.27
349.823	126.37
350.206	157.1
350.588	189.42
350.971	218.34
351.354	233.26
351.737	227.83
352.119	251.34
352.502	265.8
352.884	271.67
353.267	270.54
353.65	274.84
354.032	280.49
354.414	315.74
354.797	314.38
355.179	309.19
355.562	333.82
355.944	312.12
356.326	322.52
356.709	334.27
357.091	343.08
357.473	351.22
357.855	316.19
358.238	324.78
358.62	311.9
359.002	343.76
359.384	339.02
359.766	324.1
360.148	338.79
360.53	345.57
360.912	324.78
361.294	336.08
361.676	337.66
362.057	301.28
362.439	335.85
362.821	331.56
363.203	317.32
363.584	314.61
363.966	327.04
364.348	315.29
364.729	318.68
365.111	308.96
365.493	289.3
365.874	311.9
366.256	313.93
366.637	310.09
367.019	308.96
367.4	312.12
367.781	293.82
368.163	301.28
368.544	326.14
368.925	297.44
369.306	320.03
369.688	305.35
370.069	303.76
370.45	286.36
370.831	311.45
371.212	300.6
371.593	312.35
371.974	324.78
372.355	303.99
372.736	304.67
373.117	301.73
373.498	299.02
373.879	312.8
374.26	318.45
374.641	302.18
375.021	326.14
375.402	301.96
375.783	318.9
376.163	327.49
376.544	322.07
376.925	322.52
377.305	305.35
377.686	303.31
378.066	335.63
378.447	329.75
378.827	342.18
379.208	324.1
379.588	314.38
379.968	324.55
380.349	341.28
380.729	317.77
381.109	307.6
381.489	328.4
381.87	355.97
382.25	349.64
382.63	341.95
383.01	349.64
383.39	339.02
383.77	329.53
384.15	346.02
384.53	330.66
384.91	356.19
385.29	350.54
385.67	371.33
386.049	339.02
386.429	338.79
386.809	362.29
387.189	344.21
387.568	352.12
387.948	356.87
388.328	355.51
388.707	360.94
389.087	346.25
389.466	362.07
389.846	364.33
390.225	335.4
390.605	346.93
390.984	366.36
391.363	363.65
391.743	348.06
392.122	357.1
392.501	370.43
392.881	371.56
393.26	373.14
393.639	355.51
394.018	386.25
394.397	372.69
394.776	366.36
395.155	361.39
395.534	369.3
395.913	358
396.292	363.65
396.671	374.95
397.05	387.38
397.429	388.73
397.808	382.41
398.186	388.28
398.565	392.57
398.944	367.94
399.323	390.09
399.701	390.99
400.08	384.67
400.458	383.76
400.837	395.74
401.215	380.37
401.594	394.16
401.972	397.55
402.351	381.05
402.729	412.46
403.107	401.61
403.486	397.09
403.864	385.12
404.242	386.92
404.62	398.9
404.999	384.67
405.377	422.86
405.755	405.91
406.133	411.78
406.511	396.64
406.889	416.75
407.267	440.03
407.645	406.59
408.023	432.57
408.401	402.52
408.779	435.51
409.156	426.7
409.534	444.78
409.912	431.9
410.29	432.8
410.667	446.58
411.045	432.57
411.422	430.99
411.8	424.89
412.178	430.31
412.555	459.24
412.933	449.52
413.31	444.1
413.687	442.06
414.065	452.91
414.442	457.21
414.819	450.43
415.197	466.24
415.574	462.4
415.951	466.24
416.328	481.61
416.705	476.19
417.082	480.71
417.46	487.94
417.837	496.75
418.214	493.81
418.591	471.89
418.967	492.91
419.344	486.81
419.721	498.79
420.098	498.33
420.475	517.32
420.852	501.27
421.228	538.33
421.605	483.65
421.982	520.93
422.358	516.19
422.735	520.03
423.111	522.06
423.488	516.19
423.864	536.07
424.241	535.85
424.617	538.11
424.994	549.63
425.37	535.85
425.746	534.49
426.123	541.95
426.499	569.74
426.875	559.12
427.251	549.63
427.627	574.49
428.003	554.15
428.379	572.46
428.756	562.29
429.132	545.11
429.507	587.15
429.883	569.07
430.259	570.87
430.635	571.55
431.011	604.32
431.387	576.75
431.763	592.8
432.138	611.55
432.514	613.81
432.89	629.63
433.265	630.76
433.641	634.38
434.016	632.57
434.392	644.77
434.767	634.38
435.143	646.35
435.518	642.51
435.894	649.06
436.269	645.22
436.644	677.09
437.02	670.99
437.395	662.85
437.77	687.48
438.145	684.09
438.52	674.15
438.895	690.65
439.271	684.09
439.646	697.65
440.021	719.8
440.395	731.1
440.77	689.06
441.145	718.67
441.52	740.36
441.895	732.68
442.27	742.17
442.645	718.89
443.019	750.08
443.394	753.92
443.769	774.49
444.143	753.92
444.518	758.44
444.892	763.41
445.267	772.9
445.641	782.62
446.016	767.71
446.39	769.51
446.764	804.32
447.139	776.29
447.513	791.21
447.887	783.98
448.262	823.98
448.636	786.69
449.01	805.22
449.384	812.22
449.758	819.46
450.132	836.18
450.506	826.91
450.88	822.62
451.254	820.36
451.628	829.63
452.002	849.06
452.376	861.04
452.75	861.26
453.123	838.89
453.497	882.51
453.871	869.17
454.244	918.89
454.618	885.89
454.992	908.27
455.365	924.99
455.739	954.82
456.112	941.26
456.486	949.62
456.859	980.58
457.232	961.6
457.606	961.6
457.979	975.84
458.352	990.3
458.725	1029.17
459.099	1020.35
459.472	1031.65
459.845	1024.87
460.218	1076.62
460.591	1064.65
460.964	1056.06
461.337	1097.41
461.71	1116.4
462.083	1110.97
462.456	1135.15
462.829	1124.08
463.201	1142.16
463.574	1166.57
463.947	1199.56
464.32	1174.02
464.692	1201.82
465.065	1199.78
465.438	1249.5
465.81	1275.49
466.183	1267.81
466.555	1314.81
466.928	1313.91
467.3	1292.66
467.672	1331.08
468.045	1374.47
468.417	1385.32
468.789	1408.59
469.161	1416.73
469.534	1439.33
469.906	1485.65
470.278	1535.37
470.65	1509.16
471.022	1534.69
471.394	1580.34
471.766	1602.71
472.138	1650.39
472.51	1684.07
472.882	1729.49
473.253	1739.21
473.625	1766.55
473.997	1823.05
474.369	1842.25
474.74	1864.4
475.112	1909.37
475.484	1996.15
475.855	2029.14
476.227	2065.75
476.598	2124.96
476.97	2181.68
477.341	2230.94
477.713	2319.08
478.084	2324.05
478.455	2407.21
478.827	2458.28
479.198	2533.31
479.569	2586.19
479.94	2688.11
480.311	2738.73
480.682	2816.69
481.053	2891.72
481.424	2954.54
481.795	3019.62
482.166	3140.52
482.537	3278.37
482.908	3307.98
483.279	3450.12
483.65	3531.7
484.021	3637.46
484.391	3724.92
484.762	3770.56
485.133	3890.11
485.503	3987.28
485.874	4125.13
486.244	4223.43
486.615	4339.59
486.985	4432.69
487.356	4575.52
487.726	4736.87
488.097	4855.51
488.467	4942.74
488.837	5102.06
489.207	5213.01
489.578	5367.58
489.948	5472.21
490.318	5637.86
490.688	5712.43
491.058	5877.18
491.428	6013.67
491.798	6141.8
492.168	6321.46
492.538	6434
492.908	6533.66
493.278	6767.1
493.648	6790.37
494.017	6929.58
494.387	7121.66
494.757	7250.47
495.126	7350.36
495.496	7490.69
495.866	7659.73
496.235	7763.45
496.605	7927.52
496.974	8064.24
497.344	8165.93
497.713	8363.89
498.082	8422.19
498.452	8560.04
498.821	8684.33
499.19	8842.97
499.559	8931.78
499.928	9101.05
500.298	9165.68
500.667	9308.05
501.036	9386.24
501.405	9489.28
501.774	9626
502.143	9775.83
502.512	9901.25
502.88	9995.49
503.249	10051.53
503.618	10200.9
503.987	10254.69
504.356	10381.01
504.724	10439.99
505.093	10589.37
505.462	10675.47
505.83	10811.06
506.199	10899.87
506.567	11082.01
506.936	11073.88
507.304	11301.21
507.672	11319.97
508.041	11438.61
508.409	11538.95
508.777	11594.77
509.145	11776.23
509.514	11810.13
509.882	11877.24
510.25	11905.94
510.618	12015.09
510.986	12157.46
511.354	12292.83
511.722	12398.59
512.09	12501.41
512.458	12477.68
512.826	12601.52
513.193	12631.12
513.561	12710.22
513.929	12825.69
514.297	12956.31
514.664	13065.91
515.032	13079.02
515.4	13164.67
515.767	13271.56
516.135	13280.37
516.502	13152.92
516.869	13517.65
517.237	13482.85
517.604	13479.24
517.972	13615.73
518.339	13711.09
518.706	13653.02
519.073	13837.64
519.44	13881.03
519.808	14018.66
520.175	13971.43
520.542	14195.15
520.909	14268.37
521.276	14248.48
521.643	14329.16
522.009	14401.25
522.376	14504.97
522.743	14648.92
523.11	14645.08
523.477	14725.76
523.843	14849.14
524.21	14965.07
524.577	14987.44
524.943	15037.84
525.31	15101.79
525.676	15216.59
526.043	15291.17
526.409	15348.11
526.776	15465.85
527.142	15466.53
527.508	15474.21
527.874	15542.46
528.241	15525.74
528.607	15589.01
528.973	15673.75
529.339	15625.62
529.705	15840.98
530.071	15895.44
530.437	15883.92
530.803	15880.3
531.169	15979.74
531.535	15977.48
531.901	15948.78
532.267	15975.44
532.632	16084.37
532.998	16057.47
533.364	16159.17
533.73	16098.83
534.095	16192.16
534.461	16301.31
534.826	16262.67
535.192	16263.34
535.557	16371.82
535.923	16289.33
536.288	16345.6
536.653	16381.31
537.019	16278.48
537.384	16342.89
537.749	16397.35
538.114	16269.45
538.479	16413.17
538.845	16401.19
539.21	16273.96
539.575	16403
539.94	16374.3
540.305	16443.45
540.67	16376.11
541.034	16385.15
541.399	16354.41
541.764	16336.56
542.129	16352.83
542.494	16429.44
542.858	16428.99
543.223	16322.78
543.587	16475.77
543.952	16277.35
544.316	16362.78
544.681	16304.92
545.045	16328.88
545.41	16374.08
545.774	16386.05
546.138	16359.16
546.503	16345.38
546.867	16296.56
547.231	16433.28
547.595	16420.85
547.959	16401.42
548.324	16337.47
548.688	16390.12
549.052	16397.13
549.416	16334.75
549.779	16372.04
550.143	16383.34
550.507	16391.7
550.871	16387.41
551.235	16347.64
551.599	16373.85
551.962	16313.74
552.326	16351.7
552.689	16409.33
553.053	16276
553.417	16342.89
553.78	16579.95
554.143	16376.33
554.507	16428.99
554.87	16417.46
555.234	16480.74
555.597	16339.73
555.96	16352.38
556.323	16394.41
556.686	16386.73
557.05	16446.16
557.413	16418.82
557.776	16464.02
558.139	16478.25
558.502	16534.97
558.865	16541.3
559.228	16637.57
559.59	16534.3
559.953	16612.26
560.316	16723.9
560.679	16614.75
561.041	16786.04
561.404	16717.34
561.767	16852.03
562.129	16738.36
562.492	16946.04
562.854	16832.59
563.217	16834.18
563.579	16802.76
563.941	16922.31
564.304	16929.99
564.666	17005.02
565.028	16988.07
565.39	17047.05
565.753	17067.39
566.115	17080.5
566.477	17133.38
566.839	17145.58
567.201	17270.55
567.563	17241.62
567.925	17202.53
568.287	17340.83
568.648	17339.93
569.01	17297.21
569.372	17395.74
569.734	17389.64
570.095	17436.42
570.457	17504.44
570.819	17520.71
571.18	17540.6
571.542	17529.3
571.903	17553.48
572.265	17687.49
572.626	17670.54
572.987	17704.89
573.349	17749.41
573.71	17722.74
574.071	17737.88
574.432	17872.34
574.794	17841.61
575.155	17839.12
575.516	17842.29
575.877	17916.63
576.238	17941.27
576.599	17955.73
576.96	17852.23
577.32	17900.59
577.681	17859.69
578.042	18012.9
578.403	17987.82
578.763	17922.51
579.124	17946.69
579.485	18006.57
579.845	18048.83
580.206	18006.57
580.566	18126.57
580.927	18055.39
581.287	18115.05
581.648	17972
582.008	18026.46
582.368	18014.26
582.728	18115.05
583.089	18058.1
583.449	18014.48
583.809	18048.61
584.169	18128.61
584.529	18016.07
584.889	18202.05
585.249	18069.4
585.609	17962.96
585.969	18099
586.329	18013.35
586.688	18054.48
587.048	18005.9
587.408	18003.64
587.768	17962.96
588.127	17958.44
588.487	17957.54
588.846	18016.74
589.206	17866.01
589.565	17944.66
589.925	17917.54
590.284	17948.27
590.643	17961.6
591.003	17952.34
591.362	17973.81
591.721	17979.46
592.08	17970.87
592.44	18018.55
592.799	18057.42
593.158	17929.29
593.517	17902.85
593.876	18024.2
594.235	17943.75
594.593	17826.01
594.952	17980.36
595.311	17902.85
595.67	17917.76
596.029	18020.13
596.387	17916.63
596.746	18005.22
597.104	17911.44
597.463	17896.97
597.822	18001.38
598.18	17835.73
598.538	17854.49
598.897	17978.1
599.255	17801.16
599.613	18030.75
599.972	17959.57
600.33	18005.22
600.688	17893.36
601.046	17874.15
601.404	17915.28
601.762	18020.81
602.12	18037.31
602.478	17988.95
602.836	18047.25
603.194	17876.18
603.552	18013.35
603.91	17933.36
604.268	18031.21
604.625	18031.66
604.983	18076.4
605.341	17901.49
605.698	17935.84
606.056	18063.3
606.413	18016.07
606.771	18100.36
607.128	18091.77
607.485	17970.42
607.843	18021.94
608.2	18068.27
608.557	18152.11
608.914	18055.39
609.272	18127.7
609.629	18260.58
609.986	18248.38
610.343	18130.41
610.7	18260.35
611.057	18225.1
611.414	18255.16
611.771	18278.21
612.127	18291.31
612.484	18378.32
612.841	18390.97
613.198	18377.19
613.554	18353.68
613.911	18341.93
614.267	18464.19
614.624	18373.57
614.98	18469.39
615.337	18473
615.693	18463.29
616.05	18467.13
616.406	18574.24
616.762	18583.28
617.118	18423.51
617.475	18561.14
617.831	18532.21
618.187	18623.96
618.543	18544.19
618.899	18686.56
619.255	18659.66
619.611	18654.02
619.967	18661.7
620.323	18722.71
620.678	18722.71
621.034	18708.03
621.39	18622.38
621.746	18578.99
622.101	18794.58
622.457	18701.7
622.812	18729.27
623.168	18773.33
623.523	18712.32
623.879	18801.58
624.234	18687.69
624.589	18796.84
624.945	18738.98
625.3	18823.28
625.655	18772.2
626.01	18798.19
626.365	18813.56
626.72	18790.51
627.075	18790.73
627.43	18767.23
627.785	18705.77
628.14	18710.51
628.495	18747.35
628.85	18700.12
629.205	18681.36
629.559	18822.82
629.914	18712.32
630.269	18640.91
630.623	18617.41
630.978	18541.25
631.332	18654.02
631.687	18666.9
632.041	18605.65
632.396	18661.92
632.75	18579.44
633.104	18670.96
633.459	18537.86
633.813	18547.13
634.167	18540.12
634.521	18587.58
634.875	18456.51
635.229	18468.71
635.583	18298.32
635.937	18403.17
636.291	18342.38
636.645	18329.5
636.999	18378.32
637.352	18379.9
637.706	18311.65
638.06	18362.05
638.413	18266.68
638.767	18188.04
639.121	18303.52
639.474	18192.11
639.828	18155.5
640.181	18274.36
640.534	18207.02
640.888	18196.63
641.241	18084.54
641.594	18151.43
641.947	18093.58
642.301	18126.35
642.654	18132.45
643.007	18092.9
643.36	18026.46
643.713	18096.52
644.066	18042.05
644.419	17995.28
644.771	17876.86
645.124	17728.62
645.477	17717.54
645.83	17529.75
646.182	17473.48
646.535	17475.29
646.888	17496.98
647.24	17462.86
647.593	17487.27
647.945	17503.31
648.298	17450.21
648.65	17340.38
649.002	17295.18
649.355	17434.39
649.707	17426.25
650.059	17518.23
650.411	17769.74
650.763	17706.7
651.115	17867.82
651.467	17793.92
651.819	17863.08
652.171	17875.96
652.523	17787.37
652.875	17806.13
653.227	17812.91
653.578	17897.2
653.93	17777.2
654.282	17762.97
654.633	17713.47
654.985	17788.95
655.337	17740.59
655.688	17883.19
656.039	17787.37
656.391	17700.14
656.742	17714.83
657.094	17768.84
657.445	17879.12
657.796	17799.8
658.147	17734.04
658.498	17786.24
658.849	17836.86
659.2	17817.88
659.551	17772
659.902	17848.39
660.253	17803.87
660.604	17864.21
660.955	17725.23
661.306	17786.02
661.656	17804.55
662.007	17846.8
662.358	17805.22
662.708	17747.6
663.059	17816.52
663.409	17692.23
663.76	17929.06
664.11	17864.88
664.461	17835.05
664.811	17884.54
665.161	17805.45
665.511	17741.27
665.862	17828.95
666.212	17922.28
666.562	17848.84
666.912	17814.72
667.262	17785.79
667.612	17818.33
667.962	17809.07
668.312	17785.56
668.662	17943.07
669.011	17819.23
669.361	17764.77
669.711	17906.24
670.06	17798.44
670.41	17797.77
670.76	17759.8
671.109	17827.6
671.459	17770.42
671.808	17754.83
672.157	17835.73
672.507	17718.9
672.856	17736.07
673.205	17774.94
673.554	17698.33
673.904	17677.77
674.253	17832.57
674.602	17767.71
674.951	17547.83
675.3	17414.73
675.649	17726.13
675.998	17642.06
676.346	17730.88
676.695	17772.68
677.044	17542.86
677.393	17538.56
677.741	17658.11
678.09	17505.34
678.438	17495.85
678.787	17485.23
679.135	17478
679.484	17386.03
679.832	17396.42
680.181	17303.32
680.529	17387.61
680.877	17300.83
681.225	17315.75
681.573	17324.11
681.922	17207.27
682.27	17180.61
682.618	17204.56
682.966	17182.42
683.314	17233.71
683.661	17144.9
684.009	17082.08
684.357	17033.94
684.705	16931.12
685.053	16977.22
685.4	17046.83
685.748	16837.79
686.095	16828.07
686.443	16757.12
686.79	16777
687.138	16830.56
687.485	16782.88
687.832	16687.06
688.18	16826.72
688.527	16623.79
688.874	16603.9
689.221	16556.9
689.568	16581.08
689.915	16392.61
690.262	16560.06
690.609	16369.1
690.956	16352.61
691.303	16340.18
691.65	16155.78
691.997	16166.62
692.344	16064.93
692.69	16071.26
693.037	16076.91
693.383	15940.87
693.73	15972.73
694.077	15917.59
694.423	15856.8
694.769	15779.97
695.116	15816.35
695.462	15687.54
695.808	15687.77
696.155	15722.34
696.501	15644.6
696.847	15530.71
697.193	15395.34
697.539	15395.34
697.885	15361.67
698.231	15246.42
698.577	15236.25
698.923	15229.47
699.269	15171.85
699.614	15090.72
699.96	15043.49
700.306	15065.63
700.651	14950.16
700.997	14892.31
701.342	14836.49
701.688	14796.04
702.033	14766.89
702.379	14785.19
702.724	14669.26
703.069	14647.79
703.415	14514.69
703.76	14525.08
704.105	14502.49
704.45	14463.84
704.795	14319.67
705.14	14277.63
705.485	14233.57
705.83	14253.23
706.175	14200.12
706.52	14187.24
706.865	14095.72
707.209	14101.59
707.554	13996.51
707.899	13983.18
708.243	14001.26
708.588	13922.84
708.932	13828.15
709.277	13823.63
709.621	13858.21
709.966	13667.48
710.31	13821.15
710.654	13661.6
710.998	13625.9
711.342	13637.42
711.687	13546.8
712.031	13557.2
712.375	13561.72
712.719	13474.94
713.063	13494.38
713.407	13440.37
713.75	13437.88
714.094	13358.79
714.438	13349.75
714.782	13358.56
715.125	13316.98
715.469	13238.34
715.812	13222.07
716.156	13115.4
716.499	13180.94
716.843	13171.9
717.186	13113.14
717.53	13123.31
717.873	13120.6
718.216	13131.67
718.559	13130.77
718.902	13012.13
719.246	12968.06
719.589	12982.98
719.932	12860.72
720.275	12900.27
720.617	12847.84
720.96	12904.11
721.303	13033.6
721.646	12846.03
721.989	12815.52
722.331	12895.97
722.674	12855.3
723.016	12789.76
723.359	12739.37
723.701	12835.19
724.044	12719.93
724.386	12582.99
724.729	12672.93
725.071	12635.19
725.413	12686.71
725.755	12713.61
726.097	12619.37
726.439	12566.27
726.782	12574.85
727.124	12676.09
727.465	12583.44
727.807	12651.24
728.149	12567.62
728.491	12552.71
728.833	12570.79
729.175	12559.94
729.516	12552.25
729.858	12569.66
730.199	12630.22
730.541	12518.36
730.882	12562.88
731.224	12593.61
731.565	12467.96
731.906	12507.06
732.248	12430.68
732.589	12471.13
732.93	12405.59
733.271	12442.88
733.612	12475.87
733.953	12542.99
734.294	12512.03
734.635	12421.41
734.976	12548.19
735.317	12402.65
735.658	12387.29
735.999	12414.86
736.339	12469.09
736.68	12470.9
737.021	12393.61
737.361	12401.52
737.702	12489.21
738.042	12463.67
738.383	12460.96
738.723	12454.18
739.063	12467.06
739.404	12484.23
739.744	12510.45
740.084	12503.44
740.424	12520.39
740.764	12505.7
741.104	12496.89
741.444	12507.06
741.784	12464.57
742.124	12539.83
742.464	12565.14
742.804	12515.19
743.143	12552.93
743.483	12572.14
743.823	12527.85
744.162	12544.12
744.502	12670.67
744.841	12672.7
745.181	12687.62
745.52	12636.32
745.86	12735.07
746.199	12756.77
746.538	12773.94
746.877	12900.04
747.216	12921.74
747.556	12969.64
747.895	13046.25
748.234	12970.1
748.573	12993.6
748.911	13041.06
749.25	13157.89
749.589	13180.03
749.928	13227.72
750.267	13327.38
750.605	13367.15
750.944	13431.1
751.283	13548.84
751.621	13587.93
751.96	13613.92
752.298	13717.2
752.636	13832.9
752.975	13862.05
753.313	13982.27
753.651	14077.64
753.989	14123.96
754.327	14220.46
754.666	14293.68
755.004	14383.62
755.342	14568.7
755.679	14634.46
756.017	14652.09
756.355	14894.11
756.693	14890.05
757.031	15078.52
757.368	15096.82
757.706	15237.38
758.044	15266.31
758.381	15509.47
758.719	15586.3
759.056	15702.68
759.394	15715.34
759.731	15785.39
760.068	15952.84
760.405	16071.71
760.743	16109.9
761.08	16203.46
761.417	16318.71
761.754	16515.54
762.091	16578.82
762.428	16586.72
762.765	16708.76
763.102	16840.05
763.438	16985.58
763.775	16988.3
764.112	17003.89
764.449	17253.83
764.785	17312.13
765.122	17271.45
765.458	17367.72
765.795	17508.96
766.131	17613.36
766.467	17611.78
766.804	17615.4
767.14	17698.11
767.476	17736.53
767.812	17858.56
768.148	17997.99
768.485	17952.56
768.821	17873.92
769.157	18043.86
769.492	18054.71
769.828	18149.4
770.164	17998.67
770.5	18114.59
770.836	18110.75
771.171	18137.42
771.507	18271.65
771.842	18222.84
772.178	18264.87
772.513	18328.83
772.849	18279.56
773.184	18320.01
773.519	18295.15
773.855	18395.72
774.19	18275.27
774.525	18307.81
774.86	18333.8
775.195	18422.38
775.53	18322.27
775.865	18298.09
776.2	18152.11
776.535	18128.83
776.87	18182.39
777.205	18221.48
777.539	18174.71
777.874	18207.47
778.209	18083.63
778.543	18123.63
778.878	18024.88
779.212	18045.44
779.547	18051.77
779.881	18008.61
780.215	17993.69
780.55	18029.62
780.884	17922.73
781.218	17886.35
781.552	17946.46
781.886	17814.49
782.22	17845.22
782.554	17702.18
782.888	17689.75
783.222	17592.57
783.556	17606.13
783.889	17577.66
784.223	17445.23
784.557	17488.85
784.89	17499.7
785.224	17419.25
785.557	17328.17
785.891	17465.12
786.224	17352.13
786.558	17355.52
786.891	17142.42
787.224	17058.8
787.557	17181.96
787.891	17121.63
788.224	17138.8
788.557	17081.18
788.89	17096.32
789.223	17005.7
789.556	16943.55
789.888	16887.28
790.221	16836.44
790.554	16696.33
790.887	16761.18
791.219	16724.35
791.552	16612.26
791.884	16554.18
792.217	16530.68
792.549	16455.65
792.882	16494.07
793.214	16344.02
793.546	16387.41
793.879	16279.84
794.211	16236.23
794.543	16256.11
794.875	16174.76
795.207	16198.26
795.539	16141.76
795.871	16168.43
796.203	16014.76
796.535	15899.74
796.867	15863.58
797.198	15883.92
797.53	15887.53
797.862	15714.66
798.193	15744.49
798.525	15649.12
798.856	15739.97
799.188	15492.74
799.519	15460.88
799.85	15432.4
800.182	15527.54
800.513	15454.33
800.844	15356.25
801.175	15353.54
801.506	15363.25
801.837	15281.9
802.168	15260.21
802.499	15217.5
802.83	14993.77
803.161	15120.77
803.491	15038.97
803.822	15093.43
804.153	14973.21
804.483	14842.14
804.814	14742.48
805.145	14871.52
805.475	14825.42
805.805	14731.86
806.136	14796.26
806.466	14688.7
806.796	14638.3
807.126	14568.25
807.457	14604.63
807.787	14521.69
808.117	14478.76
808.447	14384.07
808.777	14451.64
809.107	14439.89
809.436	14365.31
809.766	14357.18
810.096	14249.16
810.426	14264.98
810.755	14263.4
811.085	14189.95
811.414	14223.4
811.744	14025.44
812.073	14039.45
812.403	14113.34
812.732	14034.7
813.061	14013.23
813.39	13892.11
813.719	13880.36
814.049	13917.19
814.378	13896.17
814.707	13756.74
815.036	13853.01
815.365	13786.57
815.693	13669.97
816.022	13659.57
816.351	13664.54
816.68	13594.71
817.008	13586.35
817.337	13470.65
817.665	13453.93
817.994	13495.28
818.322	13431.78
818.651	13368.05
818.979	13372.35
819.307	13393.81
819.636	13425.68
819.964	13256.64
820.292	13327.83
820.62	13306.81
820.948	13223.65
821.276	13314.04
821.604	13193.14
821.932	13268.85
822.259	13299.35
822.587	13265.23
822.915	13202.18
823.243	13287.15
823.57	13202.18
823.898	13251.22
824.225	13185.46
824.553	13153.37
824.88	13162.63
825.207	13366.92
825.535	13129.41
825.862	13138.91
826.189	13185.01
826.516	13251.9
826.843	13234.5
827.17	13237.43
827.497	13208.51
827.824	13194.5
828.151	13154.27
828.478	13234.95
828.805	13250.77
829.131	13158.34
829.458	13109.3
829.785	13090.77
830.111	13229.53
830.438	13197.21
830.764	13232.24
831.09	13225.01
831.417	13174.61
831.743	13241.05
832.069	13117.66
832.395	13104.33
832.722	13116.76
833.048	13121.05
833.374	13211.9
833.7	13046.7
834.026	13062.3
834.351	13090.09
834.677	13070.66
835.003	13082.64
835.329	13030.43
835.654	13030.21
835.98	13009.87
836.306	12993.83
836.631	12931
836.956	12978.46
837.282	13015.29
837.607	12992.7
837.932	12874.05
838.258	12935.97
838.583	12841.51
838.908	12847.61
839.233	12825.47
839.558	12827.73
839.883	12759.25
840.208	12717
840.533	12778.69
840.858	12692.82
841.182	12725.81
841.507	12684.45
841.832	12594.29
842.156	12538.24
842.481	12521.07
842.805	12513.61
843.13	12510.67
843.454	12489.88
843.778	12521.3
844.103	12394.29
844.427	12418.7
844.751	12453.5
845.075	12373.73
845.399	12246.95
845.723	12257.8
846.047	12265.03
846.371	12118.59
846.695	12242.88
847.019	12040.4
847.343	12018.94
847.666	11967.19
847.99	11946.17
848.313	11963.57
848.637	11761.09
848.96	11829.56
849.284	11824.14
849.607	11729.45
849.931	11705.5
850.254	11515.9
850.577	11572.85
850.9	11435
851.223	11403.13
851.546	11305.96
851.869	11340.08
852.192	11316.35
852.515	11235.68
852.838	11225.74
853.161	11178.51
853.483	11195
853.806	11110.94
854.129	11124.04
854.451	11009.47
854.774	10938.74
855.096	11009.47
855.419	10973.77
855.741	11024.61
856.063	10865.97
856.385	10796.59
856.708	10751.62
857.03	10801.57
857.352	10708.24
857.674	10687.22
857.996	10703.94
858.318	10635.69
858.64	10623.04
858.961	10647.22
859.283	10472.76
859.605	10519.09
859.926	10565.87
860.248	10416.72
860.57	10459.2
860.891	10452.87
861.212	10368.58
861.534	10352.31
861.855	10304.18
862.176	10356.38
862.498	10338.53
862.819	10349.37
863.14	10252.88
863.461	10246.78
863.782	10232.32
864.103	10187.8
864.424	10195.93
864.745	10128.59
865.065	10176.72
865.386	10103.73
865.707	10095.37
866.027	10077.97
866.348	10071.19
866.668	10089.49
866.989	9980.12
867.309	9930.4
867.63	9968.14
867.95	9967.46
868.27	9917.07
868.59	9915.26
868.91	9953
869.23	9878.43
869.55	9851.99
869.87	9902.83
870.19	9848.6
870.51	9943.06
870.83	9837.3
871.15	9782.61
871.469	9746.68
871.789	9808.6
872.109	9806.79
872.428	9740.13
872.748	9794.14
873.067	9757.07
873.386	9761.82
873.706	9713.01
874.025	9699.67
874.344	9684.76
874.663	9678.88
874.982	9696.28
875.301	9599.79
875.62	9603.18
875.939	9633.91
876.258	9592.11
876.577	9551.2
876.896	9524.99
877.214	9465.33
877.533	9452.9
877.852	9499.68
878.17	9497.42
878.489	9514.37
878.807	9517.08
879.125	9416.74
879.444	9438.44
879.762	9413.35
880.08	9377.2
880.398	9346.01
880.716	9354.82
881.034	9278.22
881.352	9268.5
881.67	9277.99
881.988	9248.61
882.306	9242.51
882.624	9291.55
882.941	9145.34
883.259	9154.83
883.577	9136.3
883.894	9107.37
884.212	9144.21
884.529	9075.06
884.846	9093.36
885.164	9034.61
885.481	8995.74
885.798	8997.32
886.115	9005.46
886.432	8944.21
886.75	8975.63
887.067	8955.74
887.383	8903.76
887.7	8920.94
888.017	8819.47
888.334	8801.17
888.651	8807.72
888.967	8783.99
889.284	8758.23
889.6	8700.6
889.917	8657.89
890.233	8678.01
890.55	8684.11
890.866	8677.55
891.182	8629.42
891.498	8545.81
891.815	8522.53
892.131	8482.53
892.447	8533.6
892.763	8476.2
893.079	8453.61
893.395	8435.75
893.71	8425.36
894.026	8358.01
894.342	8288.64
894.657	8301.52
894.973	8340.61
895.289	8273.5
895.604	8314.85
895.92	8206.38
896.235	8192.14
896.55	8219.71
896.865	8139.26
897.181	8109.21
897.496	8078.47
897.811	8095.65
898.126	8059.49
898.441	8023.11
898.756	7958.93
899.071	8005.03
899.386	7962.54
899.7	7884.13
900.015	7838.71
900.33	7790.57
900.644	7807.29
900.959	7850.23
901.273	7761.65
901.588	7742.44
901.902	7699.27
902.216	7643.68
902.531	7684.36
902.845	7638.03
903.159	7558.94
903.473	7555.1
903.787	7481.43
904.101	7550.13
904.415	7480.98
904.729	7460.19
905.042	7419.28
905.356	7351.26
905.67	7372.5
905.984	7314.2
906.297	7273.3
906.611	7333.18
906.924	7219.97
907.237	7197.14
907.551	7258.83
907.864	7171.38
908.177	7215.45
908.491	7159.18
908.804	7064.04
909.117	7020.2
909.43	6975.68
909.743	6999.63
910.056	6944.04
910.368	7004.83
910.681	6874.44
910.994	6882.57
911.307	6845.29
911.619	6824.5
911.932	6830.6
912.244	6800.99
912.557	6800.54
912.869	6744.27
913.181	6678.28
913.494	6710.6
913.806	6638.06
914.118	6643.48
914.43	6574.33
914.742	6632.64
915.054	6523.26
915.366	6509.25
915.678	6521.45
915.99	6415.92
916.302	6359.88
916.613	6410.27
916.925	6376.37
917.236	6378.18
917.548	6309.71
917.859	6339.54
918.171	6257.73
918.482	6230.39
918.794	6195.36
919.105	6243.72
919.416	6193.55
919.727	6179.09
920.038	6157.17
920.349	6096.38
920.66	6052.54
920.971	6062.03
921.282	6008.47
921.593	6012.77
921.903	5963.5
922.214	5995.59
922.525	5933.67
922.835	5901.36
923.146	5865.65
923.456	5874.46
923.767	5846.22
924.077	5820.45
924.387	5806.44
924.697	5751.76
925.008	5766.22
925.318	5744.07
925.628	5742.94
925.938	5678.31
926.248	5656.84
926.558	5607.8
926.867	5600.8
927.177	5559.9
927.487	5514.25
927.796	5436.74
928.106	5499.11
928.416	5460.46
928.725	5431.54
929.034	5436.28
929.344	5390.86
929.653	5365.78
929.962	5340.01
930.271	5337.98
930.581	5304.54
930.89	5321.26
931.199	5260.02
931.508	5215.05
931.817	5261.15
932.125	5185.67
932.434	5208.04
932.743	5180.92
933.051	5130.08
933.36	5131.88
933.669	5088.72
933.977	5071.1
934.286	5034.26
934.594	5049.63
934.902	5016.41
935.21	4993.13
935.519	4961.27
935.827	4975.96
936.135	4947.93
936.443	4878.56
936.751	4867.49
937.059	4895.96
937.367	4852.8
937.674	4843.3
937.982	4822.97
938.29	4784.32
938.597	4832.23
938.905	4749.3
939.213	4716.75
939.52	4686.02
939.827	4743.65
940.135	4648.96
940.442	4646.93
940.749	4599.7
941.056	4655.51
941.363	4607.83
941.67	4575.52
941.977	4556.53
942.284	4542.3
942.591	4518.79
942.898	4484.22
943.205	4478.34
943.511	4434.5
943.818	4468.4
944.125	4349.98
944.431	4313.15
944.738	4386.82
945.044	4357.44
945.35	4345.24
945.657	4332.36
945.963	4333.94
946.269	4233.6
946.575	4269.76
946.881	4254.17
947.187	4248.07
947.493	4267.5
947.799	4200.61
948.105	4194.28
948.41	4188.41
948.716	4194.06
949.022	4130.33
949.327	4132.36
949.633	4092.36
949.938	4098.92
950.244	4051.01
950.549	4037.22
950.854	4003.78
951.16	4000.84
951.465	4005.36
951.77	3960.16
952.075	3953.16
952.38	3953.38
952.685	3933.72
952.99	3902.99
953.294	3870.22
953.599	3859.38
953.904	3901.18
954.209	3845.14
954.513	3837.23
954.818	3810.79
955.122	3758.81
955.426	3760.4
955.731	3785.71
956.035	3732.15
956.339	3742.09
956.643	3764.01
956.948	3658.93
957.252	3667.97
957.556	3650.12
957.86	3615.99
958.163	3633.39
958.467	3611.25
958.771	3611.7
959.075	3592.94
959.378	3556.11
959.682	3554.53
959.985	3561.76
960.289	3566.05
960.592	3507.07
960.896	3445.38
961.199	3481.31
961.502	3487.18
961.805	3458.26
962.108	3414.87
962.411	3449.44
962.714	3377.35
963.017	3419.61
963.32	3360.18
963.623	3352.5
963.926	3357.92
964.228	3304.59
964.531	3333.51
964.833	3313.85
965.136	3240.41
965.438	3284.93
965.741	3282.22
966.043	3202.44
966.345	3198.15
966.648	3237.7
966.95	3235.89
967.252	3169
967.554	3160.64
967.856	3192.27
968.158	3104.37
968.46	3153.41
968.761	3144.14
969.063	3141.2
969.365	3099.85
969.666	3075.22
969.968	3099.17
970.269	3017.59
970.571	3058.04
970.872	3009.91
971.174	3003.13
971.475	3036.35
971.776	2981.43
972.077	2986.63
972.378	2972.85
972.679	2952.51
972.98	2945.28
973.281	2926.97
973.582	2954.31
973.883	2924.71
974.183	2875
974.484	2916.12
974.785	2862.57
975.085	2830.48
975.386	2863.7
975.686	2822.12
975.986	2828.89
976.287	2814.43
976.587	2767.2
976.887	2787.54
977.187	2742.34
977.487	2756.13
977.787	2716.13
978.087	2730.59
978.387	2684.94
978.687	2724.04
978.987	2687.43
979.286	2652.4
979.586	2670.71
979.885	2667.54
980.185	2636.13
980.484	2679.75
980.784	2621.22
981.083	2604.27
981.382	2578.96
981.682	2563.59
981.981	2582.8
982.28	2546.87
982.579	2577.6
982.878	2548.9
983.177	2563.59
983.475	2518.85
983.774	2493.54
984.073	2540.54
984.372	2461.22
984.67	2485.63
984.969	2448.79
985.267	2469.13
985.566	2468.68
985.864	2431.39
986.162	2413.76
986.461	2413.76
986.759	2432.29
987.057	2383.93
987.355	2370.15
987.653	2370.15
987.951	2378.51
988.249	2374.67
988.547	2333.09
988.844	2327.89
989.142	2332.86
989.44	2296.71
989.737	2280.89
990.035	2265.07
990.332	2265.75
990.63	2264.16
990.927	2225.97
991.224	2211.96
991.521	2253.32
991.819	2228.23
992.116	2235.46
992.413	2209.7
992.71	2219.65
993.006	2195.69
993.303	2187.78
993.6	2200.44
993.897	2155.47
994.193	2146.43
994.49	2141.68
994.787	2082.47
995.083	2097.39
995.379	2100.55
995.676	2090.83
995.972	2065.52
996.268	2094.22
996.565	2075.69
996.861	2074.11
997.157	2050.84
997.453	2041.12
997.749	2042.7
998.044	2007.9
998.34	2031.4
998.636	2024.62
998.932	1957.96
999.227	1980.78
999.523	1979.88
999.818	1962.02
1000.114	1952.08
1000.409	1933.32
1000.704	1923.61
1001	1929.71
1001.295	1896.49
1001.59	1898.3
1001.885	1919.31
1002.18	1863.04
1002.475	1862.59
1002.77	1853.33
1003.065	1845.87
1003.359	1851.52
1003.654	1845.64
1003.949	1827.34
1004.243	1818.3
1004.538	1801.35
1004.832	1789.83
1005.127	1770.17
1005.421	1756.38
1005.715	1777.4
1006.009	1758.87
1006.304	1750.28
1006.598	1741.01
1006.892	1720.45
1007.186	1671.64
1007.48	1698.08
1007.773	1707.12
1008.067	1692.43
1008.361	1677.51
1008.655	1666.21
1008.948	1649.04
1009.242	1620.56
1009.535	1655.82
1009.829	1609.49
1010.122	1612.43
1010.415	1630.06
1010.708	1618.53
1011.001	1603.84
1011.295	1586.67
1011.588	1589.61
1011.881	1571.07
1012.173	1566.55
1012.466	1564.52
1012.759	1547.12
1013.052	1518.19
1013.344	1507.12
1013.637	1505.77
1013.93	1489.04
1014.222	1501.47
1014.514	1491.75
1014.807	1468.48
1015.099	1491.98
1015.391	1448.82
1015.683	1455.15
1015.976	1470.51
1016.268	1428.71
1016.56	1443.39
1016.851	1409.5
1017.143	1405.88
1017.435	1405.88
1017.727	1390.97
1018.018	1383.28
1018.31	1369.05
1018.602	1370.4
1018.893	1371.31
1019.185	1342.61
1019.476	1342.15
1019.767	1343.51
1020.058	1307.58
1020.35	1336.96
1020.641	1323.4
1020.932	1294.7
1021.223	1310.74
1021.514	1306.9
1021.804	1277.52
1022.095	1247.47
1022.386	1266.45
1022.677	1246.56
1022.967	1272.55
1023.258	1234.59
1023.548	1242.04
1023.839	1219.22
1024.129	1242.27
1024.419	1192.1
1024.709	1180.58
1025	1185.55
1025.29	1196.85
1025.58	1182.38
1025.87	1162.5
1026.16	1171.99
1026.449	1171.99
1026.739	1167.02
1027.029	1182.84
1027.319	1129.05
1027.608	1132.44
1027.898	1093.35
1028.187	1103.06
1028.477	1143.74
1028.766	1114.59
1029.055	1081.14
1029.344	1069.84
1029.634	1074.36
1029.923	1077.75
1030.212	1050.64
1030.501	1056.96
1030.79	1054.48
1031.078	1056.74
1031.367	1038.21
1031.656	1024.2
1031.945	1033.01
1032.233	1032.11
1032.522	977.87
1032.81	979.23
1033.099	1001.82
1033.387	976.51
1033.675	1011.77
1033.963	969.51
1034.251	1021.71
1034.54	945.55
1034.828	960.7
1035.116	977.87
1035.403	965.44
1035.691	945.55
1035.979	934.93
1036.267	924.76
1036.554	940.13
1036.842	927.93
1037.129	932.45
1037.417	918.89
1037.704	908.49
1037.992	874.82
1038.279	922.05
1038.566	890.41
1038.853	890.41
1039.14	890.41
