Data from hue_70_FLMS001491_34.txt Node
Date: Mon Feb 06 15:20:46 GMT 2017
User: dcchb
Spectrometer: FLMS00149
Trigger mode: 0
Integration Time (sec): 2.000000E-2
Scans to average: 10
Electric dark correction enabled: true
Nonlinearity correction enabled: false
Boxcar width: 0
XAxis mode: Wavelengths
Number of Pixels in Spectrum: 2048
>>>>>Begin Spectral Data<<<<<
341.393	-19.76
341.776	-19.76
342.16	-19.76
342.543	-85.75
342.927	-85.97
343.31	-67.67
343.693	-68.35
344.077	-71.51
344.46	-41
344.843	-52.07
345.226	-23.15
345.61	-25.86
345.993	-26.31
346.376	-17.05
346.759	18.43
347.142	9.17
347.525	45.55
347.908	52.33
348.291	60.92
348.674	86.68
349.057	119.9
349.44	129.16
349.823	130.52
350.206	163.06
350.588	190.86
350.971	197.64
351.354	223.85
351.737	229.5
352.119	248.48
352.502	263.17
352.884	268.59
353.267	295.71
353.65	289.84
354.032	287.35
354.414	312.89
354.797	310.4
355.179	320.57
355.562	324.41
355.944	318.54
356.326	324.19
356.709	320.8
357.091	333.23
357.473	349.27
357.855	331.42
358.238	316.5
358.62	325.32
359.002	334.36
359.384	331.64
359.766	351.53
360.148	330.29
360.53	336.62
360.912	352.21
361.294	313.11
361.676	334.81
362.057	332.77
362.439	348.82
362.821	320.12
363.203	318.99
363.584	325.32
363.966	311.76
364.348	307.92
364.729	316.5
365.111	307.92
365.493	321.7
365.874	312.66
366.256	317.63
366.637	310.18
367.019	316.95
367.4	320.34
367.781	323.51
368.163	302.49
368.544	299.33
368.925	309.72
369.306	337.97
369.688	312.44
370.069	308.37
370.45	297.97
370.831	315.15
371.212	323.51
371.593	317.18
371.974	314.24
372.355	322.15
372.736	328.03
373.117	317.63
373.498	311.76
373.879	321.7
374.26	301.36
374.641	307.69
375.021	315.37
375.402	331.19
375.783	316.5
376.163	306.33
376.544	334.13
376.925	311.76
377.305	302.72
377.686	314.47
378.066	335.49
378.447	312.89
378.827	314.02
379.208	329.61
379.588	300.01
379.968	330.29
380.349	343.17
380.729	333.68
381.109	325.99
381.489	345.65
381.87	344.52
382.25	334.58
382.63	319.21
383.01	324.64
383.39	349.5
383.77	326.45
384.15	350.63
384.53	335.03
384.91	336.62
385.29	330.29
385.67	355.37
386.049	351.98
386.429	358.31
386.809	342.04
387.189	350.4
387.568	345.88
387.948	338.88
388.328	345.88
388.707	344.07
389.087	342.04
389.466	346.56
389.846	342.94
390.225	334.13
390.605	370.74
390.984	356.5
391.363	361.7
391.743	356.28
392.122	359.44
392.501	359.67
392.881	372.55
393.26	350.63
393.639	361.25
394.018	369.38
394.397	358.54
394.776	363.51
395.155	386.33
395.534	378.2
395.913	353.79
396.292	370.29
396.671	378.42
397.05	343.17
397.429	385.2
397.808	398.99
398.186	359.67
398.565	381.36
398.944	389.04
399.323	372.09
399.701	380.68
400.08	371.64
400.458	376.39
400.837	380.91
401.215	395.14
401.594	374.13
401.972	382.72
402.351	410.51
402.729	398.99
403.107	409.61
403.486	388.59
403.864	385.88
404.242	380.46
404.62	399.44
404.999	396.27
405.377	389.04
405.755	397.86
406.133	403.05
406.511	392.21
406.889	398.53
407.267	409.61
407.645	410.74
408.023	412.55
408.401	419.33
408.779	422.49
409.156	405.31
409.534	419.1
409.912	420.46
410.29	411.87
410.667	420.46
411.045	408.25
411.422	422.94
411.8	425.65
412.178	430.4
412.555	441.92
412.933	459.32
413.31	438.99
413.687	443.51
414.065	449.15
414.442	455.71
414.819	459.32
415.197	461.36
415.574	443.73
415.951	461.58
416.328	452.54
416.705	460
417.082	473.79
417.46	449.38
417.837	477.18
418.214	472.66
418.591	458.65
418.967	482.83
419.344	482.83
419.721	493
420.098	497.52
420.475	499.1
420.852	509.49
421.228	508.81
421.605	496.84
421.982	486.22
422.358	506.1
422.735	484.63
423.111	486.89
423.488	522.15
423.864	503.39
424.241	520.34
424.617	539.1
424.994	529.83
425.37	534.8
425.746	528.47
426.123	528.47
426.499	515.14
426.875	539.1
427.251	537.74
427.627	564.41
428.003	522.15
428.379	545.88
428.756	565.54
429.132	586.55
429.507	529.38
429.883	574.58
430.259	572.09
430.635	569.6
431.011	573.67
431.387	582.48
431.763	591.52
432.138	604.63
432.514	610.73
432.89	595.59
433.265	614.57
433.641	609.83
434.016	625.42
434.392	603.5
434.767	645.31
435.143	646.66
435.518	619.55
435.894	645.08
436.269	652.54
436.644	651.86
437.02	683.72
437.395	668.81
437.77	662.93
438.145	664.52
438.52	667.23
438.895	667.68
439.271	661.35
439.646	689.83
440.021	680.11
440.395	699.54
440.77	698.19
441.145	676.72
441.52	706.55
441.895	702.03
442.27	683.95
442.645	701.35
443.019	732.99
443.394	702.03
443.769	737.96
444.143	740.67
444.518	739.54
444.892	725.76
445.267	744.74
445.641	754.46
446.016	763.27
446.39	732.09
446.764	740.22
447.139	723.5
447.513	776.6
447.887	776.15
448.262	759.2
448.636	775.93
449.01	776.38
449.384	788.13
449.758	793.1
450.132	781.35
450.506	798.3
450.88	816.6
451.254	774.57
451.628	792.87
452.002	818.64
452.376	826.77
452.75	837.62
453.123	847.56
453.497	850.73
453.871	845.75
454.244	840.33
454.618	867
454.992	881.23
455.365	878.75
455.739	896.15
456.112	874.91
456.486	895.92
456.859	930.95
457.232	916.94
457.606	912.65
457.979	945.64
458.352	941.12
458.725	949.48
459.099	961.91
459.472	989.48
459.845	977.73
460.218	996.94
460.591	987.45
460.964	1012.08
461.337	1061.79
461.71	1044.62
462.083	1088.46
462.456	1083.94
462.829	1052.75
463.201	1093.21
463.574	1094.79
463.947	1112.19
464.32	1149.48
464.692	1135.92
465.065	1157.16
465.438	1167.55
465.81	1168.01
466.183	1169.59
466.555	1215.24
466.928	1264.05
467.3	1277.38
467.672	1262.92
468.045	1293.43
468.417	1287.1
468.789	1327.78
469.161	1354.22
469.534	1363.48
469.906	1405.97
470.278	1414.33
470.65	1429.24
471.022	1483.48
471.394	1493.2
471.766	1507.43
472.138	1532.52
472.51	1573.19
472.882	1589.24
473.253	1643.7
473.625	1660.65
473.997	1746.07
474.369	1743.13
474.74	1759.85
475.112	1794.66
475.484	1822.68
475.855	1909.91
476.227	1957.14
476.598	1993.07
476.97	2051.82
477.341	2093.86
477.713	2146.06
478.084	2202.1
478.455	2244.14
478.827	2306.28
479.198	2378.14
479.569	2452.27
479.94	2539.27
480.311	2563.9
480.682	2587.18
481.053	2739.04
481.424	2794.63
481.795	2886.15
482.166	2941.97
482.537	3036.43
482.908	3130.21
483.279	3198.01
483.65	3314.84
484.021	3404.78
484.391	3550.54
484.762	3596.87
485.133	3657.43
485.503	3815.39
485.874	3914.83
486.244	4012.45
486.615	4120.02
486.985	4224.87
487.356	4348.26
487.726	4460.8
488.097	4614.02
488.467	4725.43
488.837	4815.14
489.207	4951.41
489.578	5056.49
489.948	5145.08
490.318	5359.53
490.688	5450.38
491.058	5576.03
491.428	5709.58
491.798	5861.22
492.168	6006.97
492.538	6135.56
492.908	6263.92
493.278	6446.51
493.648	6535.1
494.017	6687.63
494.387	6804.69
494.757	6954.52
495.126	7105.93
495.496	7263.66
495.866	7394.73
496.235	7462.08
496.605	7628.18
496.974	7770.32
497.344	7943.65
497.713	8047.15
498.082	8184.77
498.452	8310.42
498.821	8457.98
499.19	8505.89
499.559	8737.3
499.928	8842.83
500.298	8962.38
500.667	9158.08
501.036	9133.45
501.405	9325.76
501.774	9372.08
502.143	9609.14
502.512	9606.88
502.88	9835.35
503.249	9924.61
503.618	10038.96
503.987	10121.89
504.356	10313.53
504.724	10320.08
505.093	10500.19
505.462	10561.88
505.83	10716.23
506.199	10815.21
506.567	10993.96
506.936	11031.7
507.304	11253.84
507.672	11318.93
508.041	11480.28
508.409	11570.9
508.777	11626.04
509.145	11792.36
509.514	11856.09
509.882	11911.9
510.25	12059.7
510.618	12119.58
510.986	12261.5
511.354	12376.3
511.722	12486.13
512.09	12643.41
512.458	12637.31
512.826	12835.5
513.193	12926.34
513.561	12930.63
513.929	13127.69
514.297	13249.95
514.664	13330.85
515.032	13365.2
515.4	13452.2
515.767	13565.42
516.135	13659.2
516.502	13689.94
516.869	13877.05
517.237	13967.9
517.604	13946.43
517.972	14106.65
518.339	14179.42
518.706	14218.96
519.073	14289.69
519.44	14489.01
519.808	14652.85
520.175	14605.39
520.542	14733.53
520.909	14841.32
521.276	14849.91
521.643	15016.68
522.009	15239.27
522.376	15198.82
522.743	15372.15
523.11	15416.9
523.477	15582.77
523.843	15686.95
524.21	15781.18
524.577	15867.73
524.943	15949.31
525.31	16055.3
525.676	16121.96
526.043	16260.49
526.409	16284.44
526.776	16474.72
527.142	16435.4
527.508	16594.04
527.874	16602.63
528.241	16705.45
528.607	16740.48
528.973	16932.56
529.339	16865.22
529.705	17087.36
530.071	17174.14
530.437	17271.99
530.803	17314.25
531.169	17415.26
531.535	17331.42
531.901	17347.24
532.267	17488.48
532.632	17519.89
532.998	17551.53
533.364	17649.61
533.73	17729.6
534.095	17853.89
534.461	17863.16
534.826	17934.34
535.192	17958.52
535.557	18014.57
535.923	17953.55
536.288	18033.33
536.653	18128.92
537.019	18034.91
537.384	18124.17
537.749	18288.69
538.114	18136.83
538.479	18286.65
538.845	18339.53
539.21	18236.26
539.575	18353.32
539.94	18292.53
540.305	18393.77
540.67	18434.44
541.034	18471.51
541.399	18426.99
541.764	18493.65
542.129	18597.15
542.494	18546.76
542.858	18645.51
543.223	18412.52
543.587	18627.89
543.952	18639.41
544.316	18657.94
544.681	18584.5
545.045	18832.63
545.41	18772.51
545.774	18727.54
546.138	18749.24
546.503	18780.88
546.867	18699.52
547.231	18878.27
547.595	18869.46
547.959	19039.63
548.324	18916.92
548.688	18934.09
549.052	18973.19
549.416	19020.87
549.779	19040.08
550.143	18989.91
550.507	19178.38
550.871	19066.29
551.235	19185.84
551.599	19140.19
551.962	19192.16
552.326	19131.38
552.689	19344.25
553.053	19261.77
553.417	19333.63
553.78	19514.42
554.143	19390.13
554.507	19408.2
554.87	19288.21
555.234	19555.55
555.597	19445.94
555.96	19547.86
556.323	19612.49
556.686	19563.91
557.05	19670.12
557.413	19582.89
557.776	19721.87
558.139	19833.28
558.502	19800.96
558.865	19890.23
559.228	19955.53
559.59	19985.82
559.953	19946.5
560.316	20149.88
560.679	20150.78
561.041	20187.17
561.404	20251.57
561.767	20454.05
562.129	20389.65
562.492	20521.17
562.854	20484.33
563.217	20493.6
563.579	20607.72
563.941	20731.11
564.304	20679.81
564.666	20830.77
565.028	20829.64
565.39	20853.59
565.753	20963.42
566.115	20968.62
566.477	21033.92
566.839	21091.32
567.201	21256.29
567.563	21217.2
567.925	21293.35
568.287	21491.99
568.648	21571.54
569.01	21484.08
569.372	21554.36
569.734	21633.46
570.095	21652.89
570.457	21710.06
570.819	21755.94
571.18	21689.95
571.542	21818.99
571.903	21981.47
572.265	21907.8
572.626	21939.66
572.987	22055.14
573.349	21987.12
573.71	22099.66
574.071	22165.19
574.432	22105.76
574.794	22363.83
575.155	22329.26
575.516	22158.87
575.877	22399.09
576.238	22406.54
576.599	22460.55
576.96	22465.98
577.32	22480.44
577.681	22583.04
578.042	22606.31
578.403	22566.99
578.763	22641.79
579.124	22669.81
579.485	22684.73
579.845	22711.39
580.206	22651.28
580.566	22673.43
580.927	22708.23
581.287	22714.78
581.648	22669.36
582.008	22818.28
582.368	22742.35
582.728	22839.53
583.089	22735.35
583.449	22737.83
583.809	22799.08
584.169	22851.5
584.529	22794.33
584.889	22926.08
585.249	22742.81
585.609	22824.84
585.969	22878.4
586.329	22777.16
586.688	22893.08
587.048	22828.68
587.408	22812.41
587.768	22860.54
588.127	22879.53
588.487	22839.75
588.846	22959.07
589.206	22821
589.565	22876.81
589.925	22934.44
590.284	22853.31
590.643	22837.72
591.003	22816.48
591.362	22883.59
591.721	22982.8
592.08	23028.67
592.44	22950.94
592.799	22967.21
593.158	22894.67
593.517	22940.31
593.876	22909.58
594.235	22945.96
594.593	22891.28
594.952	22898.06
595.311	22944.16
595.67	22944.61
596.029	23041.1
596.387	23004.95
596.746	23047.2
597.104	22992.29
597.463	22899.86
597.822	23063.25
598.18	22901.45
598.538	22850.83
598.897	23073.87
599.255	22805.4
599.613	23089.24
599.972	22956.13
600.33	23012.4
600.688	23004.95
601.046	23071.84
601.404	23209.23
601.762	23125.17
602.12	23215.56
602.478	23269.35
602.836	23234.54
603.194	23218.95
603.552	23140.31
603.91	23156.81
604.268	23258.5
604.625	23138.5
604.983	23292.62
605.341	23213.75
605.698	23260.76
606.056	23438.61
606.413	23285.62
606.771	23375.11
607.128	23386.4
607.485	23330.81
607.843	23344.82
608.2	23399.29
608.557	23599.28
608.914	23480.64
609.272	23653.52
609.629	23621.65
609.986	23687.19
610.343	23652.39
610.7	23733.74
611.057	23804.02
611.414	23793.17
611.771	23801.99
612.127	23841.53
612.484	23859.39
612.841	23940.06
613.198	23761.31
613.554	23808.54
613.911	23937.58
614.267	23924.47
614.624	23926.28
614.98	23964.02
615.337	24053.73
615.693	24053.28
616.05	24110.45
616.406	24229.09
616.762	24001.08
617.118	24062.09
617.475	24133.5
617.831	24121.98
618.187	24224.35
618.543	24204.69
618.899	24461.18
619.255	24376.66
619.611	24269.77
619.967	24365.59
620.323	24491.91
620.678	24305.25
621.034	24334.63
621.39	24246.95
621.746	24289.43
622.101	24564.9
622.457	24416.43
622.812	24422.31
623.168	24574.85
623.523	24465.02
623.879	24642.19
624.234	24383.67
624.589	24533.49
624.945	24542.76
625.3	24524.91
625.655	24512.25
626.01	24547.28
626.365	24599.03
626.72	24604
627.075	24533.72
627.43	24591.12
627.785	24491.91
628.14	24651.23
628.495	24550.67
628.85	24528.97
629.205	24382.31
629.559	24646.71
629.914	24521.74
630.269	24538.24
630.623	24506.6
630.978	24510.22
631.332	24585.02
631.687	24597.67
632.041	24411.24
632.396	24485.58
632.75	24403.1
633.104	24488.75
633.459	24352.03
633.813	24474.06
634.167	24340.73
634.521	24329.88
634.875	24493.49
635.229	24329.66
635.583	24284.69
635.937	24138.25
636.291	24194.07
636.645	24201.07
636.999	24060.51
637.352	24226.16
637.706	24136.89
638.06	24156.33
638.413	24041.08
638.767	24080.62
639.121	24135.31
639.474	24054.41
639.828	23989.55
640.181	24018.93
640.534	24060.29
640.888	24075.2
641.241	23810.8
641.594	24020.29
641.947	23966.73
642.301	23896.45
642.654	23933.51
643.007	23917.46
643.36	23928.99
643.713	23843.57
644.066	23861.19
644.419	23793.4
644.771	23757.24
645.124	23375.78
645.477	23523.58
645.83	23251.49
646.182	23213.3
646.535	23091.72
646.888	23129.69
647.24	23067.77
647.593	23033.42
647.945	23054.66
648.298	23018.28
648.65	22973.76
649.002	22892.86
649.355	22936.25
649.707	22882.69
650.059	23029.35
650.411	23299.85
650.763	23260.08
651.115	23619.85
651.467	23399.29
651.819	23472.73
652.171	23325.62
652.523	23340.08
652.875	23355.9
653.227	23344.6
653.578	23440.87
653.93	23432.96
654.282	23350.25
654.633	23241.78
654.985	23308.44
655.337	23355.45
655.688	23377.14
656.039	23469.57
656.391	23091.05
656.742	23264.6
657.094	23264.83
657.445	23387.31
657.796	23296.69
658.147	23272.96
658.498	23289.01
658.849	23379.63
659.2	23309.34
659.551	23337.14
659.902	23323.81
660.253	23276.35
660.604	23414.43
660.955	23309.8
661.306	23336.01
661.656	23282
662.007	23236.35
662.358	23309.57
662.708	23312.28
663.059	23329.01
663.409	23142.8
663.76	23343.92
664.11	23248.78
664.461	23351.83
664.811	23377.14
665.161	23380.53
665.511	23195.9
665.862	23392.96
666.212	23339.85
666.562	23246.75
666.912	23336.24
667.262	23174.43
667.612	23238.61
667.962	23404.26
668.312	23351.38
668.662	23308.89
669.011	23271.83
669.361	23317.93
669.711	23194.32
670.06	23144.15
670.41	23193.64
670.76	23213.53
671.109	23222.12
671.459	23221.21
671.808	23179.4
672.157	23379.63
672.507	23075.45
672.856	23056.02
673.205	23119.52
673.554	23142.12
673.904	23098.73
674.253	23211.49
674.602	23067.77
674.951	22776.03
675.3	22560.89
675.649	22908.68
675.998	22964.27
676.346	22974.21
676.695	23042.69
677.044	22946.87
677.393	22910.49
677.741	22901.9
678.09	22882.69
678.438	22849.92
678.787	22910.03
679.135	22982.57
679.484	22730.15
679.832	22880.66
680.181	22708
680.529	22691.06
680.877	22690.38
681.225	22679.98
681.573	22728.8
681.922	22598.18
682.27	22578.74
682.618	22552.3
682.966	22440.44
683.314	22580.32
683.661	22435.47
684.009	22391.63
684.357	22294.91
684.705	22268.24
685.053	22270.28
685.4	22235.25
685.748	22130.17
686.095	22078.19
686.443	22050.62
686.79	22043.84
687.138	22082.26
687.485	21995.93
687.832	21897.63
688.18	21766.11
688.527	21809.27
688.874	21746.45
689.221	21675.72
689.568	21647.02
689.915	21578.77
690.262	21516.17
690.609	21440.47
690.956	21388.27
691.303	21403.18
691.65	21280.02
691.997	21323.18
692.344	21204.09
692.69	21094.94
693.037	21191.43
693.383	20946.24
693.73	21029.63
694.077	20940.82
694.423	20941.05
694.769	20847.94
695.116	20780.15
695.462	20680.04
695.808	20707.15
696.155	20662.63
696.501	20535.86
696.847	20560.94
697.193	20346.26
697.539	20466.93
697.885	20278.46
698.231	20202.08
698.577	20085.7
698.923	20061.97
699.269	20018.58
699.614	19915.54
699.96	19923.9
700.306	19881.41
700.651	19763
700.997	19756.22
701.342	19586.28
701.688	19670.34
702.033	19590.8
702.379	19545.83
702.724	19415.44
703.069	19593.96
703.415	19170.47
703.76	19269.68
704.105	19334.76
704.45	19225.16
704.795	19196.91
705.14	19052.51
705.485	19064.03
705.83	18960.53
706.175	18857.26
706.52	18881.44
706.865	18854.32
707.209	18806.19
707.554	18686.42
707.899	18818.84
708.243	18646.19
708.588	18558.28
708.932	18460.21
709.277	18452.52
709.621	18447.55
709.966	18270.61
710.31	18445.74
710.654	18178.63
710.998	18275.13
711.342	18198.74
711.687	18187.45
712.031	18144.73
712.375	18080.56
712.719	18106.54
713.063	18067.22
713.407	18141.12
713.75	17955.36
714.094	17951.29
714.438	17846.89
714.782	17906.55
715.125	17757.63
715.469	17834.91
715.812	17736.61
716.156	17674.01
716.499	17732.32
716.843	17735.48
717.186	17483.51
717.53	17586.33
717.873	17651.19
718.216	17595.6
718.559	17379.11
718.902	17461.14
719.246	17408.26
719.589	17269.5
719.932	17296.17
720.275	17356.51
720.617	17264.53
720.96	17293.68
721.303	17309.28
721.646	17212.56
721.989	17202.39
722.331	17168.94
722.674	17097.76
723.016	17119
723.359	17078.1
723.701	17064.09
724.044	16995.39
724.386	16996.97
724.729	17003.3
725.071	16962.39
725.413	16908.38
725.755	17013.01
726.097	16961.72
726.439	16765.11
726.782	16843.3
727.124	16909.74
727.465	16803.75
727.807	16729.86
728.149	16783.41
728.491	16728.5
728.833	16780.02
729.175	16654.15
729.516	16672.68
729.858	16694.15
730.199	16679.91
730.541	16686.02
730.882	16623.87
731.224	16682.85
731.565	16601.5
731.906	16552.23
732.248	16602.85
732.589	16497.77
732.93	16502.74
733.271	16489.41
733.612	16530.99
733.953	16547.49
734.294	16450.54
734.635	16489.64
734.976	16649.86
735.317	16337.32
735.658	16405.8
735.999	16516.53
736.339	16429.07
736.68	16392.01
737.021	16477.21
737.361	16357.21
737.702	16439.02
738.042	16360.6
738.383	16309.53
738.723	16421.16
739.063	16366.25
739.404	16369.19
739.744	16295.29
740.084	16296.87
740.424	16408.51
740.764	16300.26
741.104	16380.94
741.444	16261.39
741.784	16199.93
742.124	16345.23
742.464	16388.62
742.804	16237.21
743.143	16290.55
743.483	16265.46
743.823	16317.89
744.162	16375.52
744.502	16392.01
744.841	16305.24
745.181	16335.97
745.52	16387.04
745.86	16405.35
746.199	16363.31
746.538	16308.17
746.877	16472.91
747.216	16487.15
747.556	16522.4
747.895	16641.95
748.234	16471.56
748.573	16549.3
748.911	16512.01
749.25	16693.47
749.589	16574.61
749.928	16648.95
750.267	16723.98
750.605	16799.69
750.944	16803.08
751.283	16761.95
751.621	16887.37
751.96	16800.14
752.298	16942.96
752.636	17038.1
752.975	16962.39
753.313	16946.35
753.651	17192.22
753.989	17115.84
754.327	17195.83
754.666	17290.52
755.004	17348.37
755.342	17426.11
755.679	17481.48
756.017	17508.14
756.355	17544.75
756.693	17688.25
757.031	17629.04
757.368	17695.03
757.706	17733.67
758.044	17784.52
758.381	17922.37
758.719	17928.7
759.056	18065.64
759.394	18054.57
759.731	18154.9
760.068	18126.88
760.405	18137.05
760.743	18139.99
761.08	18359.87
761.417	18253.88
761.754	18380.21
762.091	18341.57
762.428	18396.25
762.765	18429.25
763.102	18512.86
763.438	18450.94
763.775	18474.44
764.112	18509.24
764.449	18640.77
764.785	18571.62
765.122	18618.17
765.458	18512.18
765.795	18573.65
766.131	18662.46
766.467	18622.01
766.804	18657.94
767.14	18650.26
767.476	18673.76
767.812	18662.01
768.148	18765.74
768.485	18719.86
768.821	18651.16
769.157	18695.45
769.492	18650.26
769.828	18780.2
770.164	18633.99
770.5	18622.91
770.836	18713.76
771.171	18584.95
771.507	18662.69
771.842	18591.28
772.178	18546.53
772.513	18468.34
772.849	18512.86
773.184	18413.43
773.519	18493.65
773.855	18476.48
774.19	18402.13
774.525	18339.08
774.86	18462.69
775.195	18381.56
775.53	18353.77
775.865	18215.24
776.2	18208.91
776.535	18062.25
776.87	18150.61
777.205	17986.77
777.539	18037.17
777.874	18008.02
778.209	17922.82
778.543	17940.67
778.878	17831.52
779.212	17753.33
779.547	17769.15
779.881	17822.48
780.215	17655.93
780.55	17734.58
780.884	17675.14
781.218	17551.98
781.552	17594.24
781.886	17430.18
782.22	17402.38
782.554	17364.42
782.888	17239.67
783.222	17307.02
783.556	17204.65
783.889	17184.31
784.223	16938.89
784.557	17042.16
784.89	17058.44
785.224	16909.29
785.557	16916.52
785.891	16825.67
786.224	16770.99
786.558	16776.64
786.891	16630.88
787.224	16525.34
787.557	16565.79
787.891	16501.61
788.224	16608.96
788.557	16484.67
788.89	16446.47
789.223	16456.19
789.556	16307.04
789.888	16270.21
790.221	16195.18
790.554	16058.91
790.887	16146.37
791.219	16094.85
791.552	15964.23
791.884	15911.8
792.217	15902.31
792.549	15883.33
792.882	15729.88
793.214	15629.55
793.546	15710.45
793.879	15657.34
794.211	15658.02
794.543	15545.26
794.875	15516.33
795.207	15615.08
795.539	15492.15
795.871	15436.78
796.203	15333.96
796.535	15300.97
796.867	15173.06
797.198	15108.43
797.53	15172.84
797.862	14940.3
798.193	15093.06
798.525	15032.5
798.856	15011.03
799.188	14828.21
799.519	14829.57
799.85	14736.01
800.182	14823.92
800.513	14765.16
800.844	14572.63
801.175	14672.06
801.506	14633.41
801.837	14562.68
802.168	14598.61
802.499	14494.66
802.83	14449.24
803.161	14405.17
803.491	14398.39
803.822	14378.05
804.153	14250.83
804.483	14132.64
804.814	14179.87
805.145	14141.68
805.475	14110.49
805.805	14004.05
806.136	14015.8
806.466	14063.49
806.796	13942.36
807.126	13895.58
807.457	13858.07
807.787	13891.06
808.117	13832.31
808.447	13727.22
808.777	13763.61
809.107	13617.4
809.436	13620.79
809.766	13700.56
810.096	13585.76
810.426	13500.34
810.755	13581.24
811.085	13517.74
811.414	13507.79
811.744	13341.7
812.073	13360.45
812.403	13372.66
812.732	13267.57
813.061	13267.12
813.39	13209.5
813.719	13178.54
814.049	13230.29
814.378	13173.57
814.707	13206.79
815.036	13081.59
815.365	13098.09
815.693	12912.56
816.022	12964.76
816.351	12888.15
816.68	12835.27
817.008	12900.8
817.337	12823.74
817.665	12710.98
817.994	12890.64
818.322	12802.28
818.651	12680.25
818.979	12663.75
819.307	12749.62
819.636	12661.04
819.964	12609.51
820.292	12577.65
820.62	12534.49
820.948	12526.35
821.276	12571.32
821.604	12544.2
821.932	12554.6
822.259	12617.65
822.587	12523.19
822.915	12546.69
823.243	12542.85
823.57	12536.07
823.898	12558.44
824.225	12453.36
824.553	12509.4
824.88	12550.76
825.207	12486.8
825.535	12528.39
825.862	12580.14
826.189	12498.33
826.516	12540.59
826.843	12605.22
827.17	12614.48
827.497	12555.5
827.824	12516.41
828.151	12549.4
828.478	12489.74
828.805	12568.61
829.131	12468.73
829.458	12503.53
829.785	12368.39
830.111	12417.65
830.438	12573.13
830.764	12516.18
831.09	12482.51
831.417	12397.09
831.743	12553.92
832.069	12462.62
832.395	12398.9
832.722	12473.47
833.048	12400.25
833.374	12405
833.7	12354.6
834.026	12337.2
834.351	12412.46
834.677	12428.73
835.003	12369.75
835.329	12301.72
835.654	12334.04
835.98	12278.9
836.306	12292.46
836.631	12279.35
836.956	12350.54
837.282	12300.37
837.607	12182.41
837.932	12197.32
838.258	12186.25
838.583	12180.82
838.908	12031.22
839.233	12088.85
839.558	12015.63
839.883	11994.39
840.208	12086.59
840.533	12019.92
840.858	12009.3
841.182	12044.33
841.507	11917.33
841.832	11966.37
842.156	11910.77
842.481	11951.9
842.805	11840.04
843.13	11850.66
843.454	11763.66
843.778	11800.95
844.103	11755.52
844.427	11638.92
844.751	11683.66
845.075	11647.28
845.399	11646.6
845.723	11576.09
846.047	11570.22
846.371	11433.27
846.695	11501.07
847.019	11436.89
847.343	11376.1
847.666	11245.26
847.99	11239.15
848.313	11337
848.637	11117.57
848.96	11116.22
849.284	11125.48
849.607	11071.7
849.931	10977.24
850.254	11011.81
850.577	10908.54
850.9	10848.88
851.223	10811.82
851.546	10688.66
851.869	10745.38
852.192	10770.69
852.515	10596.01
852.838	10499.29
853.161	10653.18
853.483	10567.53
853.806	10448.21
854.129	10471.72
854.451	10455.22
854.774	10369.57
855.096	10348.1
855.419	10302.46
855.741	10343.58
856.063	10291.83
856.385	10234.89
856.708	10168.67
857.03	10192.18
857.352	10127.54
857.674	10080.31
857.996	10052.74
858.318	10115.34
858.64	10024.04
858.961	9952.86
859.283	9983.14
859.605	9885.97
859.926	9944.95
860.248	9861.11
860.57	9913.09
860.891	9857.5
861.212	9857.27
861.534	9829.25
861.855	9725.07
862.176	9838.29
862.498	9719.19
862.819	9756.48
863.14	9700.89
863.461	9648.91
863.782	9650.49
864.103	9684.17
864.424	9592.87
864.745	9609.14
865.065	9568.46
865.386	9561.01
865.707	9522.36
866.027	9511.29
866.348	9505.64
866.668	9491.63
866.989	9454.57
867.309	9432.65
867.63	9492.31
867.95	9440.1
868.27	9338.41
868.59	9376.38
868.91	9408.69
869.23	9393.78
869.55	9309.94
869.87	9395.36
870.19	9318.75
870.51	9361.91
870.83	9318.53
871.15	9297.06
871.469	9289.37
871.789	9278.3
872.109	9259.54
872.428	9246.66
872.748	9170.06
873.067	9187.46
873.386	9224.07
873.706	9257.74
874.025	9159.89
874.344	9125.08
874.663	9089.83
874.982	9045.31
875.301	9041.47
875.62	9082.6
875.939	9058.19
876.258	9050.96
876.577	9025.43
876.896	9061.36
877.214	9015.48
877.533	8973
877.852	8959.89
878.17	9019.55
878.489	8952.43
878.807	8943.62
879.125	8879.89
879.444	8921.7
879.762	8851.65
880.08	8900.91
880.398	8821.14
880.716	8786.79
881.034	8800.35
881.352	8795.83
881.67	8772.1
881.988	8799.22
882.306	8714.93
882.624	8719.45
882.941	8685.32
883.259	8714.02
883.577	8637.41
883.894	8667.92
884.212	8576.85
884.529	8542.28
884.846	8564.65
885.164	8596.06
885.481	8551.09
885.798	8519.23
886.115	8462.28
886.432	8472.22
886.75	8489.17
887.067	8407.82
887.383	8407.82
887.7	8390.64
888.017	8374.82
888.334	8381.83
888.651	8287.59
888.967	8288.95
889.284	8298.67
889.6	8257.76
889.917	8209.18
890.233	8218.22
890.55	8162.4
890.866	8156.97
891.182	8143.42
891.498	8107.26
891.815	8065.23
892.131	8064.32
892.447	8029.52
892.763	8039.01
893.079	7979.13
893.395	8007.83
893.71	7986.58
894.026	7956.75
894.342	7865.91
894.657	7867.49
894.973	7870.65
895.289	7878.56
895.604	7805.12
895.92	7731
896.235	7735.52
896.55	7691.22
896.865	7741.62
897.181	7724.67
897.496	7672.69
897.811	7607.38
898.126	7600.15
898.441	7540.27
898.756	7576.43
899.071	7528.06
899.386	7519.03
899.7	7408.75
900.015	7413.94
900.33	7388.41
900.644	7406.49
900.959	7340.73
901.273	7328.75
901.588	7267.05
901.902	7345.24
902.216	7302.53
902.531	7255.98
902.845	7211.24
903.159	7148.19
903.473	7163.78
903.787	7107.96
904.101	7072.03
904.415	7075.2
904.729	7007.85
905.042	7021.19
905.356	7013.73
905.67	6977.8
905.984	7004.46
906.297	6897.57
906.611	6851.47
906.924	6875.65
907.237	6851.92
907.551	6806.28
907.864	6785.49
908.177	6746.62
908.491	6783
908.804	6702.32
909.117	6746.16
909.43	6637.92
909.743	6630.69
910.056	6672.72
910.368	6596.11
910.681	6575.1
910.994	6508.2
911.307	6462.33
911.619	6392.95
911.932	6456.68
912.244	6418.04
912.557	6361.32
912.869	6359.28
913.181	6352.05
913.494	6313.41
913.806	6282.45
914.118	6251.71
914.43	6205.16
914.742	6182.34
915.054	6171.26
915.366	6128.55
915.678	6147.31
915.99	6112.06
916.302	6082.23
916.613	6046.3
916.925	6019.18
917.236	6064.37
917.548	6029.35
917.859	5936.69
918.171	5954.32
918.482	5975.11
918.794	5882.91
919.105	5891.05
919.416	5817.38
919.727	5842.91
920.038	5801.56
920.349	5766.3
920.66	5775.79
920.971	5746.42
921.282	5661.67
921.593	5654.89
921.903	5632.52
922.214	5632.75
922.525	5602.01
922.835	5562.92
923.146	5518.4
923.456	5533.77
923.767	5511.62
924.077	5509.36
924.387	5514.33
924.697	5462.36
925.008	5416.71
925.318	5413.77
925.628	5352.3
925.938	5367.22
926.248	5325.18
926.558	5307.78
926.867	5309.37
927.177	5277.73
927.487	5284.28
927.796	5237.5
928.106	5228.69
928.416	5145.08
928.725	5195.02
929.034	5120.9
929.344	5093.78
929.653	5100.11
929.962	5072.54
930.271	5070.28
930.581	5042.48
930.89	4977.17
931.199	4928.81
931.508	4981.24
931.817	5034.12
932.125	4941.69
932.434	4906.89
932.743	4833.22
933.051	4862.37
933.36	4890.17
933.669	4808.14
933.977	4839.77
934.286	4808.14
934.594	4811.75
934.902	4692.21
935.21	4750.74
935.519	4727.69
935.827	4705.31
936.135	4668.25
936.443	4687.91
936.751	4658.08
937.059	4629.61
937.367	4589.61
937.674	4550.06
937.982	4532.89
938.29	4563.4
938.597	4495.38
938.905	4460.35
939.213	4459.9
939.52	4407.92
939.827	4425.55
940.135	4423.06
940.442	4402.95
940.749	4404.53
941.056	4410.18
941.363	4357.53
941.67	4342.84
941.977	4293.35
942.284	4268.49
942.591	4291.09
942.898	4315.27
943.205	4227.36
943.511	4255.16
943.818	4222.16
944.125	4190.98
944.431	4141.49
944.738	4136.97
945.044	4153.24
945.35	4116.63
945.657	4073.01
945.963	4028.5
946.269	4002.96
946.575	4016.74
946.881	4042.28
947.187	4005.9
947.493	3949.63
947.799	3996.18
948.105	3964.99
948.41	3911.21
948.716	3937.42
949.022	3917.31
949.327	3886.35
949.633	3844.32
949.938	3847.26
950.244	3842.06
950.549	3818.33
950.854	3805.9
951.16	3791.44
951.465	3783.3
951.77	3766.58
952.075	3715.28
952.38	3726.36
952.685	3731.55
952.99	3708.28
953.294	3718.22
953.599	3626.02
953.904	3608.85
954.209	3641.84
954.513	3594.16
954.818	3607.49
955.122	3558
955.426	3557.55
955.731	3541.5
956.035	3537.66
956.339	3506.93
956.643	3538.57
956.948	3482.07
957.252	3447.04
957.556	3474.61
957.86	3445.46
958.163	3469.19
958.467	3447.27
958.771	3414.05
959.075	3381.73
959.378	3393.71
959.682	3366.14
959.985	3350.1
960.289	3358.91
960.592	3290.89
960.896	3253.83
961.199	3294.73
961.502	3273.26
961.805	3272.58
962.108	3228.06
962.411	3235.75
962.714	3197.33
963.017	3244.79
963.32	3240.95
963.623	3153.94
963.926	3207.05
964.228	3131.12
964.531	3143.55
964.833	3152.59
965.136	3108.97
965.438	3093.61
965.741	3092.25
966.043	3081.4
966.345	3061.29
966.648	3047.73
966.95	3048.63
967.252	3016.32
967.554	2998.01
967.856	2965.02
968.158	2969.09
968.46	2992.36
968.761	2973.38
969.063	2915.3
969.365	2929.09
969.666	2923.44
969.968	2863.55
970.269	2881.86
970.571	2868.53
970.872	2883.67
971.174	2863.78
971.475	2850
971.776	2817.23
972.077	2847.74
972.378	2798.02
972.679	2827.17
972.98	2765.48
973.281	2790.34
973.582	2784.46
973.883	2747.85
974.183	2744.01
974.484	2741.3
974.785	2713.95
975.085	2706.72
975.386	2737.91
975.686	2674.86
975.986	2664.46
976.287	2651.58
976.587	2647.97
976.887	2661.07
977.187	2623.11
977.487	2604.13
977.787	2569.1
978.087	2567.74
978.387	2608.87
978.687	2558.03
978.987	2564.58
979.286	2534.75
979.586	2539.27
979.885	2515.77
980.185	2493.85
980.484	2503.56
980.784	2474.86
981.083	2516.9
981.382	2496.78
981.682	2507.86
981.981	2438.71
982.28	2453.62
982.579	2424.7
982.878	2413.62
983.177	2388.54
983.475	2382.66
983.774	2371.59
984.073	2372.95
984.372	2372.72
984.67	2360.97
984.969	2341.08
985.267	2340.18
985.566	2339.05
985.864	2322.78
986.162	2275.1
986.461	2308.77
986.759	2311.7
987.057	2246.85
987.355	2242.55
987.653	2222.44
987.951	2247.75
988.249	2240.97
988.547	2193.06
988.844	2204.14
989.142	2188.09
989.44	2210.46
989.737	2167.3
990.035	2170.47
990.332	2214.31
990.63	2148.09
990.927	2178.6
991.224	2133.18
991.521	2144.03
991.819	2148.32
992.116	2119.17
992.413	2100.64
992.71	2086.4
993.006	2072.84
993.303	2081.65
993.6	2082.11
993.897	2045.95
994.193	2038.27
994.49	2044.82
994.787	2037.81
995.083	2036.23
995.379	2027.42
995.676	2006.85
995.972	1967.31
996.268	1984.93
996.565	1947.65
996.861	1967.76
997.157	1951.04
997.453	1924.14
997.749	1908.1
998.044	1907.87
998.34	1892.51
998.636	1911.94
998.932	1882.56
999.227	1845.5
999.523	1843.47
999.818	1864.94
1000.114	1830.81
1000.409	1835.33
1000.704	1849.12
1001	1829.91
1001.295	1809.8
1001.59	1844.82
1001.885	1811.83
1002.18	1765.73
1002.475	1761.66
1002.77	1816.58
1003.065	1784.94
1003.359	1768.22
1003.654	1736.58
1003.949	1759.63
1004.243	1720.76
1004.538	1727.31
1004.832	1695
1005.127	1672.17
1005.421	1675.56
1005.715	1688.22
1006.009	1667.2
1006.304	1628.56
1006.598	1660.42
1006.892	1634.43
1007.186	1632.63
1007.48	1606.86
1007.773	1629.69
1008.067	1613.42
1008.361	1619.07
1008.655	1581.33
1008.948	1584.27
1009.242	1589.46
1009.535	1508.56
1009.829	1546.08
1010.122	1548.11
1010.415	1549.01
1010.708	1556.7
1011.001	1509.92
1011.295	1509.24
1011.588	1487.32
1011.881	1510.82
1012.173	1484.83
1012.466	1473.99
1012.759	1461.78
1013.052	1439.41
1013.344	1440.77
1013.637	1476.7
1013.93	1440.77
1014.222	1404.16
1014.514	1415.91
1014.807	1386.31
1015.099	1418.85
1015.391	1396.02
1015.683	1402.35
1015.976	1400.77
1016.268	1373.42
1016.56	1354.89
1016.851	1364.84
1017.143	1375.68
1017.435	1327.32
1017.727	1334.78
1018.018	1302.47
1018.31	1313.99
1018.602	1299.98
1018.893	1324.16
1019.185	1297.49
1019.476	1280.32
1019.767	1288.91
1020.058	1277.83
1020.35	1267.89
1020.641	1244.84
1020.932	1258.17
1021.223	1218.4
1021.514	1239.64
1021.804	1221.79
1022.095	1201.23
1022.386	1223.15
1022.677	1181.56
1022.967	1217.27
1023.258	1184.95
1023.548	1190.15
1023.839	1164.39
1024.129	1182.69
1024.419	1175.24
1024.709	1172.3
1025	1168.46
1025.29	1149.48
1025.58	1125.75
1025.87	1128.01
1026.16	1099.76
1026.449	1139.76
1026.739	1104.5
1027.029	1108.57
1027.319	1079.65
1027.608	1095.92
1027.898	1075.13
1028.187	1066.99
1028.477	1078.06
1028.766	1052.53
1029.055	1050.49
1029.344	1055.24
1029.634	1034.9
1029.923	1014.34
1030.212	1018.86
1030.501	1014.34
1030.79	995.36
1031.078	1005.52
1031.367	1010.95
1031.656	995.81
1031.945	1001.23
1032.233	990.61
1032.522	972.76
1032.81	974.56
1033.099	981.8
1033.387	983.38
1033.675	928.46
1033.963	925.3
1034.251	930.27
1034.54	953.77
1034.828	936.37
1035.116	928.92
1035.403	914.23
1035.691	904.74
1035.979	915.36
1036.267	879.65
1036.554	877.62
1036.842	874.91
1037.129	887.34
1037.417	888.01
1037.704	893.89
1037.992	877.39
1038.279	870.39
1038.566	864.29
1038.853	864.29
1039.14	864.29
