Data from hue_32_FLMS001491_00093.txt Node
Date: Tue Feb 07 17:24:16 GMT 2017
User: dcchb
Spectrometer: FLMS00149
Trigger mode: 0
Integration Time (sec): 2.000000E-2
Scans to average: 10
Electric dark correction enabled: true
Nonlinearity correction enabled: false
Boxcar width: 0
XAxis mode: Wavelengths
Number of Pixels in Spectrum: 2048
>>>>>Begin Spectral Data<<<<<
341.393	-31.23
341.776	-31.23
342.16	-31.23
342.543	-71.45
342.927	-57.44
343.31	-60.38
343.693	-75.29
344.077	-78.01
344.46	-63.77
344.843	-63.32
345.226	-44.11
345.61	-25.8
345.993	-13.6
346.376	-6.14
346.759	25.27
347.142	38.6
347.525	43.12
347.908	63.68
348.291	63.23
348.674	90.58
349.057	105.94
349.44	117.92
349.823	137.36
350.206	151.14
350.588	182.55
350.971	233.4
351.354	230.69
351.737	236.11
352.119	261.65
352.502	263.91
352.884	272.49
353.267	281.98
353.65	292.15
354.032	295.77
354.414	281.76
354.797	301.19
355.179	311.14
355.562	317.69
355.944	307.07
356.326	336.9
356.709	333.96
357.091	347.29
357.473	348.42
357.855	344.13
358.238	348.88
358.62	344.13
359.002	342.32
359.384	353.39
359.766	347.75
360.148	328.08
360.53	335.32
360.912	334.86
361.294	339.84
361.676	335.54
362.057	352.04
362.439	319.5
362.821	351.59
363.203	320.63
363.584	329.67
363.966	331.7
364.348	313.4
364.729	312.94
365.111	324.69
365.493	320.63
365.874	333.51
366.256	341.19
366.637	334.86
367.019	295.09
367.4	304.36
367.781	308.42
368.163	299.84
368.544	330.34
368.925	319.72
369.306	321.31
369.688	316.11
370.069	315.88
370.45	312.94
370.831	305.71
371.212	292.83
371.593	314.07
371.974	302.32
372.355	326.5
372.736	321.98
373.117	307.52
373.498	323.11
373.879	321.98
374.26	312.72
374.641	331.25
375.021	316.79
375.402	313.85
375.783	329.89
376.163	313.17
376.544	347.07
376.925	343
377.305	304.36
377.686	315.43
378.066	321.31
378.447	341.19
378.827	335.77
379.208	321.98
379.588	322.44
379.968	359.27
380.349	354.3
380.729	347.07
381.109	338.03
381.489	350.68
381.87	351.13
382.25	351.36
382.63	338.03
383.01	321.53
383.39	361.53
383.77	353.39
384.15	332.83
384.53	359.5
384.91	357.91
385.29	344.58
385.67	342.55
386.049	356.78
386.429	365.37
386.809	368.31
387.189	350.91
387.568	347.07
387.948	374.64
388.328	352.26
388.707	357.91
389.087	374.19
389.466	365.37
389.846	347.29
390.225	368.99
390.605	377.35
390.984	360.4
391.363	364.24
391.743	373.73
392.122	381.64
392.501	374.86
392.881	377.35
393.26	375.77
393.639	377.12
394.018	355.2
394.397	378.25
394.776	368.54
395.155	359.5
395.534	376.67
395.913	369.67
396.292	397.46
396.671	364.47
397.05	384.81
397.429	383.45
397.808	401.08
398.186	405.82
398.565	403.56
398.944	390
399.323	419.16
399.701	386.39
400.08	396.11
400.458	396.56
400.837	402.66
401.215	394.3
401.594	417.35
401.972	389.33
402.351	420.51
402.729	422.55
403.107	412.38
403.486	410.79
403.864	414.86
404.242	419.83
404.62	404.24
404.999	436.78
405.377	427.97
405.755	439.49
406.133	430.91
406.511	431.13
406.889	433.39
407.267	426.16
407.645	437.46
408.023	445.82
408.401	434.3
408.779	457.57
409.156	431.81
409.534	448.99
409.912	451.25
410.29	479.49
410.667	460.74
411.045	467.74
411.422	467.06
411.8	455.09
412.178	446.73
412.555	477.23
412.933	492.6
413.31	479.95
413.687	471.58
414.065	484.69
414.442	453.05
414.819	467.06
415.197	494.86
415.574	498.93
415.951	495.99
416.328	498.02
416.705	510
417.082	508.87
417.46	518.14
417.837	512.49
418.214	522.2
418.591	503.45
418.967	512.71
419.344	544.58
419.721	504.35
420.098	530.11
420.475	505.26
420.852	541.41
421.228	526.27
421.605	538.25
421.982	548.64
422.358	527.4
422.735	526.95
423.111	567.4
423.488	554.52
423.864	554.52
424.241	540.73
424.617	552.03
424.994	589.77
425.37	564.46
425.746	547.29
426.123	562.65
426.499	587.06
426.875	569.89
427.251	613.27
427.627	580.73
428.003	594.97
428.379	605.59
428.756	612.6
429.132	593.16
429.507	614.63
429.883	611.69
430.259	646.04
430.635	647.17
431.011	619.38
431.387	639.94
431.763	637.45
432.138	632.03
432.514	652.37
432.89	651.69
433.265	672.71
433.641	687.4
434.016	684.69
434.392	659.15
434.767	704.8
435.143	709.32
435.518	716.1
435.894	708.41
436.269	722.65
436.644	700.73
437.02	727.62
437.395	734.63
437.77	735.08
438.145	717
438.52	751.35
438.895	749.09
439.271	760.39
439.646	752.48
440.021	774.63
440.395	780.73
440.77	759.71
441.145	784.12
441.52	792.48
441.895	769.65
442.27	781.18
442.645	783.44
443.019	778.69
443.394	794.06
443.769	780.28
444.143	812.82
444.518	807.17
444.892	809.65
445.267	818.47
445.641	804
446.016	834.06
446.39	844.23
446.764	858.92
447.139	818.69
447.513	853.49
447.887	841.52
448.262	838.35
448.636	858.01
449.01	881.52
449.384	880.16
449.758	888.3
450.132	897.34
450.506	882.19
450.88	891.01
451.254	910.89
451.628	886.71
452.002	896.43
452.376	941.85
452.75	936.66
453.123	943.89
453.497	939.59
453.871	943.44
454.244	942.08
454.618	956.54
454.992	985.69
455.365	982.76
455.739	982.53
456.112	999.25
456.486	991.57
456.859	1011.23
457.232	1018.24
457.606	1031.79
457.979	1073.15
458.352	1063.21
458.725	1072.02
459.099	1064.56
459.472	1104.79
459.845	1115.18
460.218	1120.15
460.591	1139.81
460.964	1137.55
461.337	1149.53
461.71	1163.54
462.083	1175.75
462.456	1217.33
462.829	1195.86
463.201	1208.97
463.574	1228.63
463.947	1242.41
464.32	1233.6
464.692	1279.02
465.065	1255.52
465.438	1281.05
465.81	1311.34
466.183	1326.7
466.555	1365.8
466.928	1358.79
467.3	1346.59
467.672	1410.32
468.045	1425.91
468.417	1394.95
468.789	1446.25
469.161	1454.83
469.534	1490.31
469.906	1532.57
470.278	1544.78
470.65	1558.11
471.022	1563.31
471.394	1621.16
471.766	1649.86
472.138	1656.64
472.51	1655.96
472.882	1680.37
473.253	1735.73
473.625	1781.83
473.997	1813.24
474.369	1805.56
474.74	1832.68
475.112	1878.55
475.484	1925.1
475.855	1967.82
476.227	2001.26
476.598	2027.25
476.97	2088.94
477.341	2104.54
477.713	2161.03
478.084	2190.86
478.455	2263.17
478.827	2296.62
479.198	2368.03
479.569	2388.37
479.94	2437.18
480.311	2501.59
480.682	2579.1
481.053	2666.1
481.424	2651.87
481.795	2701.36
482.166	2776.16
482.537	2797.17
482.908	2907.9
483.279	2990.61
483.65	3051.18
484.021	3119.2
484.391	3183.6
484.762	3253.88
485.133	3296.82
485.503	3394.67
485.874	3480.32
486.244	3506.76
486.615	3623.14
486.985	3677.83
487.356	3776.81
487.726	3855.45
488.097	3950.81
488.467	3998.04
488.837	4097.7
489.207	4155.78
489.578	4235.33
489.948	4306.74
490.318	4453.17
490.688	4506.51
491.058	4559.61
491.428	4674.19
491.798	4745.82
492.168	4842.32
492.538	4884.12
492.908	4938.58
493.278	5015.64
493.648	5071.69
494.017	5211.35
494.387	5280.72
494.757	5326.37
495.126	5396.2
495.496	5462.41
495.866	5572.92
496.235	5600.04
496.605	5726.81
496.974	5772.24
497.344	5756.19
497.713	5875.28
498.082	5872.8
498.452	6004.09
498.821	6158.21
499.19	6116.86
499.559	6270.3
499.928	6276.85
500.298	6331.99
500.667	6450.41
501.036	6431.43
501.405	6569.73
501.774	6556.85
502.143	6709.84
502.512	6717.97
502.88	6780.34
503.249	6818.99
503.618	6854.24
503.987	6929.94
504.356	7012.43
504.724	6992.09
505.093	7085.2
505.462	7112.54
505.83	7148.24
506.199	7260.78
506.567	7337.62
506.936	7300.78
507.304	7439.54
507.672	7478.86
508.041	7541.45
508.409	7511.4
508.777	7622.36
509.145	7750.94
509.514	7712.98
509.882	7791.84
510.25	7866.19
510.618	7892.41
510.986	7905.74
511.354	7992.52
511.722	8089.24
512.09	8161.78
512.458	8122.46
512.826	8127.43
513.193	8202.23
513.561	8300.3
513.929	8369.91
514.297	8383.47
514.664	8426.63
515.032	8420.98
515.4	8563.35
515.767	8579.62
516.135	8605.38
516.502	8597.92
516.869	8712.04
517.237	8798.82
517.604	8705.04
517.972	8817.13
518.339	8906.62
518.706	8893.51
519.073	8971.25
519.44	8984.13
519.808	9041.98
520.175	9013.05
520.542	9187.96
520.909	9181.64
521.276	9262.09
521.643	9341.18
522.009	9357
522.376	9419.6
522.743	9417.11
523.11	9522.19
523.477	9609.87
523.843	9663.43
524.21	9736.88
524.577	9724.45
524.943	9845.8
525.31	9817.78
525.676	9975.06
526.043	9973.48
526.409	10082.4
526.776	10167.6
527.142	10140.93
527.508	10243.76
527.874	10323.75
528.241	10368.5
528.607	10345.22
528.973	10479
529.339	10412.11
529.705	10521.49
530.071	10629.96
530.437	10638.32
530.803	10754.25
531.169	10775.27
531.535	10846.9
531.901	10871.31
532.267	10924.19
532.632	10989.05
532.998	11078.99
533.364	11144.75
533.73	11150.4
534.095	11240.34
534.461	11212.77
534.826	11285.31
535.192	11354.24
535.557	11327.8
535.923	11413.44
536.288	11484.85
536.653	11558.52
537.019	11527.34
537.384	11591.97
537.749	11684.85
538.114	11703.83
538.479	11759.65
538.845	11718.75
539.21	11760.1
539.575	11801.68
539.94	11839.42
540.305	11980.66
540.67	11914.22
541.034	12057.49
541.399	12127.32
541.764	12163.93
542.129	12150.37
542.494	12236.02
542.858	12245.96
543.223	12227.21
543.587	12372.97
543.952	12385.62
544.316	12511.04
544.681	12452.51
545.045	12556.69
545.41	12562.11
545.774	12668.55
546.138	12630.13
546.503	12709.45
546.867	12757.36
547.231	12808.66
547.595	12884.36
547.959	12888.88
548.324	12988.32
548.688	13062.89
549.052	13013.85
549.416	13064.92
549.779	13097.92
550.143	13115.09
550.507	13245.26
550.871	13266.95
551.235	13266.73
551.599	13372.04
551.962	13354.86
552.326	13411.81
552.689	13570.9
553.053	13447.29
553.417	13515.76
553.78	13715.98
554.143	13652.48
554.507	13640.95
554.87	13746.94
555.234	13852.47
555.597	13824.45
555.96	13770.22
556.323	13916.43
556.686	13888.63
557.05	14031.68
557.413	14050.66
557.776	14095.86
558.139	14147.61
558.502	14200.49
558.865	14235.74
559.228	14298.34
559.59	14320.49
559.953	14483.64
560.316	14576.52
560.679	14527.71
561.041	14528.39
561.404	14624.88
561.767	14698.55
562.129	14711.21
562.492	14807.03
562.854	14822.17
563.217	14850.64
563.579	14879.34
563.941	14995.27
564.304	15105.55
564.666	15162.72
565.028	15137.64
565.39	15214.7
565.753	15317.07
566.115	15345.99
566.477	15359.1
566.839	15458.08
567.201	15548.93
567.563	15536.72
567.925	15661.92
568.287	15677.29
568.648	15686.32
569.01	15804.97
569.372	15913.44
569.734	15785.98
570.095	15942.14
570.457	16025.07
570.819	16097.16
571.18	16096.26
571.542	16243.82
571.903	16251.06
572.265	16380.32
572.626	16447.21
572.987	16447.21
573.349	16567.66
573.71	16611.95
574.071	16700.76
574.432	16854.2
574.794	16951.6
575.155	17000.41
575.516	16994.99
575.877	17098.94
576.238	17168.09
576.599	17354.3
576.96	17464.36
577.32	17496.45
577.681	17613.05
578.042	17791.58
578.403	17895.31
578.763	17867.96
579.124	18147.05
579.485	18302.53
579.845	18533.71
580.206	18533.26
580.566	18756.75
580.927	18870.65
581.287	19059.8
581.648	19124.88
582.008	19380.01
582.368	19388.6
582.728	19724.18
583.089	19831.98
583.449	20022.48
583.809	20218.41
584.169	20457.05
584.529	20663.14
584.889	20924.15
585.249	20971.61
585.609	21217.03
585.969	21460.41
586.329	21628.32
586.688	21948.99
587.048	22037.8
587.408	22372.93
587.768	22503.09
588.127	22894.27
588.487	22953.7
588.846	23354.37
589.206	23450.41
589.565	23681.14
589.925	24050.17
590.284	24209.04
590.643	24513.89
591.003	24879.53
591.362	24991.84
591.721	25348.9
592.08	25647.42
592.44	25875.89
592.799	26172.38
593.158	26378.47
593.517	26727.84
593.876	26942.53
594.235	27148.4
594.593	27456.86
594.952	27793.13
595.311	27975.27
595.67	28275.6
596.029	28694.12
596.387	28852.31
596.746	29243.93
597.104	29347.89
597.463	29583.81
597.822	29983.8
598.18	30063.35
598.538	30365.26
598.897	30735.65
599.255	30685.03
599.613	31424.22
599.972	31478.23
600.33	31793.25
600.688	32030.53
601.046	32207.47
601.404	32538.99
601.762	32613.56
602.12	33091.06
602.478	33188.46
602.836	33351.62
603.194	33527.66
603.552	33690.37
603.91	33863.93
604.268	34125.61
604.625	34313.18
604.983	34615.54
605.341	34652.61
605.698	34974.63
606.056	35363.32
606.413	35394.96
606.771	35670.43
607.128	35860.26
607.485	35938.67
607.843	36253.69
608.2	36411.88
608.557	36743.4
608.914	36725.32
609.272	37039.21
609.629	37257.51
609.986	37531.85
610.343	37507.45
610.7	37949.47
611.057	38015.91
611.414	38091.61
611.771	38274.66
612.127	38544.71
612.484	38654.08
612.841	38734.08
613.198	38691.6
613.554	39003.23
613.911	39356.66
614.267	39442.54
614.624	39422.65
614.98	39672.13
615.337	39805.69
615.693	39947.38
616.05	40035.97
616.406	40270.99
616.762	40154.38
617.118	40364.77
617.475	40380.36
617.831	40601.83
618.187	40704.65
618.543	41071.19
618.899	41015.15
619.255	41133.79
619.611	41188.03
619.967	41476.61
620.323	41575.81
620.678	41498.98
621.034	41596.38
621.39	41652.2
621.746	41695.58
622.101	42156.59
622.457	41909.14
622.812	42140.09
623.168	42214.89
623.523	42310.03
623.879	42396.81
624.234	42088.79
624.589	42301.9
624.945	42533.53
625.3	42552.74
625.655	42529.69
626.01	42635.45
626.365	42755.9
626.72	42719.29
627.075	42690.36
627.43	42858.04
627.785	42733.52
628.14	42838.38
628.495	42942.33
628.85	42954.08
629.205	42891.26
629.559	43130.35
629.914	42850.36
630.269	43216.9
630.623	42972.39
630.978	43054.42
631.332	43130.8
631.687	43194.53
632.041	43159.27
632.396	43205.83
632.75	43123.8
633.104	43176.22
633.459	43124.93
633.813	43087.64
634.167	43115.66
634.521	43041.54
634.875	43195.66
635.229	43124.93
635.583	42921.77
635.937	43107.98
636.291	42978.71
636.645	43156.56
636.999	42908.89
637.352	43127.64
637.706	42891.03
638.06	43220.52
638.413	43090.8
638.767	42842.67
639.121	43006.74
639.474	42806.06
639.828	42943.69
640.181	43026.4
640.534	42974.19
640.888	42751.83
641.241	42783.24
641.594	42874.99
641.947	42972.16
642.301	42806.97
642.654	42829.79
643.007	42770.81
643.36	42832.5
643.713	42803.13
644.066	42931.26
644.419	42672.28
644.771	42527.2
645.124	42091.51
645.477	42060.32
645.83	41787.33
646.182	41666.21
646.535	41642.93
646.888	41600.9
647.24	41597.28
647.593	41587.11
647.945	41539.66
648.298	41477.51
648.65	41384.18
649.002	41312.54
649.355	41607.45
649.707	41550.05
650.059	41590.73
650.411	42154.56
650.763	42057.16
651.115	42320.65
651.467	42315.91
651.819	42360.65
652.171	42333.76
652.523	42218.96
652.875	42206.08
653.227	42074.11
653.578	42406.3
653.93	42352.97
654.282	42237.49
654.633	42129.47
654.985	42199.53
655.337	42082.92
655.688	41968.57
656.039	42300.99
656.391	41959.31
656.742	42047.21
657.094	42048.57
657.445	42262.12
657.796	42103.71
658.147	42081.56
658.498	41882.92
658.849	42022.13
659.2	42067.78
659.551	42020.1
659.902	41999.08
660.253	41910.72
660.604	42046.08
660.955	41834.79
661.306	42152.52
661.656	41892.87
662.007	42002.92
662.358	41996.59
662.708	41895.35
663.059	41961.11
663.409	41669.6
663.76	41931.51
664.11	42089.7
664.461	42001.34
664.811	41815.81
665.161	41822.36
665.511	41730.16
665.862	41797.5
666.212	41894.68
666.562	41870.95
666.912	41776.49
667.262	41689.26
667.612	41681.35
667.962	41685.64
668.312	41731.29
668.662	41823.04
669.011	41791.18
669.361	41721.57
669.711	41760.44
670.06	41649.26
670.41	41641.8
670.76	41670.73
671.109	41740.78
671.459	41617.62
671.808	41483.16
672.157	41722.93
672.507	41250.17
672.856	41479.54
673.205	41493.33
673.554	41670.73
673.904	41448.59
674.253	41743.94
674.602	41477.74
674.951	40938.09
675.3	40879.79
675.649	41409.26
675.998	41419.21
676.346	41376.5
676.695	41502.6
677.044	41335.82
677.393	41420.79
677.741	41400.68
678.09	41197.07
678.438	41256.73
678.787	41259.44
679.135	41419.43
679.484	40997.07
679.832	41129.27
680.181	40968.15
680.529	41044.98
680.877	41025.55
681.225	40961.14
681.573	40995.49
681.922	40854.48
682.27	40708.27
682.618	40684.09
682.966	40734.48
683.314	40762.28
683.661	40614.03
684.009	40537.42
684.357	40564.31
684.705	40389.4
685.053	40403.19
685.4	40317.99
685.748	40047.04
686.095	40125.23
686.443	39913.94
686.79	39915.52
687.138	40007.04
687.485	39988.28
687.832	39852.02
688.18	39817.44
688.527	39646.37
688.874	39702.87
689.221	39522.08
689.568	39470.56
689.915	39424.91
690.262	39388.98
690.609	39264.46
690.956	39220.62
691.303	39148.08
691.65	38920.74
691.997	38814.08
692.344	38758.49
692.69	38726.4
693.037	38644.14
693.383	38395.33
693.73	38549.23
694.077	38340.42
694.423	38269.91
694.769	38198.73
695.116	38116.92
695.462	38098.39
695.808	38127.77
696.155	38045.51
696.501	37893.88
696.847	37800.55
697.193	37550.83
697.539	37723.49
697.885	37518.07
698.231	37357.39
698.577	37264.74
698.923	37282.37
699.269	37070.62
699.614	37034.46
699.96	36885.54
700.306	36920.79
700.651	36782.95
700.997	36721.25
701.342	36594.02
701.688	36497.3
702.033	36421.6
702.379	36281.04
702.724	36145
703.069	36428.83
703.415	35945
703.76	36023.19
704.105	35973.7
704.45	35758.79
704.795	35702.97
705.14	35544.11
705.485	35549.53
705.83	35441.96
706.175	35579.36
706.52	35351.34
706.865	35299.82
707.209	35265.92
707.554	34986.38
707.899	35144.34
708.243	35038.13
708.588	34907.51
708.932	34693.51
709.277	34718.37
709.621	34698.48
709.966	34503.01
710.31	34679.27
710.654	34187.31
710.998	34398.15
711.342	34206.52
711.687	34205.39
712.031	34194.99
712.375	34013.53
712.719	33944.38
713.063	34033.19
713.407	33906.41
713.75	33776.47
714.094	33909.12
714.438	33717.04
714.782	33750.03
715.125	33535.35
715.469	33523.82
715.812	33452.41
716.156	33202.7
716.499	33336.48
716.843	33367.22
717.186	33098.3
717.53	33313.88
717.873	33164.28
718.216	33043.38
718.559	32930.39
718.902	32698.08
719.246	32784.86
719.589	32773.79
719.932	32574.24
720.275	32619.66
720.617	32661.02
720.96	32534.92
721.303	32536.05
721.646	32427.58
721.989	32405.21
722.331	32509.84
722.674	32427.35
723.016	32418.99
723.359	32311.42
723.701	32323.85
724.044	32007.25
724.386	31901.94
724.729	32044.09
725.071	31993.92
725.413	31792.34
725.755	31932.23
726.097	31746.92
726.439	31600.93
726.782	31566.81
727.124	31746.47
727.465	31573.14
727.807	31643.87
728.149	31551.67
728.491	31367.49
728.833	31438
729.175	31421.5
729.516	31234.62
729.858	31299.25
730.199	31175.18
730.541	31216.31
730.882	31197.56
731.224	31134.28
731.565	31065.58
731.906	31020.84
732.248	30999.14
732.589	30861.97
732.93	30642.32
733.271	30753.95
733.612	30838.47
733.953	30805.48
734.294	30805.93
734.635	30576.55
734.976	30800.5
735.317	30428.08
735.658	30452.72
735.999	30547.63
736.339	30323.23
736.68	30514.18
737.021	30353.74
737.361	30181.99
737.702	30323.91
738.042	30200.29
738.383	30180.63
738.723	30253.17
739.063	30136.11
739.404	30173.4
739.744	30062.22
740.084	29993.29
740.424	29935.89
740.764	29841.43
741.104	29987.64
741.444	29856.57
741.784	29711.94
742.124	29777.71
742.464	29726.86
742.804	29712.85
743.143	29628.78
743.483	29646.18
743.823	29508.11
744.162	29437.15
744.502	29621.1
744.841	29369.13
745.181	29567.77
745.52	29425.17
745.86	29406.42
746.199	29380.43
746.538	29311.05
746.877	29404.16
747.216	29254.78
747.556	28988.35
747.895	29119.64
748.234	29078.06
748.573	29048.23
748.911	28984.96
749.25	28976.37
749.589	28802.36
749.928	28913.32
750.267	28826.09
750.605	28904.06
750.944	28748.13
751.283	28583.84
751.621	28648.47
751.96	28509.49
752.298	28518.53
752.636	28504.74
752.975	28315.6
753.313	28270.85
753.651	28355.82
753.989	28189.95
754.327	28048.71
754.666	28011.65
755.004	28123.29
755.342	28137.52
755.679	27977.75
756.017	27899.79
756.355	27981.82
756.693	27860.24
757.031	27870.19
757.368	27707.25
757.706	27683.3
758.044	27566.46
758.381	27507.48
758.719	27434.49
759.056	27527.37
759.394	27438.56
759.731	27277.88
760.068	27198.56
760.405	27231.11
760.743	26942.3
761.08	27127.38
761.417	26893.04
761.754	26908.18
762.091	26844
762.428	26715.19
762.765	26557.9
763.102	26733.94
763.438	26614.4
763.775	26329.66
764.112	26408.08
764.449	26427.74
764.785	26325.14
765.122	26190.46
765.458	25892.84
765.795	25925.83
766.131	25962.21
766.467	25771.48
766.804	25749.34
767.14	25649.9
767.476	25642.67
767.812	25510.02
768.148	25437.03
768.485	25269.8
768.821	25209.46
769.157	25249.92
769.492	25148.45
769.828	25143.7
770.164	24908
770.5	24929.02
770.836	24857.38
771.171	24716.82
771.507	24593.44
771.842	24421.69
772.178	24461.91
772.513	24273.67
772.849	24309.83
773.184	24227.12
773.519	24153.22
773.855	24121.36
774.19	23928.82
774.525	23850.4
774.86	23989.61
775.195	23762.5
775.53	23629.39
775.865	23685.89
776.2	23460.81
776.535	23288.61
776.87	23276.63
777.205	23193.02
777.539	23036.19
777.874	23106.24
778.209	22943.99
778.543	22953.7
778.878	22756.42
779.212	22673.03
779.547	22593.94
779.881	22659.25
780.215	22427.39
780.55	22566.6
780.884	22428.29
781.218	22329.99
781.552	22305.59
781.886	22183.1
782.22	22025.14
782.554	21904.24
782.888	21706.28
783.222	21652.5
783.556	21619.28
783.889	21571.14
784.223	21431.26
784.557	21319.62
784.89	21403.24
785.224	21173.41
785.557	21164.82
785.891	21042.57
786.224	20896.36
786.558	21010.48
786.891	20890.93
787.224	20649.13
787.557	20709.02
787.891	20623.14
788.224	20627.44
788.557	20565.29
788.89	20481.68
789.223	20486.2
789.556	20314
789.888	20202.59
790.221	20231.97
790.554	19996.72
790.887	20035.59
791.219	19935.48
791.552	19864.29
791.884	19819.32
792.217	19791.53
792.549	19715.15
792.882	19501.82
793.214	19513.79
793.546	19564.41
793.879	19324.2
794.211	19240.13
794.543	19294.59
794.875	19257.98
795.207	19338.21
795.539	19163.52
795.871	19162.62
796.203	18985.45
796.535	18907.48
796.867	18866.13
797.198	18813.93
797.53	18780.03
797.862	18729.63
798.193	18666.59
798.525	18561.96
798.856	18606.7
799.188	18434.28
799.519	18347.5
799.85	18255.97
800.182	18284.22
800.513	18268.86
800.844	18100.27
801.175	18146.6
801.506	18130.1
801.837	18020.95
802.168	17963.33
802.499	17919.71
802.83	17792.26
803.161	17856.44
803.491	17804.24
803.822	17732.82
804.153	17579.83
804.483	17478.37
804.814	17468.2
805.145	17450.12
805.475	17439.73
805.805	17332.84
806.136	17305.04
806.466	17312.72
806.796	17194.53
807.126	17147.76
807.457	17110.24
807.787	17140.52
808.117	17041.77
808.447	16976.69
808.777	17074.54
809.107	16905.28
809.436	16908.89
809.766	16774.21
810.096	16756.81
810.426	16634.55
810.755	16748.44
811.085	16640.42
811.414	16603.14
811.744	16489.69
812.073	16517.49
812.403	16407.44
812.732	16476.36
813.061	16403.59
813.39	16196.82
813.719	16249.7
814.049	16246.99
814.378	16186.88
814.707	16101
815.036	16130.15
815.365	16090.38
815.693	15984.62
816.022	15887.22
816.351	15823.5
816.68	15759.32
817.008	15755.93
817.337	15697.17
817.665	15655.37
817.994	15625.08
818.322	15702.6
818.651	15600
818.979	15565.2
819.307	15514.8
819.636	15399.1
819.964	15397.07
820.292	15512.09
820.62	15475.03
820.948	15320.68
821.276	15478.87
821.604	15396.84
821.932	15457.4
822.259	15288.14
822.587	15340.12
822.915	15293.57
823.243	15397.97
823.57	15216.73
823.898	15357.75
824.225	15314.36
824.553	15306.22
824.88	15340.35
825.207	15338.76
825.535	15242.27
825.862	15266.45
826.189	15266.45
826.516	15279.56
826.843	15381.7
827.17	15320.01
827.497	15263.51
827.824	15363.85
828.151	15329.5
828.478	15236.62
828.805	15376.95
829.131	15233
829.458	15304.19
829.785	15181.93
830.111	15281.82
830.438	15420.34
830.764	15264.42
831.09	15282.04
831.417	15178.54
831.743	15194.36
832.069	15195.49
832.395	15169.95
832.722	15220.35
833.048	15091.99
833.374	15202.04
833.7	15157.07
834.026	15125.21
834.351	15128.15
834.677	15115.04
835.003	15193.23
835.329	15108.94
835.654	15079.34
835.98	14999.11
836.306	15008.83
836.631	14973.12
836.956	15073.01
837.282	14956.17
837.607	14910.53
837.932	14825.78
838.258	14887.7
838.583	14923.63
838.908	14779
839.233	14756.63
839.558	14807.48
839.883	14782.39
840.208	14619.01
840.533	14736.07
840.858	14653.36
841.182	14718.67
841.507	14685.67
841.832	14543.08
842.156	14559.12
842.481	14519.8
842.805	14472.12
843.13	14356.19
843.454	14390.09
843.778	14350.99
844.103	14372.91
844.427	14297.89
844.751	14266.7
845.075	14301.73
845.399	14215.18
845.723	14159.81
846.047	14175.86
846.371	14041.4
846.695	13993.04
847.019	13864
847.343	13917.33
847.666	13815.87
847.99	13784.45
848.313	13826.94
848.637	13715.76
848.96	13640.05
849.284	13602.09
849.607	13521.64
849.931	13513.5
850.254	13387.4
850.577	13240.97
850.9	13235.99
851.223	13267.18
851.546	13148.31
851.869	13000.29
852.192	13115.54
852.515	12948.09
852.838	12990.35
853.161	12971.82
853.483	12847.08
853.806	12784.93
854.129	12718.04
854.451	12709.23
854.774	12607.76
855.096	12708.1
855.419	12594.65
855.741	12580.42
856.063	12491.83
856.385	12554.2
856.708	12472.85
857.03	12383.13
857.352	12340.2
857.674	12326.19
857.996	12291.39
858.318	12289.58
858.64	12273.76
858.961	12236.02
859.283	12160.09
859.605	12105.18
859.926	12141.33
860.248	12055.91
860.57	12072.86
860.891	12048.91
861.212	12014.56
861.534	11936.59
861.855	11938.85
862.176	11950.15
862.498	11878.97
862.819	11887.1
863.14	11788.57
863.461	11878.97
863.782	11791.96
864.103	11738.86
864.424	11758.74
864.745	11756.94
865.065	11647.79
865.386	11546.55
865.707	11531.63
866.027	11609.14
866.348	11629.93
866.668	11562.37
866.989	11508.81
867.309	11461.8
867.63	11460
867.95	11455.48
868.27	11375.93
868.59	11396.72
868.91	11373.67
869.23	11419.77
869.55	11286.44
869.87	11365.08
870.19	11300.9
870.51	11297.06
870.83	11295.48
871.15	11266.33
871.469	11324.63
871.789	11337.96
872.109	11165.77
872.428	11197.4
872.748	11205.99
873.067	11168.93
873.386	11224.97
873.706	11190.4
874.025	11124.86
874.344	10992.89
874.663	11127.35
874.982	11039.89
875.301	10956.73
875.62	11014.13
875.939	11029.95
876.258	10961.25
876.577	10942.27
876.896	10947.69
877.214	10856.85
877.533	10931.65
877.852	10868.15
878.17	10938.88
878.489	10936.85
878.807	10853.23
879.125	10781.6
879.444	10871.54
879.762	10833.35
880.08	10795.38
880.398	10732.56
880.716	10759
881.034	10688.49
881.352	10714.25
881.67	10710.18
881.988	10637.19
882.306	10596.06
882.624	10594.48
882.941	10545.9
883.259	10516.52
883.577	10446.91
883.894	10482.62
884.212	10472.22
884.529	10447.59
884.846	10448.72
885.164	10354.49
885.481	10312
885.798	10328.5
886.115	10264.32
886.432	10280.37
886.75	10209.18
887.067	10216.64
887.383	10219.35
887.7	10225.68
888.017	10151.1
888.334	10148.84
888.651	10125.12
888.967	10145.23
889.284	10160.59
889.6	10050.09
889.917	9999.92
890.233	9970.99
890.55	9938.23
890.866	9964.22
891.182	9918.57
891.498	9840.15
891.815	9841.28
892.131	9802.64
892.447	9828.63
892.763	9791.11
893.079	9761.06
893.395	9658.69
893.71	9695.3
894.026	9681.96
894.342	9590.89
894.657	9495.3
894.973	9498.69
895.289	9499.59
895.604	9526.94
895.92	9499.14
896.235	9400.61
896.55	9452.14
896.865	9371.46
897.181	9360.62
897.496	9346.6
897.811	9203.11
898.126	9249.21
898.441	9223.9
898.756	9218.92
899.071	9073.17
899.386	9149.55
899.7	9078.81
900.015	9061.19
900.33	8975.31
900.644	8921.98
900.959	8997.91
901.273	8945.03
901.588	8823.23
901.902	8826.39
902.216	8760.18
902.531	8816.22
902.845	8779.16
903.159	8672.05
903.473	8713.85
903.787	8654.65
904.101	8615.78
904.415	8623.46
904.729	8543.01
905.042	8518.15
905.356	8491.03
905.67	8499.4
905.984	8455.78
906.297	8478.83
906.611	8409.45
906.924	8387.99
907.237	8312.51
907.551	8317.71
907.864	8300.53
908.177	8188.44
908.491	8197.71
908.804	8137.14
909.117	8119.29
909.43	8034.1
909.743	8108.67
910.056	8033.87
910.368	8020.09
910.681	7969.47
910.994	7926.53
911.307	7901.9
911.619	7871.16
911.932	7811.96
912.244	7723.37
912.557	7804.05
912.869	7689.92
913.181	7676.37
913.494	7669.13
913.806	7622.58
914.118	7592.3
914.43	7588.68
914.742	7534.67
915.054	7509.82
915.366	7509.82
915.678	7450.61
915.99	7429.59
916.302	7373.1
916.613	7308.01
916.925	7294
917.236	7368.58
917.548	7194.12
917.859	7236.38
918.171	7195.7
918.482	7145.98
918.794	7120.22
919.105	7096.04
919.416	7060.56
919.727	7098.3
920.038	7050.85
920.349	6990.96
920.66	6941.92
920.971	6921.13
921.282	6934.69
921.593	6836.84
921.903	6813.34
922.214	6775.37
922.525	6790.06
922.835	6750.06
923.146	6736.96
923.456	6741.93
923.767	6649.5
924.077	6657.64
924.387	6602.04
924.697	6591.42
925.008	6534.02
925.318	6515.49
925.628	6497.19
925.938	6515.04
926.248	6421.26
926.558	6411.54
926.867	6395.5
927.177	6347.14
927.487	6299.23
927.796	6278.44
928.106	6327.93
928.416	6242.51
928.725	6206.35
929.034	6194.6
929.344	6214.48
929.653	6176.74
929.962	6154.6
930.271	6091.55
930.581	6073.47
930.89	6065.33
931.199	6026.01
931.508	5967.71
931.817	5963.64
932.125	5948.73
932.434	5932.46
932.743	5868.96
933.051	5809.97
933.36	5873.25
933.669	5794.61
933.977	5818.34
934.286	5779.24
934.594	5786.25
934.902	5706.47
935.21	5706.02
935.519	5677.55
935.827	5664.22
936.135	5620.83
936.443	5575.86
936.751	5528.85
937.059	5546.7
937.367	5490.89
937.674	5524.78
937.982	5474.84
938.29	5479.36
938.597	5471.68
938.905	5403.43
939.213	5363.66
939.52	5336.31
939.827	5332.02
940.135	5271.46
940.442	5308.29
940.749	5287.05
941.056	5220.39
941.363	5177.22
941.67	5168.18
941.977	5102.87
942.284	5141.97
942.591	5106.26
942.898	5136.09
943.205	5153.04
943.511	5072.37
943.818	5048.19
944.125	5007.06
944.431	4991.69
944.738	5027.4
945.044	4928.64
945.35	4991.92
945.657	4911.69
945.963	4890.9
946.269	4856.33
946.575	4844.8
946.881	4821.75
947.187	4809.1
947.493	4718.93
947.799	4748.08
948.105	4757.57
948.41	4744.01
948.716	4767.52
949.022	4685.71
949.327	4713.28
949.633	4663.34
949.938	4650.68
950.244	4626.95
950.549	4626.73
950.854	4550.57
951.16	4559.39
951.465	4527.52
951.77	4539.95
952.075	4472.61
952.38	4466.05
952.685	4446.39
952.99	4407.75
953.294	4375.66
953.599	4386.06
953.904	4363.68
954.209	4315.32
954.513	4290.69
954.818	4335.44
955.122	4305.83
955.426	4289.34
955.731	4266.74
956.035	4192.16
956.339	4190.13
956.643	4190.58
956.948	4167.76
957.252	4195.33
957.556	4168.89
957.86	4130.92
958.163	4099.28
958.467	4114.65
958.771	4090.47
959.075	4114.43
959.378	4014.09
959.682	4059.06
959.985	4026.29
960.289	3974.99
960.592	3971.38
960.896	3937.93
961.199	3940.87
961.502	3928.89
961.805	3941.32
962.108	3859.52
962.411	3902.91
962.714	3861.1
963.017	3878.73
963.32	3891.38
963.623	3826.98
963.926	3806.41
964.228	3783.59
964.531	3746.3
964.833	3767.54
965.136	3737.03
965.438	3730.93
965.741	3716.47
966.043	3690.26
966.345	3648.68
966.648	3586.53
966.95	3635.57
967.252	3600.54
967.554	3600.31
967.856	3576.81
968.158	3575.23
968.46	3530.71
968.761	3554.89
969.063	3485.06
969.365	3483.71
969.666	3462.92
969.968	3461.56
970.269	3435.35
970.571	3458.17
970.872	3435.8
971.174	3421.34
971.475	3391.73
971.776	3374.56
972.077	3374.56
972.378	3349.25
972.679	3339.08
972.98	3347.44
973.281	3296.14
973.582	3310.38
973.883	3285.29
974.183	3252.75
974.484	3305.86
974.785	3240.78
975.085	3234.9
975.386	3222.02
975.686	3246.88
975.986	3197.39
976.287	3215.69
976.587	3134.11
976.887	3133.21
977.187	3109.48
977.487	3123.72
977.787	3080.33
978.087	3083.49
978.387	3083.72
978.687	3074.23
978.987	3015.25
979.286	3038.97
979.586	3033.32
979.885	2990.61
980.185	2984.29
980.484	2984.74
980.784	2941.12
981.083	2958.3
981.382	2922.82
981.682	2930.95
981.981	2887.57
982.28	2918.3
982.579	2904.97
982.878	2897.73
983.177	2866.32
983.475	2834.91
983.774	2835.36
984.073	2796.95
984.372	2810.96
984.67	2772.77
984.969	2785.87
985.267	2774.57
985.566	2763.5
985.864	2770.73
986.162	2715.82
986.461	2744.74
986.759	2721.02
987.057	2660.68
987.355	2654.35
987.653	2671.98
987.951	2670.85
988.249	2666.55
988.547	2631.3
988.844	2662.71
989.142	2643.96
989.44	2577.97
989.737	2584.52
990.035	2561.92
990.332	2585.88
990.63	2558.08
990.927	2523.51
991.224	2511.08
991.521	2530.96
991.819	2493
992.116	2501.59
992.413	2466.33
992.71	2489.16
993.006	2450.97
993.303	2468.37
993.6	2475.6
993.897	2429.05
994.193	2427.46
994.49	2413.45
994.787	2381.14
995.083	2382.49
995.379	2356.28
995.676	2337.3
995.972	2356.73
996.268	2326.9
996.565	2323.96
996.861	2306.79
997.157	2307.69
997.453	2245.55
997.749	2271.54
998.044	2273.12
998.34	2251.65
998.636	2259.56
998.932	2227.47
999.227	2229.5
999.523	2195.83
999.818	2180.24
1000.114	2174.14
1000.409	2174.36
1000.704	2172.56
1001	2168.94
1001.295	2125.78
1001.59	2140.01
1001.885	2113.35
1002.18	2109.51
1002.475	2089.17
1002.77	2109.96
1003.065	2036.51
1003.359	2044.65
1003.654	2035.61
1003.949	2020.7
1004.243	2019.11
1004.538	2028.83
1004.832	1994.03
1005.127	2006.23
1005.421	1980.7
1005.715	1973.47
1006.009	1994.26
1006.304	1964.2
1006.598	1949.74
1006.892	1927.14
1007.186	1916.07
1007.48	1926.69
1007.773	1901.83
1008.067	1885.78
1008.361	1866.8
1008.655	1874.03
1008.948	1873.81
1009.242	1820.93
1009.535	1834.49
1009.829	1825.45
1010.122	1796.97
1010.415	1787.26
1010.708	1785.67
1011.001	1752.45
1011.295	1765.11
1011.588	1779.35
1011.881	1779.8
1012.173	1760.36
1012.466	1742.74
1012.759	1722.85
1013.052	1713.36
1013.344	1721.95
1013.637	1700.25
1013.93	1705.45
1014.222	1631.78
1014.514	1659.35
1014.807	1647.82
1015.099	1661.38
1015.391	1641.5
1015.683	1641.5
1015.976	1617.09
1016.268	1580.71
1016.56	1566.24
1016.851	1588.62
1017.143	1570.76
1017.435	1613.93
1017.727	1566.7
1018.018	1539.13
1018.31	1551.1
1018.602	1517.21
1018.893	1540.03
1019.185	1527.38
1019.476	1498
1019.767	1477.21
1020.058	1477.21
1020.35	1487.83
1020.641	1474.27
1020.932	1447.15
1021.223	1436.76
1021.514	1420.03
1021.804	1433.59
1022.095	1414.84
1022.386	1422.97
1022.677	1395.63
1022.967	1378.9
1023.258	1366.93
1023.548	1368.28
1023.839	1370.32
1024.129	1348.62
1024.419	1347.94
1024.709	1331.22
1025	1333.71
1025.29	1301.84
1025.58	1284.44
1025.87	1302.07
1026.16	1272.47
1026.449	1307.27
1026.739	1256.87
1027.029	1256.42
1027.319	1264.11
1027.608	1244.44
1027.898	1249.87
1028.187	1237.67
1028.477	1232.02
1028.766	1236.54
1029.055	1223.65
1029.344	1179.59
1029.634	1178.01
1029.923	1183.66
1030.212	1217.78
1030.501	1180.49
1030.79	1159.48
1031.078	1146.14
1031.367	1137.78
1031.656	1129.19
1031.945	1154.28
1032.233	1144.56
1032.522	1121.96
1032.81	1121.28
1033.099	1114.28
1033.387	1092.36
1033.675	1076.54
1033.963	1055.3
1034.251	1075.18
1034.54	1072.02
1034.828	1063.43
1035.116	1071.12
1035.403	1038.35
1035.691	1032.92
1035.979	1064.34
1036.267	1013.26
1036.554	1009.65
1036.842	1006.03
1037.129	1022.76
1037.417	1011.46
1037.704	970.78
1037.992	989.08
1038.279	978.24
1038.566	996.77
1038.853	996.77
1039.14	996.77
