Data from hue_240_FLMS001491_00027.txt Node
Date: Tue Feb 07 16:35:16 GMT 2017
User: dcchb
Spectrometer: FLMS00149
Trigger mode: 0
Integration Time (sec): 2.000000E-2
Scans to average: 10
Electric dark correction enabled: true
Nonlinearity correction enabled: false
Boxcar width: 0
XAxis mode: Wavelengths
Number of Pixels in Spectrum: 2048
>>>>>Begin Spectral Data<<<<<
341.393	-29.79
341.776	-29.79
342.16	-29.79
342.543	-64.59
342.927	-54.87
343.31	-72.95
343.693	-70.69
344.077	-54.65
344.46	-63.01
344.843	-75.66
345.226	-35.21
345.61	-34.53
345.993	-4.48
346.376	0.49
346.759	18.8
347.142	27.84
347.525	45.24
347.908	41.85
348.291	81.4
348.674	89.98
349.057	105.58
349.44	135.63
349.823	139.25
350.206	144.9
350.588	190.32
350.971	207.72
351.354	231.67
351.737	211.34
352.119	235.97
352.502	236.87
352.884	250.21
353.267	275.06
353.65	286.36
354.032	288.17
354.414	293.82
354.797	314.84
355.179	311.22
355.562	310.09
355.944	331.56
356.326	330.66
356.709	339.92
357.091	332.91
357.473	335.63
357.855	310.77
358.238	328.85
358.62	332.91
359.002	322.52
359.384	345.8
359.766	327.49
360.148	316.42
360.53	320.94
360.912	344.89
361.294	324.33
361.676	329.07
362.057	321.84
362.439	307.15
362.821	310.09
363.203	319.81
363.584	313.03
363.966	313.03
364.348	318
364.729	302.18
365.111	296.76
365.493	317.55
365.874	313.03
366.256	308.28
366.637	301.28
367.019	302.18
367.4	321.16
367.781	306.93
368.163	317.55
368.544	307.38
368.925	308.06
369.306	313.25
369.688	311.9
370.069	312.58
370.45	314.38
370.831	302.63
371.212	311.22
371.593	282.97
371.974	304.89
372.355	310.99
372.736	303.99
373.117	310.77
373.498	341.95
373.879	299.92
374.26	307.15
374.641	310.99
375.021	316.64
375.402	313.93
375.783	304.67
376.163	300.6
376.544	309.41
376.925	302.86
377.305	338.11
377.686	311.9
378.066	321.16
378.447	324.78
378.827	321.84
379.208	340.37
379.588	332.46
379.968	334.04
380.349	326.14
380.729	331.79
381.109	317.77
381.489	313.93
381.87	327.72
382.25	338.34
382.63	320.26
383.01	357.1
383.39	348.73
383.77	342.41
384.15	346.93
384.53	366.13
384.91	339.69
385.29	351.9
385.67	353.71
386.049	342.63
386.429	346.25
386.809	374.72
387.189	348.73
387.568	367.04
387.948	358.23
388.328	346.02
388.707	351.67
389.087	342.63
389.466	350.54
389.846	378.11
390.225	369.98
390.605	372.01
390.984	363.65
391.363	367.26
391.743	376.76
392.122	373.59
392.501	375.17
392.881	367.04
393.26	382.18
393.639	388.51
394.018	371.56
394.397	370.65
394.776	379.69
395.155	376.53
395.534	362.07
395.913	406.59
396.292	397.77
396.671	393.48
397.05	401.16
397.429	369.3
397.808	398
398.186	400.48
398.565	409.07
398.944	381.95
399.323	406.59
399.701	405.23
400.08	406.36
400.458	416.53
400.837	415.85
401.215	430.77
401.594	417.88
401.972	431.22
402.351	426.47
402.729	412.23
403.107	442.52
403.486	427.38
403.864	429.18
404.242	423.53
404.62	444.1
404.999	424.89
405.377	430.09
405.755	428.73
406.133	453.59
406.511	448.39
406.889	450.43
407.267	475.51
407.645	456.53
408.023	463.76
408.401	464.44
408.779	482.06
409.156	480.93
409.534	484.32
409.912	483.87
410.29	489.3
410.667	511.22
411.045	504.44
411.422	510.09
411.8	539.01
412.178	524.32
412.555	530.88
412.933	534.94
413.31	550.99
413.687	561.84
414.065	548.95
414.442	565.9
414.819	576.75
415.197	565.23
415.574	576.75
415.951	577.43
416.328	603.42
416.705	597.99
417.082	613.81
417.46	633.47
417.837	608.61
418.214	639.35
418.591	641.38
418.967	637.77
419.344	637.77
419.721	631.21
420.098	645
420.475	645.22
420.852	675.5
421.228	679.57
421.605	687.26
421.982	677.09
422.358	689.06
422.735	699.46
423.111	722.06
423.488	744.66
423.864	719.35
424.241	746.24
424.617	759.8
424.994	770.87
425.37	776.07
425.746	782.39
426.123	776.97
426.499	781.04
426.875	788.72
427.251	828.95
427.627	830.75
428.003	823.07
428.379	864.43
428.756	867.36
429.132	878.44
429.507	862.84
429.883	872.56
430.259	869.17
430.635	894.71
431.011	887.93
431.387	913.46
431.763	932.22
432.138	953.92
432.514	974.03
432.89	959.11
433.265	992.33
433.641	1003.63
434.016	998.66
434.392	997.08
434.767	1069.17
435.143	1029.85
435.518	1056.96
435.894	1074.14
436.269	1115.27
436.644	1126.79
437.02	1133.35
437.395	1129.5
437.77	1149.84
438.145	1181.03
438.52	1184.19
438.895	1190.07
439.271	1173.57
439.646	1238.65
440.021	1211.08
440.395	1249.5
440.77	1247.24
441.145	1290.4
441.52	1292.89
441.895	1311.19
442.27	1319.33
442.645	1326.56
443.019	1336.28
443.394	1311.42
443.769	1364.98
444.143	1321.82
444.518	1364.3
444.892	1360.91
445.267	1379.22
445.641	1416.95
446.016	1432.1
446.39	1400.68
446.764	1410.85
447.139	1440.23
447.513	1458.99
447.887	1441.81
448.262	1477.07
448.636	1465.99
449.01	1463.73
449.384	1514.58
449.758	1507.57
450.132	1523.17
450.506	1530.62
450.88	1558.42
451.254	1548.02
451.628	1568.36
452.002	1587.57
452.376	1588.02
452.75	1636.38
453.123	1642.71
453.497	1673.44
453.871	1651.98
454.244	1677.29
454.618	1708.02
454.992	1698.98
455.365	1694.24
455.739	1761.58
456.112	1744.63
456.486	1778.53
456.859	1806.55
457.232	1823.27
457.606	1821.24
457.979	1829.37
458.352	1865.3
458.725	1897.85
459.099	1890.61
459.472	1949.14
459.845	1979.2
460.218	1951.63
460.591	1999.09
460.964	2014.45
461.337	2028.69
461.71	2083.38
462.083	2108.01
462.456	2100.33
462.829	2089.03
463.201	2113.66
463.574	2164.05
463.947	2170.38
464.32	2239.76
464.692	2231.4
465.065	2222.81
465.438	2267.33
465.81	2317.27
466.183	2335.8
466.555	2387.55
466.928	2395.91
467.3	2386.87
467.672	2397.27
468.045	2463.48
468.417	2477.94
468.789	2494.44
469.161	2531.28
469.534	2547.77
469.906	2600.2
470.278	2631.16
470.65	2659.86
471.022	2703.25
471.394	2762
471.766	2773.53
472.138	2767.2
472.51	2844.04
472.882	2892.85
473.253	2901.44
473.625	2941.21
473.997	2973.75
474.369	2993.64
474.74	3035.22
475.112	3069.11
475.484	3160.86
475.855	3165.16
476.227	3232.95
476.598	3279.96
476.97	3333.06
477.341	3361.54
477.713	3421.42
478.084	3453.74
478.455	3475.43
478.827	3512.04
479.198	3649.89
479.569	3606.73
479.94	3697.12
480.311	3717.46
480.682	3818.25
481.053	3866.83
481.424	3929.66
481.795	4006.04
482.166	4060.73
482.537	4036.32
482.908	4152.48
483.279	4209.88
483.65	4225.69
484.021	4293.26
484.391	4339.36
484.762	4428.4
485.133	4370.55
485.503	4408.97
485.874	4491.9
486.244	4603.09
486.615	4641.95
486.985	4721.27
487.356	4785.23
487.726	4853.7
488.097	4905.68
488.467	4906.58
488.837	5001.72
489.207	5063.86
489.578	5126.69
489.948	5165.56
490.318	5224.54
490.688	5221.37
491.058	5256.18
491.428	5315.38
491.798	5380.47
492.168	5490.52
492.538	5514.47
492.908	5546.11
493.278	5613.68
493.648	5643.96
494.017	5703.85
494.387	5730.97
494.757	5732.77
495.126	5857.52
495.496	5886.67
495.866	5892.32
496.235	5903.39
496.605	5944.29
496.974	5981.35
497.344	5990.17
497.713	6068.36
498.082	6066.78
498.452	6169.37
498.821	6076.27
499.19	6144.97
499.559	6229.26
499.928	6204.4
500.298	6277.84
500.667	6369.14
501.036	6373.21
501.405	6377.28
501.774	6368.24
502.143	6404.62
502.512	6448.23
502.88	6463.15
503.249	6517.16
503.618	6503.37
503.987	6476.03
504.356	6533.2
504.724	6604.16
505.093	6561
505.462	6669.92
505.83	6653.88
506.199	6727.78
506.567	6766.87
506.936	6770.49
507.304	6815
507.672	6844.16
508.041	6814.78
508.409	6920.76
508.777	6908.79
509.145	6953.53
509.514	6943.36
509.882	7008.45
510.25	6967.99
510.618	7023.36
510.986	7000.76
511.354	7059.52
511.722	7100.19
512.09	7126.18
512.458	7130.25
512.826	7182
513.193	7196.46
513.561	7207.99
513.929	7196.92
514.297	7251.6
514.664	7273.98
515.032	7313.52
515.4	7320.3
515.767	7342.45
516.135	7318.04
516.502	7319.4
516.869	7349.23
517.237	7386.74
517.604	7402.11
517.972	7467.87
518.339	7480.75
518.706	7476.68
519.073	7484.37
519.44	7554.65
519.808	7524.59
520.175	7507.19
520.542	7660.41
520.909	7659.28
521.276	7623.34
521.643	7603.23
522.009	7704.47
522.376	7707.18
522.743	7711.7
523.11	7730.69
523.477	7795.32
523.843	7804.58
524.21	7856.33
524.577	7925.48
524.943	7904.24
525.31	7959.38
525.676	7894.75
526.043	8002.54
526.409	8025.82
526.776	8097.68
527.142	8099.26
527.508	8116.44
527.874	8103.56
528.241	8066.27
528.607	8079.15
528.973	8161.41
529.339	8079.6
529.705	8172.03
530.071	8166.83
530.437	8254.29
530.803	8262.2
531.169	8271.69
531.535	8241.41
531.901	8252.93
532.267	8223.78
532.632	8216.55
532.998	8238.47
533.364	8287.06
533.73	8284.34
534.095	8241.18
534.461	8261.29
534.826	8315.53
535.192	8312.82
535.557	8319.37
535.923	8268.07
536.288	8357.56
536.653	8306.72
537.019	8266.72
537.384	8343.33
537.749	8296.32
538.114	8344.46
538.479	8280.05
538.845	8337
539.21	8271.69
539.575	8313.04
539.94	8202.31
540.305	8359.82
540.67	8249.09
541.034	8281.18
541.399	8330.9
541.764	8263.55
542.129	8286.15
542.494	8335.42
542.858	8271.24
543.223	8278.69
543.587	8313.04
543.952	8284.34
544.316	8284.34
544.681	8218.81
545.045	8271.24
545.41	8294.97
545.774	8292.03
546.138	8266.27
546.503	8259.94
546.867	8259.94
547.231	8326.83
547.595	8299.71
547.959	8330.44
548.324	8277.11
548.688	8269.66
549.052	8284.57
549.416	8252.71
549.779	8238.24
550.143	8239.15
550.507	8307.85
550.871	8231.01
551.235	8280.5
551.599	8252.93
551.962	8222.88
552.326	8279.6
552.689	8222.2
553.053	8207.51
553.417	8327.51
553.78	8328.64
554.143	8208.41
554.507	8257
554.87	8277.11
555.234	8309.65
555.597	8274.4
555.96	8273.95
556.323	8295.19
556.686	8293.16
557.05	8334.74
557.413	8282.08
557.776	8341.97
558.139	8373.16
558.502	8400.95
558.865	8376.09
559.228	8406.6
559.59	8370.44
559.953	8436.2
560.316	8546.48
560.679	8475.98
561.041	8478.24
561.404	8580.83
561.767	8585.13
562.129	8516.65
562.492	8569.53
562.854	8581.29
563.217	8509.42
563.579	8572.02
563.941	8626.93
564.304	8620.61
564.666	8710.77
565.028	8666.93
565.39	8674.39
565.753	8674.39
566.115	8758.46
566.477	8746.25
566.839	8755.97
567.201	8861.5
567.563	8841.84
567.925	8907.15
568.287	8897.44
568.648	8887.49
569.01	8852.92
569.372	8937.89
569.734	8893.37
570.095	8941.95
570.457	8977.21
570.819	9001.39
571.18	9058.56
571.542	9103.08
571.903	9068.96
572.265	9167.94
572.626	9101.05
572.987	9160.93
573.349	9197.77
573.71	9245
574.071	9221.95
574.432	9257.88
574.794	9309.63
575.155	9248.84
575.516	9239.12
575.877	9311.44
576.238	9315.5
576.599	9342.85
576.96	9294.49
577.32	9361.15
577.681	9412
578.042	9415.61
578.403	9431.43
578.763	9501.04
579.124	9501.04
579.485	9542.84
579.845	9487.25
580.206	9481.6
580.566	9539.23
580.927	9621.48
581.287	9625.33
581.648	9529.28
582.008	9604.08
582.368	9626.68
582.728	9603.18
583.089	9649.51
583.449	9668.04
583.809	9671.88
584.169	9684.76
584.529	9656.29
584.889	9692.44
585.249	9674.14
585.609	9684.99
585.969	9670.52
586.329	9601.6
586.688	9714.36
587.048	9722.95
587.408	9728.15
587.768	9706.91
588.127	9711.65
588.487	9712.56
588.846	9790.75
589.206	9737.87
589.565	9740.13
589.925	9843.85
590.284	9830.97
590.643	9813.12
591.003	9837.07
591.362	9899.44
591.721	9809.73
592.08	9796.62
592.44	9874.81
592.799	9908.48
593.158	9885.43
593.517	9848.82
593.876	9939.67
594.235	9830.74
594.593	9829.16
594.952	9946.67
595.311	9863.06
595.67	9856.96
596.029	9906.45
596.387	10008.37
596.746	9997.07
597.104	9884.75
597.463	9911.87
597.822	9966.33
598.18	9953.9
598.538	9910.29
598.897	10016.73
599.255	9927.92
599.613	10066.22
599.972	9919.33
600.33	9999.33
600.688	9908.48
601.046	10057.63
601.404	10020.12
601.762	10023.96
602.12	10017.63
602.478	10041.81
602.836	10026.45
603.194	10042.26
603.552	9994.81
603.91	10039.33
604.268	10053.56
604.625	9985.09
604.983	10056.5
605.341	10037.29
605.698	10009.04
606.056	10109.83
606.413	10054.02
606.771	10129.04
607.128	10104.18
607.485	10095.37
607.843	10063.05
608.2	10191.64
608.557	10231.86
608.914	10170.4
609.272	10180.79
609.629	10142.15
609.986	10186.44
610.343	10109.83
610.7	10224.86
611.057	10216.27
611.414	10098.53
611.771	10210.85
612.127	10264.86
612.484	10263.28
612.841	10311.86
613.198	10204.75
613.554	10296.04
613.911	10278.42
614.267	10303.73
614.624	10309.38
614.98	10303.95
615.337	10309.83
615.693	10329.49
616.05	10383.95
616.406	10428.47
616.762	10348.24
617.118	10342.6
617.475	10398.41
617.831	10408.81
618.187	10362.93
618.543	10388.24
618.899	10445.19
619.255	10409.49
619.611	10376.49
619.967	10474.8
620.323	10472.99
620.678	10467.11
621.034	10415.81
621.39	10402.03
621.746	10409.49
622.101	10507.11
622.457	10426.89
622.812	10463.5
623.168	10449.94
623.523	10439.54
623.879	10498.52
624.234	10342.37
624.589	10405.64
624.945	10449.49
625.3	10470.28
625.655	10517.96
626.01	10465.53
626.365	10441.8
626.72	10368.58
627.075	10373.78
627.43	10416.72
627.785	10444.51
628.14	10447.23
628.495	10424.63
628.85	10384.85
629.205	10316.83
629.559	10480.67
629.914	10372.88
630.269	10435.25
630.623	10364.52
630.978	10327.45
631.332	10392.76
631.687	10331.07
632.041	10327.23
632.396	10324.06
632.75	10335.14
633.104	10318.64
633.459	10244.74
633.813	10302.6
634.167	10291.52
634.521	10284.52
634.875	10290.62
635.229	10245.65
635.583	10198.42
635.937	10156.16
636.291	10135.37
636.645	10200.23
636.999	10164.75
637.352	10177.18
637.706	10037.29
638.06	10161.36
638.413	10124.3
638.767	10100.12
639.121	10145.09
639.474	9996.39
639.828	10011.53
640.181	10029.38
640.534	10046.11
640.888	10049.72
641.241	9962.27
641.594	9948.48
641.947	9973.79
642.301	9953.9
642.654	9983.06
643.007	9949.16
643.36	9990.29
643.713	9934.7
644.066	9938.99
644.419	9875.71
644.771	9894.25
645.124	9756.62
645.477	9763.4
645.83	9708.71
646.182	9680.01
646.535	9576.97
646.888	9657.42
647.24	9600.92
647.593	9599.56
647.945	9537.19
648.298	9539
648.65	9494.48
649.002	9492.67
649.355	9565.21
649.707	9529.06
650.059	9629.62
650.411	9687.92
650.763	9671.65
651.115	9783.74
651.467	9793.91
651.819	9772.89
652.171	9862.83
652.523	9767.47
652.875	9754.36
653.227	9680.69
653.578	9726.34
653.93	9738.09
654.282	9692.89
654.633	9728.15
654.985	9758.66
655.337	9670.07
655.688	9694.48
656.039	9768.6
656.391	9651.77
656.742	9727.7
657.094	9670.97
657.445	9742.16
657.796	9687.25
658.147	9778.32
658.498	9672.56
658.849	9727.47
659.2	9698.77
659.551	9699.45
659.902	9671.43
660.253	9670.75
660.604	9666.91
660.955	9662.39
661.306	9709.39
661.656	9666
662.007	9723.4
662.358	9639.79
662.708	9644.99
663.059	9623.29
663.409	9578.1
663.76	9709.84
664.11	9635.95
664.461	9751.2
664.811	9619.9
665.161	9661.03
665.511	9693.35
665.862	9695.61
666.212	9659.22
666.562	9712.56
666.912	9655.61
667.262	9685.21
667.612	9653.35
667.962	9651.54
668.312	9648.83
668.662	9659.68
669.011	9687.02
669.361	9571.99
669.711	9671.43
670.06	9646.57
670.41	9588.04
670.76	9602.05
671.109	9691.09
671.459	9561.82
671.808	9578.32
672.157	9624.42
672.507	9553.92
672.856	9517.08
673.205	9530.87
673.554	9655.83
673.904	9566.57
674.253	9585.33
674.602	9584.88
674.951	9414.03
675.3	9384.43
675.649	9579.23
675.998	9553.24
676.346	9599.11
676.695	9540.58
677.044	9469.85
677.393	9566.12
677.741	9527.02
678.09	9421.26
678.438	9423.07
678.787	9462.84
679.135	9440.92
679.484	9383.3
679.832	9435.27
680.181	9390.98
680.529	9435.73
680.877	9310.31
681.225	9324.99
681.573	9362.06
681.922	9260.82
682.27	9251.1
682.618	9266.69
682.966	9277.54
683.314	9302.4
683.661	9293.58
684.009	9153.02
684.357	9143.76
684.705	9116.19
685.053	9143.08
685.4	9122.29
685.748	9119.8
686.095	9113.02
686.443	9109.18
686.79	9032.12
687.138	9111.44
687.485	9090.65
687.832	9050.2
688.18	9012.01
688.527	8906.47
688.874	8891.79
689.221	8922.52
689.568	8916.42
689.915	8849.98
690.262	8825.8
690.609	8805.01
690.956	8789.42
691.303	8821.05
691.65	8772.24
691.997	8766.14
692.344	8690.89
692.69	8699.7
693.037	8731.11
693.383	8612.92
693.73	8678.68
694.077	8602.53
694.423	8532.02
694.769	8612.25
695.116	8562.3
695.462	8549.65
695.808	8482.76
696.155	8479.37
696.501	8472.59
696.847	8403.66
697.193	8318.24
697.539	8438.24
697.885	8329.99
698.231	8342.42
698.577	8325.02
698.923	8294.51
699.269	8224.46
699.614	8224.91
699.96	8229.2
700.306	8169.77
700.651	8119.15
700.997	8142.65
701.342	8050.45
701.688	8045.03
702.033	8062.43
702.379	8025.82
702.724	7993.73
703.069	7928.65
703.415	7865.6
703.76	7890
704.105	7898.14
704.45	7839.16
704.795	7819.95
705.14	7801.65
705.485	7808.42
705.83	7776.11
706.175	7728.65
706.52	7680.74
706.865	7665.15
707.209	7717.81
707.554	7654.98
707.899	7669.22
708.243	7597.36
708.588	7605.72
708.932	7551.71
709.277	7520.52
709.621	7563.23
709.966	7506.74
710.31	7485.5
710.654	7484.37
710.998	7441.2
711.342	7449.34
711.687	7429
712.031	7383.8
712.375	7330.7
712.719	7321.43
713.063	7263.35
713.407	7326.63
713.75	7306.06
714.094	7302
714.438	7278.5
714.782	7256.57
715.125	7254.77
715.469	7269.68
715.812	7194.88
716.156	7183.36
716.499	7225.84
716.843	7190.59
717.186	7173.41
717.53	7164.6
717.873	7188.1
718.216	7119.86
718.559	7118.73
718.902	7054.09
719.246	7108.56
719.589	7036.92
719.932	7058.39
720.275	7057.71
720.617	7060.2
720.96	7069.91
721.303	7009.8
721.646	7039.86
721.989	7021.78
722.331	7054.32
722.674	6996.02
723.016	6983.81
723.359	7025.85
723.701	6987.66
724.044	6914.89
724.386	6919.18
724.729	6955.57
725.071	7013.19
725.413	6932.74
725.755	6911.05
726.097	6926.87
726.439	6939.07
726.782	6861.56
727.124	6985.85
727.465	6871.73
727.807	6873.99
728.149	6780.43
728.491	6862.69
728.833	6847.55
729.175	6872.4
729.516	6877.6
729.858	6845.06
730.199	6839.86
730.541	6820.43
730.882	6799.19
731.224	6864.49
731.565	6815.23
731.906	6813.2
732.248	6815
732.589	6814.78
732.93	6795.12
733.271	6795.8
733.612	6749.02
733.953	6791.05
734.294	6776.81
734.635	6814.78
734.976	6754.44
735.317	6739.75
735.658	6810.71
735.999	6818.17
736.339	6775.46
736.68	6786.3
737.021	6818.17
737.361	6770.94
737.702	6816.36
738.042	6761.45
738.383	6770.94
738.723	6788.56
739.063	6795.34
739.404	6795.12
739.744	6793.54
740.084	6754.89
740.424	6795.12
740.764	6751.05
741.104	6822.01
741.444	6748.57
741.784	6792.86
742.124	6814.33
742.464	6814.55
742.804	6812.74
743.143	6786.98
743.483	6872.86
743.823	6813.2
744.162	6826.76
744.502	6827.66
744.841	6900.43
745.181	6911.95
745.52	6888
745.86	6957.37
746.199	6947.66
746.538	6956.47
746.877	6963.02
747.216	7036.92
747.556	6993.76
747.895	7073.53
748.234	7008.9
748.573	7116.69
748.911	7087.09
749.25	7173.19
749.589	7180.19
749.928	7243.92
750.267	7271.94
750.605	7309.68
750.944	7288.21
751.283	7346.52
751.621	7450.92
751.96	7430.58
752.298	7510.58
752.636	7557.36
752.975	7666.28
753.313	7614.53
753.651	7692.27
753.989	7776.11
754.327	7831.25
754.666	7818.14
755.004	7971.36
755.342	8052.71
755.679	8096.33
756.017	8139.72
756.355	8223.33
756.693	8318.02
757.031	8352.37
757.368	8416.32
757.706	8568.4
758.044	8624.45
758.381	8731.34
758.719	8803.65
759.056	8871.67
759.394	8952.35
759.731	9011.56
760.068	9115.73
760.405	9176.75
760.743	9232.57
761.08	9426.24
761.417	9495.61
761.754	9587.13
762.091	9687.47
762.428	9711.65
762.765	9783.97
763.102	9907.13
763.438	9964.98
763.775	9999.33
764.112	10196.38
764.449	10245.65
764.785	10265.31
765.122	10395.93
765.458	10416.27
765.795	10566.32
766.131	10606.32
766.467	10670.72
766.804	10786.43
767.14	10792.3
767.476	10954.56
767.812	10955.69
768.148	11045.4
768.485	10972.18
768.821	11115.68
769.157	11209.24
769.492	11227.09
769.828	11268.22
770.164	11245.85
770.5	11348.22
770.836	11531.04
771.171	11462.34
771.507	11487.42
771.842	11550.7
772.178	11609.68
772.513	11625.05
772.849	11697.81
773.184	11713.86
773.519	11738.94
773.855	11707.98
774.19	11731.49
774.525	11771.48
774.86	11870.69
775.195	11833.86
775.53	11894.64
775.865	11871.59
776.2	11900.52
776.535	11925.6
776.87	11936.23
777.205	11900.29
777.539	11923.12
777.874	11949.78
778.209	11919.73
778.543	11973.29
778.878	11901.42
779.212	11983.46
779.547	11899.62
779.881	12017.35
780.215	11907.98
780.55	12069.33
780.884	11937.58
781.218	12031.36
781.552	11995.89
781.886	11919.5
782.22	11910.46
782.554	11889.45
782.888	11846.96
783.222	11792.05
783.556	11795.44
783.889	11833.4
784.223	11706.18
784.557	11736.23
784.89	11752.95
785.224	11706.18
785.557	11685.38
785.891	11665.5
786.224	11716.12
786.558	11618.04
786.891	11583.69
787.224	11554.99
787.557	11651.94
787.891	11703.69
788.224	11584.37
788.557	11599.06
788.89	11503.47
789.223	11606.29
789.556	11437.48
789.888	11536.01
790.221	11459.63
790.554	11341.89
790.887	11361.78
791.219	11409.69
791.552	11351.38
791.884	11364.04
792.217	11289.46
792.549	11321.55
792.882	11264.38
793.214	11235
793.546	11303.02
793.879	11155.68
794.211	11120.88
794.543	11133.76
794.875	11150.26
795.207	11144.61
795.539	11132.18
795.871	11003.82
796.203	10982.58
796.535	11003.59
796.867	10957.95
797.198	10906.2
797.53	10982.35
797.862	10821.9
798.193	10859.42
798.525	10725.18
798.856	10799.08
799.188	10777.39
799.519	10719.08
799.85	10713.66
800.182	10666.88
800.513	10691.29
800.844	10620.1
801.175	10685.86
801.506	10650.16
801.837	10608.13
802.168	10552.31
802.499	10514.57
802.83	10510.5
803.161	10456.49
803.491	10523.61
803.822	10427.34
804.153	10446.77
804.483	10372.43
804.814	10391.41
805.145	10301.01
805.475	10312.09
805.805	10280.22
806.136	10241.13
806.466	10226.67
806.796	10278.64
807.126	10157.74
807.457	10124.97
807.787	10147.57
808.117	10081.36
808.447	10049.27
808.777	10129.72
809.107	10087.01
809.436	10006.56
809.766	9967.01
810.096	9988.25
810.426	9920.46
810.755	9939.89
811.085	9950.29
811.414	9896.28
811.744	9869.16
812.073	9832.1
812.403	9893.12
812.732	9772.89
813.061	9738.32
813.39	9776.96
813.719	9722.05
814.049	9786
814.378	9723.63
814.707	9760.01
815.036	9664.2
815.365	9648.83
815.693	9582.16
816.022	9579
816.351	9592.11
816.68	9523.86
817.008	9538.55
817.337	9416.29
817.665	9385.11
817.994	9479.79
818.322	9407.93
818.651	9442.51
818.979	9382.85
819.307	9385.11
819.636	9424.65
819.964	9252.91
820.292	9429.85
820.62	9381.26
820.948	9323.19
821.276	9357.08
821.604	9379.91
821.932	9360.47
822.259	9392.34
822.587	9367.48
822.915	9347.59
823.243	9386.01
823.57	9316.86
823.898	9400.7
824.225	9339.91
824.553	9316.18
824.88	9229.4
825.207	9362.28
825.535	9345.79
825.862	9371.32
826.189	9264.43
826.516	9346.24
826.843	9360.7
827.17	9351.66
827.497	9386.24
827.824	9377.65
828.151	9402.28
828.478	9383.52
828.805	9367.25
829.131	9328.61
829.458	9327.93
829.785	9337.65
830.111	9395.95
830.438	9412.45
830.764	9417.42
831.09	9339.46
831.417	9310.76
831.743	9354.37
832.069	9357.31
832.395	9311.44
832.722	9318.22
833.048	9320.25
833.374	9345.33
833.7	9289.52
834.026	9268.95
834.351	9270.08
834.677	9256.75
835.003	9269.4
835.329	9220.82
835.654	9251.55
835.98	9190.54
836.306	9240.7
836.631	9219.91
836.956	9171.33
837.282	9215.85
837.607	9155.28
837.932	9143.76
838.258	9196.86
838.583	9148.05
838.908	9130.65
839.233	9097.66
839.558	9150.08
839.883	9079.8
840.208	9073.02
840.533	9063.08
840.858	9033.93
841.182	9083.65
841.507	9030.31
841.832	8981.05
842.156	8970.43
842.481	8954.61
842.805	8910.54
843.13	8936.3
843.454	9024.66
843.778	8911.67
844.103	8829.19
844.427	8843.88
844.751	8841.62
845.075	8784.67
845.399	8778.79
845.723	8756.2
846.047	8748.51
846.371	8699.02
846.695	8720.27
847.019	8600.49
847.343	8511.91
847.666	8617.67
847.99	8460.84
848.313	8474.4
848.637	8450.44
848.96	8373.83
849.284	8373.61
849.607	8321.63
849.931	8365.7
850.254	8274.18
850.577	8271.24
850.9	8197.79
851.223	8200.73
851.546	8198.02
851.869	8068.3
852.192	8134.07
852.515	8076.44
852.838	8073.73
853.161	8050.23
853.483	7978.59
853.806	7965.93
854.129	7918.93
854.451	7878.48
854.774	7879.38
855.096	7812.49
855.419	7845.03
855.741	7819.72
856.063	7786.96
856.385	7800.29
856.708	7670.58
857.03	7720.74
857.352	7743.34
857.674	7700.63
857.996	7696.56
858.318	7659.05
858.64	7592.39
858.961	7638.71
859.283	7533.86
859.605	7551.26
859.926	7598.26
860.248	7567.75
860.57	7548.32
860.891	7471.03
861.212	7485.5
861.534	7416.34
861.855	7405.05
862.176	7397.36
862.498	7406.63
862.819	7428.32
863.14	7407.31
863.461	7344.71
863.782	7369.11
864.103	7317.36
864.424	7311.26
864.745	7353.07
865.065	7217.93
865.386	7310.13
865.707	7253.18
866.027	7246.18
866.348	7221.32
866.668	7224.94
866.989	7206.18
867.309	7213.19
867.63	7230.59
867.95	7203.47
868.27	7187.42
868.59	7171.15
868.91	7196.46
869.23	7096.13
869.55	7103.13
869.87	7162.79
870.19	7112.4
870.51	7096.13
870.83	7125.5
871.15	7075.34
871.469	7091.16
871.789	7107.65
872.109	7045.51
872.428	7029.46
872.748	7037.37
873.067	7071.95
873.386	7032.63
873.706	7024.04
874.025	6933.65
874.344	6912.18
874.663	6959.86
874.982	6949.24
875.301	7008.9
875.62	6884.83
875.939	6875.79
876.258	6909.47
876.577	6891.16
876.896	6899.75
877.214	6814.55
877.533	6871.73
877.852	6869.01
878.17	6863.82
878.489	6880.09
878.807	6821.11
879.125	6838.96
879.444	6735.68
879.762	6779.98
880.08	6743.37
880.398	6747.21
880.716	6751.96
881.034	6683.03
881.352	6732.97
881.67	6699.3
881.988	6682.8
882.306	6757.15
882.624	6637.83
882.941	6635.8
883.259	6638.29
883.577	6608.46
883.894	6626.99
884.212	6563.26
884.529	6554.22
884.846	6608.91
885.164	6511.74
885.481	6568.46
885.798	6551.06
886.115	6449.36
886.432	6483.49
886.75	6444.39
887.067	6515.13
887.383	6478.52
887.7	6485.52
888.017	6354.68
888.334	6464.51
888.651	6372.76
888.967	6359.2
889.284	6351.97
889.6	6330.95
889.917	6294.79
890.233	6316.49
890.55	6251.86
890.866	6281.91
891.182	6268.13
891.498	6232.87
891.815	6234.68
892.131	6200.33
892.447	6197.85
892.763	6158.3
893.079	6172.31
893.395	6162.82
893.71	6107.23
894.026	6117.4
894.342	6091.41
894.657	6021.8
894.973	6087.79
895.289	6048.02
895.604	6038.75
895.92	6016.38
896.235	5973.9
896.55	5980.9
896.865	5938.87
897.181	5910.85
897.496	5898.87
897.811	5873.79
898.126	5844.63
898.441	5782.72
898.756	5847.12
899.071	5768.25
899.386	5767.57
899.7	5740.68
900.015	5729.84
900.33	5690.29
900.644	5649.39
900.959	5701.14
901.273	5616.84
901.588	5634.47
901.902	5581.82
902.216	5616.84
902.531	5568.26
902.845	5540.91
903.159	5518.77
903.473	5530.97
903.787	5515.38
904.101	5395.15
904.415	5449.39
904.729	5431.09
905.042	5415.95
905.356	5413.91
905.67	5381.37
905.984	5359.68
906.297	5388.38
906.611	5318.32
906.924	5246.68
907.237	5253.01
907.551	5275.16
907.864	5231.54
908.177	5232
908.491	5267.47
908.804	5176.63
909.117	5127.82
909.43	5140.7
909.743	5130.3
910.056	5043.3
910.368	5106.8
910.681	5027.71
910.994	4980.7
911.307	5049.85
911.619	5038.55
911.932	5021.15
912.244	4969.86
912.557	4970.08
912.869	4934.6
913.181	4969.86
913.494	4902.96
913.806	4905.45
914.118	4868.16
914.43	4858.22
914.742	4815.73
915.054	4849.18
915.366	4826.81
915.678	4787.26
915.99	4763.31
916.302	4733.48
916.613	4719.01
916.925	4678.56
917.236	4665.91
917.548	4680.37
917.859	4663.87
918.171	4677.21
918.482	4614.38
918.794	4591.11
919.105	4572.35
919.416	4499.81
919.727	4553.14
920.038	4508.62
920.349	4511.56
920.66	4430.66
920.971	4492.81
921.282	4505.91
921.593	4474.95
921.903	4402.86
922.214	4413.94
922.525	4384.79
922.835	4318.8
923.146	4328.52
923.456	4301.17
923.767	4298.23
924.077	4294.62
924.387	4232.25
924.697	4262.53
925.008	4280.38
925.318	4229.76
925.628	4219.82
925.938	4195.86
926.248	4154.06
926.558	4151.57
926.867	4154.74
927.177	4108.63
927.487	4081.97
927.796	4063.89
928.106	4041.97
928.416	4022.31
928.725	4044.91
929.034	4024.8
929.344	4024.8
929.653	4040.39
929.962	3956.77
930.271	3912.03
930.581	3929.88
930.89	3916.1
931.199	3895.99
931.508	3946.38
931.817	3885.14
932.125	3828.19
932.434	3900.5
932.743	3840.62
933.051	3801.52
933.36	3763.79
933.669	3806.72
933.977	3769.43
934.286	3752.49
934.594	3743.9
934.902	3736.89
935.21	3679.72
935.519	3663.45
935.827	3719.04
936.135	3646.5
936.443	3653.51
936.751	3624.81
937.059	3604.02
937.367	3655.99
937.674	3623.22
937.982	3606.28
938.29	3548.88
938.597	3530.35
938.905	3510.68
939.213	3494.19
939.52	3478.37
939.827	3499.84
940.135	3464.36
940.442	3477.69
940.749	3442.44
941.056	3427.97
941.363	3420.74
941.67	3402.21
941.977	3370.12
942.284	3401.31
942.591	3397.02
942.898	3345.04
943.205	3324.93
943.511	3326.51
943.818	3330.35
944.125	3274.08
944.431	3330.12
944.738	3299.62
945.044	3268.88
945.35	3265.95
945.657	3178.26
945.963	3275.66
946.269	3196.12
946.575	3200.64
946.881	3207.42
947.187	3176.91
947.493	3174.87
947.799	3116.8
948.105	3138.72
948.41	3086.74
948.716	3115.21
949.022	3099.85
949.327	3093.29
949.633	3078.83
949.938	3051.94
950.244	3023.47
950.549	3000.64
950.854	3012.39
951.16	3022.11
951.465	3004.48
951.77	2987.08
952.075	2969.68
952.38	2943.24
952.685	2916.8
952.99	2933.3
953.294	2924.71
953.599	2888.78
953.904	2882.23
954.209	2877.48
954.513	2898.05
954.818	2864.6
955.122	2841.78
955.426	2813.53
955.731	2813.75
956.035	2851.94
956.339	2798.61
956.643	2779.4
956.948	2747.99
957.252	2747.31
957.556	2747.54
957.86	2732.85
958.163	2725.85
958.467	2721.1
958.771	2748.67
959.075	2724.04
959.378	2691.05
959.682	2687.43
959.985	2654.66
960.289	2654.21
960.592	2645.17
960.896	2613.31
961.199	2656.24
961.502	2630.26
961.805	2590.93
962.108	2605.4
962.411	2586.19
962.714	2571.27
963.017	2570.6
963.32	2571.5
963.623	2549.35
963.926	2535.57
964.228	2501.22
964.531	2517.04
964.833	2497.6
965.136	2481.79
965.438	2451.28
965.741	2445.4
966.043	2444.72
966.345	2472.29
966.648	2451.96
966.95	2465.06
967.252	2389.13
967.554	2412.18
967.856	2396.36
968.158	2375.35
968.46	2348.46
968.761	2392.3
969.063	2392.3
969.365	2308.68
969.666	2338.74
969.968	2314.56
970.269	2333.99
970.571	2337.16
970.872	2297.38
971.174	2314.11
971.475	2290.83
971.776	2268.68
972.077	2269.81
972.378	2254.9
972.679	2259.64
972.98	2261.23
973.281	2241.79
973.582	2235.69
973.883	2242.02
974.183	2208.12
974.484	2157.95
974.785	2209.7
975.085	2199.53
975.386	2215.35
975.686	2156.37
975.986	2136.71
976.287	2168.57
976.587	2129.93
976.887	2123.6
977.187	2145.97
977.487	2138.52
977.787	2098.29
978.087	2078.63
978.387	2080.44
978.687	2055.36
978.987	2045.64
979.286	2072.08
979.586	2050.38
979.885	2066.2
980.185	2011.51
980.484	2007.22
980.784	1990.5
981.083	2014.23
981.382	2014
981.682	1990.72
981.981	1983.49
982.28	1993.44
982.579	1984.4
982.878	1974.23
983.177	1941.69
983.475	1962.7
983.774	1929.26
984.073	1958.18
984.372	1912.08
984.67	1904.85
984.969	1902.82
985.267	1891.29
985.566	1889.03
985.864	1890.16
986.162	1845.19
986.461	1851.29
986.759	1852.42
987.057	1838.64
987.355	1829.6
987.653	1828.02
987.951	1803.61
988.249	1826.44
988.547	1807.23
988.844	1810.16
989.142	1801.35
989.44	1781.69
989.737	1774.91
990.035	1740.79
990.332	1758.19
990.63	1756.83
990.927	1735.82
991.224	1732.2
991.521	1728.81
991.819	1730.84
992.116	1704.63
992.413	1707.79
992.71	1672.99
993.006	1674.57
993.303	1698.08
993.6	1694.01
993.897	1680.68
994.193	1672.54
994.49	1654.69
994.787	1670.73
995.083	1645.42
995.379	1604.52
995.676	1635.25
995.972	1642.94
996.268	1634.58
996.565	1616.95
996.861	1595.25
997.157	1565.88
997.453	1588.93
997.749	1603.62
998.044	1566.78
998.34	1578.08
998.636	1563.62
998.932	1547.12
999.227	1555.93
999.523	1542.6
999.818	1543.5
1000.114	1520.91
1000.409	1503.28
1000.704	1501.02
1001	1521.13
1001.295	1523.84
1001.59	1487.69
1001.885	1478.2
1002.18	1477.97
1002.475	1484.75
1002.77	1464.41
1003.065	1468.48
1003.359	1440.46
1003.654	1411.76
1003.949	1416.73
1004.243	1410.63
1004.538	1404.98
1004.832	1379.67
1005.127	1369.95
1005.421	1407.46
1005.715	1379.67
1006.009	1386.67
1006.304	1372.44
1006.598	1364.98
1006.892	1357.97
1007.186	1355.26
1007.48	1364.53
1007.773	1338.31
1008.067	1305.77
1008.361	1325.43
1008.655	1310.29
1008.948	1306.22
1009.242	1322.04
1009.535	1271.65
1009.829	1305.09
1010.122	1276.39
1010.415	1280.91
1010.708	1253.12
1011.001	1279.78
1011.295	1263.51
1011.588	1238.2
1011.881	1227.13
1012.173	1225.55
1012.466	1211.54
1012.759	1215.38
1013.052	1221.71
1013.344	1199.11
1013.637	1187.13
1013.93	1205.21
1014.222	1197.75
1014.514	1199.11
1014.807	1196.4
1015.099	1188.94
1015.391	1191.2
1015.683	1172.89
1015.976	1161.59
1016.268	1152.1
1016.56	1126.57
1016.851	1158.88
1017.143	1107.13
1017.435	1123.18
1017.727	1112.78
1018.018	1146.45
1018.31	1104.65
1018.602	1088.6
1018.893	1106.23
1019.185	1108.04
1019.476	1059.45
1019.767	1070.3
1020.058	1062.16
1020.35	1066.68
1020.641	1051.09
1020.932	1067.58
1021.223	1045.44
1021.514	1051.77
1021.804	1026.46
1022.095	1017.19
1022.386	1015.16
1022.677	1020.58
1022.967	1022.39
1023.258	1006.34
1023.548	976.29
1023.839	985.33
1024.129	990.07
1024.419	983.29
1024.709	962.95
1025	948.72
1025.29	952.56
1025.58	944.65
1025.87	947.81
1026.16	953.69
1026.449	951.88
1026.739	932.67
1027.029	936.51
1027.319	914.59
1027.608	920.47
1027.898	896.29
1028.187	877.08
1028.477	930.64
1028.766	901.49
1029.055	906.91
1029.344	897.19
1029.634	870.98
1029.923	888.83
1030.212	876.18
1030.501	836.86
1030.79	853.81
1031.078	865.1
1031.367	846.57
1031.656	850.87
1031.945	836.63
1032.233	822.39
1032.522	838.89
1032.81	810.19
1033.099	820.81
1033.387	810.19
1033.675	791.89
1033.963	812
1034.251	831.43
1034.54	790.3
1034.828	791.43
1035.116	799.12
1035.403	811.09
1035.691	800.25
1035.979	788.27
1036.267	791.66
1036.554	769.29
1036.842	768.38
1037.129	748.05
1037.417	757.99
1037.704	736.75
1037.992	732.23
1038.279	733.81
1038.566	738.1
1038.853	738.1
1039.14	738.1
