Data from hue_40_FLMS001491_71.txt Node
Date: Mon Feb 06 15:08:24 GMT 2017
User: dcchb
Spectrometer: FLMS00149
Trigger mode: 0
Integration Time (sec): 2.000000E-2
Scans to average: 10
Electric dark correction enabled: true
Nonlinearity correction enabled: false
Boxcar width: 0
XAxis mode: Wavelengths
Number of Pixels in Spectrum: 2048
>>>>>Begin Spectral Data<<<<<
341.393	-7.49
341.776	-7.49
342.16	-7.49
342.543	-60.37
342.927	-63.08
343.31	-80.03
343.693	-72.34
344.077	-77.31
344.46	-46.81
344.843	-40.25
345.226	-28.5
345.61	-32.8
345.993	-22.4
346.376	13.08
346.759	10.37
347.142	4.72
347.525	23.7
347.908	55.56
348.291	84.49
348.674	107.77
349.057	100.76
349.44	136.01
349.823	146.86
350.206	184.83
350.588	191.83
350.971	203.58
351.354	224.37
351.737	227.08
352.119	238.61
352.502	256.69
352.884	280.64
353.267	297.59
353.65	316.12
354.032	314.31
354.414	286.07
354.797	287.2
355.179	340.75
355.562	329.23
355.944	334.88
356.326	325.61
356.709	340.3
357.091	334.2
357.473	354.09
357.855	353.18
358.238	328.1
358.62	334.2
359.002	339.85
359.384	358.38
359.766	339.4
360.148	335.56
360.53	353.86
360.912	338.04
361.294	331.26
361.676	346.18
362.057	334.43
362.439	328.1
362.821	326.74
363.203	307.08
363.584	333.52
363.966	319.51
364.348	322.22
364.729	351.6
365.111	320.87
365.493	317.25
365.874	309.79
366.256	310.92
366.637	294.2
367.019	296.24
367.4	320.42
367.781	306.18
368.163	310.02
368.544	297.37
368.925	317.48
369.306	327.42
369.688	320.87
370.069	308.44
370.45	294.88
370.831	300.75
371.212	311.6
371.593	302.79
371.974	318.38
372.355	336.01
372.736	323.13
373.117	329.23
373.498	293.07
373.879	303.92
374.26	322.68
374.641	302.11
375.021	322.9
375.402	304.82
375.783	324.26
376.163	318.61
376.544	347.08
376.925	306.63
377.305	324.26
377.686	324.93
378.066	328.78
378.447	327.42
378.827	332.84
379.208	314.99
379.588	307.08
379.968	334.43
380.349	348.66
380.729	330.58
381.109	334.2
381.489	325.61
381.87	344.14
382.25	340.3
382.63	338.95
383.01	348.66
383.39	336.91
383.77	336.23
384.15	335.56
384.53	338.49
384.91	344.37
385.29	354.99
385.67	329
386.049	343.24
386.429	342.34
386.809	345.05
387.189	350.25
387.568	352.96
387.948	369
388.328	349.34
388.707	344.37
389.087	357.25
389.466	353.41
389.846	345.5
390.225	362.67
390.605	347.53
390.984	373.75
391.363	361.32
391.743	350.25
392.122	373.07
392.501	367.19
392.881	403.58
393.26	399.74
393.639	372.17
394.018	347.76
394.397	379.17
394.776	363.13
395.155	374.2
395.534	382.33
395.913	366.97
396.292	381.66
396.671	383.92
397.05	388.44
397.429	392.96
397.808	384.82
398.186	386.4
398.565	386.18
398.944	381.2
399.323	399.96
399.701	392.5
400.08	381.2
400.458	379.17
400.837	409.68
401.215	401.09
401.594	376.69
401.972	411.49
402.351	392.28
402.729	406.29
403.107	411.03
403.486	399.96
403.864	401.54
404.242	408.1
404.62	398.61
404.999	413.97
405.377	399.06
405.755	420.07
406.133	424.59
406.511	406.29
406.889	420.07
407.267	429.56
407.645	433.63
408.023	422.79
408.401	423.24
408.779	414.2
409.156	431.37
409.534	421.43
409.912	411.26
410.29	433.18
410.667	446.51
411.045	434.31
411.422	441.77
411.8	445.38
412.178	460.98
412.555	473.63
412.933	472.95
413.31	462.78
413.687	464.37
414.065	492.16
414.442	471.37
414.819	469.34
415.197	467.08
415.574	459.39
415.951	464.14
416.328	473.86
416.705	450.36
417.082	476.57
417.46	483.35
417.837	495.1
418.214	488.09
418.591	472.5
418.967	469.56
419.344	487.42
419.721	498.72
420.098	476.8
420.475	512.27
420.852	510.24
421.228	502.78
421.605	520.41
421.982	495.78
422.358	507.98
422.735	526.29
423.111	511.82
423.488	533.74
423.864	534.19
424.241	543.69
424.617	536.23
424.994	541.2
425.37	539.62
425.746	520.41
426.123	529
426.499	543.69
426.875	540.75
427.251	554.08
427.627	556.34
428.003	564.7
428.379	554.76
428.756	576.91
429.132	550.47
429.507	566.28
429.883	581.88
430.259	602.22
430.635	592.95
431.011	612.16
431.387	618.71
431.763	605.83
432.138	596.57
432.514	621.88
432.89	631.82
433.265	621.42
433.641	621.2
434.016	627.07
434.392	652.38
434.767	652.38
435.143	661.88
435.518	653.51
435.894	664.14
436.269	640.63
436.644	681.99
437.02	682.44
437.395	674.76
437.77	691.03
438.145	679.5
438.52	687.86
438.895	697.13
439.271	688.09
439.646	721.76
440.021	721.76
440.395	714.98
440.77	696.68
441.145	701.87
441.52	729.67
441.895	719.05
442.27	738.94
442.645	719.5
443.019	721.53
443.394	736.9
443.769	727.18
444.143	729.22
444.518	744.58
444.892	749.1
445.267	766.96
445.641	767.86
446.016	767.64
446.39	773.28
446.764	771.25
447.139	772.83
447.513	779.39
447.887	791.59
448.262	777.8
448.636	807.18
449.01	791.36
449.384	803.34
449.758	820.29
450.132	826.62
450.506	811.02
450.88	794.98
451.254	809.89
451.628	829.33
452.002	833.62
452.376	861.64
452.75	840.85
453.123	842.44
453.497	876.78
453.871	869.55
454.244	876.56
454.618	907.74
454.992	901.19
455.365	888.99
455.739	921.98
456.112	919.95
456.486	924.47
456.859	940.96
457.232	937.35
457.606	930.57
457.979	956.1
458.352	961.98
458.725	981.87
459.099	1006.27
459.472	996.33
459.845	1031.81
460.218	1029.1
460.591	1032.26
460.964	1023.67
461.337	1061.64
461.71	1071.13
462.083	1081.53
462.456	1075.2
462.829	1115.87
463.201	1101.19
463.574	1099.15
463.947	1118.59
464.32	1166.04
464.692	1157.46
465.065	1155.42
465.438	1182.77
465.81	1198.13
466.183	1224.35
466.555	1228.87
466.928	1256.44
467.3	1239.04
467.672	1272.03
468.045	1303.89
468.417	1305.25
468.789	1364
469.161	1361.97
469.534	1388.18
469.906	1392.7
470.278	1402.19
470.65	1422.08
471.022	1465.92
471.394	1490.1
471.766	1499.82
472.138	1510.21
472.51	1566.48
472.882	1599.7
473.253	1616.2
473.625	1639.02
473.997	1667.5
474.369	1703.43
474.74	1718.12
475.112	1773.71
475.484	1821.39
475.855	1839.92
476.227	1888.51
476.598	1933.03
476.97	1967.83
477.341	2038.79
477.713	2071.33
478.084	2108.84
478.455	2163.76
478.827	2197.2
479.198	2271.78
479.569	2315.84
479.94	2398.78
480.311	2425.9
480.682	2494.6
481.053	2556.06
481.424	2635.83
481.795	2687.81
482.166	2750.41
482.537	2813.68
482.908	2909.95
483.279	2925.77
483.65	3060.91
484.021	3127.12
484.391	3206.89
484.762	3261.58
485.133	3302.26
485.503	3397.4
485.874	3512.87
486.244	3595.13
486.615	3700.67
486.985	3761.68
487.356	3873.32
487.726	3944.27
488.097	4014.56
488.467	4074.21
488.837	4237.6
489.207	4376.58
489.578	4412.96
489.948	4534.09
490.318	4617.03
490.688	4671.04
491.058	4847.3
491.428	4923.46
491.798	5007.52
492.168	5097.69
492.538	5199.16
492.908	5307.18
493.278	5427.63
493.648	5492.71
494.017	5605.02
494.387	5652.48
494.757	5821.06
495.126	5896.31
495.496	5930.66
495.866	6006.37
496.235	6162.07
496.605	6224.89
496.974	6356.19
497.344	6447.03
497.713	6470.31
498.082	6580.36
498.452	6723.18
498.821	6784.65
499.19	6842.05
499.559	6926.12
499.928	6965.66
500.298	7104.64
500.667	7224.87
501.036	7186.9
501.405	7339.67
501.774	7440.23
502.143	7467.12
502.512	7529.27
502.88	7663.95
503.249	7792.31
503.618	7789.15
503.987	7861.69
504.356	7895.58
504.724	8079.99
505.093	8025.3
505.462	8177.38
505.83	8274.78
506.199	8324.95
506.567	8438.85
506.936	8420.09
507.304	8639.07
507.672	8635.45
508.041	8678.16
508.409	8743.92
508.777	8856.91
509.145	8923.13
509.514	8946.86
509.882	8986.4
510.25	9098.26
510.618	9139.17
510.986	9195.89
511.354	9297.81
511.722	9435.88
512.09	9432.04
512.458	9486.28
512.826	9607.85
513.193	9623.9
513.561	9693.73
513.929	9736.44
514.297	9879.71
514.664	9894.4
515.032	9935.53
515.4	10077.67
515.767	10106.6
516.135	10173.04
516.502	10145.92
516.869	10286.03
517.237	10376.87
517.604	10347.95
517.972	10386.59
518.339	10514.5
518.706	10562.86
519.073	10626.13
519.44	10669.07
519.808	10722.85
520.175	10831.33
520.542	10954.94
520.909	10989.06
521.276	10974.15
521.643	11141.6
522.009	11211.43
522.376	11322.84
522.743	11301.14
523.11	11427.02
523.477	11562.38
523.843	11613.68
524.21	11699.55
524.577	11782.49
524.943	11785.2
525.31	11864.29
525.676	12040.11
526.043	12002.37
526.409	12107.68
526.776	12228.35
527.142	12255.24
527.508	12346.09
527.874	12407.56
528.241	12412.07
528.607	12550.6
528.973	12723.48
529.339	12715.8
529.705	12874.89
530.071	12922.8
530.437	12988.56
530.803	12978.39
531.169	13119.4
531.535	13152.85
531.901	13129.12
532.267	13180.42
532.632	13266.29
532.998	13235.33
533.364	13434.19
533.73	13510.8
534.095	13483.46
534.461	13617.24
534.826	13716.22
535.192	13706.73
535.557	13929.1
535.923	13836.44
536.288	13863.79
536.653	13998.25
537.019	14025.59
537.384	13995.76
537.749	14100.84
538.114	14100.17
538.479	14207.51
538.845	14262.87
539.21	14289.99
539.575	14369.76
539.94	14388.29
540.305	14503.77
540.67	14464
541.034	14597.33
541.399	14598.01
541.764	14683.65
542.129	14686.37
542.494	14760.94
542.858	14828.96
543.223	14878.45
543.587	14928.62
543.952	15027.6
544.316	15036.41
544.681	15035.28
545.045	15109.63
545.41	15183.08
545.774	15238.67
546.138	15255.84
546.503	15402.96
546.867	15392.56
547.231	15503.52
547.595	15517.98
547.959	15610.86
548.324	15568.6
548.688	15614.48
549.052	15761.37
549.416	15788.48
549.779	15815.83
550.143	15797.75
550.507	16004.97
550.871	15957.07
551.235	15965.43
551.599	16104.63
551.962	16217.4
552.326	16146.89
552.689	16284.97
553.053	16254.01
553.417	16306.44
553.78	16518.18
554.143	16496.71
554.507	16491.74
554.87	16583.04
555.234	16710.72
555.597	16608.8
555.96	16684.05
556.323	16834.56
556.686	16852.86
557.05	16987.32
557.413	16974.44
557.776	17023.7
558.139	17210.82
558.502	17168.56
558.865	17199.07
559.228	17359.29
559.59	17417.82
559.953	17374.66
560.316	17595.44
560.679	17538.27
561.041	17690.13
561.404	17692.39
561.767	17865.04
562.129	17784.14
562.492	18009.67
562.854	17959.73
563.217	18103.45
563.579	18036.79
563.941	18195.65
564.304	18260.51
564.666	18433.61
565.028	18463.89
565.39	18398.58
565.753	18547.96
566.115	18613.27
566.477	18724.9
566.839	18742.3
567.201	18844.22
567.563	18843.77
567.925	19004.22
568.287	18944.56
568.648	19020.94
569.01	19257.09
569.372	19260.03
569.734	19239.47
570.095	19441.95
570.457	19428.84
570.819	19433.59
571.18	19549.29
571.542	19700.47
571.903	19674.26
572.265	19787.02
572.626	19834.7
572.987	20064.53
573.349	20051.87
573.71	20157.86
574.071	20111.53
574.432	20358.98
574.794	20481.92
575.155	20420
575.516	20580.45
575.877	20692.76
576.238	20711.52
576.599	20964.62
576.96	20952.64
577.32	20926.2
577.681	21173.2
578.042	21315.8
578.403	21304.27
578.763	21505.39
579.124	21605.28
579.485	21783.13
579.845	21932.05
580.206	21944.93
580.566	21993.29
580.927	22228.54
581.287	22404.58
581.648	22468.31
582.008	22605.71
582.368	22691.35
582.728	22911.23
583.089	22955.75
583.449	23202.3
583.809	23338.12
584.169	23545.79
584.529	23677.77
584.889	23931.77
585.249	24013.58
585.609	24056.74
585.969	24427.35
586.329	24478.42
586.688	24751.19
587.048	24808.81
587.408	25013.1
587.768	25159.31
588.127	25286.09
588.487	25420.55
588.846	25807.88
589.206	25826.41
589.565	25979.18
589.925	26257.36
590.284	26408.32
590.643	26547.75
591.003	26826.84
591.362	27101.18
591.721	27178.92
592.08	27251.23
592.44	27668.62
592.799	27794.04
593.158	27888.28
593.517	28061.15
593.876	28221.15
594.235	28368.04
594.593	28519.9
594.952	28841.02
595.311	28941.36
595.67	29105.42
596.029	29564.62
596.387	29767.78
596.746	29805.52
597.104	29956.7
597.463	30064.04
597.822	30278.95
598.18	30378.38
598.538	30514.65
598.897	30866.73
599.255	30756
599.613	31261.07
599.972	31223.33
600.33	31406.15
600.688	31546.94
601.046	31653.38
601.404	31886.14
601.762	31950.09
602.12	32315.51
602.478	32428.72
602.836	32615.16
603.194	32618.78
603.552	32704.65
603.91	32688.15
604.268	33073.45
604.625	33060.57
604.983	33381.69
605.341	33303.5
605.698	33578.3
606.056	33776.03
606.413	33686.54
606.771	33959.76
607.128	34058.74
607.485	34029.81
607.843	34122.69
608.2	34441.55
608.557	34623.24
608.914	34630.02
609.272	34792.05
609.629	34920.41
609.986	35016.23
610.343	35074.76
610.7	35478.81
611.057	35451.92
611.414	35552.03
611.771	35555.2
612.127	35827.05
612.484	35808.3
612.841	36041.06
613.198	35922.87
613.554	36157.21
613.911	36285.12
614.267	36425.23
614.624	36461.16
614.98	36642.17
615.337	36776.86
615.693	36733.92
616.05	36824.09
616.406	36976.85
616.762	36924.2
617.118	37001.48
617.475	37043.97
617.831	37310.63
618.187	37320.12
618.543	37373
618.899	37611.41
619.255	37582.94
619.611	37675.14
619.967	37832.88
620.323	37874.91
620.678	37774.57
621.034	37656.16
621.39	37731.64
621.746	37899.77
622.101	38175.69
622.457	37963.27
622.812	38176.82
623.168	38203.04
623.523	38370.94
623.879	38448.68
624.234	38120.55
624.589	38409.58
624.945	38405.29
625.3	38433.76
625.655	38418.62
626.01	38562.8
626.365	38542.01
626.72	38659.75
627.075	38684.6
627.43	38701.33
627.785	38640.09
628.14	38784.26
628.495	38875.11
628.85	38690.25
629.205	38720.99
629.559	38897.71
629.914	38622.23
630.269	38789.91
630.623	38652.74
630.978	38664.27
631.332	38887.31
631.687	39012.28
632.041	38717.15
632.396	38802.57
632.75	38644.15
633.104	38784.71
633.459	38589.47
633.813	38529.58
634.167	38576.58
634.521	38645.28
634.875	38756.92
635.229	38812.06
635.583	38543.59
635.937	38691.84
636.291	38565.74
636.645	38648.67
636.999	38600.31
637.352	38656.81
637.706	38517.38
638.06	38664.27
638.413	38566.42
638.767	38361.67
639.121	38485.29
639.474	38309.02
639.828	38360.32
640.181	38468.56
640.534	38389.02
640.888	38381.34
641.241	38048.24
641.594	38268.34
641.947	38431.5
642.301	38201.91
642.654	38239.64
643.007	38253.2
643.36	38233.77
643.713	38104.51
644.066	38235.12
644.419	38039.65
644.771	37800.11
645.124	37446.67
645.477	37374.81
645.83	37203.51
646.182	37126
646.535	37023.18
646.888	37116.51
647.24	36826.57
647.593	37121.48
647.945	36939.34
648.298	36905.89
648.65	36741.6
649.002	36677.2
649.355	36931.2
649.707	36828.16
650.059	36886.46
650.411	37346.33
650.763	37302.04
651.115	37722.37
651.467	37560.34
651.819	37714.91
652.171	37615.25
652.523	37453.45
652.875	37442.15
653.227	37367.35
653.578	37719.43
653.93	37462.04
654.282	37342.94
654.633	37184.98
654.985	37313.79
655.337	37303.4
655.688	37464.52
656.039	37479.21
656.391	37229.28
656.742	37218.65
657.094	37237.64
657.445	37302.04
657.796	37273.79
658.147	37269.05
658.498	37104.98
658.849	37246
659.2	37222.04
659.551	37058.43
659.902	37286
660.253	37142.95
660.604	37225.66
660.955	37075.16
661.306	37116.74
661.656	37134.59
662.007	37161.25
662.358	37089.17
662.708	37003.97
663.059	37064.31
663.409	36767.37
663.76	37006.23
664.11	37057.75
664.461	37069.51
664.811	37062.05
665.161	36955.61
665.511	36903.18
665.862	36908.83
666.212	37121.93
666.562	36967.14
666.912	37022.95
667.262	37057.3
667.612	37004.2
667.962	37032.44
668.312	37000.35
668.662	37026.34
669.011	36843.97
669.361	36872.22
669.711	36870.41
670.06	36842.62
670.41	36893.24
670.76	36770.08
671.109	36959.23
671.459	36878.78
671.808	36855.05
672.157	36823.41
672.507	36661.15
672.856	36533.93
673.205	36704.77
673.554	36806.91
673.904	36675.84
674.253	36901.15
674.602	36623.19
674.951	36201.28
675.3	36049.42
675.649	36707.93
675.998	36473.36
676.346	36616.64
676.695	36611.66
677.044	36395.4
677.393	36462.06
677.741	36534.38
678.09	36347.04
678.438	36376.19
678.787	36455.74
679.135	36434.49
679.484	36159.25
679.832	36399.92
680.181	36118.34
680.529	36125.12
680.877	36203.31
681.225	36106.59
681.573	36315.18
681.922	36055.07
682.27	35841.29
682.618	35981.17
682.966	35817.34
683.314	36032.92
683.661	35855.98
684.009	35655.76
684.357	35544.12
684.705	35580.05
685.053	35649.43
685.4	35481.75
685.748	35470.9
686.095	35438.81
686.443	35286.05
686.79	35203.57
687.138	35222.32
687.485	35283.56
687.832	35059.39
688.18	35192.72
688.527	35068.2
688.874	34991.82
689.221	34905.27
689.568	34712.96
689.915	34651.04
690.262	34623.47
690.609	34500.53
690.956	34385.73
691.303	34395.68
691.65	34228.22
691.997	34237.26
692.344	34097.61
692.69	34096.02
693.037	34107.32
693.383	33848.57
693.73	33912.07
694.077	33692.42
694.423	33733.77
694.769	33515.25
695.116	33491.07
695.462	33456.49
695.808	33432.31
696.155	33426.44
696.501	33272.77
696.847	33101.25
697.193	33015.37
697.539	33131.08
697.885	32747.59
698.231	32742.39
698.577	32744.65
698.923	32636.63
699.269	32716.85
699.614	32497.2
699.96	32429.85
700.306	32433.92
700.651	32345.34
700.997	32080.71
701.342	32239.35
701.688	32092.46
702.033	32063.54
702.379	31960.49
702.724	31783.99
703.069	31878.91
703.415	31600.5
703.76	31464.68
704.105	31432.37
704.45	31402.54
704.795	31193.73
705.14	31097.01
705.485	31186.04
705.83	30980.17
706.175	31038.48
706.52	30866.96
706.865	30870.12
707.209	30884.13
707.554	30701.99
707.899	30677.81
708.243	30520.53
708.588	30615.21
708.932	30352.17
709.277	30339.51
709.621	30356.46
709.966	30312.62
710.31	30239.63
710.654	29934.55
710.998	30011.84
711.342	29978.84
711.687	29912.18
712.031	29820.43
712.375	29751.51
712.719	29884.16
713.063	29789.7
713.407	29751.05
713.75	29651.17
714.094	29545.64
714.438	29549.03
714.782	29524.17
715.125	29340.9
715.469	29377.28
715.812	29222.25
716.156	29001.47
716.499	29153.1
716.843	29136.38
717.186	28859.78
717.53	29180.22
717.873	29007.8
718.216	29022.49
718.559	28878.31
718.902	28745.2
719.246	28705.66
719.589	28676.28
719.932	28634.93
720.275	28579.79
720.617	28447.81
720.96	28544.53
721.303	28399.23
721.646	28416.63
721.989	28109.29
722.331	28371.43
722.674	28248.95
723.016	28277.42
723.359	28122.85
723.701	28109.74
724.044	27971.89
724.386	27895.06
724.729	28032.23
725.071	27931.21
725.413	27819.35
725.755	27796.08
726.097	27734.16
726.439	27690.32
726.782	27707.94
727.124	27622.52
727.465	27464.33
727.807	27627.27
728.149	27508.4
728.491	27376.65
728.833	27547.72
729.175	27338.24
729.516	27354.51
729.858	27279.71
730.199	27307.05
730.541	27167.39
730.882	27187.73
731.224	27244.23
731.565	26967.17
731.906	27092.37
732.248	27065.47
732.589	26848.76
732.93	26814.63
733.271	26740.06
733.612	26828.87
733.953	26872.49
734.294	26795.43
734.635	26674.75
734.976	26776.89
735.317	26590.91
735.658	26550.23
735.999	26620.51
736.339	26681.98
736.68	26595.43
737.021	26413.51
737.361	26297.81
737.702	26454.19
738.042	26489.9
738.383	26270.02
738.723	26414.42
739.063	26301.43
739.404	26294.65
739.744	26241.54
740.084	26117.03
740.424	26099.17
740.764	26157.25
741.104	26135.56
741.444	25978.72
741.784	25915.67
742.124	25947.09
742.464	25986.63
742.804	25864.6
743.143	25825.28
743.483	25818.28
743.823	25666.64
744.162	25628.45
744.502	25689.01
744.841	25551.62
745.181	25660.31
745.52	25596.36
745.86	25557.72
746.199	25501.9
746.538	25474.33
746.877	25531.05
747.216	25513.43
747.556	25358.63
747.895	25470.04
748.234	25250.38
748.573	25298.52
748.911	25182.13
749.25	25112.98
749.589	25113.21
749.928	25044.28
750.267	25092.87
750.605	24985.08
750.944	24865.76
751.283	24808.58
751.621	24952.99
751.96	24691.53
752.298	24704.86
752.636	24760.45
752.975	24580.34
753.313	24574.24
753.651	24628.48
753.989	24543.73
754.327	24534.24
754.666	24284.08
755.004	24418.99
755.342	24351.65
755.679	24345.32
756.017	24088.15
756.355	24253.12
756.693	24121.15
757.031	24133.8
757.368	24070.07
757.706	23970.87
758.044	23950.53
758.381	23845.45
758.719	23834.15
759.056	23771.32
759.394	23660.82
759.731	23525.23
760.068	23606.36
760.405	23576.53
760.743	23439.13
761.08	23406.59
761.417	23306.25
761.754	23279.36
762.091	23255.63
762.428	23181.51
762.765	23060.83
763.102	23095.86
763.438	22886.38
763.775	22839.37
764.112	22997.56
764.449	22872.82
764.785	22659.94
765.122	22499.72
765.458	22497.46
765.795	22553.73
766.131	22457.69
766.467	22405.71
766.804	22324.36
767.14	22128.66
767.476	22119.39
767.812	22077.58
768.148	22088.43
768.485	21845.95
768.821	21826.97
769.157	21780.19
769.492	21786.74
769.828	21681.44
770.164	21476.02
770.5	21510.37
770.836	21477.6
771.171	21271.95
771.507	21183.14
771.842	21110.15
772.178	21085.29
772.513	21137.5
772.849	20896.6
773.184	20927.11
773.519	20849.37
773.855	20738.18
774.19	20682.37
774.525	20697.51
774.86	20643.95
775.195	20695.25
775.53	20475.59
775.865	20351.3
776.2	20161.25
776.535	19985.21
776.87	20128.48
777.205	20035.38
777.539	19893.46
777.874	19937.07
778.209	19813.46
778.543	19716.06
778.878	19656.18
779.212	19554.94
779.547	19635.39
779.881	19533.24
780.215	19327.83
780.55	19417.54
780.884	19356.75
781.218	19335.06
781.552	19268.17
781.886	19076.76
782.22	19025.46
782.554	18993.37
782.888	18823.21
783.222	18785.92
783.556	18671.12
783.889	18609.88
784.223	18406.49
784.557	18566.72
784.89	18552.93
785.224	18319.49
785.557	18353.61
785.891	18225.93
786.224	18235.88
786.558	18255.99
786.891	18037.92
787.224	17845.15
787.557	17882.89
787.891	17912.04
788.224	17796.57
788.557	17857.36
788.89	17711.14
789.223	17685.83
789.556	17533.3
789.888	17540.53
790.221	17389.12
790.554	17293.3
790.887	17345.73
791.219	17258.05
791.552	17292.17
791.884	17181.67
792.217	17061.44
792.549	17033.2
792.882	16912.97
793.214	16854.67
793.546	16872.52
793.879	16798.85
794.211	16693.54
794.543	16710.49
794.875	16587.56
795.207	16685.63
795.539	16507.11
795.871	16486.32
796.203	16406.77
796.535	16369.48
796.867	16293.1
797.198	16234.57
797.53	16301.46
797.862	16103.28
798.193	16176.95
798.525	16130.4
798.856	16019.44
799.188	15908.48
799.519	15800.91
799.85	15742.61
800.182	15771.76
800.513	15735.15
800.844	15654.25
801.175	15730.18
801.506	15619.45
801.837	15527.7
802.168	15525.89
802.499	15464.42
802.83	15454.71
803.161	15387.36
803.491	15315.5
803.822	15233.02
804.153	15205.45
804.483	15159.12
804.814	15113.7
805.145	15086.81
805.475	15030.09
805.805	14958.67
806.136	14929.75
806.466	14912.35
806.796	14906.47
807.126	14844.33
807.457	14803.65
807.787	14707.83
808.117	14691.56
808.447	14581.51
808.777	14654.28
809.107	14619.02
809.436	14467.61
809.766	14548.06
810.096	14506.71
810.426	14444.79
810.755	14395.53
811.085	14358.92
811.414	14338.58
811.744	14193.27
812.073	14169.77
812.403	14178.13
812.732	14098.58
813.061	14067.17
813.39	13987.4
813.719	13938.59
814.049	14120.28
814.378	13996.21
814.707	13869.44
815.036	13880.74
815.365	13844.81
815.693	13787.18
816.022	13757.8
816.351	13719.39
816.68	13656.34
817.008	13620.63
817.337	13526.85
817.665	13539.95
817.994	13524.59
818.322	13525.72
818.651	13523.01
818.979	13439.62
819.307	13445.04
819.636	13362.11
819.964	13376.34
820.292	13428.09
820.62	13330.47
820.948	13258.61
821.276	13282.79
821.604	13245.27
821.932	13312.84
822.259	13277.59
822.587	13234.2
822.915	13132.06
823.243	13295.67
823.57	13184.71
823.898	13220.42
824.225	13272.39
824.553	13214.77
824.88	13200.98
825.207	13261.54
825.535	13193.3
825.862	13210.92
826.189	13168.67
826.516	13285.05
826.843	13271.71
827.17	13262.22
827.497	13160.76
827.824	13205.73
828.151	13227.65
828.478	13232.62
828.805	13324.82
829.131	13160.08
829.458	13199.17
829.785	13087.54
830.111	13213.86
830.438	13134.32
830.764	13199.62
831.09	13172.05
831.417	13215.9
831.743	13177.93
832.069	13114.88
832.395	13114.43
832.722	13061.32
833.048	13035.79
833.374	13077.14
833.7	13093.19
834.026	13092.96
834.351	12978.84
834.677	13021.78
835.003	13064.26
835.329	13032.85
835.654	12979.29
835.98	12922.12
836.306	12953.76
836.631	12961.66
836.956	12967.54
837.282	12992.4
837.607	12899.07
837.932	12942.68
838.258	12848.9
838.583	12820.88
838.908	12718.51
839.233	12798.28
839.558	12764.38
839.883	12708.56
840.208	12683.71
840.533	12704.27
840.858	12662.69
841.182	12684.38
841.507	12662.24
841.832	12649.36
842.156	12554.67
842.481	12496.82
842.805	12503.37
843.13	12408.23
843.454	12408.46
843.778	12329.82
844.103	12351.29
844.427	12350.83
844.751	12315.58
845.075	12326.2
845.399	12311.06
845.723	12212.76
846.047	12228.12
846.371	12038.75
846.695	12122.36
847.019	12045.98
847.343	11967.11
847.666	11913.56
847.99	11819.77
848.313	11884.41
848.637	11818.19
848.96	11615.94
849.284	11786.1
849.607	11650.06
849.931	11614.36
850.254	11600.8
850.577	11475.83
850.9	11461.14
851.223	11393.8
851.546	11290.97
851.869	11227.25
852.192	11334.81
852.515	11203.97
852.838	11228.15
853.161	11206.23
853.483	11126.01
853.806	11077.42
854.129	11064.77
854.451	10994.48
854.774	10898.89
855.096	10911.78
855.419	10960.36
855.741	10880.36
856.063	10803.53
856.385	10727.83
856.708	10645.79
857.03	10709.29
857.352	10721.72
857.674	10643.31
857.996	10622.29
858.318	10596.98
858.64	10526.02
858.961	10549.75
859.283	10488.74
859.605	10405.12
859.926	10432.92
860.248	10400.15
860.57	10303.88
860.891	10391.11
861.212	10370.55
861.534	10306.37
861.855	10286.93
862.176	10335.07
862.498	10243.32
862.819	10227.73
863.14	10199.03
863.461	10202.19
863.782	10161.74
864.103	10098.69
864.424	10150.21
864.745	10113.6
865.065	10079.25
865.386	10041.97
865.707	10050.78
866.027	9986.15
866.348	9987.05
866.668	10060.27
866.989	9983.44
867.309	9896.89
867.63	10008.52
867.95	9905.25
868.27	9899.82
868.59	9899.82
868.91	9807.62
869.23	9875.87
869.55	9774.63
869.87	9881.97
870.19	9818.24
870.51	9853.5
870.83	9761.75
871.15	9706.16
871.469	9773.95
871.789	9788.64
872.109	9762.2
872.428	9703.67
872.748	9780.28
873.067	9660.06
873.386	9686.04
873.706	9634.75
874.025	9616.22
874.344	9592.49
874.663	9637.68
874.982	9559.72
875.301	9568.99
875.62	9520.17
875.939	9543.45
876.258	9485.15
876.577	9523.56
876.896	9447.41
877.214	9496.22
877.533	9368.76
877.852	9465.71
878.17	9460.74
878.489	9391.14
878.807	9354.3
879.125	9394.3
879.444	9349.78
879.762	9317.24
880.08	9392.95
880.398	9298.94
880.716	9296.68
881.034	9240.18
881.352	9275.43
881.67	9232.72
881.988	9175.55
882.306	9249.67
882.624	9171.48
882.941	9118.15
883.259	9131.03
883.577	9076.34
883.894	9125.61
884.212	9054.2
884.529	9026.18
884.846	9040.19
885.164	9008.1
885.481	8999.51
885.798	9030.24
886.115	8870.02
886.432	8866.18
886.75	8889.91
887.067	8898.95
887.383	8839.06
887.7	8898.27
888.017	8789.57
888.334	8778.72
888.651	8754.54
888.967	8704.15
889.284	8670.7
889.6	8690.36
889.917	8651.27
890.233	8651.5
890.55	8540.31
890.866	8579.63
891.182	8571.72
891.498	8502.12
891.815	8503.93
892.131	8459.18
892.447	8471.84
892.763	8415.8
893.079	8397.49
893.395	8409.92
893.71	8282.24
894.026	8384.16
894.342	8297.83
894.657	8254.67
894.973	8206.99
895.289	8190.94
895.604	8217.38
895.92	8114.79
896.235	8134.22
896.55	8146.42
896.865	8034.34
897.181	8024.62
897.496	8088.57
897.811	7993.89
898.126	7952.31
898.441	7998.41
898.756	7940.1
899.071	7895.13
899.386	7871.18
899.7	7958.86
900.015	7804.06
900.33	7803.83
900.644	7751.18
900.959	7764.29
901.273	7780.33
901.588	7672.31
901.902	7597.74
902.216	7586.21
902.531	7581.24
902.845	7596.38
903.159	7540.56
903.473	7518.64
903.787	7454.92
904.101	7398.2
904.415	7456.72
904.729	7376.5
905.042	7361.36
905.356	7326.33
905.67	7320.68
905.984	7261.7
906.297	7270.74
906.611	7246.33
906.924	7241.36
907.237	7202.27
907.551	7117.52
907.864	7122.27
908.177	7094.25
908.491	7116.17
908.804	7033.46
909.117	6962.95
909.43	6970.64
909.743	6935.61
910.056	7001.6
910.368	6868.04
910.681	6847.93
910.994	6853.35
911.307	6845.22
911.619	6826.46
911.932	6773.13
912.244	6705.78
912.557	6702.17
912.869	6710.76
913.181	6648.16
913.494	6652.9
913.806	6599.8
914.118	6555.73
914.43	6536.98
914.742	6533.59
915.054	6501.72
915.366	6448.39
915.678	6481.16
915.99	6407.49
916.302	6346.7
916.613	6346.47
916.925	6336.98
917.236	6326.36
917.548	6294.27
917.859	6302.86
918.171	6206.36
918.482	6252.91
918.794	6206.36
919.105	6145.8
919.416	6100.83
919.727	6108.51
920.038	6152.58
920.349	6058.34
920.66	6064.9
920.971	6011.11
921.282	6040.94
921.593	5960.49
921.903	5924.79
922.214	5893.38
922.525	5894.73
922.835	5871.46
923.146	5825.13
923.456	5812.47
923.767	5794.4
924.077	5807.95
924.387	5743.55
924.697	5720.5
925.008	5704.68
925.318	5694.74
925.628	5658.13
925.938	5645.25
926.248	5574.51
926.558	5581.29
926.867	5540.39
927.177	5545.81
927.487	5479.6
927.796	5467.62
928.106	5447.06
928.416	5440.96
928.725	5425.59
929.034	5337.68
929.344	5400.06
929.653	5358.7
929.962	5294.52
930.271	5280.06
930.581	5230.57
930.89	5217.69
931.199	5215.65
931.508	5207.52
931.817	5225.6
932.125	5167.97
932.434	5137.24
932.743	5122.1
933.051	5073.51
933.36	5083.91
933.669	5069.44
933.977	4997.35
934.286	5040.07
934.594	4958.26
934.902	4996.45
935.21	4921.42
935.519	4972.72
935.827	4914.42
936.135	4878.04
936.443	4845.27
936.751	4821.54
937.059	4825.16
937.367	4777.7
937.674	4749.45
937.982	4764.14
938.29	4736.34
938.597	4762.78
938.905	4699.06
939.213	4702.67
939.52	4650.92
939.827	4636.01
940.135	4611.6
940.442	4636.23
940.749	4616.35
941.056	4608.89
941.363	4528.89
941.67	4554.2
941.977	4519.17
942.284	4503.58
942.591	4432.4
942.898	4429.01
943.205	4413.64
943.511	4389.91
943.818	4424.49
944.125	4323.93
944.431	4356.02
944.738	4355.79
945.044	4310.82
945.35	4266.07
945.657	4296.13
945.963	4243.48
946.269	4224.95
946.575	4234.44
946.881	4189.24
947.187	4200.99
947.493	4158.05
947.799	4202.57
948.105	4163.03
948.41	4073.08
948.716	4102.91
949.022	4103.14
949.327	4073.08
949.633	4010.71
949.938	4012.75
950.244	4049.81
950.549	3968.91
950.854	3956.48
951.16	4003.71
951.465	3966.65
951.77	3968
952.075	3913.77
952.38	3873.99
952.685	3913.77
952.99	3855.92
953.294	3830.83
953.599	3847.78
953.904	3815.24
954.209	3789.48
954.513	3812.75
954.818	3743.83
955.122	3721.23
955.426	3739.53
955.731	3671.74
956.035	3709.03
956.339	3670.61
956.643	3634.45
956.948	3651.4
957.252	3663.15
957.556	3640.1
957.86	3572.99
958.163	3579.76
958.467	3586.32
958.771	3541.35
959.075	3513.33
959.378	3515.13
959.682	3534.57
959.985	3448.92
960.289	3462.71
960.592	3465.87
960.896	3445.3
961.199	3438.98
961.502	3450.5
961.805	3404.4
962.108	3368.7
962.411	3387
962.714	3343.39
963.017	3369.37
963.32	3371.18
963.623	3330.96
963.926	3317.4
964.228	3290.28
964.531	3281.24
964.833	3288.47
965.136	3244.86
965.438	3219.1
965.741	3216.84
966.043	3214.8
966.345	3163.5
966.648	3200.34
966.95	3165.31
967.252	3177.06
967.554	3144.07
967.856	3156.05
968.158	3104.75
968.46	3055.71
968.761	3071.98
969.063	3081.47
969.365	3065.88
969.666	3026.78
969.968	3018.42
970.269	3010.51
970.571	2972.32
970.872	2970.97
971.174	2950.63
971.475	2989.95
971.776	2955.83
972.077	2903.4
972.378	2902.04
972.679	2922.38
972.98	2916.73
973.281	2905.21
973.582	2858.2
973.883	2845.77
974.183	2867.69
974.484	2859.11
974.785	2853.91
975.085	2840.58
975.386	2819.56
975.686	2768.71
975.986	2755.15
976.287	2787.47
976.587	2744.31
976.887	2737.07
977.187	2730.75
977.487	2719.67
977.787	2712.22
978.087	2698.43
978.387	2711.76
978.687	2659.79
978.987	2663.4
979.286	2645.1
979.586	2679.22
979.885	2622.95
980.185	2588.6
980.484	2608.94
980.784	2595.38
981.083	2590.41
981.382	2583.18
981.682	2543.86
981.981	2537.31
982.28	2507.02
982.579	2532.11
982.878	2528.49
983.177	2505.89
983.475	2511.32
983.774	2475.39
984.073	2486.23
984.372	2475.16
984.67	2457.31
984.969	2408.95
985.267	2448.95
985.566	2435.61
985.864	2399.46
986.162	2409.63
986.461	2404.43
986.759	2378.44
987.057	2383.19
987.355	2377.08
987.653	2356.29
987.951	2347.71
988.249	2354.03
988.547	2300.02
988.844	2277.88
989.142	2315.17
989.44	2262.06
989.737	2280.59
990.035	2262.29
990.332	2235.85
990.63	2221.38
990.927	2218.9
991.224	2248.73
991.521	2223.87
991.819	2195.85
992.116	2202.63
992.413	2159.24
992.71	2152.91
993.006	2174.15
993.303	2144.55
993.6	2153.14
993.897	2122.4
994.193	2154.72
994.49	2108.84
994.787	2102.74
995.083	2118.33
995.379	2046.92
995.676	2024.1
995.972	2046.25
996.268	2062.06
996.565	2043.53
996.861	2043.08
997.157	2013.7
997.453	2025
997.749	2017.55
998.044	1983.2
998.34	2001.05
998.636	2002.86
998.932	1957.21
999.227	1945.01
999.523	1992.46
999.818	1939.36
1000.114	1935.74
1000.409	1923.99
1000.704	1902.75
1001	1925.57
1001.295	1853.03
1001.59	1889.64
1001.885	1898
1002.18	1866.36
1002.475	1839.92
1002.77	1834.95
1003.065	1794.5
1003.359	1829.75
1003.654	1840.15
1003.949	1787.72
1004.243	1811.9
1004.538	1809.64
1004.832	1770.09
1005.127	1772.13
1005.421	1741.85
1005.715	1761.51
1006.009	1748.85
1006.304	1707.95
1006.598	1717.89
1006.892	1721.51
1007.186	1695.97
1007.48	1721.51
1007.773	1659.36
1008.067	1669.31
1008.361	1661.17
1008.655	1677.22
1008.948	1645.35
1009.242	1611.23
1009.535	1640.83
1009.829	1620.27
1010.122	1617.56
1010.415	1594.73
1010.708	1611.68
1011.001	1577.78
1011.295	1549.54
1011.588	1540.5
1011.881	1559.48
1012.173	1520.16
1012.466	1526.26
1012.759	1534.62
1013.052	1537.56
1013.344	1513.15
1013.637	1530.78
1013.93	1489.42
1014.222	1502.31
1014.514	1485.81
1014.807	1434.06
1015.099	1472.93
1015.391	1441.97
1015.683	1422.31
1015.976	1422.76
1016.268	1439.93
1016.56	1418.01
1016.851	1412.59
1017.143	1399.03
1017.435	1389.09
1017.727	1381.86
1018.018	1360.84
1018.31	1366.26
1018.602	1355.19
1018.893	1350.44
1019.185	1372.37
1019.476	1335.08
1019.767	1361.97
1020.058	1333.27
1020.35	1319.26
1020.641	1332.14
1020.932	1280.84
1021.223	1278.58
1021.514	1310.45
1021.804	1281.52
1022.095	1252.59
1022.386	1259.83
1022.677	1271.8
1022.967	1217.57
1023.258	1231.13
1023.548	1229.32
1023.839	1187.51
1024.129	1181.18
1024.419	1219.37
1024.709	1187.29
1025	1191.58
1025.29	1179.83
1025.58	1178.7
1025.87	1150.68
1026.16	1132.6
1026.449	1157.46
1026.739	1136.89
1027.029	1141.41
1027.319	1135.54
1027.608	1116.55
1027.898	1120.17
1028.187	1106.38
1028.477	1099.6
1028.766	1055.09
1029.055	1072.03
1029.344	1099.15
1029.634	1067.51
1029.923	1044.69
1030.212	1063.45
1030.501	1054.86
1030.79	1023.9
1031.078	1042.2
1031.367	1033.39
1031.656	1024.13
1031.945	1025.71
1032.233	1013.28
1032.522	998.36
1032.81	1000.4
1033.099	1027.29
1033.387	1003.34
1033.675	981.64
1033.963	976.44
1034.251	975.99
1034.54	968.53
1034.828	951.81
1035.116	975.99
1035.403	912.26
1035.691	934.41
1035.979	926.05
1036.267	938.25
1036.554	923.11
1036.842	918.59
1037.129	920.4
1037.417	917.24
1037.704	918.82
1037.992	898.93
1038.279	877.24
1038.566	873.62
1038.853	873.62
1039.14	873.62
