Data from hue_230_FLMS001491_00059.txt Node
Date: Tue Feb 07 16:37:27 GMT 2017
User: dcchb
Spectrometer: FLMS00149
Trigger mode: 0
Integration Time (sec): 2.000000E-2
Scans to average: 10
Electric dark correction enabled: true
Nonlinearity correction enabled: false
Boxcar width: 0
XAxis mode: Wavelengths
Number of Pixels in Spectrum: 2048
>>>>>Begin Spectral Data<<<<<
341.393	-19.97
341.776	-19.97
342.16	-19.97
342.543	-62.46
342.927	-61.33
343.31	-69.46
343.693	-62.46
344.077	-73.98
344.46	-51.83
344.843	-43.47
345.226	-54.09
345.61	-25.85
345.993	-16.58
346.376	-20.2
346.759	22.06
347.142	11.89
347.525	30.42
347.908	65.68
348.291	76.07
348.674	95.96
349.057	115.84
349.44	116.07
349.823	158.56
350.206	157.65
350.588	178.89
350.971	236.29
351.354	238.1
351.737	212.34
352.119	244.88
352.502	242.17
352.884	260.7
353.267	266.57
353.65	278.33
354.032	276.74
354.414	306.57
354.797	311.77
355.179	312.68
355.562	318.55
355.944	324.88
356.326	320.13
356.709	312.22
357.091	328.95
357.473	343.86
357.855	313.81
358.238	339.12
358.62	325.1
359.002	340.7
359.384	314.03
359.766	335.73
360.148	345.22
360.53	326.69
360.912	326.69
361.294	296.86
361.676	311.32
362.057	328.04
362.439	326.01
362.821	315.61
363.203	319.45
363.584	335.05
363.966	302.51
364.348	320.81
364.729	331.43
365.111	301.38
365.493	301.38
365.874	294.37
366.256	299.34
366.637	298.44
367.019	312
367.4	312
367.781	304.31
368.163	320.58
368.544	293.69
368.925	308.16
369.306	290.08
369.688	303.18
370.069	286.01
370.45	323.52
370.831	303.41
371.212	307.93
371.593	311.77
371.974	287.82
372.355	320.81
372.736	319.91
373.117	316.29
373.498	317.87
373.879	295.5
374.26	306.35
374.641	287.59
375.021	317.87
375.402	315.39
375.783	311.32
376.163	324.43
376.544	324.43
376.925	306.12
377.305	324.2
377.686	312
378.066	318.55
378.447	308.61
378.827	309.96
379.208	324.2
379.588	322.39
379.968	323.52
380.349	332.34
380.729	331.88
381.109	324.88
381.489	326.69
381.87	335.05
382.25	329.85
382.63	322.62
383.01	332.56
383.39	334.14
383.77	355.16
384.15	331.88
384.53	335.05
384.91	321.71
385.29	344.09
385.67	330.53
386.049	363.97
386.429	338.66
386.809	347.25
387.189	348.61
387.568	366.69
387.948	340.47
388.328	355.61
388.707	351.09
389.087	341.6
389.466	359.68
389.846	339.57
390.225	363.75
390.605	358.78
390.984	333.01
391.363	350.41
391.743	331.43
392.122	355.61
392.501	366.23
392.881	353.35
393.26	354.26
393.639	355.16
394.018	365.1
394.397	374.82
394.776	363.75
395.155	369.62
395.534	379.11
395.913	387.25
396.292	373.69
396.671	379.34
397.05	387.93
397.429	395.16
397.808	390.41
398.186	380.7
398.565	383.18
398.944	382.28
399.323	392.9
399.701	383.86
400.08	382.5
400.458	387.7
400.837	386.8
401.215	404.65
401.594	408.04
401.972	419.57
402.351	427.93
402.729	400.13
403.107	402.16
403.486	416.63
403.864	393.35
404.242	408.94
404.62	435.61
404.999	454.82
405.377	420.92
405.755	443.97
406.133	439
406.511	429.28
406.889	450.3
407.267	462.28
407.645	453.69
408.023	466.12
408.401	462.05
408.779	463.86
409.156	484.2
409.534	480.35
409.912	478.55
410.29	492.78
410.667	487.81
411.045	508.15
411.422	510.41
411.8	515.16
412.178	547.7
412.555	530.97
412.933	533.23
413.31	534.14
413.687	567.36
414.065	534.36
414.442	536.4
414.819	556.06
415.197	554.93
415.574	549.28
415.951	573.01
416.328	590.63
416.705	576.85
417.082	586.79
417.46	612.78
417.837	606.23
418.214	615.72
418.591	626.79
418.967	630.63
419.344	641.93
419.721	643.97
420.098	636.51
420.475	656.85
420.852	658.65
421.228	663.85
421.605	690.97
421.982	709.73
422.358	693.91
422.735	720.8
423.111	726.22
423.488	732.78
423.864	758.54
424.241	755.38
424.617	761.48
424.994	775.04
425.37	766.22
425.746	777.3
426.123	829.27
426.499	832.44
426.875	813.45
427.251	833.79
427.627	869.95
428.003	859.55
428.379	859.55
428.756	882.6
429.132	892.77
429.507	890.51
429.883	908.59
430.259	916.05
430.635	934.35
431.011	928.7
431.387	937.97
431.763	969.38
432.138	996.73
432.514	947.91
432.89	972.32
433.265	1008.48
433.641	1027.23
434.016	1020.45
434.392	1074.24
434.767	1068.14
435.143	1067.46
435.518	1092.32
435.894	1127.12
436.269	1136.16
436.644	1146.1
437.02	1161.92
437.395	1193.33
437.77	1205.53
438.145	1216.38
438.52	1238.07
438.895	1262.71
439.271	1233.56
439.646	1283.72
440.021	1324.4
440.395	1313.1
440.77	1316.94
441.145	1328.02
441.52	1324.17
441.895	1360.56
442.27	1386.77
442.645	1368.24
443.019	1393.55
443.394	1418.64
443.769	1445.3
444.143	1417.96
444.518	1463.83
444.892	1456.15
445.267	1477.84
445.641	1472.19
446.016	1507.9
446.39	1497.95
446.764	1530.72
447.139	1511.06
447.513	1543.38
447.887	1535.69
448.262	1562.13
448.636	1565.98
449.01	1597.39
449.384	1595.81
449.758	1602.81
450.132	1625.86
450.506	1622.02
450.88	1660.66
451.254	1622.92
451.628	1663.37
452.002	1689.59
452.376	1690.72
452.75	1697.5
453.123	1711.51
453.497	1732.98
453.871	1743.37
454.244	1783.6
454.618	1786.76
454.992	1791.73
455.365	1824.05
455.739	1859.08
456.112	1853.43
456.486	1885.06
456.859	1918.96
457.232	1925.97
457.606	1905.63
457.979	1940.88
458.352	1978.62
458.725	2027.88
459.099	2048.67
459.472	2046.64
459.845	2081.89
460.218	2088
460.591	2125.51
460.964	2147.88
461.337	2137.03
461.71	2182.68
462.083	2169.12
462.456	2215.68
462.829	2218.16
463.201	2267.43
463.574	2236.92
463.947	2332.06
464.32	2356.24
464.692	2354.66
465.065	2359.85
465.438	2465.61
465.81	2453.86
466.183	2474.2
466.555	2513.07
466.928	2509
467.3	2491.83
467.672	2559.62
468.045	2646.4
468.417	2586.97
468.789	2655.44
469.161	2656.57
469.534	2689.79
469.906	2752.16
470.278	2788.54
470.65	2793.06
471.022	2857.47
471.394	2859.73
471.766	2896.56
472.138	2928.2
472.51	2968.65
472.882	2997.58
473.253	3079.83
473.625	3063.79
473.997	3148.98
474.369	3174.07
474.74	3227.4
475.112	3226.95
475.484	3300.62
475.855	3333.61
476.227	3394.18
476.598	3448.64
476.97	3434.85
477.341	3514.63
477.713	3591.01
478.084	3587.17
478.455	3668.52
478.827	3708.52
479.198	3799.14
479.569	3796.65
479.94	3908.97
480.311	3882.53
480.682	4054.5
481.053	4052.46
481.424	4120.71
481.795	4143.31
482.166	4208.17
482.537	4262.63
482.908	4364.55
483.279	4380.59
483.65	4441.83
484.021	4515.05
484.391	4539
484.762	4549.17
485.133	4592.34
485.503	4693.8
485.874	4773.58
486.244	4755.95
486.615	4889.05
486.985	4909.16
487.356	5016.28
487.726	5030.97
488.097	5131.31
488.467	5138.09
488.837	5223.51
489.207	5243.39
489.578	5328.14
489.948	5327.91
490.318	5421.02
490.688	5446.1
491.058	5488.36
491.428	5557.96
491.798	5567.9
492.168	5724.06
492.538	5738.75
492.908	5798.41
493.278	5792.76
493.648	5825.07
494.017	5889.7
494.387	5959.08
494.757	5980.32
495.126	6013.77
495.496	6078.4
495.866	6113.65
496.235	6114.33
496.605	6183.03
496.974	6256.47
497.344	6297.6
497.713	6265.74
498.082	6266.42
498.452	6358.62
498.821	6388.45
499.19	6436.36
499.559	6449.46
499.928	6477.26
500.298	6462.34
500.667	6543.47
501.036	6529.91
501.405	6577.82
501.774	6586.86
502.143	6608.1
502.512	6629.35
502.88	6645.84
503.249	6702.34
503.618	6757.7
503.987	6746.86
504.356	6801.77
504.724	6732.17
505.093	6815.1
505.462	6819.85
505.83	6819.62
506.199	6896.01
506.567	6929.9
506.936	6925.61
507.304	6987.3
507.672	7066.4
508.041	7071.14
508.409	7072.5
508.777	7053.29
509.145	7138.48
509.514	7139.84
509.882	7107.98
510.25	7132.38
510.618	7174.87
510.986	7164.7
511.354	7270.46
511.722	7231.36
512.09	7321.98
512.458	7282.89
512.826	7318.82
513.193	7378.7
513.561	7358.82
513.929	7419.16
514.297	7443.34
514.664	7413.28
515.032	7393.85
515.4	7527.85
515.767	7434.3
516.135	7472.26
516.502	7422.77
516.869	7497.12
517.237	7540.06
517.604	7513.84
517.972	7582.54
518.339	7524.46
518.706	7583.67
519.073	7568.76
519.44	7577.8
519.808	7635.87
520.175	7586.16
520.542	7715.64
520.909	7643.33
521.276	7655.53
521.643	7693.27
522.009	7722.65
522.376	7777.34
522.743	7792.93
523.11	7755.64
523.477	7831.57
523.843	7895.53
524.21	7948.86
524.577	7882.87
524.943	7955.41
525.31	7968.07
525.676	7939.37
526.043	8017.33
526.409	7989.08
526.776	8033.83
527.142	7970.1
527.508	8073.83
527.874	7993.6
528.241	8079.02
528.607	8015.98
528.973	8046.03
529.339	8062.3
529.705	8080.38
530.071	8135.52
530.437	8061.4
530.803	8079.02
531.169	8137.55
531.535	8057.1
531.901	8029.08
532.267	8072.7
532.632	8157.21
532.998	8078.12
533.364	8078.12
533.73	8152.47
534.095	8138.91
534.461	8105.24
534.826	8110.44
535.192	8089.87
535.557	8136.88
535.923	8175.07
536.288	8141.17
536.653	8135.29
537.019	8066.6
537.384	8067.95
537.749	8060.49
538.114	8100.04
538.479	8090.1
538.845	8065.24
539.21	8020.72
539.575	8027.95
539.94	7951.57
540.305	8062.75
540.67	7977.33
541.034	7969.2
541.399	7996.09
541.764	7948.41
542.129	7972.81
542.494	7903.89
542.858	8003.77
543.223	7931.23
543.587	7968.07
543.952	7867.73
544.316	7897.79
544.681	7900.05
545.045	7892.59
545.41	7947.73
545.774	7854.4
546.138	7856.43
546.503	7821.18
546.867	7777.11
547.231	7831.35
547.595	7752.71
547.959	7854.4
548.324	7775.53
548.688	7757.9
549.052	7762.42
549.416	7801.97
549.779	7700.5
550.143	7771.46
550.507	7740.73
550.871	7758.13
551.235	7683.33
551.599	7785.93
551.962	7718.13
552.326	7704.57
552.689	7720.16
553.053	7637.68
553.417	7655.53
553.78	7748.86
554.143	7624.12
554.507	7712.71
554.87	7639.94
555.234	7632.48
555.597	7704.8
555.96	7649.88
556.323	7625.25
556.686	7626.61
557.05	7674.06
557.413	7682.2
557.776	7632.71
558.139	7587.51
558.502	7668.64
558.865	7664.12
559.228	7636.78
559.59	7732.59
559.953	7654.63
560.316	7726.27
560.679	7679.94
561.041	7699.15
561.404	7730.11
561.767	7781.18
562.129	7672.48
562.492	7778.02
562.854	7703.67
563.217	7728.3
563.579	7807.39
563.941	7775.53
564.304	7808.07
564.666	7837
565.028	7852.14
565.39	7846.94
565.753	7831.8
566.115	7849.88
566.477	7834.29
566.839	7878.8
567.201	7874.51
567.563	7894.17
567.925	7966.71
568.287	7936.43
568.648	7954.73
569.01	8056.88
569.372	8036.99
569.734	7961.74
570.095	8035.41
570.457	8063.88
570.819	8062.75
571.18	8105.24
571.542	8043.09
571.903	8092.81
572.265	8086.71
572.626	8091.68
572.987	8131.9
573.349	8150.21
573.71	8162.19
574.071	8137.1
574.432	8205.35
574.794	8245.57
575.155	8257.55
575.516	8218.23
575.877	8214.61
576.238	8238.79
576.599	8261.84
576.96	8353.82
577.32	8303.65
577.681	8355.63
578.042	8387.27
578.403	8355.63
578.763	8381.39
579.124	8388.62
579.485	8444.44
579.845	8461.84
580.206	8368.96
580.566	8441.05
580.927	8500.26
581.287	8505.23
581.648	8496.87
582.008	8559.46
582.368	8472.46
582.728	8571.67
583.089	8493.48
583.449	8544.55
583.809	8608.73
584.169	8586.13
584.529	8604.66
584.889	8645.11
585.249	8550.88
585.609	8606.02
585.969	8656.41
586.329	8599.92
586.688	8655.05
587.048	8659.57
587.408	8640.82
587.768	8597.2
588.127	8669.29
588.487	8596.53
588.846	8733.24
589.206	8691.89
589.565	8660.25
589.925	8771.21
590.284	8711.32
590.643	8768.27
591.003	8790.64
591.362	8850.53
591.721	8737.76
592.08	8821.38
592.44	8822.28
592.799	8774.6
593.158	8821.38
593.517	8803.3
593.876	8799.23
594.235	8820.25
594.593	8853.69
594.952	8871.09
595.311	8817.08
595.67	8902.28
596.029	8884.43
596.387	8904.09
596.746	8933.92
597.104	8852.11
597.463	8879.23
597.822	8924.43
598.18	8917.65
598.538	8898.21
598.897	8979.57
599.255	8845.78
599.613	8952.67
599.972	8990.87
600.33	8955.39
600.688	8896.63
601.046	8997.19
601.404	9003.07
601.762	8971.2
602.12	9037.64
602.478	9053.01
602.836	9042.39
603.194	8981.83
603.552	8980.24
603.91	8999.68
604.268	9013.24
604.625	8983.18
604.983	9040.36
605.341	8932.11
605.698	9050.52
606.056	9040.58
606.413	9022.05
606.771	9044.65
607.128	9134.14
607.485	9034.03
607.843	9015.72
608.2	9130.3
608.557	9040.13
608.914	9103.4
609.272	9073.35
609.629	9062.28
609.986	9167.81
610.343	9076.96
610.7	9178.66
611.057	9148.83
611.414	9189.28
611.771	9137.98
612.127	9219.79
612.484	9239.22
612.841	9251.65
613.198	9210.29
613.554	9142.27
613.911	9288.03
614.267	9206
614.624	9285.09
614.98	9253.91
615.337	9287.58
615.693	9258.88
616.05	9221.59
616.406	9226.57
616.762	9238.99
617.118	9237.19
617.475	9227.7
617.831	9340.01
618.187	9318.09
618.543	9319.67
618.899	9366
619.255	9302.04
619.611	9370.06
619.967	9368.26
620.323	9405.09
620.678	9274.02
621.034	9412.55
621.39	9316.51
621.746	9365.32
622.101	9420.46
622.457	9409.39
622.812	9363.51
623.168	9382.95
623.523	9367.35
623.879	9370.74
624.234	9340.69
624.589	9414.36
624.945	9403.74
625.3	9372.1
625.655	9358.99
626.01	9403.96
626.365	9404.19
626.72	9335.94
627.075	9361.25
627.43	9320.57
627.785	9306.34
628.14	9338.88
628.495	9336.84
628.85	9334.36
629.205	9372.78
629.559	9337.97
629.914	9340.46
630.269	9323.74
630.623	9273.34
630.978	9283.29
631.332	9347.01
631.687	9384.08
632.041	9270.41
632.396	9294.59
632.75	9219.56
633.104	9233.8
633.459	9213.01
633.813	9164.65
634.167	9213.23
634.521	9201.03
634.875	9162.84
635.229	9172.1
635.583	9121.71
635.937	9179.56
636.291	9126.45
636.645	9130.97
636.999	9083.07
637.352	9086.91
637.706	9034.93
638.06	9175.04
638.413	9078.09
638.767	9070.64
639.121	9089.62
639.474	9028.38
639.828	9071.99
640.181	9057.76
640.534	9003.52
640.888	9022.5
641.241	8979.34
641.594	8959
641.947	9036.74
642.301	8982.96
642.654	9050.07
643.007	9021.15
643.36	8973.46
643.713	9000.81
644.066	9023.41
644.419	8961.26
644.771	8895.27
645.124	8777.31
645.477	8779.12
645.83	8810.76
646.182	8723.53
646.535	8685.34
646.888	8697.99
647.24	8594.04
647.593	8706.58
647.945	8647.15
648.298	8606.24
648.65	8584.77
649.002	8584.77
649.355	8643.98
649.707	8655.28
650.059	8670.42
650.411	8762.4
650.763	8794.94
651.115	8872.9
651.467	8820.93
651.819	8836.75
652.171	8779.35
652.523	8798.1
652.875	8794.49
653.227	8777.99
653.578	8798.78
653.93	8779.8
654.282	8771.89
654.633	8752.91
654.985	8813.47
655.337	8834.94
655.688	8802.17
656.039	8893.69
656.391	8775.5
656.742	8812.79
657.094	8861.38
657.445	8797.88
657.796	8761.94
658.147	8794.71
658.498	8867.48
658.849	8810.08
659.2	8768.72
659.551	8758.33
659.902	8797.42
660.253	8770.98
660.604	8787.71
660.955	8797.88
661.306	8817.08
661.656	8789.97
662.007	8841.04
662.358	8774.6
662.708	8829.74
663.059	8829.74
663.409	8710.19
663.76	8808.5
664.11	8850.53
664.461	8892.11
664.811	8789.51
665.161	8737.54
665.511	8859.57
665.862	8815.73
666.212	8819.57
666.562	8907.03
666.912	8826.12
667.262	8795.84
667.612	8821.38
667.962	8854.82
668.312	8845.78
668.662	8886.91
669.011	8807.82
669.361	8773.02
669.711	8847.82
670.06	8804.2
670.41	8780.25
670.76	8760.36
671.109	8808.95
671.459	8756.3
671.808	8776.63
672.157	8844.65
672.507	8803.3
672.856	8682.17
673.205	8744.54
673.554	8718.33
673.904	8688.27
674.253	8736.41
674.602	8756.75
674.951	8607.82
675.3	8620.03
675.649	8764.2
675.998	8724.88
676.346	8695.28
676.695	8682.62
677.044	8653.7
677.393	8679.69
677.741	8648.73
678.09	8683.98
678.438	8626.81
678.787	8638.11
679.135	8637.43
679.484	8562.4
679.832	8582.29
680.181	8542.06
680.529	8592.68
680.877	8580.25
681.225	8527.6
681.573	8569.86
681.922	8511.33
682.27	8505
682.618	8463.42
682.966	8509.3
683.314	8487.6
683.661	8401.05
684.009	8412.12
684.357	8377.77
684.705	8354.27
685.053	8415.74
685.4	8326.02
685.748	8274.5
686.095	8309.3
686.443	8274.73
686.79	8218.91
687.138	8256.65
687.485	8228.63
687.832	8209.87
688.18	8210.32
688.527	8175.29
688.874	8153.83
689.221	8084.45
689.568	8065.92
689.915	8086.93
690.262	8051.45
690.609	8036.54
690.956	8040.61
691.303	7968.07
691.65	7980.72
691.997	7997.9
692.344	7929.88
692.69	7856.43
693.037	7891.01
693.383	7898.24
693.73	7885.58
694.077	7830.44
694.423	7884.45
694.769	7756.32
695.116	7769.2
695.462	7709.09
695.808	7687.62
696.155	7657.12
696.501	7615.08
696.847	7657.79
697.193	7580.28
697.539	7605.59
697.885	7519.27
698.231	7504.8
698.577	7439.49
698.923	7490.57
699.269	7422.32
699.614	7373.96
699.96	7404.69
700.306	7312.72
700.651	7358.59
700.997	7337.58
701.342	7286.73
701.688	7298.25
702.033	7172.83
702.379	7234.53
702.724	7242.44
703.069	7149.56
703.415	7122.89
703.76	7091.25
704.105	7127.86
704.45	7127.41
704.795	7050.13
705.14	7046.51
705.485	7025.04
705.83	6947.08
706.175	6988.88
706.52	6945.04
706.865	6899.85
707.209	6908.66
707.554	6878.83
707.899	6936.46
708.243	6816.91
708.588	6790.02
708.932	6779.17
709.277	6797.25
709.621	6780.53
709.966	6773.3
710.31	6763.81
710.654	6719.51
710.998	6684.03
711.342	6656.69
711.687	6666.86
712.031	6684.03
712.375	6613.07
712.719	6596.8
713.063	6600.19
713.407	6629.8
713.75	6564.49
714.094	6570.14
714.438	6534.21
714.782	6589.35
715.125	6512.06
715.469	6533.53
715.812	6453.08
716.156	6462.8
716.499	6508.67
716.843	6499.86
717.186	6431.84
717.53	6527.65
717.873	6438.62
718.216	6447.2
718.559	6459.18
718.902	6392.97
719.246	6376.02
719.589	6430.93
719.932	6365.17
720.275	6385.74
720.617	6341.22
720.96	6374.89
721.303	6340.31
721.646	6351.61
721.989	6328.56
722.331	6363.14
722.674	6342.57
723.016	6341.67
723.359	6342.12
723.701	6299.41
724.044	6265.06
724.386	6279.75
724.729	6274.78
725.071	6265.06
725.413	6254.89
725.755	6278.17
726.097	6219.19
726.439	6246.08
726.782	6194.78
727.124	6241.33
727.465	6214.22
727.807	6215.12
728.149	6191.62
728.491	6228.68
728.833	6250.82
729.175	6210.83
729.516	6194.78
729.858	6194.78
730.199	6221.22
730.541	6216.7
730.882	6168.57
731.224	6201.56
731.565	6202.01
731.906	6231.16
732.248	6202.46
732.589	6182.8
732.93	6114.56
733.271	6213.31
733.612	6164.05
733.953	6170.83
734.294	6122.01
734.635	6204.5
734.976	6169.92
735.317	6179.19
735.658	6126.76
735.999	6202.69
736.339	6215.35
736.68	6189.36
737.021	6166.08
737.361	6245.17
737.702	6226.19
738.042	6219.64
738.383	6157.04
738.723	6230.03
739.063	6190.71
739.404	6194.78
739.744	6219.86
740.084	6231.84
740.424	6201.79
740.764	6264.61
741.104	6241.33
741.444	6205.18
741.784	6216.7
742.124	6202.46
742.464	6262.35
742.804	6300.54
743.143	6280.43
743.483	6281.11
743.823	6252.41
744.162	6314.1
744.502	6352.29
744.841	6355.45
745.181	6395.45
745.52	6440.65
745.86	6443.14
746.199	6456.02
746.538	6428.67
746.877	6543.25
747.216	6569.91
747.556	6589.12
747.895	6605.17
748.234	6575.56
748.573	6627.99
748.911	6690.59
749.25	6768.1
749.589	6707.99
749.928	6832.96
750.267	6899.85
750.605	6943.24
750.944	6984.82
751.283	6972.61
751.621	7119.5
751.96	7122.21
752.298	7127.41
752.636	7225.04
752.975	7297.58
753.313	7350.23
753.651	7451.92
753.989	7488.31
754.327	7588.64
754.666	7639.94
755.004	7745.25
755.342	7879.48
755.679	7930.33
756.017	7928.29
756.355	8192.69
756.693	8132.58
757.031	8391.56
757.368	8364.89
757.706	8515.62
758.044	8590.65
758.381	8740.48
758.719	8766.24
759.056	8869.74
759.394	9062.73
759.731	9100.01
760.068	9209.39
760.405	9310.4
760.743	9417.52
761.08	9568.03
761.417	9649.38
761.754	9769.83
762.091	9915.59
762.428	9969.6
762.765	10088.46
763.102	10261.57
763.438	10307.44
763.775	10469.7
764.112	10496.14
764.449	10720.09
764.785	10782.91
765.122	10853.64
765.458	10925.96
765.795	11068.1
766.131	11139.28
766.467	11246.85
766.804	11374.53
767.14	11414.98
767.476	11543.79
767.812	11563.9
768.148	11768.42
768.485	11748.08
768.821	11784.92
769.157	11974.06
769.492	11992.82
769.828	12082.99
770.164	12107.17
770.5	12123.66
770.836	12322.53
771.171	12287.28
771.507	12393.26
771.842	12458.34
772.178	12496.76
772.513	12629.64
772.849	12557.55
773.184	12602.52
773.519	12730.88
773.855	12749.86
774.19	12836.64
774.525	12813.14
774.86	12880.48
775.195	12916.19
775.53	12893.14
775.865	12981.27
776.2	12980.36
776.535	12853.81
776.87	12995.96
777.205	12942.63
777.539	13015.39
777.874	13023.08
778.209	13020.59
778.543	13070.08
778.878	12954.38
779.212	12983.3
779.547	13073.7
779.881	13119.57
780.215	13118.44
780.55	13106.46
780.884	13026.01
781.218	13119.34
781.552	13145.33
781.886	13101.04
782.22	13079.8
782.554	13078.89
782.888	13036.86
783.222	13012
783.556	12946.47
783.889	13005.67
784.223	12904.66
784.557	12915.06
784.89	12960.25
785.224	12973.13
785.557	12901.04
785.891	12893.59
786.224	12889.07
786.558	12859.46
786.891	12829.41
787.224	12807.94
787.557	12734.95
787.891	12709.86
788.224	12771.56
788.557	12844.78
788.89	12804.1
789.223	12763.42
789.556	12777.21
789.888	12736.3
790.221	12694.72
790.554	12572.24
790.887	12658.57
791.219	12636.42
791.552	12585.57
791.884	12571.56
792.217	12473.49
792.549	12542.18
792.882	12397.33
793.214	12401.62
793.546	12445.69
793.879	12400.95
794.211	12354.84
794.543	12337.44
794.875	12369.99
795.207	12359.14
795.539	12296.32
795.871	12261.74
796.203	12176.09
796.535	12173.61
796.867	12186.94
797.198	12072.37
797.53	12140.16
797.862	12128.18
798.193	12082.31
798.525	11962.54
798.856	12106.49
799.188	11936.55
799.519	11842.99
799.85	11816.1
800.182	11933.84
800.513	11914.63
800.844	11776.1
801.175	11899.26
801.506	11803.22
801.837	11772.04
802.168	11799.6
802.499	11687.52
802.83	11672.38
803.161	11677.57
803.491	11664.69
803.822	11670.79
804.153	11548.76
804.483	11533.85
804.814	11525.94
805.145	11464.02
805.475	11432.38
805.805	11476.22
806.136	11389.45
806.466	11429.9
806.796	11379.73
807.126	11280.3
807.457	11274.2
807.787	11212.95
808.117	11178.6
808.447	11240.98
808.777	11206.63
809.107	11133.63
809.436	11104.48
809.766	11197.81
810.096	11182.67
810.426	11071.26
810.755	11043.92
811.085	11026.74
811.414	11014.31
811.744	10917.37
812.073	10993.3
812.403	10982.45
812.732	10863.58
813.061	10904.04
813.39	10846.64
813.719	10807.54
814.049	10791.27
814.378	10800.31
814.707	10775.45
815.036	10735.9
815.365	10704.27
815.693	10634.44
816.022	10714.66
816.351	10669.69
816.68	10612.52
817.008	10632.63
817.337	10532.29
817.665	10495.23
817.994	10581.11
818.322	10584.04
818.651	10443.03
818.979	10504.5
819.307	10487.32
819.636	10539.98
819.964	10426.76
820.292	10517.83
820.62	10483.03
820.948	10421.79
821.276	10472.18
821.604	10368.23
821.932	10375.24
822.259	10435.57
822.587	10423.82
822.915	10410.04
823.243	10391.05
823.57	10361.9
823.898	10423.37
824.225	10362.35
824.553	10341.79
824.88	10384.95
825.207	10417.72
825.535	10376.37
825.862	10409.81
826.189	10422.92
826.516	10481
826.843	10404.39
827.17	10490.49
827.497	10422.92
827.824	10411.84
828.151	10430.38
828.478	10360.32
828.805	10497.72
829.131	10395.12
829.458	10398.74
829.785	10331.85
830.111	10355.8
830.438	10444.61
830.764	10371.17
831.09	10459.53
831.417	10372.3
831.743	10415.23
832.069	10483.26
832.395	10443.26
832.722	10399.42
833.048	10320.55
833.374	10341.56
833.7	10304.96
834.026	10315.12
834.351	10372.3
834.677	10285.97
835.003	10333.88
835.329	10285.29
835.654	10302.24
835.98	10269.48
836.306	10277.61
836.631	10271.74
836.956	10246.43
837.282	10234.67
837.607	10220.89
837.932	10211.62
838.258	10220.89
838.583	10242.81
838.908	10147.22
839.233	10126.88
839.558	10110.84
839.883	10148.8
840.208	10002.82
840.533	10046.2
840.858	10044.85
841.182	10037.62
841.507	10076.94
841.832	9992.87
842.156	10004.4
842.481	9986.77
842.805	10005.08
843.13	9982.7
843.454	9887.11
843.778	9839.88
844.103	9866.77
844.427	9831.97
844.751	9796.04
845.075	9700
845.399	9810.05
845.723	9617.97
846.047	9698.42
846.371	9635.82
846.695	9596.5
847.019	9582.71
847.343	9538.87
847.666	9563.51
847.99	9379.56
848.313	9445.54
848.637	9438.31
848.96	9422.04
849.284	9339.1
849.607	9270.86
849.931	9332.1
850.254	9194.25
850.577	9189.96
850.9	9092.78
851.223	9120.35
851.546	9042.84
851.869	8992.67
852.192	9049.17
852.515	9001.94
852.838	8972.33
853.161	8908.83
853.483	8945.44
853.806	8910.64
854.129	8907.25
854.451	8808.5
854.774	8745.9
855.096	8703.64
855.419	8717.2
855.741	8684.88
856.063	8739.57
856.385	8688.73
856.708	8606.47
857.03	8567.83
857.352	8528.73
857.674	8560.14
857.996	8548.62
858.318	8476.75
858.64	8485.79
858.961	8432.01
859.283	8431.11
859.605	8457.32
859.926	8437.21
860.248	8363.76
860.57	8324.22
860.891	8326.7
861.212	8253.94
861.534	8253.26
861.855	8243.09
862.176	8274.73
862.498	8267.72
862.819	8215.74
863.14	8259.81
863.461	8283.99
863.782	8188.85
864.103	8194.95
864.424	8124
864.745	8177.1
865.065	8082.64
865.386	8047.61
865.707	8073.6
866.027	8043.09
866.348	8065.69
866.668	8033.15
866.989	8069.53
867.309	7992.02
867.63	7998.12
867.95	8018.46
868.27	7929.2
868.59	7958.12
868.91	7968.97
869.23	7891.69
869.55	7887.62
869.87	7931.68
870.19	7898.01
870.51	7936.43
870.83	7941.18
871.15	7895.53
871.469	7845.58
871.789	7820.73
872.109	7818.69
872.428	7799.48
872.748	7831.12
873.067	7748.64
873.386	7822.99
873.706	7744.12
874.025	7742.76
874.344	7709.09
874.663	7726.94
874.982	7655.76
875.301	7701.41
875.62	7716.1
875.939	7663.22
876.258	7634.52
876.577	7667.06
876.896	7684.91
877.214	7597.91
877.533	7631.8
877.852	7606.49
878.17	7565.59
878.489	7590.22
878.807	7619.38
879.125	7525.59
879.444	7592.94
879.762	7517.91
880.08	7499.83
880.398	7468.19
880.716	7461.19
881.034	7492.15
881.352	7464.13
881.67	7397.69
881.988	7443.56
882.306	7389.55
882.624	7394.07
882.941	7302.1
883.259	7399.95
883.577	7352.26
883.894	7294.64
884.212	7323.56
884.529	7321.3
884.846	7278.59
885.164	7252.38
885.481	7216.45
885.798	7243.79
886.115	7173.29
886.432	7163.57
886.75	7215.32
887.067	7178.48
887.383	7149.56
887.7	7201.31
888.017	7153.63
888.334	7168.54
888.651	7077.92
888.967	7111.82
889.284	7071.37
889.6	7020.75
889.917	6943.91
890.233	6994.99
890.55	7005.15
890.866	6981.65
891.182	6941.2
891.498	6908.43
891.815	6892.16
892.131	6786.4
892.447	6803.35
892.763	6817.36
893.079	6821.43
893.395	6810.58
893.71	6755.9
894.026	6711.83
894.342	6705.73
894.657	6689.91
894.973	6712.96
895.289	6642
895.604	6637.93
895.92	6583.02
896.235	6588.22
896.55	6584.37
896.865	6544.6
897.181	6519.52
897.496	6545.05
897.811	6457.37
898.126	6477.03
898.441	6425.06
898.756	6443.59
899.071	6459.63
899.386	6425.73
899.7	6343.03
900.015	6336.7
900.33	6278.62
900.644	6298.96
900.959	6318.62
901.273	6216.25
901.588	6220.32
901.902	6172.63
902.216	6180.09
902.531	6172.41
902.845	6133.31
903.159	6151.62
903.473	6109.81
903.787	6072.98
904.101	6057.61
904.415	6091.05
904.729	6037.72
905.042	6030.49
905.356	5966.09
905.67	5976.03
905.984	5952.08
906.297	5964.28
906.611	5915.47
906.924	5894
907.237	5877.5
907.551	5795.24
907.864	5792.31
908.177	5781.46
908.491	5806.77
908.804	5737.62
909.117	5722.25
909.43	5635.93
909.743	5624.17
910.056	5638.64
910.368	5632.54
910.681	5573.78
910.994	5570.84
911.307	5556.61
911.619	5458.3
911.932	5541.46
912.244	5459.88
912.557	5480.22
912.869	5428.25
913.181	5423.95
913.494	5430.73
913.806	5377.17
914.118	5370.17
914.43	5310.06
914.742	5332.66
915.054	5332.88
915.366	5265.54
915.678	5274.8
915.99	5213.34
916.302	5184.41
916.613	5192.55
916.925	5174.47
917.236	5150.29
917.548	5087.01
917.859	5150.06
918.171	5099.44
918.482	5073
918.794	5023.96
919.105	5097.63
919.416	5004.3
919.727	4975.38
920.038	4998.88
920.349	4937.86
920.66	4912.33
920.971	4917.75
921.282	4918.66
921.593	4862.84
921.903	4876.4
922.214	4861.48
922.525	4842.73
922.835	4793.24
923.146	4819.9
923.456	4726.57
923.767	4733.8
924.077	4723.63
924.387	4697.42
924.697	4664.2
925.008	4693.8
925.318	4645.22
925.628	4648.83
925.938	4611.77
926.248	4642.51
926.558	4574.48
926.867	4495.84
927.177	4553.47
927.487	4503.07
927.796	4451.55
928.106	4490.42
928.416	4475.05
928.725	4452.91
929.034	4410.87
929.344	4429.86
929.653	4420.14
929.962	4379.46
930.271	4325.23
930.581	4325.9
930.89	4266.92
931.199	4302.4
931.508	4322.97
931.817	4246.58
932.125	4249.07
932.434	4231.22
932.743	4224.66
933.051	4210.88
933.36	4149.18
933.669	4165.46
933.977	4153.03
934.286	4177.88
934.594	4128.62
934.902	4073.25
935.21	4102.86
935.519	4056.76
935.827	4092.91
936.135	4020.6
936.443	3999.13
936.751	3995.52
937.059	4005.01
937.367	4014.5
937.674	3976.76
937.982	3929.08
938.29	3902.86
938.597	3933.37
938.905	3872.36
939.213	3867.84
939.52	3819.7
939.827	3850.89
940.135	3802.53
940.442	3791.45
940.749	3812.24
941.056	3814.73
941.363	3751.91
941.67	3787.61
941.977	3742.19
942.284	3710.1
942.591	3715.75
942.898	3702.87
943.205	3715.3
943.511	3678.24
943.818	3651.57
944.125	3648.63
944.431	3615.87
944.738	3585.81
945.044	3574.51
945.35	3574.06
945.657	3567.51
945.963	3541.74
946.269	3520.05
946.575	3520.5
946.881	3463.1
947.187	3511.01
947.493	3459.49
947.799	3463.33
948.105	3396.21
948.41	3446.38
948.716	3401.63
949.022	3401.63
949.327	3367.51
949.633	3376.55
949.938	3350.56
950.244	3373.84
950.549	3315.76
950.854	3328.42
951.16	3292.48
951.465	3329.77
951.77	3259.49
952.075	3249.77
952.38	3235.31
952.685	3249.77
952.99	3219.04
953.294	3210.68
953.599	3168.19
953.904	3198.48
954.209	3138.82
954.513	3153.5
954.818	3135.2
955.122	3110.34
955.426	3121.42
955.731	3119.83
956.035	3105.6
956.339	3053.62
956.643	3070.57
956.948	3062.89
957.252	3071.25
957.556	3044.35
957.86	3003.68
958.163	2981.98
958.467	2965.94
958.771	2968.65
959.075	2989.67
959.378	2939.27
959.682	2934.98
959.985	2918.48
960.289	2938.37
960.592	2904.92
960.896	2910.12
961.199	2856.11
961.502	2856.79
961.805	2853.17
962.108	2830.58
962.411	2817.47
962.714	2825.38
963.017	2825.15
963.32	2834.19
963.623	2812.72
963.926	2773.63
964.228	2754.19
964.531	2764.14
964.833	2751.71
965.136	2724.59
965.438	2716.91
965.741	2718.94
966.043	2702.22
966.345	2672.16
966.648	2702.44
966.95	2662.9
967.252	2671.71
967.554	2658.6
967.856	2629.9
968.158	2586.29
968.46	2642.56
968.761	2591.26
969.063	2576.12
969.365	2585.38
969.666	2546.29
969.968	2536.8
970.269	2530.92
970.571	2531.83
970.872	2502.45
971.174	2549.23
971.475	2513.07
971.776	2492.73
972.077	2493.18
972.378	2455.67
972.679	2489.12
972.98	2468.1
973.281	2436.24
973.582	2417.93
973.883	2436.46
974.183	2390.36
974.484	2398.95
974.785	2421.55
975.085	2399.17
975.386	2387.88
975.686	2317.37
975.986	2365.28
976.287	2366.18
976.587	2340.19
976.887	2294.77
977.187	2327.99
977.487	2297.71
977.787	2276.24
978.087	2275.34
978.387	2242.34
978.687	2253.87
978.987	2254.77
979.286	2233.53
979.586	2259.06
979.885	2209.57
980.185	2235.11
980.484	2225.39
980.784	2191.27
981.083	2172.51
981.382	2163.93
981.682	2161.89
981.981	2148.79
982.28	2165.06
982.579	2120.54
982.878	2119.63
983.177	2119.41
983.475	2110.14
983.774	2099.07
984.073	2101.1
984.372	2123.25
984.67	2086.87
984.969	2097.26
985.267	2060.65
985.566	2046.64
985.864	2048.9
986.162	2066.98
986.461	2018.39
986.759	2025.85
987.057	1993.76
987.355	2024.49
987.653	1988.34
987.951	1968.23
988.249	1967.32
988.547	1965.74
988.844	1937.72
989.142	1936.36
989.44	1939.53
989.737	1924.84
990.035	1924.84
990.332	1880.32
990.63	1893.88
990.927	1909.92
991.224	1890.04
991.521	1877.61
991.819	1869.02
992.116	1877.38
992.413	1872.41
992.71	1836.7
993.006	1831.05
993.303	1841.22
993.6	1820.43
993.897	1812.97
994.193	1805.97
994.49	1816.14
994.787	1779.53
995.083	1787.44
995.379	1789.02
995.676	1774.11
995.972	1762.13
996.268	1756.93
996.565	1726.2
996.861	1737.27
997.157	1719.42
997.453	1734.56
997.749	1706.76
998.044	1700.21
998.34	1688.23
998.636	1702.47
998.932	1672.41
999.227	1661.11
999.523	1656.59
999.818	1650.49
1000.114	1624.73
1000.409	1632.87
1000.704	1623.38
1001	1618.63
1001.295	1608.01
1001.59	1607.56
1001.885	1602.13
1002.18	1563.72
1002.475	1603.04
1002.77	1578.18
1003.065	1587.67
1003.359	1559.2
1003.654	1558.29
1003.949	1541.8
1004.243	1530.04
1004.538	1529.14
1004.832	1551.29
1005.127	1500.21
1005.421	1505.64
1005.715	1495.92
1006.009	1489.82
1006.304	1450.5
1006.598	1471.29
1006.892	1447.33
1007.186	1448.01
1007.48	1440.56
1007.773	1448.46
1008.067	1438.52
1008.361	1429.26
1008.655	1450.27
1008.948	1398.75
1009.242	1402.36
1009.535	1395.58
1009.829	1389.26
1010.122	1354.46
1010.415	1350.16
1010.708	1362.37
1011.001	1368.24
1011.295	1361.69
1011.588	1359.88
1011.881	1325.53
1012.173	1342.03
1012.466	1330.05
1012.759	1321.01
1013.052	1305.42
1013.344	1320.11
1013.637	1316.26
1013.93	1309.26
1014.222	1273.33
1014.514	1263.16
1014.807	1270.84
1015.099	1286.66
1015.391	1247.34
1015.683	1237.17
1015.976	1241.01
1016.268	1230.17
1016.56	1211.18
1016.851	1228.13
1017.143	1216.83
1017.435	1204.18
1017.727	1215.93
1018.018	1179.77
1018.31	1195.14
1018.602	1167.12
1018.893	1141.58
1019.185	1158.3
1019.476	1126.67
1019.767	1156.04
1020.058	1126.89
1020.35	1115.59
1020.641	1105.2
1020.932	1111.98
1021.223	1107.23
1021.514	1113.33
1021.804	1104.07
1022.095	1082.15
1022.386	1057.06
1022.677	1069.27
1022.967	1054.12
1023.258	1069.04
1023.548	1051.41
1023.839	1066.78
1024.129	1031.75
1024.419	1025.88
1024.709	1026.33
1025	1028.59
1025.29	1032.43
1025.58	1033.79
1025.87	1022.49
1026.16	962.6
1026.449	994.92
1026.739	989.49
1027.029	979.55
1027.319	998.76
1027.608	953.79
1027.898	958.08
1028.187	985.43
1028.477	986.33
1028.766	949.72
1029.055	974.8
1029.344	941.36
1029.634	939.78
1029.923	957.4
1030.212	927.35
1030.501	928.03
1030.79	908.59
1031.078	908.14
1031.367	885.32
1031.656	912.21
1031.945	898.65
1032.233	898.2
1032.522	862.04
1032.81	874.92
1033.099	876.73
1033.387	859.33
1033.675	849.84
1033.963	869.04
1034.251	857.07
1034.54	841.25
1034.828	834.7
1035.116	844.41
1035.403	831.31
1035.691	825.43
1035.979	810.29
1036.267	827.69
1036.554	816.62
1036.842	825.2
1037.129	824.3
1037.417	791.08
1037.704	796.5
1037.992	782.72
1038.279	786.34
1038.566	779.78
1038.853	779.78
1039.14	779.78
