Data from hue_280_FLMS001491_00028.txt Node
Date: Tue Feb 07 15:55:03 GMT 2017
User: dcchb
Spectrometer: FLMS00149
Trigger mode: 0
Integration Time (sec): 2.000000E-2
Scans to average: 10
Electric dark correction enabled: true
Nonlinearity correction enabled: false
Boxcar width: 0
XAxis mode: Wavelengths
Number of Pixels in Spectrum: 2048
>>>>>Begin Spectral Data<<<<<
341.393	-4.32
341.776	-4.32
342.16	-4.32
342.543	-37.77
342.927	-64.66
343.31	-63.98
343.693	-68.95
344.077	-56.98
344.46	-58.78
344.843	-53.59
345.226	-52
345.61	-20.82
345.993	-26.47
346.376	-13.36
346.759	19.63
347.142	18.73
347.525	42.23
347.908	70.93
348.291	68.9
348.674	84.94
349.057	109.57
349.44	112.96
349.823	124.26
350.206	157.48
350.588	192.51
350.971	193.64
351.354	228.89
351.737	213.53
352.119	243.36
352.502	247.87
352.884	272.51
353.267	260.98
353.65	296.69
354.032	310.25
354.414	310.7
354.797	303.24
355.179	324.03
355.562	326.06
355.944	322
356.326	303.69
356.709	328.32
357.091	323.13
357.473	333.52
357.855	318.61
358.238	330.58
358.62	332.39
359.002	329.68
359.384	334.88
359.766	333.3
360.148	305.5
360.53	333.75
360.912	340.08
361.294	318.16
361.676	323.81
362.057	331.94
362.439	321.32
362.821	322.9
363.203	321.77
363.584	339.4
363.966	321.55
364.348	306.86
364.729	307.08
365.111	296.69
365.493	298.27
365.874	316.57
366.256	319.96
366.637	312.28
367.019	314.99
367.4	321.32
367.781	307.76
368.163	297.59
368.544	318.16
368.925	306.4
369.306	313.41
369.688	307.08
370.069	317.48
370.45	295.78
370.831	308.89
371.212	306.63
371.593	319.51
371.974	302.56
372.355	301.66
372.736	305.27
373.117	302.34
373.498	312.51
373.879	340.53
374.26	294.88
374.641	316.8
375.021	301.66
375.402	335.78
375.783	322.45
376.163	323.81
376.544	328.1
376.925	332.84
377.305	322
377.686	311.6
378.066	328.55
378.447	327.19
378.827	316.57
379.208	319.74
379.588	324.71
379.968	324.03
380.349	329.23
380.729	316.12
381.109	320.42
381.489	337.14
381.87	331.04
382.25	336.46
382.63	314.99
383.01	342.56
383.39	358.61
383.77	335.78
384.15	329.45
384.53	342.79
384.91	354.09
385.29	351.83
385.67	341.43
386.049	358.38
386.429	347.08
386.809	347.53
387.189	344.14
387.568	360.19
387.948	346.63
388.328	358.38
388.707	354.54
389.087	346.86
389.466	346.86
389.846	375.1
390.225	356.8
390.605	349.79
390.984	358.15
391.363	378.72
391.743	370.36
392.122	366.74
392.501	379.85
392.881	376.69
393.26	372.39
393.639	374.2
394.018	376.23
394.397	382.33
394.776	375.56
395.155	356.57
395.534	364.71
395.913	388.89
396.292	404.71
396.671	391.37
397.05	382.79
397.429	385.95
397.808	358.38
398.186	397.7
398.565	407.42
398.944	428.89
399.323	396.35
399.701	394.09
400.08	416.68
400.458	418.27
400.837	418.94
401.215	420.07
401.594	427.08
401.972	434.31
402.351	442.22
402.729	439.06
403.107	426.85
403.486	417.59
403.864	423.69
404.242	427.53
404.62	446.51
404.999	448.55
405.377	435.21
405.755	450.13
406.133	473.86
406.511	451.26
406.889	466.4
407.267	470.69
407.645	489.68
408.023	496.23
408.401	484.7
408.779	486.74
409.156	490.58
409.534	508.88
409.912	510.24
410.29	501.88
410.667	523.12
411.045	516.57
411.422	512.5
411.8	534.19
412.178	530.35
412.555	537.36
412.933	559.28
413.31	567.41
413.687	585.04
414.065	561.99
414.442	571.03
414.819	587.53
415.197	589.11
415.574	593.18
415.951	596.79
416.328	609.9
416.705	612.16
417.082	629.56
417.46	616.9
417.837	650.35
418.214	646.96
418.591	654.19
418.967	656.23
419.344	649.67
419.721	679.28
420.098	683.8
420.475	690.58
420.852	691.7
421.228	704.59
421.605	721.99
421.982	746.17
422.358	739.61
422.735	734.64
423.111	734.87
423.488	780.74
423.864	769.44
424.241	785.94
424.617	777.58
424.994	774.41
425.37	804.47
425.746	794.98
426.123	836.11
426.499	825.71
426.875	837.01
427.251	845.83
427.627	885.15
428.003	888.54
428.379	879.27
428.756	883.56
429.132	917.01
429.507	893.73
429.883	888.54
430.259	939.61
430.635	950.46
431.011	950.23
431.387	971.02
431.763	986.84
432.138	999.95
432.514	997.23
432.89	991.81
433.265	1038.81
433.641	1041.53
434.016	1030.91
434.392	1067.97
434.767	1076.33
435.143	1085.82
435.518	1086.5
435.894	1121.3
436.269	1118.81
436.644	1128.3
437.02	1164.69
437.395	1160.39
437.77	1204.23
438.145	1215.08
438.52	1212.37
438.895	1242.88
439.271	1226.61
439.646	1265.48
440.021	1278.13
440.395	1284.23
440.77	1271.58
441.145	1305.02
441.52	1329.88
441.895	1315.42
442.27	1353.61
442.645	1339.6
443.019	1348.41
443.394	1366.26
443.769	1379.14
444.143	1352.25
444.518	1410.33
444.892	1397.9
445.267	1398.58
445.641	1438.35
446.016	1407.62
446.39	1451.68
446.764	1453.27
447.139	1441.29
447.513	1458.46
447.887	1461.18
448.262	1455.07
448.636	1458.46
449.01	1476.09
449.384	1481.97
449.758	1498.46
450.132	1523.77
450.506	1513.15
450.88	1540.72
451.254	1511.57
451.628	1557.67
452.002	1562.87
452.376	1574.62
452.75	1571.46
453.123	1597.22
453.497	1639.25
453.871	1636.31
454.244	1648.74
454.618	1661.85
454.992	1648.06
455.365	1656.88
455.739	1707.72
456.112	1689.42
456.486	1714.73
456.859	1737.1
457.232	1764.22
457.606	1745.01
457.979	1782.07
458.352	1784.33
458.725	1800.38
459.099	1837.66
459.472	1836.53
459.845	1859.81
460.218	1878.11
460.591	1906.36
460.964	1894.16
461.337	1953.14
461.71	1947.27
462.083	1973.71
462.456	1995.63
462.829	1964.89
463.201	1978
463.574	1994.72
463.947	2042.4
464.32	2072.69
464.692	2070.2
465.065	2095.96
465.438	2090.31
465.81	2129.41
466.183	2130.99
466.555	2204.66
466.928	2171.21
467.3	2190.87
467.672	2227.71
468.045	2275.62
468.417	2252.12
468.789	2272
469.161	2315.62
469.534	2326.92
469.906	2392.23
470.278	2402.85
470.65	2360.36
471.022	2438.1
471.394	2479
471.766	2481.49
472.138	2500.24
472.51	2544.09
472.882	2552.9
473.253	2593.35
473.625	2620.24
473.997	2655.04
474.369	2686.45
474.74	2679.45
475.112	2744.31
475.484	2771.42
475.855	2834.93
476.227	2825.43
476.598	2920.57
476.97	2894.13
477.341	2949.05
477.713	2972.1
478.084	2984.07
478.455	3105.65
478.827	3080.34
479.198	3171.41
479.569	3114.47
479.94	3202.37
480.311	3250.51
480.682	3287.34
481.053	3342.93
481.424	3383.16
481.795	3369.83
482.166	3446.89
482.537	3488.92
482.908	3551.74
483.279	3565.08
483.65	3595.13
484.021	3640.78
484.391	3726.88
484.762	3691.85
485.133	3749.25
485.503	3799.19
485.874	3875.35
486.244	3815.69
486.615	3944.73
486.985	3952.86
487.356	3985.86
487.726	4025.18
488.097	4076.93
488.467	4127.09
488.837	4165.74
489.207	4202.12
489.578	4310.82
489.948	4283.7
490.318	4344.04
490.688	4327.77
491.058	4370.48
491.428	4422
491.798	4485.05
492.168	4563.69
492.538	4542.45
492.908	4580.87
493.278	4625.61
493.648	4634.65
494.017	4689.79
494.387	4736.34
494.757	4766.17
495.126	4793.07
495.496	4802.11
495.866	4828.09
496.235	4873.52
496.605	4883.46
496.974	4876
497.344	4960.52
497.713	4953.51
498.082	4975.43
498.452	4994.42
498.821	5046.17
499.19	5054.98
499.559	5055.21
499.928	5097.92
500.298	5160.97
500.667	5152.83
501.036	5170.23
501.405	5177.91
501.774	5152.6
502.143	5231.7
502.512	5270.12
502.88	5288.19
503.249	5305.14
503.618	5320.96
503.987	5343.79
504.356	5313.05
504.724	5385.82
505.093	5371.81
505.462	5427.63
505.83	5461.75
506.199	5473.05
506.567	5504.23
506.936	5471.24
507.304	5496.55
507.672	5567.73
508.041	5597.11
508.409	5621.52
508.777	5608.19
509.145	5676.88
509.514	5642.31
509.882	5704.68
510.25	5698.58
510.618	5663.78
510.986	5715.3
511.354	5716.43
511.722	5762.53
512.09	5784.9
512.458	5726.83
512.826	5811.34
513.193	5854.51
513.561	5820.84
513.929	5865.35
514.297	5921.85
514.664	5917.1
515.032	5925.47
515.4	5967.5
515.767	5976.76
516.135	6030.1
516.502	5942.87
516.869	5982.64
517.237	6048.63
517.604	6003.66
517.972	6046.37
518.339	6039.36
518.706	6098.34
519.073	6066.25
519.44	6085.24
519.808	6134.95
520.175	6165.91
520.542	6216.08
520.909	6180.83
521.276	6227.83
521.643	6230.09
522.009	6267.83
522.376	6254.04
522.743	6320.94
523.11	6371.1
523.477	6330.43
523.843	6416.3
524.21	6444.55
524.577	6455.4
524.943	6466.02
525.31	6498.11
525.676	6552.12
526.043	6576.75
526.409	6591.44
526.776	6602.28
527.142	6638.67
527.508	6619.91
527.874	6711.89
528.241	6712.56
528.607	6704.43
528.973	6779.45
529.339	6770.19
529.705	6795.95
530.071	6826.01
530.437	6860.13
530.803	6916.63
531.169	6864.42
531.535	6896.29
531.901	6870.07
532.267	6959.34
532.632	6949.85
532.998	6944.65
533.364	7088.15
533.73	7056.28
534.095	7090.63
534.461	7055.15
534.826	7106.9
535.192	7154.36
535.557	7112.33
535.923	7119.33
536.288	7179.9
536.653	7186.9
537.019	7150.07
537.384	7169.5
537.749	7221.48
538.114	7214.47
538.479	7231.65
538.845	7237.97
539.21	7218.09
539.575	7290.4
539.94	7268.71
540.305	7263.28
540.67	7313.23
541.034	7290.4
541.399	7331.08
541.764	7360.68
542.129	7399.78
542.494	7396.16
542.858	7415.6
543.223	7478.87
543.587	7465.99
543.952	7430.28
544.316	7504.86
544.681	7430.51
545.045	7450.85
545.41	7564.74
545.774	7578.53
546.138	7530.62
546.503	7544.63
546.867	7511.64
547.231	7595.48
547.595	7596.38
547.959	7627.57
548.324	7639.32
548.688	7605.65
549.052	7627.12
549.416	7611.3
549.779	7628.92
550.143	7687.23
550.507	7677.28
550.871	7685.19
551.235	7652.88
551.599	7735.36
551.962	7717.73
552.326	7807.68
552.689	7856.04
553.053	7759.32
553.417	7732.2
553.78	7872.76
554.143	7860.56
554.507	7838.86
554.87	7839.09
555.234	7909.37
555.597	7874.11
555.96	7932.42
556.323	7861.69
556.686	7880.44
557.05	8006.77
557.413	7999.99
557.776	8046.31
558.139	8014
558.502	8005.41
558.865	8039.53
559.228	8103.94
559.59	8094.67
559.953	8073.21
560.316	8176.03
560.679	8206.99
561.041	8212.41
561.404	8232.3
561.767	8274.33
562.129	8247.66
562.492	8277.49
562.854	8354.55
563.217	8291.51
563.579	8349.81
563.941	8402.46
564.304	8403.82
564.666	8485.4
565.028	8431.84
565.39	8488.56
565.753	8508.45
566.115	8543.7
566.477	8615.56
566.839	8614.21
567.201	8688.33
567.563	8618.95
567.925	8701.66
568.287	8681.78
568.648	8744.15
569.01	8788.22
569.372	8861.66
569.734	8811.72
570.095	8904.37
570.457	8890.81
570.819	8990.47
571.18	8911.15
571.542	8916.57
571.903	8994.31
572.265	8992.73
572.626	9062.11
572.987	9104.14
573.349	9115.21
573.71	9124.03
574.071	9211.93
574.432	9178.26
574.794	9257.36
575.155	9292.16
575.516	9185.27
575.877	9311.82
576.238	9348.43
576.599	9462.55
576.96	9455.09
577.32	9448.08
577.681	9417.58
578.042	9572.38
578.403	9593.39
578.763	9630.45
579.124	9634.29
579.485	9767.17
579.845	9757
580.206	9762.88
580.566	9790.22
580.927	9847.17
581.287	9945.25
581.648	9974.62
582.008	10028.18
582.368	9997
582.728	10069.54
583.089	10126.26
583.449	10110.44
583.809	10249.65
584.169	10312.47
584.529	10293.49
584.889	10417.55
585.249	10404.67
585.609	10498.23
585.969	10572.35
586.329	10599.92
586.688	10603.31
587.048	10715.4
587.408	10749.07
587.768	10808.5
588.127	10943.86
588.487	10916.97
588.846	11083.52
589.206	11058.21
589.565	11088.27
589.925	11182.95
590.284	11192.45
590.643	11344.08
591.003	11393.34
591.362	11486
591.721	11489.39
592.08	11514.92
592.44	11641.93
592.799	11699.1
593.158	11751.3
593.517	11738.19
593.876	11915.14
594.235	11896.38
594.593	12031.75
594.952	11989.26
595.311	12025.19
595.67	12133.21
596.029	12289.37
596.387	12340.89
596.746	12319.65
597.104	12433.77
597.463	12480.32
597.822	12506.54
598.18	12507.89
598.538	12663.82
598.897	12719.64
599.255	12617.04
599.613	12808.67
599.972	12762.8
600.33	12928.67
600.688	12928.22
601.046	12950.82
601.404	12955.79
601.762	13107.2
602.12	13205.27
602.478	13214.54
602.836	13168.67
603.194	13228.78
603.552	13368.66
603.91	13329.11
604.268	13353.29
604.625	13353.74
604.983	13459.05
605.341	13341.54
605.698	13499.28
606.056	13541.99
606.413	13517.58
606.771	13678.26
607.128	13674.64
607.485	13653.85
607.843	13645.26
608.2	13738.82
608.557	13853.62
608.914	13847.07
609.272	13925.71
609.629	13883.67
609.986	14007.97
610.343	13933.16
610.7	14088.41
611.057	14077.12
611.414	14102.88
611.771	14150.33
612.127	14185.81
612.484	14320.27
612.841	14278.47
613.198	14173.84
613.554	14280.05
613.911	14385.13
614.267	14357.56
614.624	14338.35
614.98	14443.89
615.337	14479.14
615.693	14462.19
616.05	14425.58
616.406	14554.84
616.762	14580.83
617.118	14524.34
617.475	14588.06
617.831	14656.99
618.187	14646.37
618.543	14592.81
618.899	14745.57
619.255	14722.75
619.611	14644.78
619.967	14750.77
620.323	14774.95
620.678	14803.2
621.034	14690.66
621.39	14732.47
621.746	14739.7
622.101	14853.82
622.457	14758.68
622.812	14802.07
623.168	14776.76
623.523	14838.23
623.879	14903.53
624.234	14848.39
624.589	14866.47
624.945	14837.1
625.3	14851.56
625.655	14823.54
626.01	14919.58
626.365	14867.38
626.72	14926.36
627.075	14808.4
627.43	14896.08
627.785	14933.82
628.14	14900.82
628.495	14924.33
628.85	14911.44
629.205	14869.86
629.559	14928.84
629.914	14920.03
630.269	14859.02
630.623	14884.33
630.978	14865.57
631.332	14904.21
631.687	14955.96
632.041	14858.79
632.396	14908.96
632.75	14868.06
633.104	14783.99
633.459	14832.8
633.813	14662.64
634.167	14821.95
634.521	14781.05
634.875	14760.94
635.229	14791.9
635.583	14742.18
635.937	14675.74
636.291	14696.99
636.645	14705.57
636.999	14645.46
637.352	14730.21
637.706	14490.66
638.06	14702.64
638.413	14637.78
638.767	14546.48
639.121	14617.67
639.474	14476.43
639.828	14543.54
640.181	14529.31
640.534	14552.81
640.888	14549.65
641.241	14418.12
641.594	14478.69
641.947	14561.62
642.301	14481.85
642.654	14515.3
643.007	14511.23
643.36	14456.77
643.713	14514.84
644.066	14530.44
644.419	14484.34
644.771	14420.16
645.124	14291.12
645.477	14227.39
645.83	14185.81
646.182	14095.42
646.535	14079.6
646.888	13972.71
647.24	14010.68
647.593	14041.18
647.945	14033.05
648.298	13959.15
648.65	13898.36
649.002	13900.85
649.355	14087.06
649.707	14038.92
650.059	14001.19
650.411	14195.08
650.763	14203.89
651.115	14329.54
651.467	14345.58
651.819	14252.7
652.171	14307.17
652.523	14291.12
652.875	14313.72
653.227	14261.74
653.578	14354.4
653.93	14306.71
654.282	14230.78
654.633	14185.81
654.985	14313.27
655.337	14341.06
655.688	14341.29
656.039	14329.76
656.391	14207.28
656.742	14302.42
657.094	14267.85
657.445	14323.44
657.796	14293.16
658.147	14379.03
658.498	14308.97
658.849	14406.82
659.2	14337.45
659.551	14290.44
659.902	14411.34
660.253	14369.76
660.604	14428.29
660.955	14315.98
661.306	14355.53
661.656	14344.91
662.007	14398.24
662.358	14358.69
662.708	14442.98
663.059	14337.9
663.409	14262.42
663.76	14375.64
664.11	14437.78
664.461	14415.19
664.811	14460.38
665.161	14399.37
665.511	14407.73
665.862	14458.57
666.212	14440.5
666.562	14481.4
666.912	14479.37
667.262	14388.52
667.612	14441.4
667.962	14422.19
668.312	14394.85
668.662	14492.47
669.011	14440.27
669.361	14390.1
669.711	14403.89
670.06	14360.05
670.41	14297.22
670.76	14320.95
671.109	14426.03
671.459	14384
671.808	14305.81
672.157	14394.85
672.507	14243.67
672.856	14288.18
673.205	14247.73
673.554	14300.39
673.904	14327.96
674.253	14335.19
674.602	14288.64
674.951	14101.52
675.3	13981.07
675.649	14274.85
675.998	14160.73
676.346	14173.84
676.695	14236.21
677.044	14171.8
677.393	14141.75
677.741	14212.48
678.09	14098.58
678.438	14109.88
678.787	14073.95
679.135	14139.94
679.484	13967.06
679.832	14072.6
680.181	13981.98
680.529	14002.99
680.877	13965.71
681.225	14026.27
681.573	14008.87
681.922	13900.62
682.27	13834.86
682.618	13885.48
682.966	13933.16
683.314	13943.11
683.661	13815.43
684.009	13765.94
684.357	13754.19
684.705	13731.14
685.053	13700.63
685.4	13733.4
685.748	13655.43
686.095	13634.42
686.443	13618.6
686.79	13536.79
687.138	13528.88
687.485	13576.34
687.832	13506.06
688.18	13483.01
688.527	13361.88
688.874	13364.82
689.221	13352.62
689.568	13312.39
689.915	13255.22
690.262	13278.94
690.609	13224.26
690.956	13164.82
691.303	13117.14
691.65	13096.8
691.997	13040.76
692.344	12885.06
692.69	12970.48
693.037	12932.29
693.383	12820.43
693.73	12913.08
694.077	12768.68
694.423	12836.24
694.769	12634.67
695.116	12663.14
695.462	12619.98
695.808	12645.51
696.155	12672.18
696.501	12508.57
696.847	12478.29
697.193	12410.94
697.539	12450.72
697.885	12321.23
698.231	12279.2
698.577	12342.47
698.923	12332.53
699.269	12178.41
699.614	12131.63
699.96	12074.68
700.306	12042.59
700.651	12076.26
700.997	12024.74
701.342	11963.72
701.688	11920.79
702.033	11875.59
702.379	11891.86
702.724	11827.46
703.069	11775.48
703.415	11603.06
703.76	11651.87
704.105	11627.69
704.45	11536.62
704.795	11513.57
705.14	11460.24
705.485	11504.75
705.83	11415.26
706.175	11401.25
706.52	11391.08
706.865	11355.83
707.209	11298.21
707.554	11310.41
707.899	11252.11
708.243	11240.81
708.588	11127.81
708.932	11110.19
709.277	11199.9
709.621	11121.26
709.966	11015.95
710.31	11088.95
710.654	10950.64
710.998	10902.06
711.342	11040.59
711.687	10921.94
712.031	10880.82
712.375	10882.62
712.719	10886.01
713.063	10879.69
713.407	10789.74
713.75	10763.53
714.094	10748.62
714.438	10723.31
714.782	10707.71
715.125	10676.3
715.469	10737.32
715.812	10693.7
716.156	10586.59
716.499	10603.76
716.843	10577.77
717.186	10535.29
717.53	10497.32
717.873	10620.26
718.216	10506.81
718.559	10553.14
718.902	10409.42
719.246	10536.19
719.589	10528.28
719.932	10364.9
720.275	10446.7
720.617	10385.69
720.96	10401.96
721.303	10420.71
721.646	10412.58
721.989	10328.06
722.331	10324.67
722.674	10291
723.016	10392.24
723.359	10291.9
723.701	10295.29
724.044	10251.45
724.386	10206.71
724.729	10263.66
725.071	10187.27
725.413	10268.4
725.755	10206.03
726.097	10164.22
726.439	10102.3
726.782	10180.27
727.124	10183.43
727.465	10185.92
727.807	10123.77
728.149	10075.64
728.491	10124.23
728.833	10161.51
729.175	10130.33
729.516	10087.39
729.858	10091.91
730.199	10124.23
730.541	10125.58
730.882	10128.52
731.224	10139.37
731.565	10055.75
731.906	10015.53
732.248	10107.05
732.589	10071.8
732.93	9980.73
733.271	10011.91
733.612	10116.09
733.953	10063.44
734.294	10041.97
734.635	10039.03
734.976	10027.96
735.317	9961.07
735.658	10039.48
735.999	10117.67
736.339	10006.04
736.68	10074.51
737.021	10029.09
737.361	10008.07
737.702	10090.1
738.042	10078.8
738.383	10066.83
738.723	10113.6
739.063	10025.02
739.404	10129.2
739.744	10122.64
740.084	10046.71
740.424	10121.51
740.764	10150.67
741.104	10171.23
741.444	10136.88
741.784	10160.16
742.124	10158.8
742.464	10176.43
742.804	10222.3
743.143	10198.35
743.483	10247.39
743.823	10263.2
744.162	10300.27
744.502	10290.55
744.841	10322.41
745.181	10373.94
745.52	10389.53
745.86	10464.1
746.199	10488.51
746.538	10516.98
746.877	10574.83
747.216	10677.43
747.556	10696.41
747.895	10734.83
748.234	10671.56
748.573	10785.22
748.911	10862.29
749.25	10950.87
749.589	10990.42
749.928	11046.01
750.267	11145.89
750.605	11144.99
750.944	11172.33
751.283	11222.73
751.621	11373.68
751.96	11392.67
752.298	11555.6
752.636	11636.5
752.975	11696.61
753.313	11798.98
753.651	12044.4
753.989	12023.38
754.327	12090.28
754.666	12175.7
755.004	12333.43
755.342	12507.44
755.679	12633.09
756.017	12612.97
756.355	12780.43
756.693	12966.64
757.031	13109.46
757.368	13158.95
757.706	13263.35
758.044	13450.24
758.381	13596
758.719	13610.69
759.056	13819.5
759.394	13937.23
759.731	13984.24
760.068	14174.06
760.405	14260.39
760.743	14508.52
761.08	14616.54
761.417	14774.05
761.754	14946.02
762.091	15053.59
762.428	15070.54
762.765	15230.08
763.102	15485.44
763.438	15543.07
763.775	15613.35
764.112	15742.61
764.449	15916.84
764.785	16042.49
765.122	16068.25
765.458	16272.31
765.795	16275.48
766.131	16499.88
766.467	16544.85
766.804	16692.19
767.14	16766.54
767.476	16908.91
767.812	16897.38
768.148	17114.32
768.485	17060.54
768.821	17121.33
769.157	17281.1
769.492	17286.97
769.828	17440.19
770.164	17423.24
770.5	17494.65
770.836	17661.43
771.171	17666.63
771.507	17813.06
771.842	17704.59
772.178	17819.16
772.513	17917.69
772.849	17934.42
773.184	17920.4
773.519	18055.77
773.855	18033.17
774.19	18071.14
774.525	18018.26
774.86	18176.22
775.195	18335.99
775.53	18204.69
775.865	18295.08
776.2	18151.36
776.535	18138.93
776.87	18180.51
777.205	18173.05
777.539	18164.92
777.874	18331.69
778.209	18249.44
778.543	18214.63
778.878	18244.46
779.212	18209.21
779.547	18206.5
779.881	18247.18
780.215	18252.15
780.55	18240.17
780.884	18308.64
781.218	18131.02
781.552	18298.7
781.886	18187.29
782.22	18052.83
782.554	18119.04
782.888	17994.98
783.222	18006.5
783.556	17921.76
783.889	17966.96
784.223	17878.37
784.557	17870.46
784.89	18004.47
785.224	17946.62
785.557	17759.73
785.891	17911.14
786.224	17745.27
786.558	17883.12
786.891	17694.2
787.224	17628.66
787.557	17684.25
787.891	17614.88
788.224	17620.53
788.557	17718.15
788.89	17487.87
789.223	17602.67
789.556	17458.72
789.888	17523.58
790.221	17271.38
790.554	17333.75
790.887	17340.53
791.219	17152.74
791.552	17269.57
791.884	17097.83
792.217	17163.14
792.549	17162.68
792.882	16999.52
793.214	17000.2
793.546	16941.45
793.879	16881.56
794.211	16762.69
794.543	16993.65
794.875	16870.71
795.207	16795.01
795.539	16778.51
795.871	16870.71
796.203	16654.68
796.535	16534.68
796.867	16586.43
797.198	16482.93
797.53	16440.9
797.862	16403.61
798.193	16514.11
798.525	16335.36
798.856	16424.17
799.188	16193.22
799.519	16100.57
799.85	16110.73
800.182	16158.64
800.513	16060.57
800.844	16031.19
801.175	16037.29
801.506	16059.21
801.837	15986.44
802.168	15923.85
802.499	15842.72
802.83	15813.57
803.161	15779.22
803.491	15744.64
803.822	15732.44
804.153	15736.73
804.483	15639.56
804.814	15539
805.145	15510.98
805.475	15597.98
805.805	15482.05
806.136	15489.28
806.466	15463.75
806.796	15433.69
807.126	15246.58
807.457	15187.82
807.787	15265.56
808.117	15188.95
808.447	15207.26
808.777	15228.27
809.107	15057.43
809.436	15101.27
809.766	15095.85
810.096	14978.56
810.426	14973.82
810.755	14966.13
811.085	14955.96
811.414	14963.87
811.744	14799.13
812.073	14824.21
812.403	14778.34
812.732	14782.18
813.061	14727.49
813.39	14693.6
813.719	14609.98
814.049	14617.67
814.378	14609.08
814.707	14562.3
815.036	14553.04
815.365	14438.46
815.693	14351.91
816.022	14355.3
816.351	14384.9
816.68	14267.62
817.008	14361.4
817.337	14258.13
817.665	14108.75
817.994	14195.08
818.322	14223.55
818.651	14176.1
818.979	14100.84
819.307	14124.35
819.636	14120.28
819.964	13969.32
820.292	14040.05
820.62	13965.71
820.948	13944.69
821.276	14059.49
821.604	14007.97
821.932	14036.66
822.259	14021.07
822.587	13969.77
822.915	13962.09
823.243	14030.79
823.57	13940.85
823.898	13946.27
824.225	13881.19
824.553	13953.5
824.88	13967.97
825.207	14012.48
825.535	13936.33
825.862	13951.92
826.189	13936.33
826.516	14059.72
826.843	13959.38
827.17	13952.83
827.497	13997.8
827.824	14020.62
828.151	14031.69
828.478	14007.97
828.805	14042.99
829.131	13996.44
829.458	13916.67
829.785	13966.16
830.111	13967.29
830.438	13962.09
830.764	13994.41
831.09	13968.19
831.417	13943.33
831.743	13933.39
832.069	13918.48
832.395	13905.14
832.722	13925.26
833.048	13891.58
833.374	13889.32
833.7	13826.73
834.026	13857.23
834.351	13845.03
834.677	13765.71
835.003	13928.19
835.329	13832.83
835.654	13835.54
835.98	13763.68
836.306	13797.35
836.631	13731.81
836.956	13799.16
837.282	13786.28
837.607	13722.55
837.932	13665.6
838.258	13711.02
838.583	13724.81
838.908	13580.86
839.233	13578.6
839.558	13587.86
839.883	13519.84
840.208	13498.83
840.533	13484.59
840.858	13523.91
841.182	13484.14
841.507	13407.75
841.832	13447.08
842.156	13335.44
842.481	13405.04
842.805	13381.31
843.13	13333.63
843.454	13305.38
843.778	13213.18
844.103	13220.87
844.427	13241.66
844.751	13168.44
845.075	13129.12
845.399	13089.35
845.723	13052.06
846.047	13090.7
846.371	12904.27
846.695	12888.9
847.019	12793.99
847.343	12761.67
847.666	12667.66
847.99	12617.27
848.313	12612.97
848.637	12527.78
848.96	12525.52
849.284	12469.93
849.607	12335.24
849.931	12367.1
850.254	12334.79
850.577	12249.14
850.9	12132.76
851.223	12134.34
851.546	12086.21
851.869	12041.01
852.192	12085.3
852.515	11919.43
852.838	11916.95
853.161	11889.15
853.483	11922.37
853.806	11823.62
854.129	11721.7
854.451	11629.04
854.774	11741.13
855.096	11592.66
855.419	11657.74
855.741	11591.98
856.063	11542.95
856.385	11486.22
856.708	11490.52
857.03	11397.19
857.352	11496.84
857.674	11326.68
857.996	11356.06
858.318	11325.78
858.64	11181.6
858.961	11260.01
859.283	11189.73
859.605	11116.29
859.926	11144.99
860.248	11131.66
860.57	11065.9
860.891	11061.83
861.212	11087.14
861.534	11011.43
861.855	10923.98
862.176	10922.17
862.498	10948.84
862.819	11018.67
863.14	10920.59
863.461	10935.73
863.782	10906.35
864.103	10888.72
864.424	10841.27
864.745	10898.67
865.065	10868.16
865.386	10710.65
865.707	10760.59
866.027	10749.07
866.348	10710.88
866.668	10677.21
866.989	10728.73
867.309	10618
867.63	10655.96
867.95	10604.21
868.27	10537.55
868.59	10522.63
868.91	10543.2
869.23	10486.25
869.55	10494.16
869.87	10580.48
870.19	10531.22
870.51	10507.04
870.83	10448.96
871.15	10380.26
871.469	10417.1
871.789	10446.02
872.109	10410.55
872.428	10362.41
872.748	10354.5
873.067	10338.68
873.386	10293.94
873.706	10310.66
874.025	10283.77
874.344	10296.2
874.663	10196.99
874.982	10220.72
875.301	10213.71
875.62	10207.39
875.939	10192.02
876.258	10149.31
876.577	10152.7
876.896	10180.95
877.214	10080.61
877.533	10109.08
877.852	10073.61
878.17	10149.54
878.489	10171.23
878.807	10070.22
879.125	10029.76
879.444	10034.28
879.762	10013.27
880.08	10026.6
880.398	9953.61
880.716	9999.93
881.034	9900.73
881.352	9927.62
881.67	9864.57
881.988	9904.34
882.306	9854.18
882.624	9839.49
882.941	9776.44
883.259	9717.23
883.577	9737.34
883.894	9758.81
884.212	9701.19
884.529	9658.47
884.846	9688.3
885.164	9624.13
885.481	9588.42
885.798	9597.46
886.115	9615.76
886.432	9583.67
886.75	9505.94
887.067	9458.48
887.383	9553.62
887.7	9435.66
888.017	9425.71
888.334	9408.99
888.651	9364.7
888.967	9335.55
889.284	9370.57
889.6	9246.73
889.917	9237.92
890.233	9229.33
890.55	9179.62
890.866	9251.93
891.182	9192.05
891.498	9106.17
891.815	9128.09
892.131	9067.76
892.447	9077.93
892.763	9057.59
893.079	9052.84
893.395	9013.07
893.71	8952.05
894.026	8932.39
894.342	8894.2
894.657	8916.35
894.973	8816.01
895.289	8822.56
895.604	8797.71
895.92	8694.88
896.235	8683.36
896.55	8724.94
896.865	8641.78
897.181	8673.64
897.496	8679.97
897.811	8573.08
898.126	8560.2
898.441	8475.68
898.756	8486.75
899.071	8451.5
899.386	8479.3
899.7	8385.51
900.015	8347.1
900.33	8251.96
900.644	8280.88
900.959	8279.08
901.273	8266.65
901.588	8189.36
901.902	8167.89
902.216	8171.51
902.531	8124.96
902.845	8117.95
903.159	8068.69
903.473	8018.97
903.787	8008.8
904.101	7932.42
904.415	7949.59
904.729	7935.36
905.042	7847.22
905.356	7817.85
905.67	7842.7
905.984	7818.52
906.297	7755.47
906.611	7743.27
906.924	7760.45
907.237	7638.41
907.551	7692.88
907.864	7616.49
908.177	7596.61
908.491	7564.52
908.804	7520.45
909.117	7474.13
909.43	7430.74
909.743	7437.06
910.056	7384.18
910.368	7381.92
910.681	7318.65
910.994	7304.64
911.307	7337.18
911.619	7169.05
911.932	7240.91
912.244	7198.43
912.557	7198.2
912.869	7076.4
913.181	7083.4
913.494	7049.5
913.806	7002.27
914.118	7015.15
914.43	6986.91
914.742	6939.9
915.054	6875.72
915.366	6899.9
915.678	6880.24
915.99	6873.69
916.302	6836.18
916.613	6814.71
916.925	6770.64
917.236	6729.96
917.548	6659.01
917.859	6644.99
918.171	6692
918.482	6605.67
918.794	6557.77
919.105	6568.16
919.416	6541.27
919.727	6527.03
920.038	6496.52
920.349	6413.59
920.66	6451.1
920.971	6455.17
921.282	6427.37
921.593	6358.45
921.903	6341.05
922.214	6284.1
922.525	6258.56
922.835	6299.47
923.146	6204.78
923.456	6207.49
923.767	6160.49
924.077	6188.06
924.387	6094.73
924.697	6118.91
925.008	6092.24
925.318	6100.83
925.628	6019.93
925.938	6044.78
926.248	5971.34
926.558	5935.41
926.867	5912.13
927.177	5933.38
927.487	5871.23
927.796	5795.07
928.106	5795.07
928.416	5864.45
928.725	5750.78
929.034	5731.57
929.344	5722.53
929.653	5713.04
929.962	5725.02
930.271	5667.85
930.581	5599.37
930.89	5593.72
931.199	5528.41
931.508	5547.62
931.817	5591.92
932.125	5592.59
932.434	5544.46
932.743	5440.51
933.051	5459.72
933.36	5405.71
933.669	5374.75
933.977	5319.38
934.286	5397.12
934.594	5367.29
934.902	5308.53
935.21	5283.67
935.519	5226.73
935.827	5271.25
936.135	5234.41
936.443	5143.79
936.751	5141.53
937.059	5181.53
937.367	5166.84
937.674	5147.86
937.982	5143.79
938.29	5077.8
938.597	5051.82
938.905	5003.91
939.213	4994.42
939.52	4941.99
939.827	4973.17
940.135	4984.47
940.442	4998.71
940.749	4937.7
941.056	4891.37
941.363	4857.7
941.67	4851.6
941.977	4847.98
942.284	4793.29
942.591	4792.61
942.898	4754.42
943.205	4751.03
943.511	4720.98
943.818	4667.19
944.125	4616.12
944.431	4710.58
944.738	4638.95
945.044	4605.73
945.35	4578.83
945.657	4539.51
945.963	4530.93
946.269	4490.02
946.575	4534.32
946.881	4483.24
947.187	4456.8
947.493	4482.11
947.799	4430.36
948.105	4434.88
948.41	4408.44
948.716	4429.46
949.022	4380.42
949.327	4381.33
949.633	4318.73
949.938	4252.97
950.244	4292.29
950.549	4246.87
950.854	4256.58
951.16	4227.43
951.465	4263.36
951.77	4242.8
952.075	4148.56
952.38	4147.43
952.685	4139.98
952.99	4114.21
953.294	4086.64
953.599	4110.6
953.904	4056.81
954.209	4074.44
954.513	4052.97
954.818	3984.5
955.122	4022.69
955.426	3969.36
955.731	3973.2
956.035	3942.24
956.339	3952.64
956.643	3916.93
956.948	3878.97
957.252	3880.77
957.556	3856.37
957.86	3836.26
958.163	3812.3
958.467	3827.67
958.771	3810.04
959.075	3784.73
959.378	3748.57
959.682	3770.04
959.985	3718.74
960.289	3695.92
960.592	3732.53
960.896	3675.13
961.199	3645.98
961.502	3667.45
961.805	3637.39
962.108	3628.58
962.411	3597.39
962.714	3631.74
963.017	3577.05
963.32	3587.67
963.623	3572.08
963.926	3541.8
964.228	3494.8
964.531	3498.18
964.833	3513.55
965.136	3497.73
965.438	3457.28
965.741	3428.36
966.043	3453.67
966.345	3430.84
966.648	3368.7
966.95	3382.93
967.252	3389.04
967.554	3353.1
967.856	3373.89
968.158	3276.95
968.46	3306.1
968.761	3267.23
969.063	3263.84
969.365	3260.45
969.666	3229.49
969.968	3247.34
970.269	3229.49
970.571	3188.81
970.872	3167.35
971.174	3147.01
971.475	3171.41
971.776	3159.21
972.077	3170.51
972.378	3169.15
972.679	3121.25
972.98	3098.2
973.281	3091.19
973.582	3034.92
973.883	3048.48
974.183	3014.13
974.484	3050.06
974.785	2992.21
975.085	3011.64
975.386	3029.72
975.686	3000.8
975.986	2959.67
976.287	2957.18
976.587	2918.31
976.887	2900.23
977.187	2937.97
977.487	2907.24
977.787	2886.22
978.087	2849.16
978.387	2876.51
978.687	2853.46
978.987	2841.25
979.286	2806.9
979.586	2812.78
979.885	2778.2
980.185	2802.38
980.484	2754.02
980.784	2800.8
981.083	2783.63
981.382	2756.96
981.682	2727.58
981.981	2690.75
982.28	2701.14
982.579	2702.5
982.878	2653.01
983.177	2700.01
983.475	2689.17
983.774	2639.45
984.073	2651.2
984.372	2611.65
984.67	2601.03
984.969	2585.44
985.267	2578.44
985.566	2585.21
985.864	2566.46
986.162	2569.62
986.461	2551.77
986.759	2536.18
987.057	2504.09
987.355	2507.7
987.653	2500.24
987.951	2481.26
988.249	2459.79
988.547	2482.62
988.844	2433.81
989.142	2442.85
989.44	2426.12
989.737	2416.63
990.035	2370.08
990.332	2379.34
990.63	2370.76
990.927	2370.98
991.224	2363.07
991.521	2381.38
991.819	2330.76
992.116	2334.15
992.413	2320.14
992.71	2303.19
993.006	2309.29
993.303	2254.6
993.6	2252.34
993.897	2280.59
994.193	2277.43
994.49	2205.11
994.787	2250.08
995.083	2213.92
995.379	2216.64
995.676	2188.84
995.972	2214.83
996.268	2180.03
996.565	2185
996.861	2148.16
997.157	2157.66
997.453	2109.97
997.749	2123.98
998.044	2092.57
998.34	2102.74
998.636	2099.58
998.932	2083.53
999.227	2107.26
999.523	2029.52
999.818	2026.81
1000.114	2018.45
1000.409	2033.36
1000.704	2033.36
1001	1974.16
1001.295	1993.14
1001.59	1984.55
1001.885	1970.54
1002.18	1953.82
1002.475	1969.41
1002.77	1908.4
1003.065	1911.79
1003.359	1895.06
1003.654	1907.72
1003.949	1901.62
1004.243	1882.41
1004.538	1854.61
1004.832	1907.94
1005.127	1879.47
1005.421	1846.02
1005.715	1846.48
1006.009	1836.53
1006.304	1796.53
1006.598	1817.78
1006.892	1790.66
1007.186	1783.43
1007.48	1771
1007.773	1766.93
1008.067	1762.41
1008.361	1730.32
1008.655	1735.75
1008.948	1747.27
1009.242	1725.58
1009.535	1732.58
1009.829	1688.97
1010.122	1711.57
1010.415	1700.72
1010.708	1669.76
1011.001	1671.34
1011.295	1653.94
1011.588	1651
1011.881	1612.81
1012.173	1608.74
1012.466	1628.63
1012.759	1626.14
1013.052	1591.79
1013.344	1595.41
1013.637	1559.48
1013.93	1577.78
1014.222	1557.9
1014.514	1533.49
1014.807	1559.48
1015.099	1515.64
1015.391	1524.45
1015.683	1523.55
1015.976	1527.39
1016.268	1517.9
1016.56	1492.59
1016.851	1473.83
1017.143	1467.96
1017.435	1451.91
1017.727	1447.62
1018.018	1444.45
1018.31	1443.1
1018.602	1433.38
1018.893	1412.82
1019.185	1401.52
1019.476	1425.02
1019.767	1389.31
1020.058	1378.92
1020.35	1358.81
1020.641	1368.75
1020.932	1348.64
1021.223	1352.7
1021.514	1348.18
1021.804	1358.35
1022.095	1331.01
1022.386	1321.29
1022.677	1304.8
1022.967	1306.6
1023.258	1317
1023.548	1272.25
1023.839	1246.27
1024.129	1278.36
1024.419	1250.79
1024.709	1272.71
1025	1217.57
1025.29	1230
1025.58	1209.21
1025.87	1197.68
1026.16	1204.23
1026.449	1187.51
1026.739	1192.26
1027.029	1176.44
1027.319	1181.64
1027.608	1161.52
1027.898	1143.44
1028.187	1141.64
1028.477	1126.5
1028.766	1135.31
1029.055	1130.34
1029.344	1155.42
1029.634	1138.02
1029.923	1145.03
1030.212	1121.3
1030.501	1092.37
1030.79	1096.44
1031.078	1048.98
1031.367	1087.4
1031.656	1066.38
1031.945	1021.87
1032.233	1057.8
1032.522	1054.63
1032.81	1045.59
1033.099	1032.49
1033.387	1043.56
1033.675	1021.64
1033.963	1016.22
1034.251	1012.15
1034.54	1015.99
1034.828	992.94
1035.116	993.62
1035.403	970.12
1035.691	958.82
1035.979	1012.15
1036.267	959.04
1036.554	964.01
1036.842	952.94
1037.129	953.62
1037.417	936.22
1037.704	929.44
1037.992	938.25
1038.279	891.02
1038.566	929.21
1038.853	929.21
1039.14	929.21
