Data from hue_20_FLMS001491_80.txt Node
Date: Mon Feb 06 15:34:39 GMT 2017
User: dcchb
Spectrometer: FLMS00149
Trigger mode: 0
Integration Time (sec): 2.000000E-2
Scans to average: 10
Electric dark correction enabled: true
Nonlinearity correction enabled: false
Boxcar width: 0
XAxis mode: Wavelengths
Number of Pixels in Spectrum: 2048
>>>>>Begin Spectral Data<<<<<
341.393	-3.22
341.776	-3.22
342.16	-3.22
342.543	-33.73
342.927	-65.37
343.31	-60.62
343.693	-88.64
344.077	-77.57
344.46	-65.37
344.843	-45.48
345.226	-38.25
345.61	-40.51
345.993	-7.97
346.376	5.14
346.759	8.76
347.142	15.08
347.525	36.78
347.908	63.44
348.291	91.69
348.674	92.82
349.057	110.68
349.44	129.21
349.823	144.35
350.206	176.66
350.588	185.7
350.971	225.7
351.354	221.86
351.737	252.37
352.119	259.6
352.502	254.85
352.884	291.24
353.267	288.07
353.65	290.56
354.032	310.9
354.414	284.68
354.797	316.77
355.179	337.56
355.562	323.55
355.944	328.97
356.326	336.66
356.709	346.83
357.091	334.4
357.473	347.73
357.855	361.52
358.238	336.66
358.62	344.34
359.002	333.49
359.384	344.34
359.766	356.54
360.148	342.76
360.53	360.61
360.912	328.52
361.294	337.11
361.676	348.86
362.057	324.45
362.439	331.46
362.821	355.87
363.203	314.96
363.584	342.08
363.966	331.69
364.348	319.94
364.729	323.55
365.111	324.68
365.493	315.42
365.874	334.17
366.256	343.21
366.637	333.04
367.019	332.36
367.4	314.06
367.781	323.1
368.163	303.66
368.544	296.66
368.925	320.39
369.306	312.25
369.688	321.07
370.069	308.18
370.45	309.54
370.831	313.83
371.212	312.93
371.593	322.19
371.974	319.71
372.355	329.2
372.736	345.25
373.117	336.21
373.498	325.58
373.879	334.4
374.26	318.35
374.641	328.52
375.021	339.82
375.402	325.81
375.783	331.01
376.163	316.77
376.544	335.53
376.925	326.04
377.305	337.56
377.686	341.18
378.066	333.49
378.447	343.89
378.827	333.04
379.208	343.89
379.588	358.58
379.968	358.35
380.349	340.27
380.729	341.18
381.109	319.94
381.489	343.21
381.87	360.16
382.25	342.53
382.63	364.91
383.01	357.67
383.39	352.93
383.77	349.54
384.15	358.13
384.53	370.1
384.91	359.03
385.29	339.37
385.67	364.23
386.049	361.29
386.429	357.67
386.809	374.17
387.189	357.9
387.568	386.83
387.948	368.07
388.328	347.05
388.707	355.19
389.087	365.36
389.466	363.78
389.846	369.43
390.225	390.44
390.605	384.57
390.984	387.73
391.363	364.91
391.743	396.77
392.122	377.79
392.501	387.73
392.881	412.59
393.26	401.29
393.639	386.15
394.018	394.96
394.397	383.21
394.776	408.29
395.155	417.11
395.534	410.1
395.913	369.43
396.292	409.65
396.671	393.61
397.05	412.59
397.429	415.75
397.808	398.13
398.186	386.6
398.565	400.16
398.944	399.03
399.323	405.58
399.701	403.77
400.08	399.48
400.458	403.55
400.837	407.39
401.215	407.62
401.594	398.58
401.972	397
402.351	405.36
402.729	422.98
403.107	415.3
403.486	425.24
403.864	428.18
404.242	434.73
404.62	439.93
404.999	425.47
405.377	441.29
405.755	444
406.133	430.21
406.511	437.22
406.889	442.19
407.267	456.88
407.645	468.63
408.023	459.14
408.401	447.84
408.779	448.07
409.156	455.07
409.534	437.45
409.912	451.46
410.29	474.06
410.667	451.01
411.045	487.61
411.422	506.37
411.8	466.82
412.178	481.06
412.555	492.13
412.933	520.83
413.31	497.56
413.687	502.3
414.065	492.13
414.442	495.07
414.819	506.14
415.197	486.26
415.574	500.27
415.951	518.57
416.328	501.85
416.705	521.51
417.082	527.16
417.46	559.93
417.837	537.33
418.214	542.98
418.591	540.49
418.967	537.33
419.344	544.11
419.721	528.97
420.098	548.63
420.475	540.27
420.852	557.89
421.228	577.33
421.605	563.77
421.982	562.87
422.358	562.87
422.735	571
423.111	554.28
423.488	591.11
423.864	587.27
424.241	575.52
424.617	609.42
424.994	590.66
425.37	598.35
425.746	598.12
426.123	597.89
426.499	596.09
426.875	624.56
427.251	600.61
427.627	620.27
428.003	612.58
428.379	607.39
428.756	626.59
429.132	619.14
429.507	661.4
429.883	645.35
430.259	666.14
430.635	655.29
431.011	668.85
431.387	655.75
431.763	654.62
432.138	681.96
432.514	684.22
432.89	696.2
433.265	699.36
433.641	701.17
434.016	698.23
434.392	703.65
434.767	725.8
435.143	716.53
435.518	733.48
435.894	753.6
436.269	746.36
436.644	786.82
437.02	760.6
437.395	755.86
437.77	779.81
438.145	779.36
438.52	753.82
438.895	796.08
439.271	794.05
439.646	812.13
440.021	798.34
440.395	822.97
440.77	827.04
441.145	825.23
441.52	824.1
441.895	835.4
442.27	828.17
442.645	845.8
443.019	828.62
443.394	846.25
443.769	859.13
444.143	855.29
444.518	822.52
444.892	857.32
445.267	878.34
445.641	871.78
446.016	890.54
446.39	868.85
446.764	880.15
447.139	858.23
447.513	894.16
447.887	874.95
448.262	910.65
448.636	915.17
449.01	916.53
449.384	917.21
449.758	924.89
450.132	932.57
450.506	929.86
450.88	954.04
451.254	927.38
451.628	936.42
452.002	980.48
452.376	987.49
452.75	987.71
453.123	974.83
453.497	979.8
453.871	991.56
454.244	1015.28
454.618	1007.83
454.992	1019.35
455.365	1010.31
455.739	1035.85
456.112	1046.02
456.486	1058.45
456.859	1053.25
457.232	1073.81
457.606	1087.6
457.979	1102.51
458.352	1119.24
458.725	1129.41
459.099	1170.31
459.472	1128.73
459.845	1167.14
460.218	1162.62
460.591	1189.06
460.964	1182.06
461.337	1214.6
461.71	1247.37
462.083	1265.67
462.456	1217.31
462.829	1250.98
463.201	1269.74
463.574	1256.41
463.947	1253.7
464.32	1331.43
464.692	1328.04
465.065	1334.82
465.438	1337.08
465.81	1354.26
466.183	1392.45
466.555	1388.16
466.928	1388.61
467.3	1412.34
467.672	1409.62
468.045	1465.44
468.417	1458.44
468.789	1475.84
469.161	1494.14
469.534	1530.75
469.906	1566.46
470.278	1581.82
470.65	1592.22
471.022	1611.2
471.394	1654.14
471.766	1659.79
472.138	1698.88
472.51	1721.25
472.882	1746.56
473.253	1751.54
473.625	1772.33
473.997	1808.71
474.369	1812.55
474.74	1837.18
475.112	1896.84
475.484	1871.53
475.855	1926.45
476.227	1974.13
476.598	2007.12
476.97	2046.67
477.341	2083.28
477.713	2097.52
478.084	2123.05
478.455	2177.06
478.827	2199.66
479.198	2271.97
479.569	2264.74
479.94	2336.83
480.311	2379.54
480.682	2415.47
481.053	2436.04
481.424	2525.3
481.795	2568.92
482.166	2602.59
482.537	2611.85
482.908	2727.78
483.279	2715.35
483.65	2769.36
484.021	2810.94
484.391	2878.51
484.762	2920.54
485.133	2901.56
485.503	3034.67
485.874	3073.76
486.244	3099.97
486.615	3133.65
486.985	3181.78
487.356	3254.32
487.726	3300.65
488.097	3402.57
488.467	3412.74
488.837	3476.24
489.207	3502
489.578	3552.17
489.948	3602.33
490.318	3676.01
490.688	3651.6
491.058	3742.9
491.428	3751.94
491.798	3830.58
492.168	3914.87
492.538	3922.1
492.908	3996
493.278	4074.19
493.648	4044.36
494.017	4118.25
494.387	4166.61
494.757	4172.49
495.126	4238.48
495.496	4230.57
495.866	4292.03
496.235	4371.13
496.605	4367.06
496.974	4407.74
497.344	4514.18
497.713	4502.2
498.082	4540.39
498.452	4578.81
498.821	4621.29
499.19	4671.91
499.559	4701.74
499.928	4694.51
500.298	4722.31
500.667	4793.72
501.036	4821.51
501.405	4856.54
501.774	4865.13
502.143	4879.59
502.512	4937.89
502.88	4995.74
503.249	5016.31
503.618	4989.87
503.987	5045.01
504.356	4992.58
504.724	5086.82
505.093	5124.33
505.462	5125.01
505.83	5208.39
506.199	5182.86
506.567	5295.17
506.936	5260.6
507.304	5409.52
507.672	5346.7
508.041	5364.77
508.409	5410.2
508.777	5450.42
509.145	5437.54
509.514	5482.74
509.882	5529.74
510.25	5536.75
510.618	5610.19
510.986	5620.59
511.354	5610.87
511.722	5683.86
512.09	5682.96
512.458	5673.24
512.826	5754.59
513.193	5829.17
513.561	5767.48
513.929	5851.54
514.297	5880.24
514.664	5915.04
515.032	5933.12
515.4	5919.11
515.767	5988.49
516.135	6008.6
516.502	5984.64
516.869	6045.21
517.237	6068.94
517.604	6032.1
517.972	6145.09
518.339	6120.69
518.706	6142.15
519.073	6130.4
519.44	6254.24
519.808	6294.47
520.175	6256.95
520.542	6346.9
520.909	6396.39
521.276	6389.61
521.643	6497.17
522.009	6473.67
522.376	6508.25
522.743	6565.42
523.11	6568.13
523.477	6629.83
523.843	6643.61
524.21	6690.84
524.577	6744.62
524.943	6808.58
525.31	6773.32
525.676	6917.73
526.043	6907.78
526.409	6925.64
526.776	6964.96
527.142	7031.85
527.508	7056.26
527.874	7083.15
528.241	7117.04
528.607	7155.91
528.973	7204.95
529.339	7225.74
529.705	7237.49
530.071	7333.99
530.437	7408.34
530.803	7398.17
531.169	7381.44
531.535	7428
531.901	7470.93
532.267	7500.09
532.632	7599.29
532.998	7551.38
533.364	7584.6
533.73	7668.89
534.095	7712.96
534.461	7748.89
534.826	7859.85
535.192	7800.64
535.557	7892.62
535.923	7884.71
536.288	7905.05
536.653	7990.02
537.019	7920.87
537.384	7983.24
537.749	7975.1
538.114	8047.42
538.479	8027.76
538.845	8146.4
539.21	8077.02
539.575	8166.28
539.94	8152.95
540.305	8221.87
540.67	8213.06
541.034	8410.57
541.399	8360.85
541.764	8278.14
542.129	8396.78
542.494	8394.07
542.858	8488.99
543.223	8574.63
543.587	8564.69
543.952	8533.96
544.316	8655.54
544.681	8541.41
545.045	8660.51
545.41	8699.83
545.774	8728.75
546.138	8800.16
546.503	8767.4
546.867	8764.01
547.231	8897.11
547.595	8876.32
547.959	8902.53
548.324	8926.49
548.688	8966.26
549.052	9001.29
549.416	8968.52
549.779	9017.11
550.143	9108.63
550.507	9077.44
550.871	9193.6
551.235	9176.88
551.599	9246.93
551.962	9239.7
552.326	9285.12
552.689	9317.89
553.053	9314.5
553.417	9395.4
553.78	9509.98
554.143	9401.28
554.507	9460.71
554.87	9514.72
555.234	9592.23
555.597	9517.89
555.96	9521.28
556.323	9653.02
556.686	9657.99
557.05	9653.7
557.413	9723.53
557.776	9774.83
558.139	9839.91
558.502	9822.06
558.865	9816.41
559.228	9881.27
559.59	9902.06
559.953	10017.31
560.316	10026.12
560.679	10051.66
561.041	10116.06
561.404	10097.31
561.767	10177.3
562.129	10192.67
562.492	10274.25
562.854	10245.32
563.217	10260.24
563.579	10314.93
563.941	10361.48
564.304	10377.75
564.666	10435.83
565.028	10426.34
565.39	10546.56
565.753	10549.04
566.115	10625.65
566.477	10669.04
566.839	10728.7
567.201	10770.06
567.563	10773.45
567.925	10832.88
568.287	10853.22
568.648	10905.42
569.01	10973.44
569.372	11042.59
569.734	11031.07
570.095	11074.68
570.457	11063.38
570.819	11161.91
571.18	11168.24
571.542	11262.02
571.903	11313.09
572.265	11295.92
572.626	11412.75
572.987	11430.38
573.349	11479.19
573.71	11590.37
574.071	11692.74
574.432	11747.43
574.794	11825.4
575.155	11850.71
575.516	11807.09
575.877	11985.84
576.238	11953.08
576.599	12125.73
576.96	12153.75
577.32	12170.92
577.681	12335.89
578.042	12368.88
578.403	12430.35
578.763	12668.31
579.124	12697.01
579.485	12900.62
579.845	12907.4
580.206	12926.38
580.566	13092.71
580.927	13220.16
581.287	13348.52
581.648	13440.95
582.008	13608.4
582.368	13714.16
582.728	13877.54
583.089	13980.37
583.449	14153.7
583.809	14288.38
584.169	14504.19
584.529	14597.53
584.889	14928.14
585.249	15101.02
585.609	15201.35
585.969	15458.52
586.329	15628.46
586.688	15870.03
587.048	15979.64
587.408	16215.79
587.768	16518.38
588.127	16721.99
588.487	16965.83
588.846	17349.09
589.206	17456.66
589.565	17727.61
589.925	18063.65
590.284	18342.51
590.643	18692.79
591.003	18912.89
591.362	19283.73
591.721	19505.87
592.08	19846.65
592.44	20066.31
592.799	20399.18
593.158	20740.87
593.517	20978.83
593.876	21366.39
594.235	21589.88
594.593	21916.43
594.952	22278.68
595.311	22606.58
595.67	22967.7
596.029	23452.66
596.387	23739.21
596.746	24117.73
597.104	24167.67
597.463	24616.92
597.822	25083.13
598.18	25297.36
598.538	25529.89
598.897	26112.7
599.255	26364.67
599.613	26904.55
599.972	27131.43
600.33	27417.75
600.688	27656.39
601.046	28072.65
601.404	28419.99
601.762	28710.6
602.12	29282.11
602.478	29630.12
602.836	30005.71
603.194	29942.89
603.552	30445.24
603.91	30662.87
604.268	31159.35
604.625	31409.06
604.983	31707.58
605.341	31965.66
605.698	32423.95
606.056	32667.33
606.413	32914.33
606.771	33303.02
607.128	33604.26
607.485	33702.33
607.843	34026.62
608.2	34519.26
608.557	34721.52
608.914	34818.69
609.272	35277.89
609.629	35498.9
609.986	35966.46
610.343	36056.62
610.7	36379.33
611.057	36511.53
611.414	36802.37
611.771	37175.92
612.127	37457.72
612.484	37535.45
612.841	38015.89
613.198	38029.68
613.554	38268.54
613.911	38511.25
614.267	38850.9
614.624	38924.57
614.98	39226.48
615.337	39623.08
615.693	39506.7
616.05	39670.54
616.406	40182.84
616.762	40064.65
617.118	40351.2
617.475	40413.34
617.831	40666.22
618.187	40907.79
618.543	41099.88
618.899	41540.55
619.255	41415.35
619.611	41600.88
619.967	41868.45
620.323	41962.23
620.678	41979.63
621.034	41961.55
621.39	42118.16
621.746	42311.6
622.101	42760.85
622.457	42596.56
622.812	42821.64
623.168	43020.06
623.523	43049.21
623.879	43240.16
624.234	43093.73
624.589	43263.66
624.945	43406.26
625.3	43521.51
625.655	43463.66
626.01	43557.44
626.365	43954.04
626.72	43764.44
627.075	43938.68
627.43	44036.07
627.785	43909.07
628.14	44210.76
628.495	44208.5
628.85	44166.01
629.205	44322.39
629.559	44631.31
629.914	44328.95
630.269	44441.03
630.623	44511.54
630.978	44361.94
631.332	44650.75
631.687	44706.11
632.041	44570.52
632.396	44645.78
632.75	44706.34
633.104	44714.02
633.459	44621.37
633.813	44663.85
634.167	44689.84
634.521	44801.25
634.875	44734.81
635.229	44728.94
635.583	44697.07
635.937	44716.96
636.291	44617.75
636.645	44841.93
636.999	44744.98
637.352	44893
637.706	44656.17
638.06	44888.93
638.413	44726.9
638.767	44714.7
639.121	44792.89
639.474	44544.53
639.828	44574.36
640.181	44783.85
640.534	44718.54
640.888	44654.36
641.241	44393.35
641.594	44494.59
641.947	44766.45
642.301	44565.55
642.654	44626.11
643.007	44565.33
643.36	44497.08
643.713	44594.25
644.066	44686.23
644.419	44400.81
644.771	44224.77
645.124	43848.73
645.477	43970.31
645.83	43559.7
646.182	43559.25
646.535	43443.1
646.888	43431.8
647.24	43197.68
647.593	43470.21
647.945	43399.48
648.298	43132.37
648.65	43165.81
649.002	43079.94
649.355	43331.01
649.707	43120.62
650.059	43255.76
650.411	43700.94
650.763	43840.15
651.115	44277.88
651.467	44109.74
651.819	44167.6
652.171	44132.57
652.523	44079.91
652.875	44166.01
653.227	43956.08
653.578	44225.9
653.93	44217.76
654.282	43945.68
654.633	43802.63
654.985	43951.33
655.337	44062.51
655.688	43940.26
656.039	44013.48
656.391	43615.75
656.742	43817.55
657.094	43751.34
657.445	43874.04
657.796	43733.03
658.147	43807.83
658.498	43787.27
658.849	43855.74
659.2	43697.1
659.551	43890.99
659.902	43707.04
660.253	43729.42
660.604	43857.1
660.955	43653.26
661.306	43798.11
661.656	43706.59
662.007	43585.24
662.358	43601.28
662.708	43603.09
663.059	43500.04
663.409	43250.11
663.76	43721.96
664.11	43710.21
664.461	43616.2
664.811	43589.76
665.161	43687.61
665.511	43541.85
665.862	43576.65
666.212	43648.51
666.562	43819.58
666.912	43678.34
667.262	43541.62
667.612	43579.81
667.962	43634.73
668.312	43467.73
668.662	43539.14
669.011	43547.73
669.361	43490.78
669.711	43366.71
670.06	43425.92
670.41	43365.58
670.76	43405.13
671.109	43521.06
671.459	43420.72
671.808	43371.46
672.157	43342.98
672.507	43044.46
672.856	43099.38
673.205	43185.02
673.554	43248.52
673.904	43112.71
674.253	43373.04
674.602	43201.52
674.951	42608.31
675.3	42552.27
675.649	43218.02
675.998	43038.13
676.346	43151.35
676.695	43216.66
677.044	42855.31
677.393	43105.02
677.741	43012.37
678.09	42981.41
678.438	42835.43
678.787	43017.8
679.135	42972.37
679.484	42543.68
679.832	42833.62
680.181	42616.9
680.529	42660.06
680.877	42568.99
681.225	42474.53
681.573	42813.96
681.922	42515.89
682.27	42499.62
682.618	42342.33
682.966	42338.27
683.314	42277.93
683.661	42262.34
684.009	42156.35
684.357	41977.6
684.705	42064.6
685.053	41965.17
685.4	41993.42
685.748	41780.09
686.095	41783.48
686.443	41597.95
686.79	41564.5
687.138	41783.93
687.485	41600.88
687.832	41483.82
688.18	41431.4
688.527	41298.52
688.874	41210.16
689.221	41095.59
689.568	41075.7
689.915	40844.29
690.262	41149.37
690.609	40903.27
690.956	40609.27
691.303	40720.68
691.65	40552.32
691.997	40581.25
692.344	40324.08
692.69	40251.99
693.037	40343.74
693.383	39986.46
693.73	40243.41
694.077	39820.37
694.423	39865.56
694.769	39896.75
695.116	39744.66
695.462	39553.03
695.808	39671.22
696.155	39575.85
696.501	39398.46
696.847	39187.61
697.193	39127.5
697.539	39113.72
697.885	38986.04
698.231	38828.98
698.577	38748.3
698.923	38806.38
699.269	38498.59
699.614	38266.51
699.96	38279.84
700.306	38333.62
700.651	38111.26
700.997	38016.57
701.342	37858.84
701.688	37932.05
702.033	37864.48
702.379	37874.65
702.724	37756.01
703.069	37713.53
703.415	37297.49
703.76	37488.45
704.105	37334.1
704.45	37267.66
704.795	36949.03
705.14	37044.85
705.485	37081
705.83	36858.86
706.175	36928.01
706.52	36706.1
706.865	36702.71
707.209	36674.69
707.554	36363.28
707.899	36587.91
708.243	36379.78
708.588	36335.03
708.932	36002.39
709.277	36077.41
709.621	36058.88
709.966	35894.14
710.31	35933.69
710.654	35636.07
710.998	35695.28
711.342	35706.12
711.687	35532.34
712.031	35365.79
712.375	35305
712.719	35390.65
713.063	35313.37
713.407	35426.58
713.75	35091.68
714.094	35098.46
714.438	35083.99
714.782	35071.34
715.125	34815.07
715.469	34907.95
715.812	34711.12
716.156	34467.96
716.499	34569.66
716.843	34618.69
717.186	34380.06
717.53	34565.14
717.873	34484.91
718.216	34266.39
718.559	34232.26
718.902	34101.42
719.246	34153.85
719.589	34093.06
719.932	33892.61
720.275	33923.35
720.617	33855.32
720.96	33857.58
721.303	33907.98
721.646	33788.66
721.989	33599.51
722.331	33697.59
722.674	33536.69
723.016	33458.27
723.359	33490.14
723.701	33525.39
724.044	33297.83
724.386	33202.46
724.729	33224.15
725.071	33127.21
725.413	33232.06
725.755	33129.24
726.097	33011.73
726.439	32881.11
726.782	32789.59
727.124	32985.29
727.465	32808.12
727.807	32801.34
728.149	32627.79
728.491	32611.29
728.833	32757.05
729.175	32641.57
729.516	32409.94
729.858	32429.15
730.199	32421.92
730.541	32360
730.882	32238.19
731.224	32440.22
731.565	32054.69
731.906	32063.51
732.248	32116.39
732.589	31917.07
732.93	31948.71
733.271	31914.13
733.612	31778.32
733.953	32029.16
734.294	31763.4
734.635	31663.52
734.976	31780.58
735.317	31592.79
735.658	31651.09
735.999	31514.82
736.339	31571.99
736.68	31642.73
737.021	31495.39
737.361	31304.66
737.702	31596.4
738.042	31367.93
738.383	31286.58
738.723	31417.2
739.063	31253.13
739.404	31262.17
739.744	31256.75
740.084	31066.92
740.424	31138.11
740.764	31019.47
741.104	31177.88
741.444	30965.01
741.784	30831.45
742.124	30974.95
742.464	30920.71
742.804	30837.32
743.143	30704.9
743.483	30687.05
743.823	30477.79
744.162	30628.52
744.502	30697.89
744.841	30452.25
745.181	30683.66
745.52	30306.94
745.86	30356.66
746.199	30340.16
746.538	30323.67
746.877	30321.86
747.216	30403.21
747.556	30158.7
747.895	30238.02
748.234	30128.87
748.573	30017.91
748.911	29990.57
749.25	30143.78
749.589	29770.01
749.928	29945.37
750.267	29942.66
750.605	29808.2
750.944	29844.13
751.283	29690.24
751.621	29725.72
751.96	29549.9
752.298	29519.85
752.636	29448.21
752.975	29441.88
753.313	29347.65
753.651	29407.08
753.989	29224.94
754.327	29223.58
754.666	29056.58
755.004	29134.54
755.342	29033.08
755.679	28982.23
756.017	28937.71
756.355	28921.44
756.693	28744.95
757.031	28850.94
757.368	28565.97
757.706	28573.2
758.044	28502.47
758.381	28518.97
758.719	28360.55
759.056	28434.22
759.394	28365.75
759.731	28086.44
760.068	28139.32
760.405	27987
760.743	27859.1
761.08	28000.11
761.417	27822.94
761.754	27822.71
762.091	27711.53
762.428	27706.33
762.765	27316.97
763.102	27473.35
763.438	27391.99
763.775	27190.19
764.112	27326.23
764.449	27304.08
764.785	27135.73
765.122	26982.74
765.458	26872.01
765.795	26860.25
766.131	26810.76
766.467	26650.99
766.804	26542.97
767.14	26401.74
767.476	26522.86
767.812	26319.25
768.148	26359.48
768.485	26249.2
768.821	26119.93
769.157	26016.66
769.492	25888.3
769.828	25972.59
770.164	25604.24
770.5	25672.94
770.836	25702.54
771.171	25557.92
771.507	25438.6
771.842	25332.38
772.178	25205.83
772.513	25186.63
772.849	25049.23
773.184	24981.21
773.519	25119.06
773.855	24886.52
774.19	24750.93
774.525	24719.29
774.86	24638.17
775.195	24610.82
775.53	24575.34
775.865	24291.51
776.2	24195.01
776.535	24026.66
776.87	24061.91
777.205	23975.81
777.539	23859.43
777.874	23918.64
778.209	23752.31
778.543	23674.58
778.878	23521.36
779.212	23577.18
779.547	23388.71
779.881	23390.29
780.215	23193.23
780.55	23244.98
780.884	23108.71
781.218	23119.34
781.552	23083.86
781.886	22910.75
782.22	22664.43
782.554	22688.61
782.888	22495.4
783.222	22418.34
783.556	22387.6
783.889	22231.22
784.223	22149.42
784.557	22076.2
784.89	22113.26
785.224	21981.74
785.557	21922.3
785.891	21777.9
786.224	21733.61
786.558	21704.46
786.891	21595.53
787.224	21475.54
787.557	21369.1
787.891	21360.29
788.224	21381.53
788.557	21287.29
788.89	21254.75
789.223	21198.48
789.556	20916.68
789.888	20990.35
790.221	20914.65
790.554	20654.54
790.887	20694.09
791.219	20650.47
791.552	20616.35
791.884	20513.75
792.217	20483.92
792.549	20395.34
792.882	20228.79
793.214	20214.1
793.546	20215.46
793.879	20097.49
794.211	19920.1
794.543	20023.37
794.875	19832.19
795.207	20062.92
795.539	19784.73
795.871	19742.7
796.203	19716.26
796.535	19589.48
796.867	19420.45
797.198	19470.17
797.53	19438.53
797.862	19263.62
798.193	19294.58
798.525	19160.8
798.856	19289.61
799.188	18987.01
799.519	19058.65
799.85	18969.39
800.182	18878.77
800.513	18853.69
800.844	18627.7
801.175	18789.28
801.506	18787.92
801.837	18709.51
802.168	18627.25
802.499	18460.48
802.83	18470.42
803.161	18407.14
803.491	18398.56
803.822	18377.77
804.153	18220.93
804.483	18132.12
804.814	18073.14
805.145	18048.73
805.475	17957.21
805.805	17930.55
806.136	18001.5
806.466	17957.21
806.796	17817.78
807.126	17672.47
807.457	17663.43
807.787	17642.64
808.117	17542.53
808.447	17450.78
808.777	17536.43
809.107	17467.05
809.436	17417.56
809.766	17396.77
810.096	17283.1
810.426	17285.82
810.755	17312.03
811.085	17221.64
811.414	17202.66
811.744	17070
812.073	16918.82
812.403	17067.52
812.732	16890.35
813.061	16933.51
813.39	16758.15
813.719	16793.17
814.049	16868.88
814.378	16692.84
814.707	16662.56
815.036	16705.72
815.365	16589.56
815.693	16521.32
816.022	16503.46
816.351	16409.91
816.68	16284.04
817.008	16338.95
817.337	16258.05
817.665	16282.23
817.994	16246.52
818.322	16249.01
818.651	16094.44
818.979	16126.75
819.307	16145.51
819.636	16088.11
819.964	15969.92
820.292	16029.58
820.62	15963.14
820.948	15976.02
821.276	16047.88
821.604	15885.85
821.932	15934.44
822.259	15910.03
822.587	15882.24
822.915	15848.79
823.243	15910.71
823.57	15924.72
823.898	15910.03
824.225	15857.15
824.553	15869.36
824.88	15892.41
825.207	15891.28
825.535	15731.06
825.862	15883.59
826.189	15830.49
826.516	15853.99
826.843	15919.07
827.17	15961.56
827.497	15853.31
827.824	15979.86
828.151	15881.79
828.478	15855.12
828.805	15890.6
829.131	15777.61
829.458	15749.59
829.785	15736.03
830.111	15704.62
830.438	15755.24
830.764	15774.44
831.09	15818.96
831.417	15711.85
831.743	15730.83
832.069	15789.36
832.395	15716.37
832.722	15782.13
833.048	15663.49
833.374	15823.03
833.7	15744.16
834.026	15660.32
834.351	15646.54
834.677	15590.72
835.003	15635.46
835.329	15639.98
835.654	15538.52
835.98	15520.21
836.306	15537.39
836.631	15420.33
836.956	15471.18
837.282	15423.04
837.607	15505.3
837.932	15401.12
838.258	15413.32
838.583	15429.14
838.908	15227.34
839.233	15343.95
839.558	15276.83
839.883	15258.53
840.208	15130.62
840.533	15202.26
840.858	15212.2
841.182	15195.93
841.507	15145.08
841.832	14976.5
842.156	15026.44
842.481	15074.12
842.805	15018.08
843.13	15009.27
843.454	14958.19
843.778	14869.38
844.103	14823.28
844.427	14762.95
844.751	14806.33
845.075	14697.41
845.399	14679.56
845.723	14603.63
846.047	14675.49
846.371	14530.41
846.695	14506.23
847.019	14406.34
847.343	14244.54
847.666	14253.13
847.99	14172
848.313	14275.95
848.637	14103.75
848.96	13989.41
849.284	14048.84
849.607	13885.23
849.931	13894.72
850.254	13797.09
850.577	13749.41
850.9	13710.32
851.223	13573.6
851.546	13519.14
851.869	13515.29
852.192	13559.14
852.515	13468.74
852.838	13392.36
853.161	13393.26
853.483	13352.36
853.806	13326.82
854.129	13292.93
854.451	13248.63
854.774	13082.09
855.096	13093.16
855.419	13045.25
855.741	12913.73
856.063	12930.22
856.385	12977.46
856.708	12882.54
857.03	12779.49
857.352	12886.38
857.674	12723.9
857.996	12707.86
858.318	12724.81
858.64	12697.24
858.961	12553.96
859.283	12641.87
859.605	12497.02
859.926	12550.57
860.248	12505.83
860.57	12477.58
860.891	12443.01
861.212	12383.35
861.534	12347.42
861.855	12300.86
862.176	12378.83
862.498	12313.74
862.819	12268.32
863.14	12214.54
863.461	12188.1
863.782	12194.88
864.103	12249.34
864.424	12119.17
864.745	12146.52
865.065	12070.81
865.386	12014.77
865.707	12003.24
866.027	12069.46
866.348	12022.45
866.668	11925.96
866.989	11922.57
867.309	11966.63
867.63	11954.43
867.95	11951.72
868.27	11837.82
868.59	11900.2
868.91	11862.91
869.23	11866.75
869.55	11751.72
869.87	11856.81
870.19	11774.32
870.51	11801.22
870.83	11767.09
871.15	11713.99
871.469	11676.25
871.789	11680.09
872.109	11704.95
872.428	11596.47
872.748	11646.64
873.067	11603.71
873.386	11626.3
873.706	11582.92
874.025	11460.89
874.344	11433.54
874.663	11471.28
874.982	11443.94
875.301	11443.26
875.62	11471.73
875.939	11351.28
876.258	11368.68
876.577	11335.01
876.896	11367.1
877.214	11217.05
877.533	11257.73
877.852	11320.55
878.17	11296.6
878.489	11286.2
878.807	11230.61
879.125	11233.55
879.444	11157.84
879.762	11151.74
880.08	11185.19
880.398	11055.92
880.716	11097.05
881.034	11083.04
881.352	11021.35
881.67	11020.67
881.988	11057.96
882.306	11015.93
882.624	11025.19
882.941	10973.21
883.259	10843.5
883.577	10846.89
883.894	10813.22
884.212	10822.48
884.529	10812.31
884.846	10813.67
885.164	10740.9
885.481	10751.75
885.798	10730.06
886.115	10730.73
886.432	10751.75
886.75	10625.43
887.067	10649.61
887.383	10592.89
887.7	10686.22
888.017	10443.96
888.334	10477.63
888.651	10475.15
888.967	10438.77
889.284	10448.48
889.6	10330.97
889.917	10385.89
890.233	10333.46
890.55	10253.01
890.866	10326
891.182	10221.37
891.498	10267.92
891.815	10193.12
892.131	10180.24
892.447	10102.73
892.763	10106.34
893.079	10046.46
893.395	10018.21
893.71	10032.45
894.026	9994.03
894.342	9923.98
894.657	10035.61
894.973	9922.39
895.289	9899.8
895.604	9860.93
895.92	9749.97
896.235	9689.41
896.55	9713.13
896.865	9776.41
897.181	9752.23
897.496	9736.86
897.811	9589.97
898.126	9590.65
898.441	9541.39
898.756	9576.19
899.071	9547.72
899.386	9430.43
899.7	9416.65
900.015	9396.76
900.33	9264.78
900.644	9335.07
900.959	9297.78
901.273	9228.4
901.588	9220.94
901.902	9175.07
902.216	9085.13
902.531	9077.9
902.845	9074.28
903.159	9083.32
903.473	9064.56
903.787	8974.4
904.101	8889.65
904.415	8909.77
904.729	8913.83
905.042	8841.52
905.356	8857.79
905.67	8760.62
905.984	8811.92
906.297	8775.98
906.611	8621.19
906.924	8682.65
907.237	8630.9
907.551	8563.56
907.864	8614.41
908.177	8541.41
908.491	8557.68
908.804	8499.83
909.117	8410.57
909.43	8397.24
909.743	8350.46
910.056	8321.98
910.368	8260.29
910.681	8204.02
910.994	8286.51
911.307	8158.15
911.619	8078.38
911.932	8068.66
912.244	8090.13
912.557	8025.95
912.869	8025.72
913.181	8020.52
913.494	7987.76
913.806	7913.41
914.118	7890.81
914.43	7834.99
914.742	7890.36
915.054	7701.44
915.366	7763.36
915.678	7769.46
915.99	7657.82
916.302	7598.84
916.613	7589.12
916.925	7614.21
917.236	7569.01
917.548	7506.64
917.859	7502.35
918.171	7467.77
918.482	7409.47
918.794	7343.48
919.105	7406.08
919.416	7333.08
919.727	7325.85
920.038	7248.11
920.349	7218.96
920.66	7170.6
920.971	7208.34
921.282	7146.87
921.593	7076.37
921.903	7084.95
922.214	7053.54
922.525	7030.49
922.835	7003.38
923.146	6961.57
923.456	6988.69
923.767	6882.7
924.077	6900.55
924.387	6898.97
924.697	6848.8
925.008	6782.59
925.318	6824.17
925.628	6805.41
925.938	6754.34
926.248	6675.47
926.558	6640.22
926.867	6696.04
927.177	6633.67
927.487	6582.6
927.796	6559.32
928.106	6505.31
928.416	6508.92
928.725	6502.82
929.034	6417.63
929.344	6428.93
929.653	6383.28
929.962	6362.04
930.271	6291.08
930.581	6292.21
930.89	6227.58
931.199	6221.93
931.508	6282.26
931.817	6178.31
932.125	6235.49
932.434	6159.33
932.743	6126.11
933.051	6082.5
933.36	6084.53
933.669	6024.19
933.977	5992.33
934.286	5935.38
934.594	5882.05
934.902	5922.05
935.21	5886.34
935.519	5898.09
935.827	5869.17
936.135	5854.7
936.443	5797.53
936.751	5732.67
937.059	5753.92
937.367	5697.65
937.674	5695.84
937.982	5695.61
938.29	5652.68
938.597	5642.73
938.905	5586.69
939.213	5591.66
939.52	5519.12
939.827	5576.52
940.135	5507.37
940.442	5485.22
940.749	5469.4
941.056	5476.41
941.363	5373.14
941.67	5351.89
941.977	5314.38
942.284	5357.77
942.591	5338.11
942.898	5376.53
943.205	5315.74
943.511	5272.57
943.818	5235.96
944.125	5164.1
944.431	5209.07
944.738	5183.08
945.044	5128.17
945.35	5147.15
945.657	5108.51
945.963	5101.28
946.269	5045.46
946.575	5001.62
946.881	5008.4
947.187	4998.68
947.493	4987.38
947.799	4968.17
948.105	4939.47
948.41	4908.74
948.716	4889.98
949.022	4823.32
949.327	4875.52
949.633	4794.62
949.938	4771.8
950.244	4779.48
950.549	4757.78
950.854	4698.8
951.16	4770.67
951.465	4712.14
951.77	4692.93
952.075	4646.15
952.38	4626.71
952.685	4636.88
952.99	4590.56
953.294	4579.94
953.599	4580.84
953.904	4529.77
954.209	4551.01
954.513	4492.93
954.818	4478.92
955.122	4417
955.426	4388.08
955.731	4360.05
956.035	4414.52
956.339	4367.29
956.643	4348.76
956.948	4320.51
957.252	4330
957.556	4306.5
957.86	4280.28
958.163	4256.55
958.467	4262.43
958.771	4220.17
959.075	4233.05
959.378	4156.22
959.682	4174.75
959.985	4139.72
960.289	4171.13
960.592	4105.82
960.896	4110.12
961.199	4119.84
961.502	4057.92
961.805	4018.59
962.108	3990.8
962.411	4006.17
962.714	3970.23
963.017	3981.31
963.32	3966.84
963.623	3987.18
963.926	3902.89
964.228	3942.66
964.531	3876.45
964.833	3905.6
965.136	3816.11
965.438	3832.16
965.741	3841.2
966.043	3804.59
966.345	3805.27
966.648	3803.46
966.95	3759.39
967.252	3734.76
967.554	3721.65
967.856	3734.31
968.158	3690.69
968.46	3713.07
968.761	3658.83
969.063	3612.73
969.365	3599.85
969.666	3629.23
969.968	3580.41
970.269	3600.07
970.571	3570.7
970.872	3574.31
971.174	3540.64
971.475	3537.03
971.776	3503.58
972.077	3491.83
972.378	3490.7
972.679	3435.56
972.98	3437.37
973.281	3450.93
973.582	3411.83
973.883	3411.83
974.183	3391.49
974.484	3391.72
974.785	3346.97
975.085	3332.74
975.386	3335.9
975.686	3281.44
975.986	3304.49
976.287	3264.72
976.587	3219.07
976.887	3266.52
977.187	3263.81
977.487	3235.79
977.787	3222.68
978.087	3178.84
978.387	3181.55
978.687	3153.76
978.987	3120.54
979.286	3091.61
979.586	3144.49
979.885	3145.17
980.185	3073.99
980.484	3063.14
980.784	3019.75
981.083	3061.33
981.382	3042.35
981.682	3055.23
981.981	3007.55
982.28	2995.12
982.579	2986.31
982.878	2975.46
983.177	2962.13
983.475	2926.87
983.774	2938.17
984.073	2889.81
984.372	2874.9
984.67	2894.33
984.969	2910.6
985.267	2894.1
985.566	2855.46
985.864	2825.63
986.162	2825.41
986.461	2816.82
986.759	2815.69
987.057	2790.38
987.355	2767.55
987.653	2761.9
987.951	2750.61
988.249	2773.88
988.547	2755.13
988.844	2728.23
989.142	2689.36
989.44	2689.59
989.737	2680.1
990.035	2674.45
990.332	2629.25
990.63	2658.4
990.927	2606.88
991.224	2606.43
991.521	2609.14
991.819	2596.26
992.116	2577.95
992.413	2541.8
992.71	2568.92
993.006	2560.55
993.303	2515.58
993.6	2493.21
993.897	2517.84
994.193	2541.8
994.49	2466.32
994.787	2466.77
995.083	2482.59
995.379	2462.03
995.676	2415.7
995.972	2408.92
996.268	2417.28
996.565	2403.5
996.861	2389.26
997.157	2374.12
997.453	2361.69
997.749	2364.4
998.044	2352.42
998.34	2352.65
998.636	2327.11
998.932	2306.32
999.227	2326.89
999.523	2314.23
999.818	2280.11
1000.114	2273.56
1000.409	2264.97
1000.704	2244.86
1001	2223.84
1001.295	2212.31
1001.59	2236.72
1001.885	2181.81
1002.18	2178.87
1002.475	2166.67
1002.77	2170.73
1003.065	2118.76
1003.359	2120.79
1003.654	2128.48
1003.949	2112.2
1004.243	2105.65
1004.538	2084.86
1004.832	2095.71
1005.127	2068.36
1005.421	2045.09
1005.715	2047.35
1006.009	2067.46
1006.304	2042.38
1006.598	2023.85
1006.892	1982.72
1007.186	1994.02
1007.48	1961.93
1007.773	1976.16
1008.067	1942.94
1008.361	1921.25
1008.655	1910.4
1008.948	1913.11
1009.242	1894.36
1009.535	1883.28
1009.829	1888.93
1010.122	1863.17
1010.415	1855.94
1010.708	1837.86
1011.001	1838.77
1011.295	1833.79
1011.588	1809.39
1011.881	1803.29
1012.173	1821.36
1012.466	1796.51
1012.759	1781.59
1013.052	1754.47
1013.344	1761.48
1013.637	1760.8
1013.93	1738.2
1014.222	1742.04
1014.514	1746.79
1014.807	1697.07
1015.099	1677.41
1015.391	1712.44
1015.683	1700.01
1015.976	1644.19
1016.268	1685.55
1016.56	1636.06
1016.851	1620.92
1017.143	1629.28
1017.435	1613.01
1017.727	1612.1
1018.018	1614.82
1018.31	1586.12
1018.602	1577.53
1018.893	1568.49
1019.185	1563.74
1019.476	1562.84
1019.767	1554.93
1020.058	1540.69
1020.35	1518.55
1020.641	1487.81
1020.932	1516.29
1021.223	1489.62
1021.514	1487.81
1021.804	1480.13
1022.095	1460.92
1022.386	1444.2
1022.677	1441.94
1022.967	1404.43
1023.258	1436.97
1023.548	1414.37
1023.839	1408.27
1024.129	1362.85
1024.419	1389.74
1024.709	1344.31
1025	1355.16
1025.29	1383.64
1025.58	1364.2
1025.87	1340.7
1026.16	1368.04
1026.449	1308.38
1026.739	1280.81
1027.029	1317.2
1027.319	1305.67
1027.608	1299.8
1027.898	1286.69
1028.187	1300.25
1028.477	1291.89
1028.766	1275.16
1029.055	1234.04
1029.344	1220.7
1029.634	1212.12
1029.923	1228.84
1030.212	1210.53
1030.501	1211.66
1030.79	1195.62
1031.078	1182.51
1031.367	1158.33
1031.656	1168.5
1031.945	1171.44
1032.233	1152.46
1032.522	1148.16
1032.81	1125.56
1033.099	1121.95
1033.387	1133.7
1033.675	1126.24
1033.963	1106.81
1034.251	1097.99
1034.54	1095.06
1034.828	1061.84
1035.116	1064.1
1035.403	1062.74
1035.691	1070.42
1035.979	1066.81
1036.267	1062.29
1036.554	1051.44
1036.842	1062.51
1037.129	1042.4
1037.417	1039.46
1037.704	1015.51
1037.992	1024.55
1038.279	995.4
1038.566	1004.66
1038.853	1004.66
1039.14	1004.66
