Data from hue_60_FLMS001491_51.txt Node
Date: Mon Feb 06 15:17:35 GMT 2017
User: dcchb
Spectrometer: FLMS00149
Trigger mode: 0
Integration Time (sec): 2.000000E-2
Scans to average: 10
Electric dark correction enabled: true
Nonlinearity correction enabled: false
Boxcar width: 0
XAxis mode: Wavelengths
Number of Pixels in Spectrum: 2048
>>>>>Begin Spectral Data<<<<<
341.393	-12.27
341.776	-12.27
342.16	-12.27
342.543	-79.39
342.927	-48.2
343.31	-81.65
343.693	-63.8
344.077	-73.29
344.46	-76.9
344.843	-43.91
345.226	-39.84
345.61	-19.51
345.993	-23.57
346.376	-15.21
346.759	15.97
347.142	27.5
347.525	54.84
347.908	61.17
348.291	73.83
348.674	104.11
349.057	100.27
349.44	121.73
349.823	144.11
350.206	164.67
350.588	190.66
350.971	213.94
351.354	209.42
351.737	233.82
352.119	245.57
352.502	279.47
352.884	285.8
353.267	272.92
353.65	292.8
354.032	311.79
354.414	322.63
354.797	305.68
355.179	327.83
355.562	334.84
355.944	340.71
356.326	338
356.709	325.12
357.091	343.42
357.473	328.28
357.855	323.08
358.238	311.11
358.62	321.5
359.002	340.03
359.384	352.24
359.766	343.88
360.148	361.28
360.53	315.85
360.912	354.72
361.294	325.34
361.676	341.84
362.057	329.19
362.439	326.47
362.821	338
363.203	310.2
363.584	304.78
363.966	311.33
364.348	335.97
364.729	335.06
365.111	303.88
365.493	320.82
365.874	331.45
366.256	340.49
366.637	312.01
367.019	300.03
367.4	322.41
367.781	324.89
368.163	328.28
368.544	316.31
368.925	313.82
369.306	313.59
369.688	317.89
370.069	326.47
370.45	326.47
370.831	326.93
371.212	311.11
371.593	298.23
371.974	314.05
372.355	331.22
372.736	311.33
373.117	322.18
373.498	298.45
373.879	314.27
374.26	306.36
374.641	306.36
375.021	314.72
375.402	346.36
375.783	312.24
376.163	347.26
376.544	318.34
376.925	335.06
377.305	332.8
377.686	333.71
378.066	330.09
378.447	344.33
378.827	321.95
379.208	325.8
379.588	328.06
379.968	342.75
380.349	330.99
380.729	332.35
381.109	328.51
381.489	344.78
381.87	323.31
382.25	322.86
382.63	317.66
383.01	347.72
383.39	352.46
383.77	346.36
384.15	360.6
384.53	339.36
384.91	323.54
385.29	341.39
385.67	344.33
386.049	358.34
386.429	339.36
386.809	333.25
387.189	341.16
387.568	328.73
387.948	359.69
388.328	347.04
388.707	363.99
389.087	340.49
389.466	362.63
389.846	373.03
390.225	352.01
390.605	357.21
390.984	366.93
391.363	339.81
391.743	369.86
392.122	368.51
392.501	371.67
392.881	351.11
393.26	364.44
393.639	364.89
394.018	367.83
394.397	351.11
394.776	356.3
395.155	392.91
395.534	370.99
395.913	368.06
396.292	376.19
396.671	366.93
397.05	385.46
397.429	367.6
397.808	378.45
398.186	376.42
398.565	383.87
398.944	380.03
399.323	369.86
399.701	403.08
400.08	370.99
400.458	382.97
400.837	401.05
401.215	390.2
401.594	385
401.972	390.43
402.351	394.95
402.729	385.23
403.107	400.82
403.486	384.33
403.864	394.5
404.242	364.67
404.62	401.27
404.999	404.44
405.377	390.2
405.755	394.04
406.133	416.42
406.511	412.57
406.889	421.16
407.267	433.59
407.645	416.42
408.023	405.12
408.401	431.56
408.779	412.12
409.156	416.42
409.534	436.3
409.912	458
410.29	436.3
410.667	445.34
411.045	441.73
411.422	431.1
411.8	429.52
412.178	445.79
412.555	440.14
412.933	463.87
413.31	455.51
413.687	457.09
414.065	464.55
414.442	472.01
414.819	448.05
415.197	456.87
415.574	489.86
415.951	466.13
416.328	474.72
416.705	494.61
417.082	446.7
417.46	502.52
417.837	480.14
418.214	472.46
418.591	495.74
418.967	482.18
419.344	489.41
419.721	491.89
420.098	474.95
420.475	499.8
420.852	488.05
421.228	520.59
421.605	514.94
421.982	517.2
422.358	505
422.735	521.27
423.111	507.03
423.488	530.99
423.864	528.05
424.241	521.05
424.617	532.57
424.994	524.44
425.37	521.05
425.746	538.9
426.123	513.36
426.499	551.33
426.875	560.82
427.251	556.98
427.627	547.49
428.003	558.33
428.379	589.29
428.756	551.33
429.132	568.73
429.507	577.99
429.883	574.15
430.259	580.48
430.635	598.11
431.011	580.71
431.387	577.77
431.763	603.98
432.138	610.99
432.514	612.34
432.89	605.34
433.265	597.88
433.641	616.86
434.016	611.89
434.392	624.32
434.767	623.64
435.143	648.27
435.518	641.49
435.894	622.06
436.269	680.36
436.644	632.46
437.02	659.57
437.395	658.9
437.77	679.69
438.145	661.38
438.52	685.11
438.895	677.65
439.271	680.82
439.646	702.28
440.021	707.71
440.395	696.86
440.77	696.18
441.145	718.1
441.52	723.07
441.895	708.16
442.27	699.35
442.645	710.65
443.019	716.75
443.394	737.76
443.769	709.52
444.143	743.19
444.518	708.61
444.892	747.48
445.267	759.23
445.641	752.23
446.016	735.5
446.39	760.59
446.764	765.56
447.139	766.24
447.513	763.75
447.887	769.63
448.262	762.17
448.636	770.3
449.01	790.19
449.384	810.3
449.758	771.89
450.132	792.9
450.506	806.46
450.88	835.84
451.254	801.72
451.628	823.86
452.002	800.59
452.376	829.06
452.75	847.14
453.123	817.08
453.497	852.56
453.871	866.12
454.244	864.77
454.618	854.6
454.992	882.84
455.365	889.4
455.739	916.52
456.112	911.54
456.486	931.43
456.859	919
457.232	946.12
457.606	914.48
457.979	930.75
458.352	957.19
458.725	951.09
459.099	969.17
459.472	997.19
459.845	1013.01
460.218	996.97
460.591	1005.33
460.964	1005.33
461.337	1025.67
461.71	1029.05
462.083	1067.47
462.456	1076.74
462.829	1070.41
463.201	1127.58
463.574	1105.21
463.947	1130.75
464.32	1146.34
464.692	1164.19
465.065	1144.53
465.438	1172.1
465.81	1191.99
466.183	1217.52
466.555	1241.7
466.928	1242.83
467.3	1256.85
467.672	1290.97
468.045	1270.86
468.417	1314.02
468.789	1323.28
469.161	1363.96
469.534	1365.54
469.906	1409.38
470.278	1429.72
470.65	1417.75
471.022	1484.86
471.394	1506.78
471.766	1551.53
472.138	1539.1
472.51	1597.4
472.882	1643.05
473.253	1655.71
473.625	1698.42
473.997	1729.38
474.369	1765.98
474.74	1783.84
475.112	1820.67
475.484	1866.55
475.855	1936.6
476.227	1970.05
476.598	2027.67
476.97	2043.94
477.341	2135.92
477.713	2197.84
478.084	2241
478.455	2341.34
478.827	2356.25
479.198	2424.27
479.569	2491.39
479.94	2567.55
480.311	2622.69
480.682	2726.41
481.053	2814.09
481.424	2867.2
481.795	2977.7
482.166	3042.56
482.537	3122.56
482.908	3250.47
483.279	3321.42
483.65	3416.11
484.021	3534.75
484.391	3572.04
484.762	3715.76
485.133	3781.75
485.503	3909.43
485.874	4057
486.244	4087.05
486.615	4263.09
486.985	4368.4
487.356	4535.18
487.726	4641.16
488.097	4830.31
488.467	4862.17
488.837	5002.74
489.207	5167.48
489.578	5291.54
489.948	5393.69
490.318	5538.54
490.688	5684.3
491.058	5830.06
491.428	5969.94
491.798	6131.97
492.168	6286.77
492.538	6428.91
492.908	6609.02
493.278	6802.69
493.648	6850.14
494.017	7049.24
494.387	7152.96
494.757	7278.16
495.126	7480.41
495.496	7671.37
495.866	7781.65
496.235	7982.09
496.605	8043.33
496.974	8241.07
497.344	8402.87
497.713	8498.24
498.082	8632.92
498.452	8829.53
498.821	8943.42
499.19	9120.82
499.559	9295.28
499.928	9384.77
500.298	9562.39
500.667	9761.71
501.036	9812.33
501.405	9982.27
501.774	10073.34
502.143	10196.27
502.512	10372.99
502.88	10559.65
503.249	10583.61
503.618	10756.26
503.987	10883.26
504.356	11005.29
504.724	11164.38
505.093	11305.17
505.462	11409.8
505.83	11632.39
506.199	11691.37
506.567	11921.88
506.936	11980.63
507.304	12228.53
507.672	12236.22
508.041	12385.82
508.409	12574.51
508.777	12626.04
509.145	12818.58
509.514	12864.68
509.882	13179.47
510.25	13187.15
510.618	13353.02
510.986	13437.77
511.354	13693.13
511.722	13712.11
512.09	13890.64
512.458	14006.34
512.826	14109.84
513.193	14261.93
513.561	14319.1
513.929	14530.39
514.297	14667.34
514.664	14772.87
515.032	14858.07
515.4	15108.91
515.767	15138.29
516.135	15378.28
516.502	15289.7
516.869	15585.28
517.237	15671.61
517.604	15656.92
517.972	15826.18
518.339	15971.71
518.706	16057.13
519.073	16161.99
519.44	16393.4
519.808	16519.95
520.175	16517.91
520.542	16865.93
520.909	16975.75
521.276	16985.02
521.643	17167.39
522.009	17320.38
522.376	17387.95
522.743	17546.13
523.11	17726.92
523.477	17980.02
523.843	18036.29
524.21	18315.83
524.577	18464.08
524.943	18523.28
525.31	18661.59
525.676	18851.64
526.043	18961.24
526.409	19005.98
526.776	19190.16
527.142	19301.57
527.508	19526.65
527.874	19679.41
528.241	19844.61
528.607	19865.85
528.973	20124.37
529.339	20143.81
529.705	20362.33
530.071	20423.57
530.437	20467.41
530.803	20710.35
531.169	20902.66
531.535	20714.86
531.901	20886.84
532.267	20981.07
532.632	21086.38
532.998	21235.76
533.364	21307.84
533.73	21446.82
534.095	21602.53
534.461	21652.69
534.826	21796.42
535.192	21831.67
535.557	22124.55
535.923	22054.26
536.288	22120.25
536.653	22269.4
537.019	22241.38
537.384	22382.62
537.749	22484.54
538.114	22489.28
538.479	22553.01
538.845	22795.71
539.21	22726.56
539.575	22823.06
539.94	22929.27
540.305	23015.14
540.67	22972.43
541.034	23086.78
541.399	23236.83
541.764	23336.49
542.129	23402.03
542.494	23445.19
542.858	23555.24
543.223	23609.25
543.587	23715.01
543.952	23715.24
544.316	23734.67
544.681	23827.78
545.045	23895.35
545.41	24018.51
545.774	24101.44
546.138	24164.49
546.503	24233.87
546.867	24209.69
547.231	24618.04
547.595	24521.54
547.959	24554.54
548.324	24634.99
548.688	24642.67
549.052	24783.68
549.416	24880.41
549.779	24896.68
550.143	24878.15
550.507	25129.21
550.871	25174.41
551.235	25194.52
551.599	25402.65
551.962	25463.21
552.326	25437.23
552.689	25738.24
553.053	25687.62
553.417	25750.66
553.78	26089.41
554.143	25949.76
554.507	26143.65
554.87	26100.26
555.234	26421.61
555.597	26348.84
555.96	26416.86
556.323	26615.5
556.686	26576.86
557.05	26873.8
557.413	26894.59
557.776	27007.13
558.139	27089.84
558.502	27263.17
558.865	27257.29
559.228	27518.75
559.59	27588.81
559.953	27541.8
560.316	27853.66
560.679	27910.38
561.041	28026.54
561.404	28147.21
561.767	28372.97
562.129	28375.68
562.492	28629.01
562.854	28520.76
563.217	28587.2
563.579	28727.31
563.941	28917.81
564.304	29106.06
564.666	29302.89
565.028	29290.91
565.39	29458.82
565.753	29501.53
566.115	29642.99
566.477	29731.35
566.839	29920.72
567.201	30085.92
567.563	30054.96
567.925	30326.14
568.287	30284.78
568.648	30326.59
569.01	30591.44
569.372	30753.7
569.734	30705.34
570.095	30855.39
570.457	31047.25
570.819	31093.35
571.18	31236.62
571.542	31323.17
571.903	31381.48
572.265	31506.45
572.626	31500.34
572.987	31675.25
573.349	31826.21
573.71	31811.3
574.071	31916.83
574.432	32142.36
574.794	32232.53
575.155	32193.43
575.516	32199.76
575.877	32129.71
576.238	32474.1
576.599	32553.2
576.96	32563.59
577.32	32580.09
577.681	32657.6
578.042	32734.89
578.403	32800.65
578.763	32866.64
579.124	32920.42
579.485	33003.13
579.845	33166.29
580.206	33150.24
580.566	32931.04
580.927	33025.05
581.287	33368.32
581.648	33147.53
582.008	33280.64
582.368	33206.06
582.728	33411.03
583.089	33386.62
583.449	33402.44
583.809	33418.03
584.169	33436.34
584.529	33317.02
584.889	33713.85
585.249	33448.77
585.609	33416.9
585.969	33572.38
586.329	33495.55
586.688	33652.6
587.048	33466.39
587.408	33387.07
587.768	33602.66
588.127	33567.18
588.487	33612.38
588.846	33728.99
589.206	33699.61
589.565	33828.64
589.925	33888.53
590.284	33633.4
590.643	33667.29
591.003	33707.74
591.362	33917
591.721	33871.36
592.08	33871.13
592.44	33938.47
592.799	33975.31
593.158	34000.62
593.517	33849.43
593.876	34001.75
594.235	33945.03
594.593	33966.72
594.952	34142.99
595.311	34041.52
595.67	34042.2
596.029	34233.61
596.387	34230.22
596.746	34406.93
597.104	34164.91
597.463	34241.97
597.822	34438.35
598.18	34216.2
598.538	34340.27
598.897	34399.02
599.255	34103.21
599.613	34851.67
599.972	34479.25
600.33	34610.32
600.688	34412.13
601.046	34668.17
601.404	34718.56
601.762	34729.64
602.12	34961.27
602.478	34932.12
602.836	34925.79
603.194	34635.63
603.552	34946.36
603.91	34636.08
604.268	34845.34
604.625	34826.13
604.983	35088.72
605.341	34906.58
605.698	35087.14
606.056	35190.64
606.413	35157.2
606.771	35340.47
607.128	35276.74
607.485	35170.3
607.843	35245.33
608.2	35640.57
608.557	35552.21
608.914	35550.63
609.272	35625.89
609.629	35748.37
609.986	35772.77
610.343	35882.15
610.7	35894.13
611.057	35888.03
611.414	36048.47
611.771	36104.74
612.127	36130.96
612.484	36145.87
612.841	36378.41
613.198	36218.86
613.554	36192.65
613.911	36441.68
614.267	36490.95
614.624	36388.35
614.98	36486.43
615.337	36676.48
615.693	36573.21
616.05	36650.27
616.406	36801.67
616.762	36744.95
617.118	36740.43
617.475	36740.21
617.831	36935.23
618.187	36929.58
618.543	37116.02
618.899	37132.96
619.255	37082.34
619.611	37115.34
619.967	37169.8
620.323	37304.94
620.678	37101.55
621.034	37205.96
621.39	37169.8
621.746	37190.36
622.101	37679.84
622.457	37161.89
622.812	37384.71
623.168	37524.59
623.523	37563.69
623.879	37484.37
624.234	37432.62
624.589	37661.31
624.945	37416.57
625.3	37470.13
625.655	37505.84
626.01	37689.56
626.365	37704.02
626.72	37643.46
627.075	37667.19
627.43	37676.45
627.785	37651.59
628.14	37580.64
628.495	37741.99
628.85	37747.19
629.205	37579.05
629.559	37898.37
629.914	37693.18
630.269	37766.85
630.623	37667.64
630.978	37593.29
631.332	37771.59
631.687	37836.45
632.041	37515.55
632.396	37613.4
632.75	37466.06
633.104	37748.54
633.459	37529.79
633.813	37519.85
634.167	37448.66
634.521	37499.73
634.875	37576.57
635.229	37437.59
635.583	37206.63
635.937	37327.08
636.291	37317.82
636.645	37290.02
636.999	37244.37
637.352	37261.77
637.706	37160.76
638.06	37401.21
638.413	37141.78
638.767	37148.78
639.121	37150.36
639.474	37015.23
639.828	37014.1
640.181	37056.58
640.534	37074.43
640.888	36963.7
641.241	36793.99
641.594	36885.74
641.947	37047.32
642.301	36777.49
642.654	36812.75
643.007	36911.28
643.36	36887.32
643.713	36873.08
644.066	36939.52
644.419	36783.82
644.771	36524.17
645.124	36089.83
645.477	36092.99
645.83	35802.83
646.182	35643.06
646.535	35708.14
646.888	35869.27
647.24	35513.57
647.593	35758.99
647.945	35736.16
648.298	35475.15
648.65	35318.1
649.002	35382.95
649.355	35455.95
649.707	35416.4
650.059	35619.56
650.411	35879.89
650.763	36009.38
651.115	36483.04
651.467	36204.4
651.819	36330.05
652.171	36144.52
652.523	36162.59
652.875	36129.15
653.227	36021.36
653.578	36328.92
653.93	36108.58
654.282	35971.19
654.633	35990.85
654.985	36008.25
655.337	36099.09
655.688	36050.73
656.039	35992.2
656.391	35770.51
656.742	35779.55
657.094	35977.06
657.445	36015.03
657.796	35818.87
658.147	35782.04
658.498	35863.85
658.849	35883.05
659.2	35861.13
659.551	35704.53
659.902	35949.72
660.253	35739.78
660.604	35796.28
660.955	35643.06
661.306	35885.09
661.656	35744.75
662.007	35668.14
662.358	35668.6
662.708	35571.42
663.059	35602.61
663.409	35487.13
663.76	35760.57
664.11	35774.36
664.461	35727.8
664.811	35718.09
665.161	35595.38
665.511	35564.64
665.862	35714.02
666.212	35679.67
666.562	35686.22
666.912	35678.09
667.262	35600.12
667.612	35677.41
667.962	35533.68
668.312	35581.82
668.662	35661.59
669.011	35586.11
669.361	35490.07
669.711	35450.07
670.06	35468.83
670.41	35290.53
670.76	35372.11
671.109	35543.18
671.459	35391.77
671.808	35382.05
672.157	35498.88
672.507	35315.61
672.856	35355.38
673.205	35157.42
673.554	35494.14
673.904	35273.8
674.253	35669.95
674.602	35319.9
674.951	34800.37
675.3	34562.41
675.649	35257.53
675.998	35220.02
676.346	35172.79
676.695	35361.26
677.044	34967.6
677.393	35075.17
677.741	35247.59
678.09	35056.86
678.438	34829.52
678.787	35149.51
679.135	35138.89
679.484	34747.49
679.832	34889.41
680.181	34647.83
680.529	34816.19
680.877	34699.81
681.225	34657.1
681.573	35013.47
681.922	34633.14
682.27	34654.16
682.618	34534.84
682.966	34442.19
683.314	34454.62
683.661	34418.69
684.009	34213.95
684.357	34214.85
684.705	34239.71
685.053	34224.11
685.4	34196.77
685.748	33995.19
686.095	33969.43
686.443	33842.2
686.79	33800.4
687.138	33940.05
687.485	33884.01
687.832	33795.88
688.18	33820.51
688.527	33648.08
688.874	33596.11
689.221	33473.17
689.568	33382.78
689.915	33318.15
690.262	33292.61
690.609	33155.89
690.956	33145.05
691.303	33093.3
691.65	32961.32
691.997	32909.12
692.344	32766.98
692.69	32703.93
693.037	32705.96
693.383	32595.68
693.73	32645.62
694.077	32410.15
694.423	32389.59
694.769	32356.14
695.116	32233.88
695.462	32256.71
695.808	32114.57
696.155	32151.4
696.501	31881.13
696.847	31880.9
697.193	31601.36
697.539	31741.02
697.885	31625.99
698.231	31465.32
698.577	31601.36
698.923	31455.37
699.269	31238.2
699.614	31235.72
699.96	31019.68
700.306	31124.31
700.651	31014.93
700.997	30881.83
701.342	30834.82
701.688	30820.59
702.033	30707.37
702.379	30581.95
702.724	30550.09
703.069	30658.56
703.415	30298.12
703.76	30374.05
704.105	30311.9
704.45	30278.91
704.795	30005.92
705.14	30065.58
705.485	29936.77
705.83	29894.74
706.175	29836.43
706.52	29727.74
706.865	29834.85
707.209	29650.22
707.554	29525.03
707.899	29637.12
708.243	29398.7
708.588	29450
708.932	29165.04
709.277	29169.78
709.621	29161.65
709.966	29002.78
710.31	29101.76
710.654	28816.8
710.998	28904.93
711.342	28803.01
711.687	28773.86
712.031	28609.12
712.375	28615.45
712.719	28560.08
713.063	28510.82
713.407	28632.4
713.75	28520.31
714.094	28486.19
714.438	28323.93
714.782	28363.03
715.125	28180.66
715.469	28247.1
715.812	28100.66
716.156	27936.37
716.499	27942.02
716.843	28067.21
717.186	27765.53
717.53	27939.08
717.873	28047.33
718.216	27847.78
718.559	27700.22
718.902	27543.16
719.246	27528.7
719.589	27495.93
719.932	27397.18
720.275	27469.04
720.617	27399.21
720.96	27327.8
721.303	27386.78
721.646	27302.94
721.989	27192.21
722.331	27292.32
722.674	27116.96
723.016	27148.59
723.359	26955.38
723.701	26936.4
724.044	26907.24
724.386	26692.11
724.729	27016.17
725.071	26806.68
725.413	26824.53
725.755	26787.02
726.097	26606.91
726.439	26454.15
726.782	26552.45
727.124	26664.99
727.465	26559.23
727.807	26628.38
728.149	26466.13
728.491	26374.15
728.833	26431.78
729.175	26202.18
729.516	26197.66
729.858	26139.36
730.199	26262.06
730.541	26107.04
730.882	26182.07
731.224	26150.43
731.565	26028.62
731.906	26052.35
732.248	26090.32
732.589	25824.11
732.93	25865.01
733.271	25840.61
733.612	25914.28
733.953	25851.68
734.294	25740.72
734.635	25735.98
734.976	25764.9
735.317	25582.53
735.658	25533.27
735.999	25614.85
736.339	25471.8
736.68	25575.3
737.021	25490.11
737.361	25311.35
737.702	25519.94
738.042	25387.06
738.383	25313.39
738.723	25382.76
739.063	25192.71
739.404	25279.72
739.744	25160.85
740.084	25063.9
740.424	25145.71
740.764	25011.93
741.104	25012.38
741.444	24878.15
741.784	24872.95
742.124	24950.46
742.464	24873.4
742.804	24811.48
743.143	24796.34
743.483	24745.49
743.823	24688.09
744.162	24707.53
744.502	24754.53
744.841	24544.37
745.181	24646.74
745.52	24527.19
745.86	24516.12
746.199	24576.68
746.538	24504.6
746.877	24488.55
747.216	24452.17
747.556	24392.06
747.895	24357.93
748.234	24313.19
748.573	24193.19
748.911	24184.6
749.25	24288.33
749.589	24081.1
749.928	24114.78
750.267	24153.42
750.605	23925.18
750.944	23982.58
751.283	23822.58
751.621	23949.36
751.96	23739.87
752.298	23841.11
752.636	23736.93
752.975	23755.24
753.313	23526.32
753.651	23671.17
753.989	23518.41
754.327	23446.54
754.666	23379.43
755.004	23361.58
755.342	23467.33
755.679	23337.85
756.017	23329.49
756.355	23303.05
756.693	23159.09
757.031	23164.52
757.368	23035.03
757.706	22898.54
758.044	22910.06
758.381	22915.26
758.719	22810.63
759.056	22833.91
759.394	22801.59
759.731	22680.46
760.068	22516.4
760.405	22543.52
760.743	22456.97
761.08	22503.07
761.417	22379.45
761.754	22409.06
762.091	22231.89
762.428	22103.3
762.765	22077.99
763.102	22096.52
763.438	21986.7
763.775	21876.64
764.112	21936.75
764.449	21851.11
764.785	21765.23
765.122	21679.13
765.458	21511.23
765.795	21589.87
766.131	21497.9
766.467	21391.23
766.804	21373.6
767.14	21235.08
767.476	21194.63
767.812	21191.69
768.148	21064.01
768.485	20929.32
768.821	20828.76
769.157	20866.73
769.492	20805.71
769.828	20732.49
770.164	20504.47
770.5	20484.14
770.836	20487.07
771.171	20387.42
771.507	20324.59
771.842	20174.77
772.178	20278.94
772.513	20143.58
772.849	20107.42
773.184	19990.82
773.519	19933.42
773.855	19888.9
774.19	19807.09
774.525	19730.26
774.86	19813.65
775.195	19625.4
775.53	19636.7
775.865	19517.61
776.2	19419.08
776.535	19287.78
776.87	19273.32
777.205	19205.3
777.539	19079.88
777.874	19133.21
778.209	18951.3
778.543	18874.46
778.878	18771.87
779.212	18816.61
779.547	18663.39
779.881	18686.67
780.215	18620
780.55	18698.87
780.884	18483.06
781.218	18481.93
781.552	18425.43
781.886	18351.76
782.22	18197.64
782.554	18142.73
782.888	17985.9
783.222	18011.21
783.556	17897.09
783.889	17869.74
784.223	17761.04
784.557	17651.44
784.89	17634.27
785.224	17621.61
785.557	17467.49
785.891	17499.81
786.224	17491.22
786.558	17410.09
786.891	17243.32
787.224	17187.5
787.557	17122.19
787.891	17142.76
788.224	17044.68
788.557	16989.09
788.89	16921.97
789.223	16956.55
789.556	16809.43
789.888	16816.89
790.221	16741.86
790.554	16563.34
790.887	16543.9
791.219	16474.52
791.552	16505.03
791.884	16416.9
792.217	16400.4
792.549	16234.76
792.882	16177.58
793.214	16104.14
793.546	16208.54
793.879	15988.66
794.211	15973.52
794.543	15973.29
794.875	15888.78
795.207	15941.88
795.539	15797.93
795.871	15780.53
796.203	15647.2
796.535	15555.23
796.867	15708.22
797.198	15432.07
797.53	15437.72
797.862	15492.18
798.193	15430.03
798.525	15354.33
798.856	15378.06
799.188	15217.16
799.519	15076.6
799.85	15077.5
800.182	15101.68
800.513	15032.08
800.844	15024.17
801.175	14989.37
801.506	14975.35
801.837	14890.16
802.168	14903.49
802.499	14820.33
802.83	14718.19
803.161	14720.22
803.491	14697.85
803.822	14642.71
804.153	14603.39
804.483	14455.59
804.814	14349.83
805.145	14381.47
805.475	14436.39
805.805	14373.56
806.136	14356.84
806.466	14267.12
806.796	14270.51
807.126	14236.84
807.457	14128.15
807.787	14152.1
808.117	14070.52
808.447	13958.66
808.777	13997.98
809.107	13939.68
809.436	13913.24
809.766	13868.49
810.096	13867.36
810.426	13754.82
810.755	13841.37
811.085	13820.13
811.414	13682.06
811.744	13660.14
812.073	13626.69
812.403	13543.53
812.732	13530.2
813.061	13612.9
813.39	13475.96
813.719	13456.52
814.049	13474.38
814.378	13349.86
814.707	13301.5
815.036	13288.17
815.365	13190.09
815.693	13154.84
816.022	13092.47
816.351	13026.71
816.68	12973.83
817.008	13087.72
817.337	12983.09
817.665	12986.03
817.994	13014.28
818.322	12988.29
818.651	12783.77
818.979	12912.13
819.307	12876.43
819.636	12799.82
819.964	12735.19
820.292	12851.34
820.62	12842.76
820.948	12751.68
821.276	12758.69
821.604	12771.57
821.932	12792.36
822.259	12729.99
822.587	12715.75
822.915	12670.56
823.243	12619.71
823.57	12654.74
823.898	12663.78
824.225	12618.58
824.553	12633.95
824.88	12660.39
825.207	12683.21
825.535	12600.05
825.862	12677.79
826.189	12599.37
826.516	12704.91
826.843	12705.36
827.17	12713.95
827.497	12714.4
827.824	12604.34
828.151	12684.57
828.478	12649.09
828.805	12680.05
829.131	12591.24
829.458	12584.68
829.785	12563.89
830.111	12560.73
830.438	12653.61
830.764	12642.31
831.09	12599.37
831.417	12554.4
831.743	12614.74
832.069	12577.9
832.395	12457.91
832.722	12562.31
833.048	12472.14
833.374	12591.01
833.7	12432.6
834.026	12578.13
834.351	12473.5
834.677	12450.68
835.003	12445.48
835.329	12414.97
835.654	12401.19
835.98	12414.74
836.306	12423.33
836.631	12365.48
836.956	12418.13
837.282	12384.91
837.607	12309.44
837.932	12214.52
838.258	12251.13
838.583	12244.81
838.908	12261.75
839.233	12229.89
839.558	12105.6
839.883	12076.45
840.208	12039.84
840.533	12161.64
840.858	11987.41
841.182	12143.56
841.507	12047.52
841.832	12028.54
842.156	11935.66
842.481	11974.53
842.805	11931.14
843.13	11981.99
843.454	11902.22
843.778	11891.14
844.103	11822.67
844.427	11793.52
844.751	11824.7
845.075	11806.85
845.399	11741.54
845.723	11654.76
846.047	11768.43
846.371	11610.47
846.695	11655.22
847.019	11449.57
847.343	11485.96
847.666	11363.25
847.99	11373.19
848.313	11310.59
848.637	11250.93
848.96	11271.95
849.284	11215.45
849.607	11100.88
849.931	11121.67
850.254	11008.68
850.577	10935.24
850.9	10911.96
851.223	10903.82
851.546	10870.83
851.869	10754.9
852.192	10810.49
852.515	10677.16
852.838	10678.52
853.161	10701.12
853.483	10661.8
853.806	10586.32
854.129	10517.39
854.451	10544.51
854.774	10454.8
855.096	10524.85
855.419	10395.59
855.741	10389.03
856.063	10302.94
856.385	10317.17
856.708	10301.58
857.03	10232.2
857.352	10254.8
857.674	10223.16
857.996	10127.57
858.318	10104.52
858.64	10172.09
858.961	10116.95
859.283	10025.65
859.605	10002.6
859.926	9970.74
860.248	9965.77
860.57	9940.01
860.891	10010.97
861.212	9914.47
861.534	9843.06
861.855	9844.64
862.176	9861.14
862.498	9792.44
862.819	9839.9
863.14	9714.93
863.461	9787.92
863.782	9730.97
864.103	9734.14
864.424	9677.87
864.745	9668.6
865.065	9754.02
865.386	9623.86
865.707	9627.25
866.027	9607.59
866.348	9659.11
866.668	9612.33
866.989	9566.91
867.309	9493.24
867.63	9493.24
867.95	9593.8
868.27	9468.38
868.59	9534.37
868.91	9499.79
869.23	9477.65
869.55	9412.11
869.87	9436.74
870.19	9340.93
870.51	9417.08
870.83	9384.09
871.15	9282.62
871.469	9334.15
871.789	9418.89
872.109	9345.67
872.428	9279.01
872.748	9314.71
873.067	9337.09
873.386	9300.48
873.706	9244.88
874.025	9233.13
874.344	9134.6
874.663	9194.94
874.982	9139.35
875.301	9213.25
875.62	9130.54
875.939	9134.15
876.258	9115.4
876.577	8960.37
876.896	9093.25
877.214	8983.87
877.533	9047.83
877.852	9059.35
878.17	8988.62
878.489	9062.52
878.807	9022.97
879.125	9001.5
879.444	8965.12
879.762	8863.2
880.08	8993.59
880.398	8818.91
880.716	8943.65
881.034	8878.34
881.352	8850.32
881.67	8853.71
881.988	8862.3
882.306	8787.95
882.624	8773.71
882.941	8724.45
883.259	8727.61
883.577	8706.82
883.894	8700.49
884.212	8671.34
884.529	8641.74
884.846	8590.44
885.164	8615.97
885.481	8671.57
885.798	8588.4
886.115	8527.84
886.432	8527.39
886.75	8518.35
887.067	8535.98
887.383	8469.99
887.7	8513.15
888.017	8368.07
888.334	8436.54
888.651	8401.52
888.967	8360.16
889.284	8404.68
889.6	8361.29
889.917	8269.09
890.233	8307.28
890.55	8194.06
890.866	8284.01
891.182	8180.73
891.498	8198.13
891.815	8104.8
892.131	8116.55
892.447	8095.99
892.763	8072.26
893.079	8043.11
893.395	8035.88
893.71	7978.02
894.026	8034.52
894.342	7978.93
894.657	7926.73
894.973	7892.38
895.289	7910.68
895.604	7910.68
895.92	7839.05
896.235	7800.18
896.55	7821.64
896.865	7795.66
897.181	7808.76
897.496	7730.35
897.811	7687.41
898.126	7651.71
898.441	7606.51
898.756	7606.28
899.071	7587.53
899.386	7563.12
899.7	7499.85
900.015	7442.22
900.33	7444.71
900.644	7421.43
900.959	7448.32
901.273	7423.46
901.588	7345.5
901.902	7330.13
902.216	7298.27
902.531	7317.93
902.845	7267.99
903.159	7221.21
903.473	7196.12
903.787	7144.15
904.101	7122.45
904.415	7086.3
904.729	7088.78
905.042	7044.94
905.356	7068.67
905.67	7046.3
905.984	6993.19
906.297	6952.51
906.611	6989.35
906.924	6928.79
907.237	6905.06
907.551	6855.57
907.864	6905.28
908.177	6869.35
908.491	6846.3
908.804	6723.59
909.117	6739.64
909.43	6720.2
909.743	6699.64
910.056	6663.03
910.368	6651.28
910.681	6627.1
910.994	6591.62
911.307	6564.28
911.619	6514.79
911.932	6525.18
912.244	6468.46
912.557	6435.47
912.869	6423.49
913.181	6394.34
913.494	6375.35
913.806	6336.71
914.118	6365.41
914.43	6250.61
914.742	6246.54
915.054	6220.33
915.366	6199.31
915.678	6220.33
915.99	6144.85
916.302	6104.63
916.613	6110.5
916.925	6090.39
917.236	6101.69
917.548	6069.6
917.859	6027.79
918.171	5976.04
918.482	5981.47
918.794	5945.99
919.105	5912.99
919.416	5889.72
919.727	5851.53
920.038	5847.91
920.349	5822.15
920.66	5791.42
920.971	5797.74
921.282	5781.02
921.593	5733.79
921.903	5655.83
922.214	5650.63
922.525	5623.74
922.835	5630.06
923.146	5602.27
923.456	5572.21
923.767	5551.65
924.077	5537.64
924.387	5496.06
924.697	5471.65
925.008	5509.39
925.318	5460.58
925.628	5414.93
925.938	5412.89
926.248	5326.79
926.558	5397.3
926.867	5328.6
927.177	5320.69
927.487	5274.82
927.796	5241.83
928.106	5240.02
928.416	5200.92
928.725	5241.37
929.034	5196.4
929.344	5156.63
929.653	5145.1
929.962	5118.44
930.271	5084.99
930.581	5034.15
930.89	5073.69
931.199	5008.39
931.508	5029.85
931.817	4984.43
932.125	4975.84
932.434	4918.44
932.743	4896.75
933.051	4887.48
933.36	4882.96
933.669	4842.97
933.977	4839.35
934.286	4795.74
934.594	4816.07
934.902	4782.4
935.21	4743.08
935.519	4752.8
935.827	4742.18
936.135	4642.52
936.443	4651.11
936.751	4649.07
937.059	4637.32
937.367	4625.12
937.674	4622.63
937.982	4574.5
938.29	4536.99
938.597	4608.85
938.905	4489.3
939.213	4497.66
939.52	4462.18
939.827	4461.51
940.135	4480.94
940.442	4395.29
940.749	4405.01
941.056	4374.96
941.363	4358.01
941.67	4368.63
941.977	4320.04
942.284	4289.99
942.591	4312.58
942.898	4304.67
943.205	4273.26
943.511	4222.64
943.818	4183.55
944.125	4175.41
944.431	4177.67
944.738	4152.14
945.044	4158.01
945.35	4090.44
945.657	4063.33
945.963	4073.49
946.269	4100.39
946.575	4116.66
946.881	4066.72
947.187	4041.41
947.493	3954.18
947.799	4021.29
948.105	3992.82
948.41	3938.13
948.716	3931.35
949.022	3926.38
949.327	3906.27
949.633	3899.49
949.938	3862.43
950.244	3880.51
950.549	3853.39
950.854	3833.73
951.16	3817.91
951.465	3797.57
951.77	3794.86
952.075	3767.06
952.38	3746.05
952.685	3718.7
952.99	3725.93
953.294	3701.08
953.599	3726.84
953.904	3675.99
954.209	3655.65
954.513	3639.38
954.818	3615.88
955.122	3623.11
955.426	3625.14
955.731	3543.34
956.035	3546.28
956.339	3508.31
956.643	3550.8
956.948	3529.78
957.252	3527.52
957.556	3484.36
957.86	3473.06
958.163	3463.57
958.467	3436.22
958.771	3489.33
959.075	3430.8
959.378	3406.62
959.682	3410.01
959.985	3379.5
960.289	3375.66
960.592	3334.76
960.896	3310.35
961.199	3353.74
961.502	3292.95
961.805	3295.66
962.108	3251.14
962.411	3268.32
962.714	3265.83
963.017	3223.57
963.32	3188.32
963.623	3172.05
963.926	3210.47
964.228	3167.3
964.531	3151.71
964.833	3108.77
965.136	3160.75
965.438	3134.76
965.741	3080.3
966.043	3099.73
966.345	3064.93
966.648	3059.51
966.95	3028.78
967.252	3002.11
967.554	2992.85
967.856	3038.72
968.158	2998.49
968.46	2996.23
968.761	2975.22
969.063	2949.68
969.365	2949.91
969.666	2922.34
969.968	2898.84
970.269	2894.09
970.571	2915.11
970.872	2909.91
971.174	2834.66
971.475	2850.02
971.776	2839.4
972.077	2828.1
972.378	2843.7
972.679	2839.18
972.98	2807.31
973.281	2805.73
973.582	2770.93
973.883	2761.89
974.183	2719.63
974.484	2751.5
974.785	2698.16
975.085	2694.32
975.386	2711.95
975.686	2667.88
975.986	2679.41
976.287	2663.36
976.587	2656.36
976.887	2649.13
977.187	2636.24
977.487	2631.95
977.787	2626.98
978.087	2586.98
978.387	2594.21
978.687	2590.82
978.987	2563.93
979.286	2580.43
979.586	2515.57
979.885	2535.46
980.185	2505.17
980.484	2487.32
980.784	2509.02
981.083	2475.8
981.382	2454.1
981.682	2436.02
981.981	2455.68
982.28	2450.49
982.579	2457.72
982.878	2413.65
983.177	2453.88
983.475	2412.07
983.774	2397.61
984.073	2368.23
984.372	2370.94
984.67	2347.89
984.969	2373.88
985.267	2345.63
985.566	2332.98
985.864	2351.73
986.162	2291.62
986.461	2306.76
986.759	2255.92
987.057	2271.28
987.355	2254.56
987.653	2287.33
987.951	2282.58
988.249	2250.04
988.547	2243.26
988.844	2216.37
989.142	2217.27
989.44	2169.82
989.737	2222.92
990.035	2187.44
990.332	2187.22
990.63	2148.8
990.927	2156.71
991.224	2139.53
991.521	2156.48
991.819	2128.69
992.116	2128.69
992.413	2112.42
992.71	2122.13
993.006	2093.43
993.303	2065.86
993.6	2089.82
993.897	2060.67
994.193	2061.12
994.49	2069.93
994.787	2031.51
995.083	1996.49
995.379	2008.24
995.676	2003.72
995.972	2001.46
996.268	1966.66
996.565	1967.34
996.861	1982.93
997.157	1956.04
997.453	1939.77
997.749	1968.92
998.044	1947.45
998.34	1949.71
998.636	1921.23
998.932	1893.89
999.227	1907.9
999.523	1896.83
999.818	1864.74
1000.114	1866.77
1000.409	1841.46
1000.704	1840.11
1001	1831.75
1001.295	1839.66
1001.59	1831.29
1001.885	1826.1
1002.18	1805.76
1002.475	1820.45
1002.77	1787.9
1003.065	1775.02
1003.359	1751.75
1003.654	1784.06
1003.949	1722.37
1004.243	1756.72
1004.538	1732.77
1004.832	1699.77
1005.127	1723.95
1005.421	1695.03
1005.715	1690.51
1006.009	1691.18
1006.304	1672.88
1006.598	1670.39
1006.892	1629.04
1007.186	1622.26
1007.48	1643.5
1007.773	1638.3
1008.067	1612.32
1008.361	1615.48
1008.655	1584.97
1008.948	1585.88
1009.242	1588.36
1009.535	1587.68
1009.829	1571.41
1010.122	1545.88
1010.415	1524.64
1010.708	1554.69
1011.001	1558.98
1011.295	1513.56
1011.588	1529.61
1011.881	1503.84
1012.173	1523.28
1012.466	1491.64
1012.759	1475.6
1013.052	1457.74
1013.344	1473.11
1013.637	1451.64
1013.93	1431.98
1014.222	1425.65
1014.514	1427.24
1014.807	1434.02
1015.099	1411.42
1015.391	1417.97
1015.683	1419.1
1015.976	1385.66
1016.268	1400.12
1016.56	1398.31
1016.851	1364.19
1017.143	1386.56
1017.435	1370.29
1017.727	1325.77
1018.018	1336.17
1018.31	1303.85
1018.602	1289.16
1018.893	1312.44
1019.185	1281.03
1019.476	1282.16
1019.767	1267.69
1020.058	1279.9
1020.35	1269.05
1020.641	1265.88
1020.932	1261.37
1021.223	1227.24
1021.514	1254.36
1021.804	1218.65
1022.095	1237.41
1022.386	1204.87
1022.677	1225.43
1022.967	1213
1023.258	1200.12
1023.548	1170.07
1023.839	1169.62
1024.129	1182.27
1024.419	1157.64
1024.709	1153.8
1025	1181.82
1025.29	1128.26
1025.58	1133.68
1025.87	1125.55
1026.16	1104.53
1026.449	1091.2
1026.739	1099.56
1027.029	1109.05
1027.319	1088.71
1027.608	1091.65
1027.898	1087.58
1028.187	1058.21
1028.477	1050.52
1028.766	1047.81
1029.055	1053.01
1029.344	1056.17
1029.634	1065.89
1029.923	1038.32
1030.212	1045.33
1030.501	1034.25
1030.79	1000.81
1031.078	1002.39
1031.367	1021.82
1031.656	1009.62
1031.945	1000.81
1032.233	999.9
1032.522	962.39
1032.81	974.82
1033.099	966.46
1033.387	963.97
1033.675	969.62
1033.963	946.57
1034.251	939.79
1034.54	944.31
1034.828	922.84
1035.116	941.83
1035.403	940.7
1035.691	914.93
1035.979	930.98
1036.267	927.14
1036.554	895.73
1036.842	884.88
1037.129	894.37
1037.417	887.14
1037.704	867.93
1037.992	895.5
1038.279	853.47
1038.566	886.91
1038.853	886.91
1039.14	886.91
