Data from hue_210_FLMS001491_00031.txt Node
Date: Tue Feb 07 16:41:05 GMT 2017
User: dcchb
Spectrometer: FLMS00149
Trigger mode: 0
Integration Time (sec): 2.000000E-2
Scans to average: 10
Electric dark correction enabled: true
Nonlinearity correction enabled: false
Boxcar width: 0
XAxis mode: Wavelengths
Number of Pixels in Spectrum: 2048
>>>>>Begin Spectral Data<<<<<
341.393	-17.63
341.776	-17.63
342.16	-17.63
342.543	-56.5
342.927	-63.95
343.31	-60.34
343.693	-67.34
344.077	-72.54
344.46	-53.11
344.843	-44.52
345.226	-69.38
345.61	-44.29
345.993	-17.4
346.376	-12.88
346.759	8.36
347.142	24.41
347.525	50.39
347.908	66.44
348.291	85.2
348.674	99.21
349.057	107.79
349.44	112.54
349.823	138.53
350.206	158.87
350.588	212.2
350.971	214.01
351.354	211.97
351.737	225.3
352.119	244.29
352.502	274.57
352.884	268.24
353.267	277.51
353.65	278.64
354.032	294.68
354.414	307.11
354.797	305.3
355.179	324.06
355.562	306.88
355.944	310.73
356.326	327.67
356.709	330.39
357.091	333.78
357.473	337.62
357.855	315.02
358.238	339.2
358.62	341.91
359.002	335.36
359.384	319.31
359.766	331.74
360.148	320.67
360.53	344.17
360.912	318.64
361.294	327
361.676	329.03
362.057	346.43
362.439	320.9
362.821	326.77
363.203	334.68
363.584	337.39
363.966	315.02
364.348	327.9
364.729	323.83
365.111	303.04
365.493	334.68
365.874	305.75
366.256	336.04
366.637	311.63
367.019	301.91
367.4	306.66
367.781	303.04
368.163	312.31
368.544	300.56
368.925	324.29
369.306	325.64
369.688	306.21
370.069	297.39
370.45	330.39
370.831	324.96
371.212	308.92
371.593	312.08
371.974	320.44
372.355	302.14
372.736	313.89
373.117	322.48
373.498	312.31
373.879	312.08
374.26	308.92
374.641	323.38
375.021	316.15
375.402	326.77
375.783	316.15
376.163	322.48
376.544	317.05
376.925	314.57
377.305	307.56
377.686	296.94
378.066	330.39
378.447	348.01
378.827	348.01
379.208	334.91
379.588	342.14
379.968	341.69
380.349	334.68
380.729	335.58
381.109	357.28
381.489	333.55
381.87	351.18
382.25	351.4
382.63	342.82
383.01	333.1
383.39	343.72
383.77	346.21
384.15	318.41
384.53	354.11
384.91	347.56
385.29	352.99
385.67	364.06
386.049	351.63
386.429	350.5
386.809	349.37
387.189	352.76
387.568	363.15
387.948	355.02
388.328	357.73
388.707	382.36
389.087	348.92
389.466	362.02
389.846	362.93
390.225	404.06
390.605	391.18
390.984	367
391.363	369.93
391.743	388.92
392.122	383.27
392.501	360.67
392.881	380.33
393.26	395.7
393.639	369.71
394.018	393.44
394.397	379.88
394.776	399.54
395.155	420.33
395.534	395.92
395.913	402.48
396.292	411.29
396.671	428.24
397.05	393.21
397.429	390.95
397.808	412.19
398.186	406.99
398.565	425.98
398.944	394.11
399.323	409.71
399.701	410.84
400.08	411.97
400.458	407.45
400.837	430.72
401.215	411.06
401.594	407.22
401.972	444.96
402.351	435.92
402.729	456.71
403.107	430.5
403.486	433.43
403.864	437.5
404.242	485.86
404.62	468.91
404.999	445.19
405.377	449.25
405.755	441.34
406.133	445.19
406.511	471.85
406.889	487.67
407.267	501.46
407.645	495.58
408.023	484.06
408.401	504.85
408.779	505.52
409.156	511.85
409.534	523.15
409.912	524.28
410.29	542.81
410.667	548.91
411.045	542.36
411.422	561.57
411.8	559.99
412.178	587.1
412.555	605.63
412.933	604.73
413.31	597.72
413.687	630.72
414.065	626.65
414.442	612.19
414.819	647.44
415.197	655.8
415.574	660.77
415.951	680.21
416.328	681.79
416.705	689.25
417.082	676.82
417.46	722.24
417.837	705.52
418.214	706.42
418.591	726.31
418.967	731.05
419.344	766.76
419.721	757.95
420.098	757.49
420.475	801.11
420.852	816.25
421.228	818.28
421.605	838.4
421.982	831.16
422.358	858.73
422.735	868.45
423.111	848.11
423.488	879.52
423.864	893.54
424.241	916.59
424.617	925.63
424.994	944.83
425.37	960.43
425.746	958.17
426.123	1004.49
426.499	997.04
426.875	1047.43
427.251	1040.88
427.627	1078.84
428.003	1058.73
428.379	1088.33
428.756	1067.77
429.132	1110.71
429.507	1114.55
429.883	1139.41
430.259	1139.18
430.635	1159.74
431.011	1154.32
431.387	1203.13
431.763	1206.97
432.138	1208.1
432.514	1237.03
432.89	1280.64
433.265	1309.8
433.641	1291.49
434.016	1335.33
434.392	1369.68
434.767	1423.92
435.143	1404.71
435.518	1399.74
435.894	1446.06
436.269	1482.67
436.644	1509.34
437.02	1536.68
437.395	1569.45
437.77	1570.81
438.145	1593.63
438.52	1615.1
438.895	1626.85
439.271	1654.42
439.646	1720.18
440.021	1739.16
440.395	1750.69
440.77	1745.72
441.145	1760.18
441.52	1825.71
441.895	1798.82
442.27	1854.19
442.645	1844.92
443.019	1886.73
443.394	1857.58
443.769	1889.22
444.143	1919.27
444.518	1939.84
444.892	1986.84
445.267	1974.19
445.641	2018.25
446.016	2034.52
446.39	2017.8
446.764	2055.31
447.139	2026.84
447.513	2103.45
447.887	2090.34
448.262	2136.89
448.636	2149.77
449.01	2147.29
449.384	2216.44
449.758	2180.06
450.132	2199.26
450.506	2232.48
450.88	2227.29
451.254	2244.46
451.628	2269.77
452.002	2317.91
452.376	2307.96
452.75	2344.57
453.123	2357.68
453.497	2399.94
453.871	2423.89
454.244	2462.31
454.618	2480.39
454.992	2513.15
455.365	2480.61
455.739	2556.77
456.112	2594.73
456.486	2608.74
456.859	2614.17
457.232	2684.45
457.606	2667.27
457.979	2706.6
458.352	2744.56
458.725	2810.32
459.099	2828.85
459.472	2840.38
459.845	2882.64
460.218	2926.48
460.591	2915.63
460.964	2993.37
461.337	2984.1
461.71	3042.18
462.083	3108.62
462.456	3086.02
462.829	3108.84
463.201	3209.86
463.574	3158.79
463.947	3222.29
464.32	3270.87
464.692	3330.08
465.065	3364.21
465.438	3375.28
465.81	3419.57
466.183	3432.68
466.555	3516.52
466.928	3511.77
467.3	3545.67
467.672	3601.04
468.045	3665.67
468.417	3745.21
468.789	3710.64
469.161	3768.71
469.534	3838.09
469.906	3891.65
470.278	3948.6
470.65	3956.96
471.022	4049.16
471.394	4142.49
471.766	4128.93
472.138	4174.13
472.51	4230.17
472.882	4304.75
473.253	4366.21
473.625	4401.47
473.997	4512.2
474.369	4492.99
474.74	4597.39
475.112	4620.22
475.484	4692.53
475.855	4770.72
476.227	4776.82
476.598	4929.14
476.97	4985.63
477.341	5044.16
477.713	5118.51
478.084	5085.97
478.455	5249.81
478.827	5331.61
479.198	5436.24
479.569	5434.21
479.94	5622.45
480.311	5650.47
480.682	5754.2
481.053	5872.61
481.424	5939.96
481.795	6005.94
482.166	6087.3
482.537	6176.11
482.908	6259.27
483.279	6317.35
483.65	6423.79
484.021	6522.31
484.391	6551.24
484.762	6587.85
485.133	6677.79
485.503	6705.36
485.874	6885.47
486.244	6909.42
486.615	7071.68
486.985	7134.73
487.356	7168.4
487.726	7292.69
488.097	7405.91
488.467	7345.57
488.837	7572
489.207	7545.11
489.578	7707.37
489.948	7758.67
490.318	7840.92
490.688	7951.43
491.058	8020.13
491.428	8087.24
491.798	8103.97
492.168	8254.02
492.538	8247.47
492.908	8390.51
493.278	8458.76
493.648	8480
494.017	8565.65
494.387	8552.54
494.757	8694.01
495.126	8767.23
495.496	8832.54
495.866	8794.57
496.235	8838.86
496.605	8932.87
496.974	9003.83
497.344	9024.17
497.713	9087.67
498.082	9167.44
498.452	9180.78
498.821	9198.18
499.19	9220.1
499.559	9331.96
499.928	9376.48
500.298	9353.88
500.667	9470.03
501.036	9373.54
501.405	9471.62
501.774	9487.66
502.143	9592.52
502.512	9582.12
502.88	9627.77
503.249	9536.25
503.618	9700.54
503.987	9695.56
504.356	9797.71
504.724	9753.19
505.093	9764.04
505.462	9806.52
505.83	9790.03
506.199	9919.06
506.567	10007.42
506.936	9938.72
507.304	10043.13
507.672	10060.75
508.041	10062.56
508.409	10088.1
508.777	10133.07
509.145	10204.03
509.514	10164.7
509.882	10191.6
510.25	10232.05
510.618	10306.17
510.986	10310.46
511.354	10296.23
511.722	10390.46
512.09	10460.06
512.458	10354.98
512.826	10455.32
513.193	10431.82
513.561	10459.39
513.929	10453.96
514.297	10515.2
514.664	10585.94
515.032	10614.64
515.4	10613.05
515.767	10621.42
516.135	10656.67
516.502	10538.93
516.869	10647.18
517.237	10718.59
517.604	10595.88
517.972	10717.46
518.339	10714.97
518.706	10712.26
519.073	10662.09
519.44	10683.79
519.808	10795.65
520.175	10672.94
520.542	10837.46
520.909	10872.93
521.276	10775.76
521.643	10833.84
522.009	10830.68
522.376	10872.93
522.743	10867.74
523.11	10933.95
523.477	10971.01
523.843	10974.63
524.21	11083.78
524.577	11045.81
524.943	11072.48
525.31	11134.4
525.676	11135.75
526.043	11031.57
526.409	11118.58
526.776	11137.33
527.142	11099.37
527.508	11139.37
527.874	11179.82
528.241	11163.77
528.607	11154.28
528.973	11161.51
529.339	11072.25
529.705	11233.83
530.071	11225.47
530.437	11196.77
530.803	11171.46
531.169	11191.57
531.535	11220.27
531.901	11111.57
532.267	11080.39
532.632	11193.38
532.998	11141.85
533.364	11237.44
533.73	11194.06
534.095	11099.37
534.461	11177.33
534.826	11051.01
535.192	11054.4
535.557	11114.51
535.923	10976.21
536.288	10976.43
536.653	10994.74
537.019	10905.02
537.384	10994.06
537.749	10935.08
538.114	10934.85
538.479	10876.55
538.845	10860.96
539.21	10808.08
539.575	10836.55
539.94	10800.62
540.305	10794.52
540.67	10677.23
541.034	10678.36
541.399	10656.89
541.764	10665.48
542.129	10666.61
542.494	10586.16
542.858	10651.47
543.223	10551.13
543.587	10534.19
543.952	10480.18
544.316	10454.41
544.681	10462.78
545.045	10459.39
545.41	10451.02
545.774	10392.27
546.138	10327.64
546.503	10299.62
546.867	10303.23
547.231	10296.23
547.595	10302.1
547.959	10194.53
548.324	10204.25
548.688	10180.52
549.052	10180.98
549.416	10083.8
549.779	10084.03
550.143	10019.85
550.507	10141.2
550.871	9958.83
551.235	9934.65
551.599	9985.05
551.962	9993.18
552.326	9933.52
552.689	9911.38
553.053	9873.86
553.417	9809.91
553.78	9946.63
554.143	9759.29
554.507	9745.05
554.87	9769.01
555.234	9848.33
555.597	9718.16
555.96	9719.07
556.323	9777.82
556.686	9699.41
557.05	9747.31
557.413	9685.62
557.776	9670.71
558.139	9691.5
558.502	9599.97
558.865	9692.63
559.228	9649.01
559.59	9606.98
559.953	9624.83
560.316	9670.71
560.679	9598.17
561.041	9647.43
561.404	9691.5
561.767	9690.82
562.129	9663.02
562.492	9684.72
562.854	9585.51
563.217	9652.85
563.579	9657.15
563.941	9706.86
564.304	9698.5
564.666	9738.5
565.028	9666.19
565.39	9687.65
565.753	9717.26
566.115	9776.47
566.477	9787.77
566.839	9789.12
567.201	9747.77
567.563	9705.96
567.925	9819.63
568.287	9752.29
568.648	9801.32
569.01	9836.8
569.372	9849.01
569.734	9798.84
570.095	9821.66
570.457	9881.55
570.819	9839.52
571.18	9834.77
571.542	9863.02
571.903	9868.22
572.265	9867.54
572.626	9873.41
572.987	9884.71
573.349	9824.15
573.71	9954.31
574.071	9942.56
574.432	9954.99
574.794	9978.72
575.155	10012.39
575.516	9924.48
575.877	10035.44
576.238	10084.03
576.599	10018.49
576.96	10074.99
577.32	10031.15
577.681	10077.48
578.042	10036.35
578.403	10074.54
578.763	10082.67
579.124	10054.2
579.485	10120.64
579.845	10103.69
580.206	10156.57
580.566	10153.63
580.927	10151.15
581.287	10194.76
581.648	10117.93
582.008	10188.88
582.368	10199.96
582.728	10267.53
583.089	10199.96
583.449	10239.28
583.809	10190.92
584.169	10255.55
584.529	10122.9
584.889	10275.44
585.249	10145.95
585.609	10163.35
585.969	10216.68
586.329	10212.84
586.688	10190.92
587.048	10260.97
587.408	10271.14
587.768	10323.8
588.127	10223.91
588.487	10158.6
588.846	10353.85
589.206	10285.83
589.565	10250.35
589.925	10306.17
590.284	10274.98
590.643	10305.94
591.003	10265.49
591.362	10310.01
591.721	10352.72
592.08	10316.34
592.44	10307.07
592.799	10314.98
593.158	10246.06
593.517	10340.97
593.876	10345.26
594.235	10279.73
594.593	10305.04
594.952	10267.98
595.311	10276.57
595.67	10405.83
596.029	10351.14
596.387	10441.99
596.746	10381.2
597.104	10341.65
597.463	10314.53
597.822	10314.31
598.18	10367.86
598.538	10319.95
598.897	10352.04
599.255	10296.23
599.613	10374.87
599.972	10277.7
600.33	10296.68
600.688	10316.56
601.046	10359.95
601.404	10403.12
601.762	10374.19
602.12	10401.08
602.478	10383
602.836	10352.95
603.194	10365.15
603.552	10380.52
603.91	10384.13
604.268	10375.55
604.625	10415.55
604.983	10371.93
605.341	10358.37
605.698	10441.53
606.056	10402.21
606.413	10428.43
606.771	10386.17
607.128	10393.85
607.485	10429.1
607.843	10385.26
608.2	10479.95
608.557	10477.24
608.914	10465.49
609.272	10416.45
609.629	10497.8
609.986	10536.45
610.343	10466.62
610.7	10601.08
611.057	10541.64
611.414	10521.76
611.771	10534.19
612.127	10542.77
612.484	10536.22
612.841	10541.42
613.198	10535.09
613.554	10487.86
613.911	10598.37
614.267	10539.61
614.624	10567.86
614.98	10612.15
615.337	10602.66
615.693	10609.21
616.05	10548.88
616.406	10614.86
616.762	10584.58
617.118	10529.44
617.475	10613.05
617.831	10611.92
618.187	10618.25
618.543	10596.78
618.899	10673.62
619.255	10690.11
619.611	10638.14
619.967	10726.5
620.323	10729.89
620.678	10657.12
621.034	10630.91
621.39	10636.78
621.746	10634.97
622.101	10713.62
622.457	10674.75
622.812	10671.36
623.168	10675.43
623.523	10679.95
623.879	10704.13
624.234	10721.75
624.589	10710.68
624.945	10639.49
625.3	10714.07
625.655	10638.82
626.01	10769.89
626.365	10688.76
626.72	10673.62
627.075	10637.23
627.43	10650.57
627.785	10676.1
628.14	10664.8
628.495	10663.9
628.85	10730.11
629.205	10612.83
629.559	10672.04
629.914	10594.75
630.269	10673.39
630.623	10611.25
630.978	10603.11
631.332	10573.28
631.687	10585.94
632.041	10572.83
632.396	10506.62
632.75	10509.78
633.104	10553.17
633.459	10487.18
633.813	10506.39
634.167	10528.76
634.521	10540.51
634.875	10480.18
635.229	10459.39
635.583	10432.72
635.937	10412.16
636.291	10394.3
636.645	10421.42
636.999	10392.27
637.352	10405.83
637.706	10344.59
638.06	10425.71
638.413	10358.6
638.767	10298.94
639.121	10339.16
639.474	10276.11
639.828	10306.85
640.181	10321.54
640.534	10259.62
640.888	10232.5
641.241	10256.68
641.594	10213.97
641.947	10252.61
642.301	10164.03
642.654	10274.31
643.007	10215.32
643.36	10251.93
643.713	10230.24
644.066	10235.89
644.419	10187.53
644.771	10115.67
645.124	10034.54
645.477	9984.6
645.83	9949.79
646.182	9880.42
646.535	9891.49
646.888	9891.72
647.24	9823.47
647.593	9869.12
647.945	9788.44
648.298	9790.93
648.65	9805.84
649.002	9806.75
649.355	9772.17
649.707	9842.45
650.059	9893.75
650.411	10056.23
650.763	9984.37
651.115	10094.65
651.467	9999.74
651.819	10028.21
652.171	10057.59
652.523	10006.97
652.875	10095.1
653.227	9985.05
653.578	10059.62
653.93	10051.04
654.282	9971.94
654.633	9969
654.985	9997.25
655.337	10061.66
655.688	10037.7
656.039	10093.97
656.391	9984.6
656.742	10002.9
657.094	9978.49
657.445	10076.35
657.796	10017.36
658.147	10026.85
658.498	10018.95
658.849	10015.56
659.2	10074.54
659.551	10006.74
659.902	10054.2
660.253	10037.48
660.604	10064.59
660.955	10115.44
661.306	10098.72
661.656	10042.22
662.007	10104.82
662.358	10039.51
662.708	10105.72
663.059	10049.45
663.409	10016.69
663.76	10158.6
664.11	10093.75
664.461	10110.69
664.811	10148.89
665.161	10117.02
665.511	10093.97
665.862	10108.43
666.212	10108.43
666.562	10135.1
666.912	10105.95
667.262	10102.11
667.612	10117.7
667.962	10079.96
668.312	10018.95
668.662	10195.44
669.011	10053.07
669.361	10027.31
669.711	10059.85
670.06	10040.64
670.41	10006.97
670.76	9991.15
671.109	10033.63
671.459	10029.34
671.808	10040.64
672.157	10011.26
672.507	9983.92
672.856	10018.72
673.205	10059.62
673.554	10082.45
673.904	9945.73
674.253	10051.04
674.602	9967.2
674.951	9885.16
675.3	9839.29
675.649	9962.68
675.998	9850.36
676.346	9944.82
676.695	9927.42
677.044	9826.18
677.393	9905.95
677.741	9915.22
678.09	9897.82
678.438	9827.31
678.787	9879.97
679.135	9843.36
679.484	9827.09
679.832	9834.32
680.181	9752.51
680.529	9800.87
680.877	9802.91
681.225	9782.12
681.573	9788.67
681.922	9660.08
682.27	9647.88
682.618	9674.1
682.966	9625.51
683.314	9667.77
683.661	9619.41
684.009	9535.57
684.357	9520.88
684.705	9526.98
685.053	9529.47
685.4	9506.42
685.748	9481.33
686.095	9458.96
686.443	9465.29
686.79	9459.19
687.138	9434.78
687.485	9413.31
687.832	9365.4
688.18	9376.25
688.527	9295.57
688.874	9279.3
689.221	9265.52
689.568	9270.94
689.915	9286.76
690.262	9253.54
690.609	9169.02
690.956	9116.37
691.303	9097.84
691.65	9131.74
691.997	9019.2
692.344	8974.68
692.69	9010.38
693.037	8976.71
693.383	8899.43
693.73	8913.44
694.077	8912.53
694.423	8815.81
694.769	8885.19
695.116	8791.86
695.462	8774.46
695.808	8728.36
696.155	8756.83
696.501	8683.61
696.847	8656.72
697.193	8571.07
697.539	8655.59
697.885	8542.15
698.231	8535.82
698.577	8510.74
698.923	8530.4
699.269	8455.37
699.614	8397.75
699.96	8424.19
700.306	8339.22
700.651	8326.33
700.997	8279.1
701.342	8256.51
701.688	8289.27
702.033	8212.44
702.379	8160.69
702.724	8103.06
703.069	8207.69
703.415	8054.25
703.76	8106
704.105	8131.09
704.45	8025.1
704.795	8009.96
705.14	7962.05
705.485	7951.88
705.83	7896.97
706.175	7925.22
706.52	7827.82
706.865	7803.86
707.209	7778.1
707.554	7761.83
707.899	7786.69
708.243	7724.32
708.588	7796.63
708.932	7661.04
709.277	7617.2
709.621	7607.94
709.966	7651.55
710.31	7613.13
710.654	7538.33
710.998	7565
711.342	7547.37
711.687	7544.66
712.031	7485
712.375	7431.67
712.719	7475.74
713.063	7438.67
713.407	7449.07
713.75	7407.26
714.094	7413.14
714.438	7398
714.782	7395.06
715.125	7367.26
715.469	7387.15
715.812	7353.7
716.156	7249.3
716.499	7331.56
716.843	7279.13
717.186	7285.23
717.53	7312.12
717.873	7249.75
718.216	7277.77
718.559	7251.33
718.902	7260.37
719.246	7210.43
719.589	7230.32
719.932	7121.39
720.275	7194.39
720.617	7142.86
720.96	7142.86
721.303	7238.68
721.646	7147.38
721.989	7120.94
722.331	7129.08
722.674	7152.81
723.016	7120.49
723.359	7090.89
723.701	7175.18
724.044	7087.05
724.386	7096.08
724.729	7047.5
725.071	7087.05
725.413	7123.65
725.755	7054.28
726.097	6991
726.439	7011.34
726.782	6951.46
727.124	7079.14
727.465	6956.2
727.807	6990.55
728.149	7028.97
728.491	7005.01
728.833	6992.58
729.175	7021.51
729.516	6962.98
729.858	6965.24
730.199	7044.56
730.541	6947.39
730.882	6966.14
731.224	6905.58
731.565	6957.78
731.906	6994.17
732.248	6916.88
732.589	6924.79
732.93	6983.55
733.271	6947.39
733.612	6919.59
733.953	6959.37
734.294	6945.81
734.635	6939.25
734.976	6992.13
735.317	6939.48
735.658	6967.73
735.999	6961.4
736.339	6964.34
736.68	6972.92
737.021	6966.37
737.361	6947.61
737.702	7005.69
738.042	7033.04
738.383	6984
738.723	6990.55
739.063	6943.32
739.404	6966.82
739.744	7011.12
740.084	7004.79
740.424	6996.43
740.764	7050.21
741.104	7075.97
741.444	7071.45
741.784	7106.25
742.124	7082.3
742.464	7050.21
742.804	7174.73
743.143	7118.23
743.483	7212.69
743.823	7223.54
744.162	7194.39
744.502	7220.83
744.841	7255.63
745.181	7254.05
745.52	7310.99
745.86	7362.97
746.199	7379.24
746.538	7430.31
746.877	7506.02
747.216	7416.75
747.556	7559.8
747.895	7576.75
748.234	7598.9
748.573	7677.99
748.911	7746.01
749.25	7787.59
749.589	7807.03
749.928	7918.21
750.267	7989.85
750.605	8025.1
750.944	8078.43
751.283	8197.98
751.621	8287.69
751.96	8318.65
752.298	8417.18
752.636	8538.76
752.975	8575.14
753.313	8647
753.651	8760.67
753.989	8854.23
754.327	8943.49
754.666	9045.41
755.004	9196.59
755.342	9360.21
755.679	9432.29
756.017	9568.56
756.355	9720.87
756.693	9860.53
757.031	9957.7
757.368	10117.93
757.706	10241.99
758.044	10372.16
758.381	10559.72
758.719	10670.91
759.056	10864.12
759.394	11047.39
759.731	11162.87
760.068	11313.15
760.405	11416.2
760.743	11637.21
761.08	11839.91
761.417	11968.05
761.754	12125.56
762.091	12348.38
762.428	12546.56
762.765	12590.63
763.102	12874.46
763.438	12954.46
763.775	13171.41
764.112	13272.87
764.449	13558.29
764.785	13681.45
765.122	13794.21
765.458	13988.11
765.795	14188.55
766.131	14355.1
766.467	14464.25
766.804	14649.33
767.14	14805.49
767.476	14930.23
767.812	15060.17
768.148	15287.73
768.485	15409.31
768.821	15448.41
769.157	15678.23
769.492	15739.47
769.828	15904.44
770.164	15908.06
770.5	16040.03
770.836	16153.25
771.171	16265.56
771.507	16425.33
771.842	16487.48
772.178	16687.47
772.513	16762.95
772.849	16797.52
773.184	16918.2
773.519	17022.15
773.855	17076.16
774.19	17058.99
774.525	17181.02
774.86	17339.88
775.195	17498.07
775.53	17519.77
775.865	17492.65
776.2	17551.4
776.535	17415.81
776.87	17668.69
777.205	17705.52
777.539	17685.41
777.874	17815.8
778.209	17725.64
778.543	17810.38
778.878	17697.16
779.212	17903.26
779.547	17945.74
779.881	17994.78
780.215	17976.25
780.55	18114.33
780.884	17922.24
781.218	17931.28
781.552	18161.33
781.886	18108.45
782.22	18069.58
782.554	18032.07
782.888	17951.62
783.222	17979.87
783.556	18063.93
783.889	18018.74
784.223	18009.92
784.557	18031.84
784.89	18075.91
785.224	17986.87
785.557	18001.79
785.891	17993.2
786.224	17996.81
786.558	18011.96
786.891	17948
787.224	17910.94
787.557	17943.03
787.891	17912.07
788.224	17920.43
788.557	18023.48
788.89	17868.23
789.223	17893.54
789.556	17765.18
789.888	17815.35
790.221	17771.51
790.554	17651.06
790.887	17787.55
791.219	17672.3
791.552	17617.62
791.884	17607.9
792.217	17598.63
792.549	17582.14
792.882	17504.17
793.214	17482.25
793.546	17512.99
793.879	17454.91
794.211	17424.85
794.543	17526.54
794.875	17402.48
795.207	17476.6
795.539	17367.9
795.871	17404.06
796.203	17224.18
796.535	17226.21
796.867	17092.43
797.198	17171.3
797.53	17148.25
797.862	16956.84
798.193	17040.91
798.525	16927.46
798.856	16927.24
799.188	16807.69
799.519	16801.59
799.85	16757.98
800.182	16746.68
800.513	16783.29
800.844	16621.26
801.175	16798.43
801.506	16632.11
801.837	16755.94
802.168	16600.47
802.499	16644.99
802.83	16531.32
803.161	16406.8
803.491	16467.36
803.822	16527.93
804.153	16463.75
804.483	16411.55
804.814	16250.42
805.145	16266.01
805.475	16313.24
805.805	16169.97
806.136	16240.93
806.466	16187.37
806.796	16162.29
807.126	16086.36
807.457	16006.58
807.787	16033.02
808.117	15943.54
808.447	15945.8
808.777	15975.63
809.107	15880.94
809.436	15881.84
809.766	15798.45
810.096	15800.94
810.426	15742.41
810.755	15798.23
811.085	15709.42
811.414	15707.84
811.744	15603.21
812.073	15503.1
812.403	15519.59
812.732	15482.08
813.061	15443.44
813.39	15379.48
813.719	15354.62
814.049	15480.5
814.378	15367.96
814.707	15287.51
815.036	15343.1
815.365	15285.7
815.693	15195.98
816.022	15209.77
816.351	15188.3
816.68	15136.78
817.008	15102.2
817.337	15000.06
817.665	14992.6
817.994	15017.91
818.322	14997.12
818.651	14946.05
818.979	14817.69
819.307	14946.5
819.636	14903.11
819.964	14828.76
820.292	14877.57
820.62	14803.9
820.948	14751.02
821.276	14874.86
821.604	14801.87
821.932	14837.12
822.259	14809.78
822.587	14879.38
822.915	14822.21
823.243	14822.44
823.57	14741.76
823.898	14889.33
824.225	14839.61
824.553	14722.78
824.88	14846.39
825.207	14837.12
825.535	14807.75
825.862	14830.12
826.189	14807.97
826.516	14858.59
826.843	14851.36
827.17	14819.5
827.497	14960.51
827.824	14868.76
828.151	14990.11
828.478	14854.98
828.805	14955.54
829.131	14865.6
829.458	14890.23
829.785	14843
830.111	14842.77
830.438	14908.31
830.764	14833.06
831.09	14844.81
831.417	14796.67
831.743	14855.88
832.069	14852.26
832.395	14717.81
832.722	14885.26
833.048	14864.47
833.374	14804.58
833.7	14727.75
834.026	14737.47
834.351	14806.84
834.677	14736.34
835.003	14810.01
835.329	14768.88
835.654	14660.86
835.98	14670.12
836.306	14707.41
836.631	14590.58
836.956	14689.56
837.282	14602.1
837.607	14618.15
837.932	14540.41
838.258	14560.97
838.583	14565.72
838.908	14486.85
839.233	14500.86
839.558	14497.25
839.883	14389.9
840.208	14315.33
840.533	14310.81
840.858	14366.18
841.182	14294.99
841.507	14349.68
841.832	14204.6
842.156	14198.5
842.481	14233.98
842.805	14157.14
843.13	14118.05
843.454	14214.54
843.778	14055.22
844.103	14082.12
844.427	13968.22
844.751	13923.93
845.075	13964.15
845.399	13986.3
845.723	13852.52
846.047	13912.85
846.371	13713.31
846.695	13787.66
847.019	13622.24
847.343	13692.3
847.666	13525.52
847.99	13460.44
848.313	13478.29
848.637	13434.9
848.96	13418.86
849.284	13310.38
849.607	13256.83
849.931	13229.26
850.254	13153.78
850.577	13018.19
850.9	13031.07
851.223	13072.65
851.546	12902.03
851.869	12803.28
852.192	13000.11
852.515	12756.05
852.838	12739.78
853.161	12718.76
853.483	12659.78
853.806	12634.24
854.129	12575.26
854.451	12563.74
854.774	12513.8
855.096	12453.68
855.419	12388.37
855.741	12382.95
856.063	12321.71
856.385	12275.38
856.708	12250.3
857.03	12158.78
857.352	12192.22
857.674	12157.65
857.996	12084.2
858.318	12041.27
858.64	12060.47
858.961	11925.34
859.283	12005.11
859.605	11997.65
859.926	11961.72
860.248	11822.06
860.57	11883.76
860.891	11836.07
861.212	11764.21
861.534	11778.22
861.855	11770.54
862.176	11716.53
862.498	11700.71
862.819	11612.35
863.14	11697.55
863.461	11569.19
863.782	11585.68
864.103	11549.98
864.424	11527.15
864.745	11522.63
865.065	11494.61
865.386	11424.56
865.707	11426.37
866.027	11408.97
866.348	11413.26
866.668	11423.2
866.989	11332.58
867.309	11310.21
867.63	11296.65
867.95	11314.73
868.27	11269.53
868.59	11298.69
868.91	11229.31
869.23	11224.56
869.55	11183.89
869.87	11236.09
870.19	11237.44
870.51	11265.47
870.83	11166.03
871.15	11101.63
871.469	11140.72
871.789	11177.11
872.109	11167.62
872.428	11041.74
872.748	11049.88
873.067	11013.95
873.386	11029.09
873.706	10992.48
874.025	10974.85
874.344	10893.05
874.663	10948.19
874.982	10996.32
875.301	10950.9
875.62	10887.85
875.939	10882.2
876.258	10860.73
876.577	10843.78
876.896	10830.68
877.214	10805.59
877.533	10817.79
877.852	10785.48
878.17	10728.76
878.489	10817.57
878.807	10808.76
879.125	10730.34
879.444	10730.79
879.762	10763.11
880.08	10658.02
880.398	10653.05
880.716	10640.4
881.034	10597.24
881.352	10549.1
881.67	10562.66
881.988	10560.17
882.306	10505.71
882.624	10491.02
882.941	10396.11
883.259	10374.42
883.577	10439.95
883.894	10430.69
884.212	10387.75
884.529	10313.4
884.846	10282.44
885.164	10283.8
885.481	10327.86
885.798	10248.77
886.115	10184.59
886.432	10119.28
886.75	10146.85
887.067	10146.4
887.383	10088.55
887.7	10156.12
888.017	10081.99
888.334	10058.72
888.651	10029.34
888.967	10004.48
889.284	9951.15
889.6	9932.39
889.917	9815.56
890.233	9906.63
890.55	9808.33
890.866	9809.01
891.182	9849.23
891.498	9770.36
891.815	9750.48
892.131	9740.99
892.447	9631.61
892.763	9643.14
893.079	9651.27
893.395	9635.9
893.71	9668.45
894.026	9576.25
894.342	9537.15
894.657	9422.58
894.973	9342.13
895.289	9454.44
895.604	9362.92
895.92	9337.16
896.235	9283.15
896.55	9235.01
896.865	9336.93
897.181	9231.85
897.496	9203.37
897.811	9185.3
898.126	9172.41
898.441	9135.8
898.756	9113.88
899.071	9007.67
899.386	9006.09
899.7	8919.09
900.015	8855.36
900.33	8825.08
900.644	8778.75
900.959	8835.25
901.273	8826.89
901.588	8765.19
901.902	8710.05
902.216	8659.89
902.531	8689.26
902.845	8645.42
903.159	8573.56
903.473	8560.45
903.787	8500.12
904.101	8500.12
904.415	8485.43
904.729	8451.3
905.042	8395.71
905.356	8336.5
905.67	8375.15
905.984	8293.12
906.297	8320.91
906.611	8270.29
906.924	8259.9
907.237	8171.99
907.551	8132.67
907.864	8146.23
908.177	8107.58
908.491	8084.08
908.804	8044.76
909.117	8014.25
909.43	7921.83
909.743	7901.49
910.056	7893.35
910.368	7835.95
910.681	7802.28
910.994	7758.89
911.307	7777.65
911.619	7694.03
911.932	7734.26
912.244	7741.72
912.557	7659.91
912.869	7601.38
913.181	7566.35
913.494	7555.28
913.806	7507.15
914.118	7475.96
914.43	7424.44
914.742	7417.66
915.054	7348.06
915.366	7353.03
915.678	7368.39
915.99	7378.34
916.302	7244.78
916.613	7201.39
916.925	7218.34
917.236	7230.77
917.548	7112.13
917.859	7108.97
918.171	7104.22
918.482	7053.83
918.794	7070.1
919.105	7021.74
919.416	6956.65
919.727	6986.26
920.038	6884.11
920.349	6871.68
920.66	6859.48
920.971	6871.91
921.282	6846.83
921.593	6797.34
921.903	6738.58
922.214	6743.55
922.525	6671.69
922.835	6645.47
923.146	6648.41
923.456	6569.77
923.767	6602.09
924.077	6577.68
924.387	6492.48
924.697	6471.92
925.008	6440.73
925.318	6453.84
925.628	6459.27
925.938	6402.09
926.248	6357.57
926.558	6356.44
926.867	6329.78
927.177	6311.47
927.487	6275.09
927.796	6232.38
928.106	6160.52
928.416	6192.38
928.725	6174.07
929.034	6106.05
929.344	6077.35
929.653	6099.05
929.962	6023.8
930.271	6038.71
930.581	6023.12
930.89	5986.74
931.199	5970.24
931.508	5930.47
931.817	5931.37
932.125	5909.9
932.434	5874.87
932.743	5852.5
933.051	5777.25
933.36	5771.15
933.669	5788.55
933.977	5714.43
934.286	5757.81
934.594	5740.41
934.902	5677.36
935.21	5668.33
935.519	5660.64
935.827	5610.7
936.135	5602.11
936.443	5522.34
936.751	5489.35
937.059	5497.26
937.367	5470.36
937.674	5506.97
937.982	5509.01
938.29	5427.43
938.597	5394.21
938.905	5292.06
939.213	5348.33
939.52	5300.2
939.827	5304.72
940.135	5321.44
940.442	5273.99
940.749	5275.57
941.056	5248.68
941.363	5173.65
941.67	5156.7
941.977	5109.24
942.284	5158.28
942.591	5076.48
942.898	5047.55
943.205	5090.71
943.511	5055.23
943.818	5008.91
944.125	4997.61
944.431	4990.83
944.738	4937.5
945.044	4972.75
945.35	4959.42
945.657	4884.17
945.963	4853.43
946.269	4826.77
946.575	4834
946.881	4770.04
947.187	4820.44
947.493	4705.86
947.799	4762.59
948.105	4705.19
948.41	4691.18
948.716	4700.44
949.022	4651.4
949.327	4651.18
949.633	4544.97
949.938	4634.91
950.244	4641.01
950.549	4563.04
950.854	4541.12
951.16	4516.49
951.465	4532.99
951.77	4481.92
952.075	4464.52
952.38	4504.06
952.685	4457.51
952.99	4423.84
953.294	4405.99
953.599	4397.62
953.904	4366.21
954.209	4347.46
954.513	4342.94
954.818	4325.08
955.122	4272.43
955.426	4259.32
955.731	4233.79
956.035	4248.02
956.339	4238.31
956.643	4250.28
956.948	4211.41
957.252	4134.81
957.556	4166.22
957.86	4097.07
958.163	4085.32
958.467	4089.16
958.771	4122.6
959.075	4107.69
959.378	4024.98
959.682	4015.49
959.985	4004.19
960.289	3989.05
960.592	3965.09
960.896	3947.47
961.199	3951.76
961.502	3938.65
961.805	3897.52
962.108	3870.41
962.411	3937.3
962.714	3806.23
963.017	3846.23
963.32	3836.74
963.623	3816.17
963.926	3800.35
964.228	3783.18
964.531	3740.24
964.833	3733.69
965.136	3716.51
965.438	3720.58
965.741	3712.9
966.043	3687.81
966.345	3675.61
966.648	3647.14
966.95	3601.71
967.252	3639.23
967.554	3602.17
967.856	3584.54
968.158	3551.55
968.46	3525.33
968.761	3522.85
969.063	3509.29
969.365	3479
969.666	3512.68
969.968	3471.55
970.269	3474.94
970.571	3443.53
970.872	3442.17
971.174	3384.54
971.475	3397.42
971.776	3368.95
972.077	3348.61
972.378	3360.14
972.679	3321.04
972.98	3330.53
973.281	3307.03
973.582	3293.02
973.883	3286.69
974.183	3287.15
974.484	3290.53
974.785	3283.76
975.085	3220.93
975.386	3238.33
975.686	3184.1
975.986	3180.93
976.287	3164.21
976.587	3155.17
976.887	3117.88
977.187	3122.86
977.487	3120.14
977.787	3068.17
978.087	3065.91
978.387	3063.65
978.687	3043.08
978.987	3024.1
979.286	3049.64
979.586	3009.41
979.885	3019.58
980.185	3003.08
980.484	2957.44
980.784	2933.93
981.083	2954.05
981.382	2934.16
981.682	2943.2
981.981	2886.7
982.28	2916.08
982.579	2865.91
982.878	2869.3
983.177	2862.07
983.475	2836.99
983.774	2821.62
984.073	2808.97
984.372	2793.82
984.67	2799.25
984.969	2771.68
985.267	2783.2
985.566	2745.69
985.864	2734.17
986.162	2743.88
986.461	2757.67
986.759	2730.55
987.057	2670.44
987.355	2690.1
987.653	2691
987.951	2660.27
988.249	2619.14
988.547	2648.74
988.844	2655.07
989.142	2603.1
989.44	2570.78
989.737	2573.04
990.035	2587.28
990.332	2544.57
990.63	2520.16
990.927	2529.65
991.224	2516.54
991.521	2528.3
991.819	2507.05
992.116	2504.34
992.413	2447.62
992.71	2443.55
993.006	2457.34
993.303	2444.91
993.6	2455.53
993.897	2427.96
994.193	2417.11
994.49	2410.78
994.787	2378.47
995.083	2361.07
995.379	2394.97
995.676	2374.63
995.972	2328.07
996.268	2327.17
996.565	2338.7
996.861	2300.28
997.157	2263.22
997.453	2276.1
997.749	2253.73
998.044	2237.46
998.34	2258.25
998.636	2253.27
998.932	2231.35
999.227	2190.68
999.523	2197.23
999.818	2194.52
1000.114	2172.15
1000.409	2157.91
1000.704	2152.26
1001	2192.26
1001.295	2129.66
1001.59	2126.72
1001.885	2093.73
1002.18	2091.24
1002.475	2074.75
1002.77	2109.1
1003.065	2062.32
1003.359	2041.98
1003.654	2051.92
1003.949	2023.9
1004.243	2002.43
1004.538	1987.07
1004.832	1994.52
1005.127	1985.26
1005.421	1982.32
1005.715	1934.41
1006.009	1941.87
1006.304	1950.23
1006.598	1912.04
1006.892	1928.31
1007.186	1896
1007.48	1905.94
1007.773	1907.29
1008.067	1922.21
1008.361	1858.71
1008.655	1849.22
1008.948	1847.41
1009.242	1857.8
1009.535	1821.2
1009.829	1792.04
1010.122	1798.37
1010.415	1791.82
1010.708	1790.24
1011.001	1773.96
1011.295	1753.4
1011.588	1769.22
1011.881	1741.88
1012.173	1741.65
1012.466	1725.83
1012.759	1712.27
1013.052	1696.23
1013.344	1688.77
1013.637	1685.61
1013.93	1635.66
1014.222	1662.33
1014.514	1662.56
1014.807	1658.26
1015.099	1639.28
1015.391	1630.24
1015.683	1616
1015.976	1591.14
1016.268	1574.2
1016.56	1568.32
1016.851	1569
1017.143	1569.45
1017.435	1565.83
1017.727	1540.07
1018.018	1529.45
1018.31	1510.69
1018.602	1537.36
1018.893	1505.27
1019.185	1493.29
1019.476	1491.49
1019.767	1483.58
1020.058	1474.99
1020.35	1464.14
1020.641	1442.67
1020.932	1487.64
1021.223	1417.14
1021.514	1421.21
1021.804	1395.22
1022.095	1387.53
1022.386	1377.14
1022.677	1376.46
1022.967	1362.68
1023.258	1376.46
1023.548	1353.64
1023.839	1373.07
1024.129	1343.47
1024.419	1333.75
1024.709	1321.77
1025	1300.98
1025.29	1310.25
1025.58	1305.73
1025.87	1279.06
1026.16	1265.73
1026.449	1285.39
1026.739	1252.85
1027.029	1263.24
1027.319	1242.23
1027.608	1253.53
1027.898	1257.37
1028.187	1216.24
1028.477	1235.67
1028.766	1199.06
1029.055	1189.12
1029.344	1203.81
1029.634	1193.19
1029.923	1213.08
1030.212	1171.27
1030.501	1156.35
1030.79	1166.3
1031.078	1111.84
1031.367	1141.44
1031.656	1138.28
1031.945	1161.55
1032.233	1129.91
1032.522	1095.11
1032.81	1111.16
1033.099	1103.47
1033.387	1071.16
1033.675	1072.06
1033.963	1084.72
1034.251	1059.63
1034.54	1045.85
1034.828	1048.56
1035.116	1051.05
1035.403	1042.91
1035.691	1044.04
1035.979	1054.21
1036.267	1029.8
1036.554	1008.11
1036.842	981.22
1037.129	1019.63
1037.417	997.04
1037.704	970.6
1037.992	1010.37
1038.279	973.76
1038.566	980.31
1038.853	980.31
1039.14	980.31
