Data from hue_38_FLMS001491_00011.txt Node
Date: Tue Feb 07 17:31:06 GMT 2017
User: dcchb
Spectrometer: FLMS00149
Trigger mode: 0
Integration Time (sec): 2.000000E-2
Scans to average: 10
Electric dark correction enabled: true
Nonlinearity correction enabled: false
Boxcar width: 0
XAxis mode: Wavelengths
Number of Pixels in Spectrum: 2048
>>>>>Begin Spectral Data<<<<<
341.393	-9.76
341.776	-9.76
342.16	-9.76
342.543	-49.31
342.927	-64.22
343.31	-80.94
343.693	-71.68
344.077	-67.39
344.46	-55.86
344.843	-64.9
345.226	-57.89
345.61	-28.06
345.993	-38.69
346.376	1.77
346.759	-2.98
347.142	26.4
347.525	45.61
347.908	74.53
348.291	69.56
348.674	121.54
349.057	128.99
349.44	137.13
349.823	159.5
350.206	182.55
350.588	201.76
350.971	220.52
351.354	228.88
351.737	235.88
352.119	264.36
352.502	269.56
352.884	268.43
353.267	287.18
353.65	297.12
354.032	321.76
354.414	301.19
354.797	322.44
355.179	307.29
355.562	327.86
355.944	346.39
356.326	340.29
356.709	342.1
357.091	343.68
357.473	340.29
357.855	356.11
358.238	348.65
358.62	349.78
359.002	345.49
359.384	317.01
359.766	317.69
360.148	343.9
360.53	349.55
360.912	358.14
361.294	339.61
361.676	339.38
362.057	331.93
362.439	338.25
362.821	338.71
363.203	352.26
363.584	345.49
363.966	339.61
364.348	297.12
364.729	317.01
365.111	311.36
365.493	328.31
365.874	309.33
366.256	310.23
366.637	318.37
367.019	322.89
367.4	325.37
367.781	312.49
368.163	317.92
368.544	321.76
368.925	309.33
369.306	319.05
369.688	336.22
370.069	310.01
370.45	317.46
370.831	346.84
371.212	322.66
371.593	323.34
371.974	318.37
372.355	329.67
372.736	312.94
373.117	318.82
373.498	307.29
373.879	322.89
374.26	332.38
374.641	315.43
375.021	322.44
375.402	334.19
375.783	341.64
376.163	331.93
376.544	329.21
376.925	335.54
377.305	339.16
377.686	325.82
378.066	318.82
378.447	344.81
378.827	335.77
379.208	353.39
379.588	335.54
379.968	332.83
380.349	345.03
380.729	326.73
381.109	354.98
381.489	349.1
381.87	343.9
382.25	337.35
382.63	336.9
383.01	370.8
383.39	355.43
383.77	335.09
384.15	338.25
384.53	345.03
384.91	358.14
385.29	357.46
385.67	354.98
386.049	343.45
386.429	339.16
386.809	355.2
387.189	355.43
387.568	364.24
387.948	371.02
388.328	348.42
388.707	353.39
389.087	390
389.466	368.54
389.846	376.22
390.225	348.65
390.605	359.04
390.984	358.14
391.363	366.5
391.743	395.2
392.122	363.56
392.501	371.25
392.881	382.55
393.26	387.07
393.639	386.39
394.018	363.56
394.397	381.87
394.776	388.2
395.155	413.05
395.534	388.65
395.913	380.51
396.292	378.93
396.671	380.96
397.05	395.65
397.429	385.71
397.808	394.98
398.186	386.39
398.565	393.17
398.944	391.59
399.323	397.46
399.701	397.69
400.08	388.87
400.458	411.92
400.837	395.88
401.215	403.79
401.594	401.98
401.972	421.19
402.351	408.76
402.729	404.47
403.107	412.83
403.486	402.21
403.864	431.36
404.242	411.02
404.62	413.05
404.999	420.06
405.377	424.35
405.755	416.44
406.133	438.59
406.511	424.35
406.889	436.56
407.267	431.13
407.645	433.84
408.023	444.47
408.401	445.37
408.779	442.66
409.156	443.11
409.534	437.69
409.912	448.53
410.29	445.37
410.667	448.08
411.045	441.98
411.422	474.97
411.8	455.99
412.178	453.73
412.555	496.44
412.933	477.01
413.31	495.54
413.687	477.23
414.065	479.49
414.442	477.46
414.819	510.9
415.197	483.11
415.574	505.26
415.951	472.94
416.328	503.45
416.705	480.4
417.082	469.1
417.46	509.55
417.837	505.48
418.214	511.81
418.591	494.18
418.967	528.98
419.344	517.01
419.721	529.66
420.098	535.08
420.475	528.53
420.852	528.31
421.228	556.78
421.605	534.63
421.982	545.03
422.358	550.9
422.735	549.77
423.111	553.16
423.488	534.41
423.864	568.53
424.241	571.47
424.617	551.13
424.994	548.87
425.37	587.06
425.746	570.79
426.123	574.41
426.499	604.24
426.875	583.22
427.251	571.92
427.627	589.77
428.003	589.77
428.379	617.34
428.756	595.2
429.132	606.27
429.507	620.28
429.883	616.89
430.259	604.91
430.635	607.63
431.011	608.76
431.387	613.05
431.763	633.16
432.138	651.24
432.514	628.64
432.89	655.08
433.265	629.55
433.641	656.66
434.016	651.24
434.392	665.25
434.767	660.51
435.143	666.61
435.518	693.72
435.894	709.77
436.269	681.07
436.644	725.36
437.02	709.77
437.395	700.5
437.77	712.26
438.145	743.21
438.52	725.59
438.895	736.89
439.271	744.57
439.646	765.81
440.021	754.74
440.395	767.62
440.77	736.66
441.145	756.55
441.52	755.87
441.895	750.9
442.27	747.96
442.645	788.86
443.019	788.19
443.394	774.4
443.769	800.61
444.143	789.77
444.518	793.38
444.892	786.15
445.267	813.27
445.641	823.21
446.016	820.95
446.39	825.92
446.764	806.72
447.139	808.07
447.513	846.26
447.887	813.72
448.262	818.47
448.636	809.65
449.01	823.44
449.384	835.42
449.758	855.3
450.132	861.86
450.506	863.89
450.88	873.83
451.254	890.33
451.628	917.9
452.002	876.54
452.376	884.45
452.75	922.65
453.123	922.19
453.497	915.87
453.871	922.65
454.244	912.25
454.618	936.66
454.992	961.29
455.365	958.58
455.739	954.28
456.112	992.93
456.486	977.33
456.859	996.77
457.232	1012.81
457.606	990.67
457.979	1019.82
458.352	1024.34
458.725	1044.68
459.099	1079.48
459.472	1063.66
459.845	1102.3
460.218	1088.06
460.591	1091.23
460.964	1107.73
461.337	1121.51
461.71	1170.1
462.083	1168.06
462.456	1162.64
462.829	1182.07
463.201	1199.02
463.574	1211.68
463.947	1241.73
464.32	1230.43
464.692	1250.09
465.065	1248.06
465.438	1276.99
465.81	1284.9
466.183	1275.63
466.555	1328.74
466.928	1338.23
467.3	1337.1
467.672	1341.62
468.045	1381.16
468.417	1411.67
468.789	1432.46
469.161	1454.16
469.534	1479.92
469.906	1498.22
470.278	1535.74
470.65	1537.77
471.022	1556.53
471.394	1597.66
471.766	1627.94
472.138	1629.07
472.51	1712
472.882	1694.15
473.253	1759.69
473.625	1773.7
473.997	1822.06
474.369	1860.02
474.74	1893.24
475.112	1904.77
475.484	1950.87
475.855	2024.76
476.227	2033.58
476.598	2109.51
476.97	2104.99
477.341	2182.5
477.713	2236.06
478.084	2271.99
478.455	2357.41
478.827	2382.49
479.198	2450.29
479.569	2485.54
479.94	2552.66
480.311	2568.93
480.682	2689.38
481.053	2772.31
481.424	2861.13
481.795	2887.11
482.166	2977.28
482.537	3052.31
482.908	3113.1
483.279	3168.46
483.65	3287.78
484.021	3346.08
484.391	3464.5
484.762	3500.66
485.133	3564.16
485.503	3679.41
485.874	3773.64
486.244	3888.67
486.615	3967.08
486.985	4047.08
487.356	4162.56
487.726	4238.04
488.097	4361.42
488.467	4416.56
488.837	4600.29
489.207	4680.74
489.578	4765.03
489.948	4844.58
490.318	4958.47
490.688	5024.23
491.058	5160.27
491.428	5244.34
491.798	5395.75
492.168	5588.96
492.538	5591.9
492.908	5677.32
493.278	5814.95
493.648	5852.46
494.017	5960.25
494.387	6084.09
494.757	6223.97
495.126	6313.69
495.496	6426.23
495.866	6468.49
496.235	6602.27
496.605	6726.33
496.974	6793
497.344	6899.66
497.713	6964.52
498.082	7057.4
498.452	7157.74
498.821	7273.89
499.19	7307.79
499.559	7446.99
499.928	7536.71
500.298	7645.86
500.667	7678.17
501.036	7724.27
501.405	7847.21
501.774	7891.28
502.143	8046.98
502.512	8140.31
502.88	8214.66
503.249	8282.9
503.618	8343.47
503.987	8473.63
504.356	8497.81
504.724	8607.41
505.093	8658.94
505.462	8658.49
505.83	8810.35
506.199	8912.94
506.567	9055.76
506.936	9073.17
507.304	9198.13
507.672	9194.52
508.041	9324.91
508.409	9394.29
508.777	9495.3
509.145	9518.13
509.514	9583.89
509.882	9726.71
510.25	9737.78
510.618	9792.24
510.986	9877.66
511.354	9933.48
511.722	10007.83
512.09	10197.43
512.458	10128.05
512.826	10282.85
513.193	10300.03
513.561	10356.75
513.929	10417.08
514.297	10538.21
514.664	10668.38
515.032	10633.35
515.4	10729.84
515.767	10849.62
516.135	10863.63
516.502	10819.33
516.869	11016.17
517.237	11072.21
517.604	11036.5
517.972	11235.59
518.339	11218.87
518.706	11344.52
519.073	11350.85
519.44	11409.6
519.808	11584.51
520.175	11586.55
520.542	11790.38
520.909	11758.74
521.276	11722.36
521.643	11912.19
522.009	12036.48
522.376	12022.92
522.743	12029.02
523.11	12289.35
523.477	12401.67
523.843	12451.83
524.21	12532.06
524.577	12532.74
524.943	12573.64
525.31	12691.6
525.676	12827.64
526.043	12869.68
526.409	12953.29
526.776	13063.12
527.142	13106.73
527.508	13203
527.874	13220.63
528.241	13433.28
528.607	13387.63
528.973	13503.78
529.339	13510.11
529.705	13780.39
530.071	13755.53
530.437	13801.4
530.803	13917.33
531.169	13975.18
531.535	14040.04
531.901	14044.33
532.267	14143.99
532.632	14240.71
532.998	14252.24
533.364	14290.43
533.73	14451.1
534.095	14590.08
534.461	14520.03
534.826	14637.54
535.192	14702.85
535.557	14775.61
535.923	14706.01
536.288	14917.98
536.653	14860.58
537.019	14951.43
537.384	15011.31
537.749	15078.21
538.114	15126.57
538.479	15148.03
538.845	15218.77
539.21	15180.8
539.575	15323.17
539.94	15371.98
540.305	15455.37
540.67	15495.37
541.034	15544.63
541.399	15638.64
541.764	15662.37
542.129	15761.35
542.494	15720
542.858	15833.67
543.223	15839.09
543.587	16061
543.952	15963.83
544.316	16095.13
544.681	16132.64
545.045	16190.04
545.41	16257.61
545.774	16326.76
546.138	16364.73
546.503	16378.28
546.867	16482.91
547.231	16602.68
547.595	16610.14
547.959	16670.93
548.324	16691.5
548.688	16706.19
549.052	16803.81
549.416	16858.72
549.779	16846.97
550.143	16967.2
550.507	17110.24
550.871	17063.69
551.235	17094.42
551.599	17225.27
551.962	17237.7
552.326	17273.18
552.689	17435.43
553.053	17411.93
553.417	17422.32
553.78	17665.48
554.143	17553.85
554.507	17691.92
554.87	17750
555.234	17973.27
555.597	17857.34
555.96	17899.83
556.323	18039.71
556.686	18058.69
557.05	18072.02
557.413	18200.83
557.776	18180.72
558.139	18362.41
558.502	18262.53
558.865	18354.28
559.228	18539.13
559.59	18578
559.953	18535.29
560.316	18829.29
560.679	18781.61
561.041	18895.73
561.404	18979.12
561.767	19040.13
562.129	18989.06
562.492	19259.56
562.854	19199.68
563.217	19180.7
563.579	19273.35
563.941	19323.74
564.304	19553.57
564.666	19665.88
565.028	19639.89
565.39	19744.07
565.753	19706.78
566.115	19892.77
566.477	19969.15
566.839	19973.44
567.201	20091.41
567.563	20096.83
567.925	20231.74
568.287	20207.56
568.648	20374.11
569.01	20520.55
569.372	20606.87
569.734	20530.72
570.095	20752.41
570.457	20746.08
570.819	20843.03
571.18	20980.87
571.542	20995.56
571.903	21058.84
572.265	21195.11
572.626	21352.16
572.987	21315.1
573.349	21440.3
573.71	21485.49
574.071	21574.08
574.432	21731.14
574.794	21801.64
575.155	22004.35
575.516	21938.36
575.877	22137.68
576.238	22161.41
576.599	22349.2
576.96	22282.99
577.32	22456.77
577.681	22673.26
578.042	22765.23
578.403	22906.7
578.763	23092.46
579.124	23041.61
579.485	23321.15
579.845	23486.35
580.206	23605.44
580.566	23590.98
580.927	23774.93
581.287	23995.71
581.648	24011.76
582.008	24398.64
582.368	24355.02
582.728	24565.19
583.089	24619.2
583.449	24798.85
583.809	24930.38
584.169	25290.59
584.529	25319.29
584.889	25646.74
585.249	25632.73
585.609	25814.19
585.969	26215.99
586.329	26239.72
586.688	26471.13
587.048	26631.12
587.408	26810.33
587.768	26898.69
588.127	27143.2
588.487	27387.94
588.846	27639.91
589.206	27704.99
589.565	27901.82
589.925	28143.62
590.284	28284.64
590.643	28488.7
591.003	28832.42
591.362	29132.52
591.721	29214.78
592.08	29417.49
592.44	29750.59
592.799	29876.01
593.158	30030.13
593.517	30352.83
593.876	30511.7
594.235	30525.48
594.593	30805.02
594.952	31173.83
595.311	31239.36
595.67	31394.61
596.029	31769.74
596.387	31936.52
596.746	32168.83
597.104	32255.15
597.463	32506
597.822	32698.31
598.18	32748.48
598.538	32915.7
598.897	33177.62
599.255	33191.63
599.613	33784.83
599.972	33747.32
600.33	34169.45
600.688	33959.97
601.046	34230.02
601.404	34609.22
601.762	34522.44
602.12	34985.03
602.478	35059.37
602.836	35212.37
603.194	35160.62
603.552	35241.97
603.91	35490.1
604.268	35746.81
604.625	35739.81
604.983	36105.45
605.341	35901.61
605.698	36284.65
606.056	36576.17
606.413	36449.17
606.771	36867.24
607.128	36938.65
607.485	37064.07
607.843	37061.58
608.2	37324.17
608.557	37565.07
608.914	37470.38
609.272	37813.88
609.629	37883.26
609.986	38072.18
610.343	38236.92
610.7	38474.43
611.057	38526.85
611.414	38606.17
611.771	38746.06
612.127	38859.27
612.484	38932.27
612.841	39053.39
613.198	39108.99
613.554	39211.13
613.911	39532.48
614.267	39539.71
614.624	39543.1
614.98	39663.32
615.337	39968.17
615.693	40055.18
616.05	40080.03
616.406	40447.71
616.762	40310.76
617.118	40340.59
617.475	40394.6
617.831	40627.14
618.187	40549.17
618.543	40787.36
618.899	40915.72
619.255	40963.17
619.611	40969.95
619.967	41187.58
620.323	41198.42
620.678	41252.43
621.034	41131.53
621.39	41164.75
621.746	41200.46
622.101	41748.69
622.457	41442.48
622.812	41461.92
623.168	41679.09
623.523	41844.06
623.879	41963.83
624.234	41669.6
624.589	41951.4
624.945	41974
625.3	41930.15
625.655	41988.68
626.01	42170.6
626.365	42118.4
626.72	42091.05
627.075	42179.87
627.43	42202.01
627.785	42243.37
628.14	42231.62
628.495	42315.91
628.85	42228.68
629.205	42099.64
629.559	42399.52
629.914	42277.72
630.269	42312.07
630.623	42306.64
630.978	42208.34
631.332	42302.12
631.687	42469.35
632.041	42267.55
632.396	42492.85
632.75	42325.17
633.104	42322.01
633.459	42080.21
633.813	42205.63
634.167	42294.44
634.521	42330.14
634.875	42406.07
635.229	42161.79
635.583	42203.37
635.937	42197.72
636.291	42169.02
636.645	42308.9
636.999	42171.73
637.352	42292.4
637.706	41900.32
638.06	42212.41
638.413	42087.89
638.767	42011.51
639.121	42143.26
639.474	41933.09
639.828	41979.19
640.181	42107.55
640.534	42060.55
640.888	41930.61
641.241	41737.39
641.594	41846.09
641.947	42041.11
642.301	41802.02
642.654	41878.63
643.007	41966.76
643.36	41846.54
643.713	41869.82
644.066	41863.49
644.419	41703.72
644.771	41517.06
645.124	41111.87
645.477	41052.66
645.83	40805.89
646.182	40681.37
646.535	40702.84
646.888	40725.44
647.24	40486.12
647.593	40724.76
647.945	40720.47
648.298	40465.11
648.65	40269.18
649.002	40333.59
649.355	40584.65
649.707	40483.41
650.059	40653.58
650.411	41135.37
650.763	41099.44
651.115	41545.53
651.467	41367.91
651.819	41408.59
652.171	41212.21
652.523	41288.36
652.875	41245.2
653.227	41108.48
653.578	41268.03
653.93	41261.7
654.282	41083.4
654.633	40949.16
654.985	40997.52
655.337	41035.26
655.688	41028.26
656.039	41261.25
656.391	40808.15
656.742	40988.48
657.094	40987.81
657.445	41224.86
657.796	41129.05
658.147	41043.4
658.498	40889.5
658.849	41018.09
659.2	40849.51
659.551	40790.52
659.902	41077.3
660.253	40777.87
660.604	41016.73
660.955	40832.78
661.306	41031.42
661.656	40922.27
662.007	40787.13
662.358	40958.88
662.708	40785.78
663.059	40910.52
663.409	40644.99
663.76	41044.75
664.11	40794.82
664.461	40778.77
664.811	40815.38
665.161	40820.81
665.511	40813.57
665.862	40763.41
666.212	40829.39
666.562	40978.77
666.912	40796.4
667.262	40680.24
667.612	40759.34
667.962	40744.2
668.312	40608.61
668.662	40972.67
669.011	40773.8
669.361	40756.17
669.711	40763.86
670.06	40544.88
670.41	40624.65
670.76	40538.78
671.109	40682.28
671.459	40488.61
671.808	40523.86
672.157	40587.59
672.507	40406.13
672.856	40364.55
673.205	40401.83
673.554	40564.99
673.904	40446.13
674.253	40709.85
674.602	40525.22
674.951	39966.59
675.3	39833.94
675.649	40459.01
675.998	40407.93
676.346	40345.79
676.695	40592.79
677.044	40266.02
677.393	40228.73
677.741	40355.51
678.09	40230.99
678.438	40164.55
678.787	40207.94
679.135	40244.1
679.484	40003.2
679.832	40105.57
680.181	39852.47
680.529	39897.67
680.877	39873.49
681.225	39892.24
681.573	40037.77
681.922	39818.12
682.27	39721.17
682.618	39650.67
682.966	39499.71
683.314	39734.96
683.661	39573.61
684.009	39428.98
684.357	39306.27
684.705	39241.19
685.053	39348.75
685.4	39143.56
685.748	39144.69
686.095	38957.8
686.443	38843.23
686.79	38784.25
687.138	38965.49
687.485	38984.7
687.832	38901.53
688.18	38822.89
688.527	38551.26
688.874	38713.74
689.221	38482.34
689.568	38478.49
689.915	38462.22
690.262	38494.31
690.609	38389.91
690.956	38225.39
691.303	38262.91
691.65	38016.13
691.997	38037.83
692.344	37864.27
692.69	37702.47
693.037	37801.22
693.383	37574.56
693.73	37657.95
694.077	37401.01
694.423	37458.41
694.769	37314
695.116	37252.99
695.462	37247.79
695.808	37071.07
696.155	37084.41
696.501	36816.16
696.847	36867.24
697.193	36639.67
697.539	36815.26
697.885	36403.97
698.231	36381.15
698.577	36408.72
698.923	36349.51
699.269	36054.38
699.614	36109.06
699.96	36025.45
700.306	35969.41
700.651	35750.43
700.997	35644.9
701.342	35627.95
701.688	35525.35
702.033	35531.45
702.379	35408.52
702.724	35371.23
703.069	35406.26
703.415	34946.84
703.76	35098.02
704.105	35010.79
704.45	35005.82
704.795	34650.12
705.14	34686.73
705.485	34591.36
705.83	34462.55
706.175	34564.02
706.52	34402.22
706.865	34300.3
707.209	34198.61
707.554	34214.88
707.899	34181.43
708.243	34044.26
708.588	33943.7
708.932	33783.02
709.277	33757.49
709.621	33730.37
709.966	33522.69
710.31	33542.8
710.654	33253.55
710.998	33354.56
711.342	33378.06
711.687	33268.91
712.031	33237.95
712.375	33022.14
712.719	33149.59
713.063	32996.83
713.407	32956.15
713.75	32905.76
714.094	32903.95
714.438	32699.89
714.782	32743.05
715.125	32560.46
715.469	32776.27
715.812	32525.2
716.156	32369.5
716.499	32352.55
716.843	32353.01
717.186	32244.76
717.53	32279.11
717.873	32329.28
718.216	32242.05
718.559	32084.76
718.902	31907.37
719.246	32022.39
719.589	31988.04
719.932	31815.62
720.275	31786.01
720.617	31674.61
720.96	31668.5
721.303	31639.35
721.646	31768.16
721.989	31431.67
722.331	31540.6
722.674	31438.9
723.016	31561.84
723.359	31343.09
723.701	31322.98
724.044	31162.98
724.386	31019.93
724.729	31234.16
725.071	31155.3
725.413	31098.35
725.755	30986.94
726.097	30905.59
726.439	30700.17
726.782	30748.3
727.124	30928.18
727.465	30694.97
727.807	30666.04
728.149	30545.6
728.491	30582.2
728.833	30626.5
729.175	30510.57
729.516	30373.62
729.858	30419.5
730.199	30398.25
730.541	30261.99
730.882	30222.21
731.224	30325.04
731.565	30089.11
731.906	30100.18
732.248	30250.46
732.589	30026.06
732.93	29982.45
733.271	29956.91
733.612	30069.68
733.953	30004.82
734.294	29854.31
734.635	29800.08
734.976	29963.01
735.317	29762.11
735.658	29646.18
735.999	29684.15
736.339	29606.86
736.68	29625.85
737.021	29523.25
737.361	29469.69
737.702	29652.51
738.042	29445.29
738.383	29352.41
738.723	29412.74
739.063	29326.19
739.404	29428.56
739.744	29269.02
740.084	29188.79
740.424	29176.14
740.764	29084.84
741.104	29204.16
741.444	29012.53
741.784	28891.63
742.124	29078.52
742.464	28820.89
742.804	28867.67
743.143	28851.18
743.483	28919.65
743.823	28663.16
744.162	28705.42
744.502	28839.65
744.841	28636.49
745.181	28732.99
745.52	28553.78
745.86	28583.61
746.199	28566.89
746.538	28570.05
746.877	28524.86
747.216	28542.26
747.556	28295.48
747.895	28317.86
748.234	28314.24
748.573	28275.6
748.911	28199.67
749.25	28225.2
749.589	28060.91
749.928	28039.22
750.267	28074.47
750.605	27879.68
750.944	27834.25
751.283	27761.94
751.621	27886.23
751.96	27716.07
752.298	27740.47
752.636	27738.21
752.975	27658.44
753.313	27449.41
753.651	27596.07
753.989	27329.63
754.327	27344.55
754.666	27365.11
755.004	27210.99
755.342	27355.85
755.679	27267.04
756.017	27110.88
756.355	27084.9
756.693	27015.97
757.031	27098.23
757.368	26936.42
757.706	26902.75
758.044	26716.32
758.381	26803.77
758.719	26765.81
759.056	26711.57
759.394	26569.2
759.731	26285.82
760.068	26372.6
760.405	26331.47
760.743	26204.24
761.08	26307.51
761.417	26146.61
761.754	26085.37
762.091	25965.15
762.428	25915.66
762.765	25797.02
763.102	25787.98
763.438	25748.89
763.775	25509.8
764.112	25648.1
764.449	25578.72
764.785	25471.83
765.122	25373.75
765.458	25203.59
765.795	25225.06
766.131	25154.78
766.467	25054.21
766.804	24923.82
767.14	24834.78
767.476	24780.1
767.812	24694.68
768.148	24814.22
768.485	24627.33
768.821	24461.91
769.157	24461.01
769.492	24344.63
769.828	24307.34
770.164	24178.53
770.5	24154.58
770.836	24060.57
771.171	23913.45
771.507	23900.8
771.842	23671.2
772.178	23717.98
772.513	23676.4
772.849	23529.96
773.184	23448.61
773.519	23451.54
773.855	23235.5
774.19	23103.53
774.525	23138.11
774.86	23010.43
775.195	23108.28
775.53	22949.86
775.865	22857.89
776.2	22724.11
776.535	22543.09
776.87	22511.46
777.205	22471.01
777.539	22345.81
777.874	22386.71
778.209	22135.19
778.543	22094.74
778.878	22055.42
779.212	21990.34
779.547	21829.44
779.881	22000.74
780.215	21763.45
780.55	21696.34
780.884	21590.8
781.218	21615.21
781.552	21569.11
781.886	21402.78
782.22	21278.72
782.554	21199.4
782.888	21107.65
783.222	20928.22
783.556	20993.53
783.889	20907.66
784.223	20810.71
784.557	20656.82
784.89	20758.73
785.224	20517.16
785.557	20500.44
785.891	20391.29
786.224	20407.78
786.558	20324.39
786.891	20137.96
787.224	20070.62
787.557	19982.48
787.891	20022.48
788.224	19996.95
788.557	20023.61
788.89	19950.17
789.223	19892.09
789.556	19749.49
789.888	19719.89
790.221	19582.49
790.554	19339.56
790.887	19435.38
791.219	19365.32
791.552	19355.15
791.884	19239
792.217	19161.94
792.549	19095.05
792.882	18973.7
793.214	18911.32
793.546	18963.75
793.879	18831.1
794.211	18690.54
794.543	18700.26
794.875	18594.72
795.207	18671.11
795.539	18625.23
795.871	18609.41
796.203	18358.57
796.535	18332.81
796.867	18217.78
797.198	18148.63
797.53	18169.65
797.862	17926.49
798.193	18095.75
798.525	18041.07
798.856	17964.68
799.188	17792.03
799.519	17734.41
799.85	17623
800.182	17742.09
800.513	17635.2
800.844	17518.14
801.175	17576.44
801.506	17494.19
801.837	17378.26
802.168	17464.58
802.499	17303.23
802.83	17371.48
803.161	17194.53
803.491	17154.76
803.822	17149.11
804.153	17086.51
804.483	16980.3
804.814	16826.41
805.145	16893.52
805.475	16884.26
805.805	16890.81
806.136	16795.9
806.466	16793.87
806.796	16716.35
807.126	16610.82
807.457	16638.16
807.787	16545.51
808.117	16427.77
808.447	16395.91
808.777	16393.42
809.107	16343.48
809.436	16377.83
809.766	16250.38
810.096	16248.8
810.426	16201.57
810.755	16188.01
811.085	16155.24
811.414	16016.49
811.744	15950.05
812.073	15820.78
812.403	15870.95
812.732	15844.96
813.061	15839.99
813.39	15753.89
813.719	15736.27
814.049	15734.01
814.378	15693.56
814.707	15626.21
815.036	15558.19
815.365	15522.04
815.693	15312.78
816.022	15404.3
816.351	15348.25
816.68	15218.77
817.008	15417.86
817.337	15217.64
817.665	15150.97
817.994	15184.42
818.322	15120.69
818.651	15115.49
818.979	15062.16
819.307	15081.82
819.636	15047.02
819.964	14957.3
820.292	14963.18
820.62	15003.18
820.948	14941.94
821.276	14985.78
821.604	14867.82
821.932	14839.34
822.259	14909.62
822.587	14823.97
822.915	14884.54
823.243	14852.45
823.57	14836.63
823.898	14839.12
824.225	14805.22
824.553	14748.72
824.88	14860.36
825.207	14879.11
825.535	14835.73
825.862	14876.85
826.189	14753.47
826.516	14863.52
826.843	14908.49
827.17	14821.94
827.497	14872.33
827.824	14797.08
828.151	14871.21
828.478	14840.02
828.805	14878.66
829.131	14920.47
829.458	14787.82
829.785	14721.6
830.111	14833.69
830.438	14826.23
830.764	14762.73
831.09	14814.03
831.417	14714.6
831.743	14809.51
832.069	14709.85
832.395	14673.47
832.722	14792.34
833.048	14669.4
833.374	14760.02
833.7	14657.65
834.026	14659.23
834.351	14656.3
834.677	14665.79
835.003	14712.79
835.329	14596.86
835.654	14599.35
835.98	14641.38
836.306	14590.99
836.631	14496.75
836.956	14516.64
837.282	14416.98
837.607	14416.08
837.932	14386.7
838.258	14302.41
838.583	14431.89
838.908	14307.83
839.233	14385.57
839.558	14319.81
839.883	14304.44
840.208	14221.96
840.533	14184.44
840.858	14208.17
841.182	14219.24
841.507	14195.74
841.832	14116.87
842.156	14074.62
842.481	14077.33
842.805	14011.57
843.13	13984.9
843.454	14012.47
843.778	13902.19
844.103	13895.86
844.427	13871.91
844.751	13882.08
845.075	13773.15
845.399	13807.05
845.723	13724.57
846.047	13749.65
846.371	13598.47
846.695	13590.79
847.019	13529.09
847.343	13428.53
847.666	13362.32
847.99	13323.22
848.313	13345.37
848.637	13138.37
848.96	13172.72
849.284	13214.75
849.607	13056.56
849.931	13094.08
850.254	13004.36
850.577	12920.3
850.9	12835.1
851.223	12789.45
851.546	12755.1
851.869	12652.28
852.192	12733.18
852.515	12552.4
852.838	12542.9
853.161	12533.64
853.483	12405.96
853.806	12435.56
854.129	12357.37
854.451	12337.03
854.774	12271.73
855.096	12186.76
855.419	12169.36
855.741	12183.59
856.063	12055.91
856.385	12134.55
856.708	12038.29
857.03	12021.11
857.352	12027.66
857.674	11974.33
857.996	11889.14
858.318	11856.37
858.64	11803.49
858.961	11814.34
859.283	11720.78
859.605	11701.8
859.926	11732.3
860.248	11740.67
860.57	11661.35
860.891	11640.33
861.212	11597.62
861.534	11488.02
861.855	11544.06
862.176	11560.78
862.498	11496.38
862.819	11529.37
863.14	11496.6
863.461	11421.35
863.782	11360.11
864.103	11412.76
864.424	11408.47
864.745	11311.75
865.065	11315.59
865.386	11260.9
865.707	11237.85
866.027	11314.01
866.348	11307.91
866.668	11342.26
866.989	11278.31
867.309	11189.49
867.63	11135.03
867.95	11151.3
868.27	11095.71
868.59	11119.21
868.91	11073.79
869.23	11040.57
869.55	10964.64
869.87	11111.08
870.19	10995.15
870.51	11011.42
870.83	11034.7
871.15	10973.23
871.469	10927.13
871.789	10916.96
872.109	10957.18
872.428	10875.6
872.748	10860.69
873.067	10810.07
873.386	10826.57
873.706	10805.78
874.025	10770.97
874.344	10812.1
874.663	10711.54
874.982	10695.95
875.301	10756.28
875.62	10617.31
875.939	10636.97
876.258	10581.15
876.577	10618.66
876.896	10649.17
877.214	10528.04
877.533	10533.01
877.852	10572.56
878.17	10569.62
878.489	10529.85
878.807	10515.39
879.125	10452.11
879.444	10443.75
879.762	10454.37
880.08	10478.33
880.398	10326.01
880.716	10419.12
881.034	10385.22
881.352	10402.62
881.67	10347.71
881.988	10352
882.306	10273.13
882.624	10335.05
882.941	10261.83
883.259	10212.12
883.577	10171.67
883.894	10172.57
884.212	10122.63
884.529	10140.71
884.846	10141.16
885.164	10106.13
885.481	10031.11
885.798	10015.06
886.115	10050.99
886.432	10027.72
886.75	9972.8
887.067	9988.62
887.383	9893.93
887.7	9959.7
888.017	9836.76
888.334	9915.63
888.651	9864.78
888.967	9801.73
889.284	9713.15
889.6	9731
889.917	9625.92
890.233	9720.61
890.55	9638.12
890.866	9662.53
891.182	9639.7
891.498	9615.07
891.815	9539.14
892.131	9531.01
892.447	9560.38
892.763	9449.88
893.079	9495.08
893.395	9366.94
893.71	9389.99
894.026	9376.21
894.342	9325.59
894.657	9285.82
894.973	9281.75
895.289	9254.18
895.604	9255.99
895.92	9189.77
896.235	9173.28
896.55	9065.71
896.865	9111.81
897.181	9070.45
897.496	8999.5
897.811	8971.7
898.126	9008.31
898.441	8914.75
898.756	8922.43
899.071	8881.98
899.386	8908.88
899.7	8773.96
900.015	8756.34
900.33	8736.68
900.644	8766.28
900.959	8712.27
901.273	8677.24
901.588	8600.41
901.902	8610.13
902.216	8501.65
902.531	8554.99
902.845	8496.46
903.159	8437.93
903.473	8415.33
903.787	8428.21
904.101	8346.86
904.415	8360.42
904.729	8353.41
905.042	8317.03
905.356	8249.68
905.67	8182.57
905.984	8198.61
906.297	8197.93
906.611	8168.33
906.924	8095.34
907.237	8081.33
907.551	8016.24
907.864	7962.69
908.177	8027.77
908.491	8006.75
908.804	7904.61
909.117	7904.83
909.43	7845.63
909.743	7846.98
910.056	7770.83
910.368	7731.05
910.681	7772.18
910.994	7664.84
911.307	7648.12
911.619	7573.54
911.932	7566.99
912.244	7560.66
912.557	7548.01
912.869	7479.76
913.181	7465.07
913.494	7416.71
913.806	7374.68
914.118	7345.08
914.43	7312.76
914.742	7390.95
915.054	7321.8
915.366	7280.9
915.678	7244.06
915.99	7268.24
916.302	7190.28
916.613	7143.27
916.925	7059.66
917.236	7113.89
917.548	7026.67
917.859	7028.93
918.171	6980.57
918.482	6943.5
918.794	6920.45
919.105	6919.1
919.416	6802.94
919.727	6853.79
920.038	6830.96
920.349	6772.66
920.66	6752.32
920.971	6748.25
921.282	6723.62
921.593	6642.27
921.903	6606.34
922.214	6640.24
922.525	6573.12
922.835	6561.59
923.146	6552.55
923.456	6520.24
923.767	6482.5
924.077	6421.71
924.387	6450.18
924.697	6390.98
925.008	6350.75
925.318	6319.57
925.628	6287.93
925.938	6291.09
926.248	6247.25
926.558	6171.09
926.867	6207.03
927.177	6178.55
927.487	6158.44
927.796	6119.8
928.106	6065.33
928.416	6067.59
928.725	6035.28
929.034	6023.3
929.344	6042.51
929.653	6000.93
929.962	5909.18
930.271	5926.81
930.581	5935.85
930.89	5850.2
931.199	5783.99
931.508	5808.17
931.817	5823.31
932.125	5747.38
932.434	5812.91
932.743	5713.03
933.051	5662.86
933.36	5691.11
933.669	5690.43
933.977	5597.78
934.286	5616.76
934.594	5623.54
934.902	5510.77
935.21	5553.94
935.519	5501.96
935.827	5481.17
936.135	5464.22
936.443	5418.8
936.751	5391.45
937.059	5428.29
937.367	5379.48
937.674	5339.48
937.982	5332.47
938.29	5310.1
938.597	5313.72
938.905	5210.44
939.213	5258.58
939.52	5259.71
939.827	5251.12
940.135	5155.08
940.442	5156.21
940.749	5177.9
941.056	5155.53
941.363	5010.22
941.67	5030.79
941.977	5044.57
942.284	4980.39
942.591	4952.6
942.898	4943.56
943.205	4970.45
943.511	4936.33
943.818	4978.36
944.125	4896.33
944.431	4872.37
944.738	4863.78
945.044	4830.11
945.35	4825.82
945.657	4788.76
945.963	4753.96
946.269	4737.01
946.575	4739.95
946.881	4704.69
947.187	4690.23
947.493	4667.18
947.799	4613.85
948.105	4571.36
948.41	4587.41
948.716	4615.88
949.022	4571.81
949.327	4520.74
949.633	4498.37
949.938	4532.95
950.244	4453.85
950.549	4460.18
950.854	4418.15
951.16	4452.27
951.465	4393.06
951.77	4394.42
952.075	4384.7
952.38	4344.48
952.685	4311.71
952.99	4323.01
953.294	4268.55
953.599	4264.48
953.904	4271.48
954.209	4241.43
954.513	4244.14
954.818	4151.94
955.122	4163.46
955.426	4167.08
955.731	4134.31
956.035	4105.61
956.339	4095.9
956.643	4138.83
956.948	4067.87
957.252	4059.51
957.556	4047.53
957.86	4000.3
958.163	4022
958.467	4000.3
958.771	4000.76
959.075	3967.31
959.378	3920.53
959.682	3919.4
959.985	3882.57
960.289	3873.75
960.592	3911.04
960.896	3821.55
961.199	3823.81
961.502	3802.34
961.805	3793.3
962.108	3792.85
962.411	3778.16
962.714	3748.33
963.017	3768.45
963.32	3723.48
963.623	3714.66
963.926	3686.19
964.228	3675.57
964.531	3632.4
964.833	3676.02
965.136	3619.3
965.438	3607.32
965.741	3595.57
966.043	3592.63
966.345	3583.82
966.648	3579.07
966.95	3524.38
967.252	3500.43
967.554	3511.96
967.856	3476.48
968.158	3398.29
968.46	3452.97
968.761	3455.23
969.063	3454.78
969.365	3416.82
969.666	3379.08
969.968	3363.26
970.269	3374.33
970.571	3365.52
970.872	3379.98
971.174	3299.98
971.475	3353.09
971.776	3306.54
972.077	3307.89
972.378	3282.36
972.679	3267.89
972.98	3242.58
973.281	3232.87
973.582	3171.63
973.883	3226.54
974.183	3185.41
974.484	3172.98
974.785	3122.81
975.085	3135.24
975.386	3116.94
975.686	3085.3
975.986	3066.32
976.287	3069.71
976.587	3048.47
976.887	3052.76
977.187	3051.85
977.487	3003.04
977.787	3015.02
978.087	3021.8
978.387	3002.36
978.687	2980.22
978.987	2947.22
979.286	2942.71
979.586	2932.76
979.885	2901.12
980.185	2927.11
980.484	2869.94
980.784	2891.41
981.083	2859.77
981.382	2892.99
981.682	2830.39
981.981	2843.95
982.28	2843.95
982.579	2801.69
982.878	2845.98
983.177	2781.81
983.475	2776.16
983.774	2771.86
984.073	2740.22
984.372	2732.99
984.67	2721.24
984.969	2736.61
985.267	2695.71
985.566	2678.98
985.864	2683.95
986.162	2658.64
986.461	2669.49
986.759	2634.46
987.057	2601.7
987.355	2617.74
987.653	2602.6
987.951	2568.25
988.249	2584.07
988.547	2552.88
988.844	2549.95
989.142	2551.3
989.44	2514.69
989.737	2540.46
990.035	2516.05
990.332	2478.31
990.63	2498.2
990.927	2469.05
991.224	2454.81
991.521	2463.85
991.819	2446.45
992.116	2421.59
992.413	2412.1
992.71	2433.11
993.006	2384.3
993.303	2384.08
993.6	2398.76
993.897	2365.09
994.193	2394.47
994.49	2363.06
994.787	2310.41
995.083	2302.04
995.379	2330.29
995.676	2296.85
995.972	2304.53
996.268	2271.76
996.565	2244.19
996.861	2234.93
997.157	2271.08
997.453	2259.56
997.749	2250.52
998.044	2210.29
998.34	2188.6
998.636	2177.98
998.932	2167.13
999.227	2125.1
999.523	2151.77
999.818	2139.34
1000.114	2125.78
1000.409	2131.43
1000.704	2139.79
1001	2105.44
1001.295	2063.41
1001.59	2074.03
1001.885	2094.37
1002.18	2081.48
1002.475	2051.43
1002.77	2025.22
1003.065	1990.87
1003.359	2013.69
1003.654	2010.75
1003.949	2006.46
1004.243	1992.22
1004.538	1972.34
1004.832	1925.1
1005.127	1968.72
1005.421	1927.59
1005.715	1934.37
1006.009	1904.31
1006.304	1919
1006.598	1909.06
1006.892	1905.67
1007.186	1832.9
1007.48	1861.83
1007.773	1843.98
1008.067	1836.75
1008.361	1820.02
1008.655	1827.93
1008.948	1816.18
1009.242	1820.7
1009.535	1772.57
1009.829	1780.7
1010.122	1773.24
1010.415	1764.43
1010.708	1763.08
1011.001	1745.67
1011.295	1741.61
1011.588	1683.3
1011.881	1690.99
1012.173	1706.13
1012.466	1717.88
1012.759	1700.03
1013.052	1667.03
1013.344	1669.74
1013.637	1653.7
1013.93	1610.31
1014.222	1636.52
1014.514	1637.88
1014.807	1617.54
1015.099	1614.83
1015.391	1591.78
1015.683	1623.42
1015.976	1573.7
1016.268	1553.82
1016.56	1556.3
1016.851	1559.01
1017.143	1530.09
1017.435	1569.41
1017.727	1511.78
1018.018	1508.17
1018.31	1483.08
1018.602	1472.46
1018.893	1463.42
1019.185	1468.62
1019.476	1457.09
1019.767	1462.07
1020.058	1445.34
1020.35	1444.44
1020.641	1415.97
1020.932	1423.42
1021.223	1417.55
1021.514	1399.47
1021.804	1408.96
1022.095	1377.32
1022.386	1387.72
1022.677	1387.72
1022.967	1344.56
1023.258	1371.22
1023.548	1330.09
1023.839	1333.93
1024.129	1331.9
1024.419	1313.82
1024.709	1316.31
1025	1306.82
1025.29	1283.77
1025.58	1273.82
1025.87	1253.03
1026.16	1254.39
1026.449	1257.33
1026.739	1253.03
1027.029	1235.86
1027.319	1251
1027.608	1260.49
1027.898	1213.49
1028.187	1236.76
1028.477	1197.44
1028.766	1190.66
1029.055	1180.27
1029.344	1169.19
1029.634	1189.98
1029.923	1166.93
1030.212	1148.85
1030.501	1155.86
1030.79	1136.42
1031.078	1130.1
1031.367	1126.71
1031.656	1147.05
1031.945	1116.09
1032.233	1111.57
1032.522	1111.57
1032.81	1105.47
1033.099	1083.54
1033.387	1096.65
1033.675	1081.29
1033.963	1062.98
1034.251	1045.35
1034.54	1058.91
1034.828	1068.4
1035.116	1043.55
1035.403	1049.2
1035.691	1021.85
1035.979	1039.48
1036.267	1003.32
1036.554	1007.61
1036.842	1011
1037.129	975.75
1037.417	989.31
1037.704	978.91
1037.992	957.22
1038.279	957.45
1038.566	954.96
1038.853	954.96
1039.14	954.96
