Data from hue_00_FLMS001491_85.txt Node
Date: Mon Feb 06 15:30:22 GMT 2017
User: dcchb
Spectrometer: FLMS00149
Trigger mode: 0
Integration Time (sec): 2.000000E-2
Scans to average: 10
Electric dark correction enabled: true
Nonlinearity correction enabled: false
Boxcar width: 0
XAxis mode: Wavelengths
Number of Pixels in Spectrum: 2048
>>>>>Begin Spectral Data<<<<<
341.393	-23.33
341.776	-23.33
342.16	-23.33
342.543	-50.45
342.927	-64.46
343.31	-73.5
343.693	-81.64
344.077	-69.89
344.46	-55.65
344.843	-45.71
345.226	-50
345.61	-30.79
345.993	-35.99
346.376	-4.58
346.759	19.83
347.142	27.97
347.525	47.85
347.908	62.99
348.291	53.28
348.674	110.68
349.057	125.14
349.44	128.75
349.823	138.47
350.206	158.58
350.588	183.44
350.971	214.18
351.354	226.38
351.737	245.81
352.119	245.36
352.502	252.14
352.884	248.75
353.267	265.02
353.65	284.23
354.032	285.13
354.414	302.99
354.797	315.19
355.179	340.27
355.562	326.49
355.944	322.19
356.326	308.41
356.709	352.93
357.091	314.51
357.473	325.58
357.855	324
358.238	307.05
358.62	319.94
359.002	335.75
359.384	331.46
359.766	328.52
360.148	333.04
360.53	340.27
360.912	320.84
361.294	314.74
361.676	345.92
362.057	343.44
362.439	331.01
362.821	327.17
363.203	309.31
363.584	314.51
363.966	312.7
364.348	312.48
364.729	307.51
365.111	307.51
365.493	320.84
365.874	314.06
366.256	293.72
366.637	296.21
367.019	306.15
367.4	297.79
367.781	309.99
368.163	295.53
368.544	304.12
368.925	312.93
369.306	302.31
369.688	319.71
370.069	303.89
370.45	297.34
370.831	294.17
371.212	321.07
371.593	313.38
371.974	307.05
372.355	308.64
372.736	312.7
373.117	316.55
373.498	329.2
373.879	314.29
374.26	307.51
374.641	298.47
375.021	300.73
375.402	313.38
375.783	306.83
376.163	302.99
376.544	331.46
376.925	321.74
377.305	310.22
377.686	312.25
378.066	318.35
378.447	323.1
378.827	324
379.208	346.38
379.588	315.87
379.968	302.53
380.349	320.16
380.729	347.28
381.109	330.1
381.489	322.19
381.87	302.99
382.25	321.97
382.63	335.75
383.01	326.26
383.39	322.65
383.77	329.43
384.15	320.61
384.53	333.04
384.91	338.47
385.29	326.26
385.67	338.92
386.049	358.13
386.429	341.86
386.809	341.4
387.189	351.57
387.568	344.79
387.948	343.89
388.328	350.89
388.707	346.15
389.087	331.01
389.466	350.67
389.846	349.09
390.225	377.33
390.605	356.09
390.984	366.49
391.363	355.87
391.743	363.1
392.122	367.84
392.501	361.74
392.881	362.42
393.26	365.13
393.639	346.83
394.018	353.38
394.397	389.76
394.776	357.67
395.155	368.52
395.534	357.67
395.913	382.08
396.292	385.24
396.671	393.83
397.05	380.5
397.429	356.32
397.808	389.31
398.186	367.62
398.565	393.38
398.944	399.48
399.323	379.37
399.701	401.06
400.08	384.79
400.458	386.37
400.837	402.64
401.215	396.09
401.594	376.88
401.972	396.32
402.351	401.74
402.729	379.82
403.107	370.56
403.486	384.34
403.864	399.03
404.242	402.64
404.62	388.63
404.999	395.87
405.377	404.23
405.755	413.04
406.133	396.32
406.511	397.9
406.889	427.05
407.267	435.41
407.645	387.28
408.023	408.07
408.401	414.17
408.779	421.85
409.156	431.8
409.534	428.41
409.912	430.21
410.29	460.95
410.667	447.16
411.045	428.18
411.422	451.01
411.8	444
412.178	456.2
412.555	452.81
412.933	450.33
413.31	478.12
413.687	457.56
414.065	459.59
414.442	464.11
414.819	461.4
415.197	459.59
415.574	477.9
415.951	495.52
416.328	478.57
416.705	491.68
417.082	470.21
417.46	480.61
417.837	486.03
418.214	490.55
418.591	477.9
418.967	502.3
419.344	515.41
419.721	495.75
420.098	502.53
420.475	503.43
420.852	502.53
421.228	520.16
421.605	521.29
421.982	512.7
422.358	537.56
422.735	540.95
423.111	518.57
423.488	533.26
423.864	550.21
424.241	548.86
424.617	559.48
424.994	545.24
425.37	560.38
425.746	547.5
426.123	546.6
426.499	544.11
426.875	558.57
427.251	563.54
427.627	568.06
428.003	564.22
428.379	580.95
428.756	582.75
429.132	580.72
429.507	576.2
429.883	596.76
430.259	576.88
430.635	617.1
431.011	608.06
431.387	620.04
431.763	613.49
432.138	625.69
432.514	641.28
432.89	614.16
433.265	629.08
433.641	627.05
434.016	655.07
434.392	650.77
434.767	678.34
435.143	661.4
435.518	669.08
435.894	692.35
436.269	688.96
436.644	686.71
437.02	697.55
437.395	705.24
437.77	684.9
438.145	705.01
438.52	718.34
438.895	733.26
439.271	717.21
439.646	732.35
440.021	718.57
440.395	749.75
440.77	717.66
441.145	722.86
441.52	730.55
441.895	754.5
442.27	755.4
442.645	754.27
443.019	761.28
443.394	748.85
443.769	766.25
444.143	805.35
444.518	778.68
444.892	775.06
445.267	782.52
445.641	788.17
446.016	789.98
446.39	813.71
446.764	799.92
447.139	777.78
447.513	811.22
447.887	841.5
448.262	802.41
448.636	840.6
449.01	809.64
449.384	847.6
449.758	824.1
450.132	848.96
450.506	822.52
450.88	833.59
451.254	842.86
451.628	839.47
452.002	852.12
452.376	858.9
452.75	869.98
453.123	883.76
453.497	876.98
453.871	879.92
454.244	914.27
454.618	931.44
454.992	935.51
455.365	913.82
455.739	913.14
456.112	935.06
456.486	961.95
456.859	967.15
457.232	991.78
457.606	955.4
457.979	989.52
458.352	996.53
458.725	981.39
459.099	1003.76
459.472	1022.52
459.845	1030.65
460.218	1028.17
460.591	1038.79
460.964	1023.42
461.337	1058.45
461.71	1084.21
462.083	1089.18
462.456	1106.13
462.829	1117.88
463.201	1126.24
463.574	1123.53
463.947	1141.38
464.32	1167.37
464.692	1156.75
465.065	1180.25
465.438	1204.66
465.81	1206.01
466.183	1228.16
466.555	1236.75
466.928	1249.4
467.3	1231.32
467.672	1273.81
468.045	1270.42
468.417	1290.76
468.789	1308.38
469.161	1345.44
469.534	1337.76
469.906	1362.85
470.278	1364.2
470.65	1370.08
471.022	1405.33
471.394	1426.35
471.766	1456.85
472.138	1461.6
472.51	1450.3
472.882	1514.71
473.253	1539.79
473.625	1541.37
473.997	1593.12
474.369	1583.63
474.74	1609.84
475.112	1652.33
475.484	1665.44
475.855	1698.88
476.227	1711.76
476.598	1741.59
476.97	1761.48
477.341	1787.92
477.713	1826.34
478.084	1820.23
478.455	1880.8
478.827	1901.14
479.198	1941.59
479.569	1958.99
479.94	2012.55
480.311	2025.43
480.682	2069.49
481.053	2126.89
481.424	2151.3
481.795	2206.67
482.166	2196.72
482.537	2255.7
482.908	2284.86
483.279	2354.23
483.65	2364.63
484.021	2415.25
484.391	2438.07
484.762	2469.26
485.133	2495.92
485.503	2566.88
485.874	2594
486.244	2582.93
486.615	2682.13
486.985	2706.99
487.356	2758.06
487.726	2767.78
488.097	2840.32
488.467	2848.46
488.837	2922.13
489.207	2954.89
489.578	2991.73
489.948	3007.55
490.318	3055
490.688	3108.11
491.058	3116.25
491.428	3193.31
491.798	3212.51
492.168	3229.92
492.538	3232.63
492.908	3318.05
493.278	3364.6
493.648	3360.76
494.017	3457.48
494.387	3453.19
494.757	3476.01
495.126	3516.69
495.496	3523.69
495.866	3564.82
496.235	3584.93
496.605	3601.2
496.974	3669.23
497.344	3721.65
497.713	3716
498.082	3736.79
498.452	3802.1
498.821	3789.9
499.19	3807.53
499.559	3877.81
499.928	3835.32
500.298	3901.54
500.667	3949.22
501.036	3913.29
501.405	3953.29
501.774	3959.84
502.143	4049.33
502.512	4056.79
502.88	4062.21
503.249	4073.06
503.618	4135.43
503.987	4126.16
504.356	4147.18
504.724	4204.35
505.093	4165.71
505.462	4231.92
505.83	4261.98
506.199	4267.18
506.567	4286.38
506.936	4331.36
507.304	4359.83
507.672	4355.31
508.041	4381.52
508.409	4417.45
508.777	4447.74
509.145	4447.06
509.514	4448.87
509.882	4438.92
510.25	4526.83
510.618	4531.35
510.986	4511.69
511.354	4585.81
511.722	4570.67
512.09	4605.25
512.458	4652.93
512.826	4660.84
513.193	4695.19
513.561	4674.4
513.929	4702.87
514.297	4729.54
514.664	4774.73
515.032	4814.51
515.4	4802.08
515.767	4773.83
516.135	4818.8
516.502	4806.82
516.869	4866.93
517.237	4888.85
517.604	4856.09
517.972	4935.18
518.339	4942.41
518.706	4943.32
519.073	4981.51
519.44	5009.3
519.808	4980.15
520.175	5030.32
520.542	5052.24
520.909	5061.73
521.276	5107.15
521.643	5111.9
522.009	5151.45
522.376	5206.59
522.743	5180.82
523.11	5230.54
523.477	5207.26
523.843	5310.54
524.21	5339.69
524.577	5351.44
524.943	5368.84
525.31	5369.29
525.676	5425.34
526.043	5468.27
526.409	5461.27
526.776	5537.88
527.142	5567.48
527.508	5527.93
527.874	5569.74
528.241	5628.27
528.607	5621.04
528.973	5693.13
529.339	5683.86
529.705	5721.83
530.071	5768.15
530.437	5785.55
530.803	5822.39
531.169	5852.9
531.535	5899.68
531.901	5879.11
532.267	5876.63
532.632	5944.19
532.998	5954.59
533.364	5996.85
533.73	6047.92
534.095	6067.58
534.461	6070.52
534.826	6161.14
535.192	6127.01
535.557	6205.2
535.923	6130.18
536.288	6211.08
536.653	6236.62
537.019	6242.94
537.384	6250.63
537.749	6282.72
538.114	6298.99
538.479	6310.74
538.845	6347.57
539.21	6390.06
539.575	6391.41
539.94	6435.25
540.305	6429.38
540.67	6455.14
541.034	6458.08
541.399	6560.67
541.764	6599.77
542.129	6595.02
542.494	6650.62
542.858	6645.42
543.223	6602.03
543.587	6649.26
543.952	6721.35
544.316	6771.29
544.681	6765.19
545.045	6746.66
545.41	6823.04
545.774	6806.54
546.138	6837.28
546.503	6895.58
546.867	6875.02
547.231	6960.44
547.595	6979.87
547.959	7018.52
548.324	6966.99
548.688	6971.06
549.052	7054
549.416	7070.27
549.779	7067.33
550.143	7099.42
550.507	7121.11
550.871	7177.61
551.235	7179.64
551.599	7226.87
551.962	7276.59
552.326	7293.09
552.689	7257.38
553.053	7310.03
553.417	7351.84
553.78	7420.99
554.143	7369.02
554.507	7402.01
554.87	7439.97
555.234	7474.78
555.597	7446.75
555.96	7456.7
556.323	7595
556.686	7541.21
557.05	7612.62
557.413	7541.21
557.776	7620.08
558.139	7633.87
558.502	7704.37
558.865	7734.88
559.228	7714.32
559.59	7795.44
559.953	7775.11
560.316	7822.11
560.679	7772.17
561.041	7907.53
561.404	7917.02
561.767	7986.17
562.129	7945.72
562.492	8047.64
562.854	7994.31
563.217	8003.35
563.579	8042.67
563.941	8041.77
564.304	8113.18
564.666	8185.49
565.028	8147.98
565.39	8219.84
565.753	8292.38
566.115	8274.98
566.477	8299.39
566.839	8293.51
567.201	8455.31
567.563	8425.71
567.925	8411.47
568.287	8421.19
568.648	8453.28
569.01	8552.94
569.372	8524.92
569.734	8593.84
570.095	8683.33
570.457	8625.25
570.819	8655.54
571.18	8720.84
571.542	8740.96
571.903	8775.31
572.265	8787.96
572.626	8853.95
572.987	8868.41
573.349	9006.26
573.71	8979.37
574.071	9069.54
574.432	9117.44
574.794	9128.07
575.155	9219.59
575.516	9243.32
575.877	9364.67
576.238	9333.71
576.599	9506.13
576.96	9464.55
577.32	9575.06
577.681	9687.37
578.042	9746.35
578.403	9828.39
578.763	9810.98
579.124	9978.44
579.485	10034.93
579.845	10209.39
580.206	10201.03
580.566	10349.5
580.927	10404.19
581.287	10578.2
581.648	10668.36
582.008	10834.46
582.368	10886.89
582.728	10996.26
583.089	11172.08
583.449	11380.66
583.809	11458.85
584.169	11674.89
584.529	11737.26
584.889	12001.44
585.249	12067.87
585.609	12253.63
585.969	12483.91
586.329	12539.05
586.688	12829.21
587.048	12973.84
587.408	13090.67
587.768	13396.88
588.127	13460.15
588.487	13637.55
588.846	14010.42
589.206	14110.53
589.565	14374.93
589.925	14632.78
590.284	14771.98
590.643	15021.24
591.003	15383.95
591.362	15595.24
591.721	15832.07
592.08	16089.24
592.44	16326.29
592.799	16654.65
593.158	16884.25
593.517	17075.43
593.876	17308.64
594.235	17593.38
594.593	17826.14
594.952	18125.57
595.311	18367.14
595.67	18721.71
596.029	18934.13
596.387	19208.93
596.746	19573.89
597.104	19644.17
597.463	19968.91
597.822	20252.97
598.18	20437.6
598.538	20694.54
598.897	21109.9
599.255	21150.8
599.613	21735.87
599.972	21787.62
600.33	22090.89
600.688	22331.56
601.046	22592.34
601.404	22995.72
601.762	23080.92
602.12	23475.48
602.478	23641.36
602.836	23983.72
603.194	24084.73
603.552	24305.52
603.91	24504.61
604.268	24816.24
604.625	24958.16
604.983	25326.74
605.341	25431.37
605.698	25722.43
606.056	26065.92
606.413	26139.6
606.771	26549.75
607.128	26646.02
607.485	26698.45
607.843	26991.1
608.2	27310.86
608.557	27659.33
608.914	27763.06
609.272	28038.98
609.629	28136.6
609.986	28512.19
610.343	28498.4
610.7	28931.39
611.057	29003.93
611.414	29200.76
611.771	29301.09
612.127	29604.36
612.484	29749.67
612.841	30025.37
613.198	29999.15
613.554	30175.42
613.911	30478.46
614.267	30652.7
614.624	30687.72
614.98	30770.89
615.337	31243.19
615.693	31298.33
616.05	31303.53
616.406	31595.5
616.762	31671.43
617.118	31719.79
617.475	31864.87
617.831	32144.41
618.187	32260.11
618.543	32420.56
618.899	32763.38
619.255	32580.78
619.611	32756.14
619.967	32972.41
620.323	33130.15
620.678	33010.83
621.034	33061.45
621.39	33166.08
621.746	33349.35
622.101	33746.85
622.457	33595.22
622.812	33639.28
623.168	33838.83
623.523	33815.55
623.879	34088.76
624.234	33972.16
624.589	34171.47
624.945	34355.65
625.3	34522.88
625.655	34402.43
626.01	34453.5
626.365	34681.29
626.72	34655.08
627.075	34801.97
627.43	34624.34
627.785	34726.49
628.14	34741.4
628.495	34949.76
628.85	34852.81
629.205	35026.59
629.559	35116.76
629.914	34928.06
630.269	35096.65
630.623	35112.01
630.978	34879.7
631.332	35168.51
631.687	35340.71
632.041	35128.06
632.396	35245.8
632.75	35229.53
633.104	35255.29
633.459	35207.61
633.813	35132.35
634.167	35192.01
634.521	35267.26
634.875	35308.85
635.229	35165.12
635.583	35090.55
635.937	35159.25
636.291	35123.99
636.645	35295.06
636.999	35189.53
637.352	35328.96
637.706	35087.61
638.06	35387.94
638.413	35151.79
638.767	35066.14
639.121	35261.39
639.474	35056.65
639.828	35057.78
640.181	35271.33
640.534	35228.85
640.888	35074.95
641.241	34981.4
641.594	34951.79
641.947	35192.69
642.301	34983.88
642.654	35055.07
643.007	35080.83
643.36	35281.28
643.713	34987.5
644.066	35247.83
644.419	35042.41
644.771	34786.83
645.124	34572.82
645.477	34537.34
645.83	34240.85
646.182	34176.67
646.535	34139.84
646.888	34117.01
647.24	34026.39
647.593	34255.54
647.945	34173.96
648.298	33815.1
648.65	33880.18
649.002	33816.23
649.355	33978.26
649.707	33944.59
650.059	34067.52
650.411	34387.51
650.763	34519.04
651.115	34910.21
651.467	34800.16
651.819	34676.77
652.171	34679.03
652.523	34517.91
652.875	34584.12
653.227	34457.12
653.578	34747.5
653.93	34657.34
654.282	34429.55
654.633	34481.3
654.985	34625.7
655.337	34455.08
655.688	34427.51
656.039	34594.51
656.391	34362.2
656.742	34312.04
657.094	34441.07
657.445	34458.92
657.796	34449.21
658.147	34393.39
658.498	34303.67
658.849	34406.04
659.2	34426.16
659.551	34351.13
659.902	34402.88
660.253	34326.5
660.604	34488.98
660.955	34271.58
661.306	34543.22
661.656	34383.67
662.007	34372.83
662.358	34240.4
662.708	34372.83
663.059	34358.14
663.409	34087.63
663.76	34435.2
664.11	34377.57
664.461	34321.98
664.811	34241.08
665.161	34296.44
665.511	34204.92
665.862	34357.68
666.212	34399.27
666.562	34284.01
666.912	34321.53
667.262	34318.14
667.612	34255.77
667.962	34403.78
668.312	34171.25
668.662	34364.46
669.011	34200.4
669.361	34221.87
669.711	34240.85
670.06	34161.76
670.41	34138.71
670.76	34049.9
671.109	34214.19
671.459	34130.57
671.808	34031.14
672.157	34204.02
672.507	33836.12
672.856	33924.7
673.205	34006.28
673.554	34121.98
673.904	33858.26
674.253	34197.91
674.602	34041.53
674.951	33493.98
675.3	33301.89
675.649	33839.05
675.998	33894.19
676.346	33944.59
676.695	34060.06
677.044	33773.97
677.393	33812.16
677.741	33942.33
678.09	33803.35
678.438	33752.5
678.787	33815.55
679.135	33730.13
679.484	33543.69
679.832	33746.17
680.181	33526.07
680.529	33861.43
680.877	33514.32
681.225	33594.31
681.573	33815.55
681.922	33464.83
682.27	33523.58
682.618	33439.52
682.966	33329.46
683.314	33454.88
683.661	33268.9
684.009	33199.52
684.357	33021.45
684.705	33122.24
685.053	33109.13
685.4	33076.36
685.748	32829.36
686.095	32802.7
686.443	32775.35
686.79	32747.11
687.138	32962.69
687.485	32856.25
687.832	32698.52
688.18	32779.19
688.527	32609.26
688.874	32462.37
689.221	32501.91
689.568	32343.73
689.915	32219.44
690.262	32350.73
690.609	32094.24
690.956	32098.08
691.303	32086.56
691.65	31936.96
691.997	31972.44
692.344	31738.09
692.69	31684.99
693.037	31722.73
693.383	31490.64
693.73	31625.33
694.077	31374.03
694.423	31346.92
694.769	31280.02
695.116	31190.08
695.462	31104.44
695.808	30973.14
696.155	31169.52
696.501	30916.42
696.847	30964.33
697.193	30671.45
697.539	30679.59
697.885	30558.46
698.231	30542.87
698.577	30466.71
698.923	30433.72
699.269	30268.07
699.614	30136.55
699.96	30072.83
700.306	30119.15
700.651	30014.3
700.997	29897.24
701.342	29789.44
701.688	29918.48
702.033	29713.96
702.379	29758.26
702.724	29564.36
703.069	29712.38
703.415	29180.19
703.76	29360.3
704.105	29425.61
704.45	29281.21
704.795	29112.85
705.14	29057.26
705.485	29007.99
705.83	28895.23
706.175	28900.43
706.52	28817.72
706.865	28798.73
707.209	28758.74
707.554	28645.74
707.899	28696.82
708.243	28523.71
708.588	28506.09
708.932	28375.02
709.277	28287.11
709.621	28283.72
709.966	28120.79
710.31	28232.2
710.654	27897.74
710.998	28051.64
711.342	27937.97
711.687	27932.09
712.031	27879.66
712.375	27671.76
712.719	27691.87
713.063	27718.31
713.407	27787.01
713.75	27567.58
714.094	27541.82
714.438	27487.36
714.782	27544.76
715.125	27260.92
715.469	27438.09
715.812	27295.95
716.156	27094.37
716.499	27134.6
716.843	27024.54
717.186	27048.72
717.53	27126.24
717.873	27064.32
718.216	27045.56
718.559	26962.85
718.902	26808.73
719.246	26822.29
719.589	26698.68
719.932	26704.78
720.275	26650.77
720.617	26675.85
720.96	26621.62
721.303	26523.99
721.646	26634.5
721.989	26171.46
722.331	26334.39
722.674	26349.31
723.016	26197.67
723.359	26262.08
723.701	26297.78
724.044	26030.22
724.386	25933.95
724.729	26038.13
725.071	26026.15
725.413	25990.22
725.755	26030.45
726.097	25807.85
726.439	25772.6
726.782	25766.95
727.124	25849.43
727.465	25647.63
727.807	25619.83
728.149	25636.11
728.491	25580.29
728.833	25647.4
729.175	25444.02
729.516	25514.3
729.858	25423.68
730.199	25589.78
730.541	25348.43
730.882	25373.29
731.224	25449.67
731.565	25292.16
731.906	25331.25
732.248	25267.75
732.589	25128.32
732.93	25051.26
733.271	25046.97
733.612	25098.04
733.953	24971.72
734.294	24973.75
734.635	24943.02
734.976	25013.3
735.317	24861.89
735.658	24767.2
735.999	24849.91
736.339	24823.7
736.68	24835
737.021	24709.35
737.361	24643.82
737.702	24747.09
738.042	24667.77
738.383	24539.19
738.723	24651.05
739.063	24436.59
739.404	24567.89
739.744	24465.51
740.084	24297.38
740.424	24473.2
740.764	24402.69
741.104	24367.21
741.444	24273.66
741.784	24213.09
742.124	24212.19
742.464	24165.18
742.804	24128.35
743.143	24045.41
743.483	24044.74
743.823	24004.06
744.162	24035.02
744.502	23941.46
744.841	23936.49
745.181	24019.88
745.52	23860.11
745.86	23887.45
746.199	23817.85
746.538	23711.64
746.877	23825.98
747.216	23740.56
747.556	23619.66
747.895	23675.03
748.234	23584.41
748.573	23588.25
748.911	23599.1
749.25	23497.4
749.589	23400.46
749.928	23435.26
750.267	23443.17
750.605	23486.78
750.944	23483.85
751.283	23287.01
751.621	23385.54
751.96	23126.34
752.298	23165.21
752.636	23218.09
752.975	23051.54
753.313	23073.01
753.651	23023.97
753.989	22969.96
754.327	22962.5
754.666	22868.04
755.004	22836.18
755.342	22895.61
755.679	22718.67
756.017	22710.53
756.355	22639.8
756.693	22683.41
757.031	22725.9
757.368	22565.9
757.706	22471.22
758.044	22458.11
758.381	22449.75
758.719	22295.18
759.056	22327.04
759.394	22253.37
759.731	22077.33
760.068	22112.58
760.405	21956.65
760.743	22062.19
761.08	21988.29
761.417	21784.46
761.754	21783.55
762.091	21733.16
762.428	21676.66
762.765	21550.11
763.102	21524.12
763.438	21496.33
763.775	21346.73
764.112	21333.62
764.449	21420.4
764.785	21314.41
765.122	21104.25
765.458	21178.37
765.795	21061.99
766.131	21059.5
766.467	20851.37
766.804	20833.97
767.14	20789.91
767.476	20763.01
767.812	20658.16
768.148	20662.68
768.485	20605.96
768.821	20424.27
769.157	20493.64
769.492	20334.55
769.828	20374.32
770.164	20220.65
770.5	20076.48
770.836	20135.46
771.171	20062.24
771.507	20002.36
771.842	19794.68
772.178	19804.39
772.513	19744.74
772.849	19707.67
773.184	19647.56
773.519	19550.16
773.855	19507.91
774.19	19522.37
774.525	19314.92
774.86	19428.81
775.195	19337.74
775.53	19245.31
775.865	19089.84
776.2	19023.4
776.535	18809.84
776.87	18815.95
777.205	18797.87
777.539	18694.14
777.874	18794.03
778.209	18681.26
778.543	18659.11
778.878	18475.84
779.212	18400.36
779.547	18286.24
779.881	18366.01
780.215	18232.01
780.55	18225.9
780.884	18139.35
781.218	18001.73
781.552	18120.15
781.886	17941.84
782.22	17858.91
782.554	17852.36
782.888	17604.9
783.222	17565.13
783.556	17559.48
783.889	17469.54
784.223	17396.55
784.557	17327.4
784.89	17375.76
785.224	17223.22
785.557	17156.1
785.891	17081.75
786.224	17035.88
786.558	16957.01
786.891	16987.52
787.224	16913.85
787.557	16881.08
787.891	16826.85
788.224	16745.49
788.557	16701.65
788.89	16630.47
789.223	16599.28
789.556	16432.51
789.888	16432.73
790.221	16319.74
790.554	16235.45
790.887	16267.54
791.219	16200.87
791.552	16124.72
791.884	16118.16
792.217	16064.38
792.549	15998.84
792.882	15802.92
793.214	15746.65
793.546	15791.84
793.879	15664.39
794.211	15579.87
794.543	15729.25
794.875	15585.97
795.207	15654
795.539	15468.69
795.871	15484.73
796.203	15424.4
796.535	15312.76
796.867	15295.13
797.198	15272.08
797.53	15328.13
797.862	15057.17
798.193	15119.32
798.525	15049.94
798.856	15052.66
799.188	14962.94
799.519	14881.81
799.85	14770.85
800.182	14816.96
800.513	14774.7
800.844	14680.69
801.175	14643.4
801.506	14673.91
801.837	14597.3
802.168	14596.4
802.499	14475.95
802.83	14399.79
803.161	14469.62
803.491	14451.99
803.822	14353.46
804.153	14329.74
804.483	14254.94
804.814	14131.1
805.145	14156.63
805.475	14234.15
805.805	14037.77
806.136	14086.8
806.466	14000.48
806.796	14037.09
807.126	13865.12
807.457	13836.87
807.787	13866.25
808.117	13781.95
808.447	13730.2
808.777	13802.52
809.107	13714.61
809.436	13652.47
809.766	13654.27
810.096	13657.44
810.426	13468.74
810.755	13574.28
811.085	13517.55
811.414	13476.43
811.744	13365.47
812.073	13369.08
812.403	13391.23
812.732	13325.69
813.061	13314.17
813.39	13215.64
813.719	13181.07
814.049	13268.52
814.378	13163.67
814.707	13131.8
815.036	13102.88
815.365	12968.64
815.693	12893.16
816.022	12948.76
816.351	12872.37
816.68	12797.8
817.008	12858.36
817.337	12709.44
817.665	12722.55
817.994	12786.5
818.322	12587.86
818.651	12695.2
818.979	12659.5
819.307	12685.49
819.636	12542.21
819.964	12527.52
820.292	12605.04
820.62	12510.58
820.948	12487.3
821.276	12507.19
821.604	12502.67
821.932	12501.31
822.259	12490.69
822.587	12464.47
822.915	12495.43
823.243	12481.42
823.57	12451.59
823.898	12410.92
824.225	12435.32
824.553	12459.95
824.88	12350.13
825.207	12447.53
825.535	12348.09
825.862	12408.43
826.189	12417.24
826.516	12549.22
826.843	12490.69
827.17	12412.27
827.497	12456.57
827.824	12436.68
828.151	12498.6
828.478	12481.2
828.805	12500.18
829.131	12415.44
829.458	12427.41
829.785	12387.19
830.111	12392.39
830.438	12413.4
830.764	12389.9
831.09	12476.45
831.417	12317.36
831.743	12383.57
832.069	12386.74
832.395	12254.99
832.722	12336.12
833.048	12333.63
833.374	12292.95
833.7	12221.09
834.026	12265.84
834.351	12259.06
834.677	12292.95
835.003	12252.05
835.329	12302.9
835.654	12244.37
835.98	12195.56
836.306	12235.55
836.631	12197.14
836.956	12161.43
837.282	12079.63
837.607	12090.02
837.932	12041.66
838.258	12089.12
838.583	12112.39
838.908	12037.14
839.233	12065.84
839.558	12054.32
839.883	11960.76
840.208	11937.03
840.533	11943.13
840.858	11945.62
841.182	11924.15
841.507	11891.16
841.832	11846.86
842.156	11843.93
842.481	11772.74
842.805	11754.89
843.13	11703.14
843.454	11801.22
843.778	11657.72
844.103	11628.79
844.427	11626.76
844.751	11625.85
845.075	11577.04
845.399	11469.47
845.723	11487.78
846.047	11473.54
846.371	11406.88
846.695	11429.02
847.019	11332.07
847.343	11279.19
847.666	11172.53
847.99	11209.37
848.313	11267.67
848.637	11134.57
848.96	11068.35
849.284	11041.24
849.607	10977.28
849.931	10989.26
850.254	10878.08
850.577	10818.64
850.9	10774.8
851.223	10766.89
851.546	10669.04
851.869	10622.72
852.192	10681.02
852.515	10539.78
852.838	10459.1
853.161	10555.15
853.483	10488.48
853.806	10473.79
854.129	10410.07
854.451	10431.99
854.774	10342.5
855.096	10248.94
855.419	10291.42
855.741	10224.76
856.063	10142.5
856.385	10156.51
856.708	10156.06
857.03	10066.12
857.352	10123.07
857.674	10085.55
857.996	10087.59
858.318	9963.98
858.64	9974.82
858.961	9904.54
859.283	9826.13
859.605	9843.3
859.926	9846.92
860.248	9793.36
860.57	9741.38
860.891	9751.78
861.212	9728.5
861.534	9757.88
861.855	9734.15
862.176	9747.26
862.498	9729.86
862.819	9601.72
863.14	9627.94
863.461	9613.02
863.782	9550.43
864.103	9620.03
864.424	9479.02
864.745	9593.82
865.065	9448.51
865.386	9451.9
865.707	9463.65
866.027	9518.34
866.348	9473.14
866.668	9429.3
866.989	9443.99
867.309	9347.27
867.63	9400.15
867.95	9293.03
868.27	9298
868.59	9345.01
868.91	9327.16
869.23	9293.03
869.55	9185.24
869.87	9272.02
870.19	9279.25
870.51	9232.92
870.83	9228.85
871.15	9281.28
871.469	9173.26
871.789	9141.85
872.109	9130.78
872.428	9139.59
872.748	9159.93
873.067	9161.06
873.386	9094.39
873.706	9118.8
874.025	9098.24
874.344	9036.77
874.663	9047.62
874.982	9003.1
875.301	9042.42
875.62	8964.23
875.939	8921.06
876.258	8963.78
876.577	8869.99
876.896	8884.23
877.214	8820.28
877.533	8898.01
877.852	8874.06
878.17	8848.75
878.489	8900.05
878.807	8879.48
879.125	8819.15
879.444	8799.49
879.762	8821.86
880.08	8790.67
880.398	8773.05
880.716	8764.91
881.034	8744.57
881.352	8725.36
881.67	8606.5
881.988	8722.65
882.306	8626.38
882.624	8684.23
882.941	8589.32
883.259	8571.02
883.577	8514.75
883.894	8545.93
884.212	8578.02
884.529	8547.97
884.846	8528.31
885.164	8477.46
885.481	8470
885.798	8444.47
886.115	8503
886.432	8414.41
886.75	8355.2
887.067	8356.79
887.383	8269.78
887.7	8320.18
888.017	8300.29
888.334	8354.3
888.651	8283.34
888.967	8222.78
889.284	8175.55
889.6	8182.33
889.917	8172.38
890.233	8184.36
890.55	8161.99
890.866	8147.53
891.182	8125.15
891.498	8103.46
891.815	8011.94
892.131	8010.35
892.447	8023.46
892.763	7952.95
893.079	7972.39
893.395	7926.51
893.71	7901.88
894.026	7917.25
894.342	7890.36
894.657	7794.31
894.973	7838.83
895.289	7824.82
895.604	7785.28
895.92	7719.74
896.235	7687.2
896.55	7662.79
896.865	7569.69
897.181	7632.06
897.496	7625.96
897.811	7517.49
898.126	7484.49
898.441	7451.27
898.756	7494.89
899.071	7485.4
899.386	7466.87
899.7	7387.09
900.015	7362.46
900.33	7368.56
900.644	7354.78
900.959	7353.87
901.273	7296.02
901.588	7226.42
901.902	7165.63
902.216	7188.91
902.531	7115.69
902.845	7160.21
903.159	7093.32
903.473	7052.87
903.787	7071.4
904.101	6977.84
904.415	7046.76
904.729	7026.88
905.042	6964.96
905.356	7006.99
905.67	6885.19
905.984	6925.41
906.297	6877.28
906.611	6838.41
906.924	6834.57
907.237	6803.15
907.551	6755.7
907.864	6777.17
908.177	6763.83
908.491	6704.85
908.804	6698.75
909.117	6631.18
909.43	6604.06
909.743	6572.88
910.056	6548.25
910.368	6548.92
910.681	6526.55
910.994	6486.33
911.307	6432.09
911.619	6414.92
911.932	6412.2
912.244	6379.44
912.557	6358.42
912.869	6331.3
913.181	6338.76
913.494	6282.49
913.806	6282.26
914.118	6246.11
914.43	6124.53
914.742	6181.93
915.054	6149.39
915.366	6128.37
915.678	6120.69
915.99	6050.18
916.302	6067.58
916.613	5984.19
916.925	5994.59
917.236	5970.41
917.548	5960.24
917.859	5972.22
918.171	5928.15
918.482	5870.52
918.794	5843.86
919.105	5878.88
919.416	5822.16
919.727	5805.89
920.038	5778.77
920.349	5738.1
920.66	5694.03
920.971	5637.76
921.282	5677.76
921.593	5597.99
921.903	5589.4
922.214	5577.88
922.525	5601.83
922.835	5580.14
923.146	5493.81
923.456	5493.58
923.767	5445.68
924.077	5452.91
924.387	5448.84
924.697	5419.24
925.008	5415.62
925.318	5391.67
925.628	5377.88
925.938	5291.56
926.248	5315.06
926.558	5281.16
926.867	5260.6
927.177	5213.37
927.487	5233.93
927.796	5179.92
928.106	5170.66
928.416	5139.47
928.725	5147.38
929.034	5101.73
929.344	5111.9
929.653	5065.35
929.962	5038.91
930.271	5043.2
930.581	5009.76
930.89	4948.74
931.199	4944.45
931.508	4938.8
931.817	4912.13
932.125	4878.23
932.434	4871.91
932.743	4796.88
933.051	4839.82
933.36	4811.12
933.669	4797.78
933.977	4778.12
934.286	4780.16
934.594	4741.29
934.902	4731.8
935.21	4663.78
935.519	4659.26
935.827	4692.93
936.135	4641.63
936.443	4576.77
936.751	4614.06
937.059	4579.71
937.367	4524.57
937.674	4532.03
937.982	4549.65
938.29	4542.65
938.597	4495.19
938.905	4471.01
939.213	4473.5
939.52	4396.66
939.827	4413.39
940.135	4345.82
940.442	4371.81
940.749	4362.09
941.056	4353.95
941.363	4304.46
941.67	4269.89
941.977	4284.35
942.284	4271.7
942.591	4261.07
942.898	4166.16
943.205	4208.87
943.511	4206.16
943.818	4189.66
944.125	4120.29
944.431	4135.65
944.738	4118.48
945.044	4086.16
945.35	4088.2
945.657	4048.65
945.963	4026.96
946.269	4039.61
946.575	4039.84
946.881	3995.09
947.187	3959.61
947.493	3951.25
947.799	3949.22
948.105	3940.18
948.41	3931.59
948.716	3918.03
949.022	3889.78
949.327	3873.51
949.633	3820.63
949.938	3824.93
950.244	3812.05
950.549	3777.02
950.854	3796.91
951.16	3763.46
951.465	3725.72
951.77	3737.92
952.075	3696.57
952.38	3689.11
952.685	3708.32
952.99	3651.15
953.294	3674.2
953.599	3611.83
953.904	3613.86
954.209	3601.66
954.513	3621.77
954.818	3559.62
955.122	3559.4
955.426	3559.17
955.731	3541.77
956.035	3524.14
956.339	3480.3
956.643	3469.91
956.948	3447.54
957.252	3439.63
957.556	3480.08
957.86	3426.97
958.163	3440.08
958.467	3394.43
958.771	3400.08
959.075	3396.46
959.378	3336.13
959.682	3327.54
959.985	3304.26
960.289	3337.93
960.592	3309.46
960.896	3291.38
961.199	3250.48
961.502	3279.41
961.805	3266.07
962.108	3212.74
962.411	3216.81
962.714	3225.17
963.017	3203.7
963.32	3158.73
963.623	3154.44
963.926	3177.26
964.228	3139.07
964.531	3103.36
964.833	3078.28
965.136	3057.72
965.438	3076.7
965.741	3062.24
966.043	3065.63
966.345	3036.02
966.648	3045.74
966.95	3010.03
967.252	2991.5
967.554	2999.86
967.856	2967.78
968.158	2951.05
968.46	2972.52
968.761	2951.5
969.063	2939.3
969.365	2920.32
969.666	2903.82
969.968	2871.51
970.269	2841.22
970.571	2818.17
970.872	2855.24
971.174	2831.51
971.475	2825.63
971.776	2809.81
972.077	2796.71
972.378	2768.46
972.679	2791.06
972.98	2766.88
973.281	2732.3
973.582	2761
973.883	2710.61
974.183	2722.81
974.484	2763.49
974.785	2679.87
975.085	2668.57
975.386	2706.76
975.686	2646.2
975.986	2654.11
976.287	2695.24
976.587	2619.99
976.887	2632.64
977.187	2584.96
977.487	2598.75
977.787	2556.03
978.087	2578.18
978.387	2571.4
978.687	2540.89
978.987	2544.74
979.286	2540.22
979.586	2502.02
979.885	2502.02
980.185	2488.24
980.484	2482.82
980.784	2473.55
981.083	2460.22
981.382	2458.64
981.682	2456.83
981.981	2434
982.28	2394.23
982.579	2408.47
982.878	2405.98
983.177	2378.19
983.475	2382.93
983.774	2370.05
984.073	2337.96
984.372	2300.67
984.67	2315.81
984.969	2349.94
985.267	2314.23
985.566	2336.15
985.864	2302.26
986.162	2277.4
986.461	2283.95
986.759	2238.53
987.057	2243.73
987.355	2240.34
987.653	2251.18
987.951	2245.53
988.249	2212.77
988.547	2226.33
988.844	2196.72
989.142	2202.82
989.44	2199.66
989.737	2174.58
990.035	2150.17
990.332	2169.6
990.63	2154.01
990.927	2115.14
991.224	2111.53
991.521	2128.02
991.819	2120.11
992.116	2093
992.413	2062.49
992.71	2059.78
993.006	2084.63
993.303	2041.47
993.6	2054.8
993.897	2031.75
994.193	2039.21
994.49	2012.55
994.787	2030.17
995.083	2010.74
995.379	2009.38
995.676	1989.04
995.972	1982.72
996.268	1956.5
996.565	1970.74
996.861	1945.43
997.157	1939.1
997.453	1924.19
997.749	1931.42
998.044	1910.18
998.34	1903.62
998.636	1890.06
998.932	1873.34
999.227	1850.52
999.523	1850.06
999.818	1866.79
1000.114	1827.24
1000.409	1791.53
1000.704	1795.15
1001	1818.88
1001.295	1826.11
1001.59	1807.35
1001.885	1785.66
1002.18	1782.95
1002.475	1765.32
1002.77	1759.9
1003.065	1744.3
1003.359	1745.21
1003.654	1728.49
1003.949	1710.18
1004.243	1724.19
1004.538	1693.01
1004.832	1706.34
1005.127	1691.42
1005.421	1698.66
1005.715	1662.5
1006.009	1698.2
1006.304	1633.57
1006.598	1643.52
1006.892	1619.11
1007.186	1637.19
1007.48	1616.85
1007.773	1624.08
1008.067	1610.75
1008.361	1587.92
1008.655	1607.36
1008.948	1608.49
1009.242	1549.73
1009.535	1565.78
1009.829	1549.96
1010.122	1556.29
1010.415	1541.82
1010.708	1522.39
1011.001	1498.44
1011.295	1509.28
1011.588	1501.6
1011.881	1487.14
1012.173	1477.42
1012.466	1483.75
1012.759	1475.16
1013.052	1477.42
1013.344	1472.45
1013.637	1450.3
1013.93	1433.13
1014.222	1408.72
1014.514	1403.52
1014.807	1403.3
1015.099	1432.67
1015.391	1396.52
1015.683	1380.02
1015.976	1380.25
1016.268	1388.61
1016.56	1342.51
1016.851	1355.39
1017.143	1352.68
1017.435	1350.87
1017.727	1351.32
1018.018	1330.08
1018.31	1347.25
1018.602	1332.11
1018.893	1300.02
1019.185	1299.57
1019.476	1268.16
1019.767	1255.5
1020.058	1291.21
1020.35	1280.36
1020.641	1252.79
1020.932	1221.83
1021.223	1214.83
1021.514	1217.54
1021.804	1219.12
1022.095	1213.7
1022.386	1188.16
1022.677	1192
1022.967	1190.42
1023.258	1197.2
1023.548	1206.47
1023.839	1178.9
1024.129	1169.63
1024.419	1170.53
1024.709	1144.32
1025	1108.39
1025.29	1159.01
1025.58	1114.72
1025.87	1135.05
1026.16	1101.16
1026.449	1107.03
1026.739	1104.55
1027.029	1105
1027.319	1105.23
1027.608	1100.48
1027.898	1066.13
1028.187	1074.27
1028.477	1083.53
1028.766	1047.6
1029.055	1035.4
1029.344	1045.57
1029.634	1027.26
1029.923	992.46
1030.212	1022.97
1030.501	1001.95
1030.79	1026.13
1031.078	999.92
1031.367	997.66
1031.656	988.17
1031.945	962.86
1032.233	956.75
1032.522	980.71
1032.81	932.8
1033.099	961.5
1033.387	974.16
1033.675	947.26
1033.963	959.92
1034.251	941.39
1034.54	917.21
1034.828	923.54
1035.116	915.17
1035.403	902.07
1035.691	934.16
1035.979	915.17
1036.267	895.29
1036.554	906.13
1036.842	873.14
1037.129	873.37
1037.417	879.02
1037.704	884.67
1037.992	850.09
1038.279	866.36
1038.566	866.14
1038.853	866.14
1039.14	866.14
