Data from hue_180_FLMS001491_00008.txt Node
Date: Tue Feb 07 16:46:29 GMT 2017
User: dcchb
Spectrometer: FLMS00149
Trigger mode: 0
Integration Time (sec): 2.000000E-2
Scans to average: 10
Electric dark correction enabled: true
Nonlinearity correction enabled: false
Boxcar width: 0
XAxis mode: Wavelengths
Number of Pixels in Spectrum: 2048
>>>>>Begin Spectral Data<<<<<
341.393	-20.56
341.776	-20.56
342.16	-20.56
342.543	-56.72
342.927	-54.91
343.31	-66.66
343.693	-74.12
344.077	-67.57
344.46	-69.15
344.843	-56.27
345.226	-47.23
345.61	-2.49
345.993	-21.24
346.376	9.72
346.759	-6.78
347.142	26.89
347.525	41.35
347.908	67.79
348.291	67.12
348.674	88.81
349.057	109.83
349.44	119.09
349.823	133.1
350.206	155.25
350.588	195.48
350.971	204.74
351.354	216.27
351.737	249.48
352.119	257.39
352.502	254.46
352.884	275.02
353.267	289.03
353.65	295.13
354.032	277.73
354.414	329.26
354.797	287.45
355.179	312.99
355.562	317.51
355.944	314.57
356.326	327.67
356.709	343.04
357.091	343.49
357.473	339.43
357.855	348.92
358.238	350.73
358.62	334.68
359.002	371.06
359.384	335.13
359.766	335.36
360.148	357.73
360.53	342.36
360.912	355.92
361.294	329.71
361.676	321.8
362.057	318.18
362.439	331.29
362.821	342.59
363.203	338.97
363.584	339.43
363.966	319.99
364.348	314.57
364.729	322.48
365.111	316.15
365.493	328.58
365.874	321.35
366.256	324.51
366.637	324.51
367.019	309.82
367.4	317.73
367.781	296.26
368.163	302.14
368.544	337.84
368.925	305.08
369.306	306.66
369.688	310.5
370.069	317.05
370.45	312.53
370.831	311.18
371.212	317.28
371.593	307.79
371.974	310.05
372.355	330.39
372.736	327.22
373.117	317.96
373.498	331.06
373.879	325.42
374.26	315.7
374.641	313.44
375.021	312.31
375.402	316.15
375.783	312.76
376.163	357.28
376.544	328.13
376.925	312.99
377.305	325.64
377.686	328.58
378.066	322.03
378.447	332.87
378.827	327.22
379.208	333.78
379.588	337.84
379.968	345.98
380.349	339.2
380.729	335.81
381.109	350.73
381.489	331.06
381.87	329.26
382.25	334.45
382.63	343.95
383.01	337.17
383.39	349.82
383.77	357.05
384.15	368.13
384.53	351.4
384.91	345.98
385.29	363.61
385.67	338.97
386.049	347.11
386.429	361.12
386.809	357.05
387.189	357.05
387.568	365.19
387.948	364.28
388.328	350.95
388.707	360.67
389.087	383.94
389.466	375.36
389.846	368.8
390.225	373.55
390.605	371.97
390.984	368.58
391.363	391.18
391.743	385.98
392.122	384.17
392.501	391.63
392.881	369.48
393.26	358.63
393.639	386.88
394.018	387.11
394.397	369.03
394.776	396.15
395.155	383.72
395.534	407.22
395.913	403.61
396.292	395.47
396.671	408.8
397.05	384.17
397.429	397.96
397.808	406.77
398.186	419.42
398.565	405.41
398.944	429.14
399.323	402.48
399.701	423.49
400.08	433.43
400.458	425.53
400.837	439.31
401.215	411.51
401.594	406.09
401.972	433.21
402.351	451.06
402.729	439.76
403.107	433.66
403.486	460.78
403.864	441.34
404.242	442.25
404.62	432.08
404.999	464.85
405.377	456.94
405.755	453.55
406.133	476.15
406.511	472.3
406.889	481.57
407.267	481.57
407.645	486.99
408.023	494.45
408.401	486.54
408.779	505.3
409.156	513.43
409.534	531.29
409.912	533.32
410.29	533.55
410.667	532.64
411.045	549.36
411.422	540.55
411.8	555.24
412.178	556.14
412.555	577.16
412.933	590.04
413.31	579.87
413.687	593.2
414.065	586.88
414.442	592.53
414.819	601.11
415.197	625.52
415.574	644.95
415.951	654.22
416.328	656.03
416.705	665.75
417.082	652.41
417.46	684.28
417.837	666.65
418.214	663.49
418.591	699.87
418.967	700.55
419.344	693.99
419.721	721.11
420.098	718.63
420.475	755.69
420.852	750.71
421.228	758.4
421.605	775.8
421.982	787.1
422.358	787.32
422.735	809.02
423.111	813.31
423.488	821.9
423.864	828
424.241	840.88
424.617	858.96
424.994	867.32
425.37	889.47
425.746	883.82
426.123	899.41
426.499	948
426.875	931.27
427.251	942.8
427.627	972.86
428.003	959.52
428.379	994.32
428.756	1001.33
429.132	1005.4
429.507	1005.17
429.883	1045.17
430.259	1037.03
430.635	1046.3
431.011	1062.34
431.387	1084.72
431.763	1107.09
432.138	1123.59
432.514	1127.2
432.89	1169.69
433.265	1153.87
433.641	1186.64
434.016	1211.27
434.392	1236.58
434.767	1242.68
435.143	1268.22
435.518	1273.64
435.894	1310.7
436.269	1337.14
436.644	1338.27
437.02	1345.95
437.395	1375.56
437.77	1369
438.145	1427.31
438.52	1452.17
438.895	1460.75
439.271	1429.57
439.646	1521.99
440.021	1496.68
440.395	1524.25
440.77	1510.47
441.145	1559.06
441.52	1565.61
441.895	1589.79
442.27	1657.81
442.645	1621.2
443.019	1651.03
443.394	1631.14
443.769	1665.94
444.143	1704.14
444.518	1724.02
444.892	1735.1
445.267	1736.9
445.641	1757.24
446.016	1774.42
446.39	1783
446.764	1799.95
447.139	1798.37
447.513	1821.87
447.887	1834.3
448.262	1851.02
448.636	1857.8
449.01	1902.55
449.384	1918.14
449.758	1914.75
450.132	1931.02
450.506	1931.47
450.88	1962.89
451.254	1935.09
451.628	2026.61
452.002	2063.67
452.376	2048.08
452.75	2056.22
453.123	2087.18
453.497	2147.06
453.871	2119.04
454.244	2169.89
454.618	2177.12
454.992	2212.15
455.365	2272.48
455.739	2305.02
456.112	2312.71
456.486	2315.65
456.859	2354.06
457.232	2399.94
457.606	2373.04
457.979	2405.36
458.352	2464.57
458.725	2495.53
459.099	2500.05
459.472	2556.32
459.845	2571.01
460.218	2621.85
460.591	2655.75
460.964	2640.61
461.337	2752.92
461.71	2787.72
462.083	2819.36
462.456	2832.02
462.829	2851.68
463.201	2873.6
463.574	2904.78
463.947	2937.78
464.32	2999.47
464.692	3028.39
465.065	3055.96
465.438	3124.89
465.81	3157.88
466.183	3240.37
466.555	3287.15
466.928	3298.44
467.3	3300.03
467.672	3340.93
468.045	3435.84
468.417	3470.87
468.789	3506.35
469.161	3558.78
469.534	3619.34
469.906	3721.94
470.278	3701.37
470.65	3802.84
471.022	3865.44
471.394	3937.52
471.766	3972.32
472.138	4050.74
472.51	4117.18
472.882	4172.32
473.253	4269.04
473.625	4328.7
473.997	4419.09
474.369	4412.54
474.74	4483.95
475.112	4636.26
475.484	4692.31
475.855	4837.84
476.227	4816.6
476.598	5029.92
476.97	5062.92
477.341	5151.05
477.713	5271.95
478.084	5273.99
478.455	5477.6
478.827	5489.57
479.198	5718.95
479.569	5635.78
479.94	5891.82
480.311	5892.73
480.682	6078.26
481.053	6213.85
481.424	6334.75
481.795	6402.09
482.166	6507.85
482.537	6622.88
482.908	6781.97
483.279	6861.51
483.65	6984.68
484.021	7122.07
484.391	7247.72
484.762	7310.09
485.133	7477.77
485.503	7555.51
485.874	7790.76
486.244	7825.33
486.615	7967.47
486.985	8096.28
487.356	8254.47
487.726	8344.64
488.097	8514.13
488.467	8563.62
488.837	8787.57
489.207	8935.58
489.578	9004.06
489.948	9167.89
490.318	9264.62
490.688	9315.24
491.058	9502.8
491.428	9585.06
491.798	9775.79
492.168	9828.67
492.538	9962.9
492.908	10090.58
493.278	10181.43
493.648	10179.17
494.017	10347.07
494.387	10517.24
494.757	10572.15
495.126	10712.03
495.496	10744.8
495.866	10788.64
496.235	10940.05
496.605	11000.39
496.974	11068.18
497.344	11274.05
497.713	11241.51
498.082	11311.57
498.452	11376.42
498.821	11400.6
499.19	11509.3
499.559	11595.63
499.928	11739.8
500.298	11702.74
500.667	11888.95
501.036	11748.17
501.405	11856.64
501.774	11985
502.143	12029.29
502.512	12116.74
502.88	12084.88
503.249	12126.91
503.618	12221.37
503.987	12329.62
504.356	12319.9
504.724	12409.39
505.093	12329.85
505.462	12450.29
505.83	12512.89
506.199	12546.34
506.567	12732.09
506.936	12703.39
507.304	12799.89
507.672	12818.19
508.041	12881.24
508.409	12870.17
508.777	12947.91
509.145	12984.29
509.514	12975.25
509.882	13017.28
510.25	12989.04
510.618	13110.84
510.986	13105.64
511.354	13105.19
511.722	13251.4
512.09	13268.58
512.458	13277.39
512.826	13424.73
513.193	13306.54
513.561	13290.72
513.929	13374.11
514.297	13373.21
514.664	13541.56
515.032	13439.87
515.4	13544.05
515.767	13494.56
516.135	13640.09
516.502	13429.93
516.869	13650.26
517.237	13625.86
517.604	13466.09
517.972	13627.44
518.339	13702.92
518.706	13629.02
519.073	13678.06
519.44	13736.14
519.808	13715.35
520.175	13733.65
520.542	13774.1
520.909	13845.29
521.276	13708.57
521.643	13781.11
522.009	13897.04
522.376	13870.14
522.743	13893.42
523.11	13914.44
523.477	13916.47
523.843	13943.59
524.21	13989.24
524.577	14038.73
524.943	14018.84
525.31	14071.27
525.676	14052.06
526.043	14154.43
526.409	14075.79
526.776	14184.71
527.142	14078.27
527.508	14060.87
527.874	14237.37
528.241	14077.37
528.607	14103.13
528.973	14132.74
529.339	14004.38
529.705	14208.21
530.071	14167.99
530.437	14034.66
530.803	14106.52
531.169	14081.21
531.535	13983.14
531.901	13939.07
532.267	13969.12
532.632	13934.32
532.998	13954.66
533.364	13955.57
533.73	13879.18
534.095	13817.49
534.461	13873.53
534.826	13811.39
535.192	13798.73
535.557	13874.44
535.923	13716.48
536.288	13642.13
536.653	13628.34
537.019	13565.52
537.384	13576.82
537.749	13450.72
538.114	13573.43
538.479	13397.16
538.845	13323.49
539.21	13388.12
539.575	13301.8
539.94	13195.36
540.305	13262.48
540.67	13168.92
541.034	13069.71
541.399	13087.57
541.764	12971.41
542.129	13028.58
542.494	12924.18
542.858	12866.1
543.223	12815.26
543.587	12867.46
543.952	12653.68
544.316	12633.11
544.681	12612.78
545.045	12540.24
545.41	12463.18
545.774	12483.74
546.138	12465.43
546.503	12342.5
546.867	12236.74
547.231	12289.39
547.595	12274.03
547.959	12193.35
548.324	12102.73
548.688	12065.67
549.052	11960.36
549.416	11993.81
549.779	11863.64
550.143	11869.07
550.507	11946.13
550.871	11895.73
551.235	11760.14
551.599	11759.01
551.962	11694.61
552.326	11653.93
552.689	11634.27
553.053	11530.09
553.417	11514.27
553.78	11637.89
554.143	11424.56
554.507	11355.63
554.87	11421.39
555.234	11424.11
555.597	11427.72
555.96	11315.41
556.323	11345.69
556.686	11173.04
557.05	11201.29
557.413	11164.45
557.776	11182.53
558.139	11195.19
558.502	11068.41
558.865	11066.83
559.228	11074.51
559.59	11073.16
559.953	10949.32
560.316	11083.55
560.679	11068.64
561.041	11005.81
561.404	11045.59
561.767	11052.82
562.129	10973.04
562.492	11050.1
562.854	10979.15
563.217	10962.88
563.579	10872.26
563.941	10985.7
564.304	10943.22
564.666	10976.21
565.028	10984.34
565.39	10917.23
565.753	10895.08
566.115	10931.92
566.477	11006.04
566.839	10886.95
567.201	10965.14
567.563	10924.23
567.925	10952.93
568.287	10973.72
568.648	10916.78
569.01	10940.28
569.372	11005.81
569.734	10920.84
570.095	10912.03
570.457	10960.62
570.819	10978.24
571.18	10953.16
571.542	10937.34
571.903	10910.67
572.265	10952.25
572.626	10992.71
572.987	10914.97
573.349	10987.96
573.71	10964.91
574.071	10925.36
574.432	10954.06
574.794	11034.74
575.155	11028.64
575.516	10905.93
575.877	10995.87
576.238	10976.43
576.599	11014.17
576.96	10949.32
577.32	10933.5
577.681	10961.07
578.042	10976.66
578.403	11008.52
578.763	10950.67
579.124	10986.38
579.485	10934.18
579.845	10995.19
580.206	10934.85
580.566	10901.18
580.927	10990.22
581.287	10949.32
581.648	10936.89
582.008	10943.89
582.368	10858.47
582.728	10891.24
583.089	10971.24
583.449	10890.79
583.809	10841.3
584.169	10885.36
584.529	10817.12
584.889	10894.18
585.249	10845.82
585.609	10791.81
585.969	10785.93
586.329	10752.26
586.688	10821.41
587.048	10726.27
587.408	10730.34
587.768	10635.88
588.127	10727.4
588.487	10711.58
588.846	10728.76
589.206	10654.18
589.565	10723.33
589.925	10766.5
590.284	10690.34
590.643	10724.24
591.003	10763.33
591.362	10695.54
591.721	10677.91
592.08	10660.06
592.44	10672.71
592.799	10701.19
593.158	10562.66
593.517	10604.92
593.876	10650.79
594.235	10514.07
594.593	10559.95
594.952	10641.98
595.311	10575.32
595.67	10619.61
596.029	10610.57
596.387	10593.39
596.746	10623.22
597.104	10541.19
597.463	10510.46
597.822	10577.57
598.18	10463.45
598.538	10525.37
598.897	10510.01
599.255	10464.58
599.613	10531.93
599.972	10484.92
600.33	10459.16
600.688	10488.09
601.046	10470.91
601.404	10573.28
601.762	10540.97
602.12	10563.11
602.478	10456
602.836	10517.92
603.194	10505.26
603.552	10496
603.91	10434.3
604.268	10481.08
604.625	10330.12
604.983	10432.04
605.341	10392.27
605.698	10482.44
606.056	10454.41
606.413	10437.69
606.771	10513.4
607.128	10472.27
607.485	10414.87
607.843	10429.78
608.2	10460.29
608.557	10524.92
608.914	10564.69
609.272	10566.28
609.629	10495.54
609.986	10522.21
610.343	10528.76
610.7	10592.26
611.057	10561.08
611.414	10508.42
611.771	10481.08
612.127	10597.91
612.484	10504.13
612.841	10609.89
613.198	10474.07
613.554	10552.49
613.911	10611.92
614.267	10516.56
614.624	10548.65
614.98	10528.76
615.337	10648.08
615.693	10654.64
616.05	10562.66
616.406	10652.6
616.762	10583.9
617.118	10590.68
617.475	10598.14
617.831	10660.96
618.187	10683.11
618.543	10691.7
618.899	10662.32
619.255	10696.67
619.611	10651.92
619.967	10703.67
620.323	10682.88
620.678	10741.41
621.034	10617.57
621.39	10634.3
621.746	10681.98
622.101	10812.37
622.457	10636.78
622.812	10732.83
623.168	10769.43
623.523	10658.02
623.879	10762.65
624.234	10681.3
624.589	10688.76
624.945	10654.18
625.3	10713.16
625.655	10655.31
626.01	10723.11
626.365	10672.71
626.72	10698.93
627.075	10626.61
627.43	10693.96
627.785	10677.01
628.14	10672.49
628.495	10691.7
628.85	10606.05
629.205	10530.57
629.559	10648.08
629.914	10585.94
630.269	10497.13
630.623	10520.63
630.978	10517.69
631.332	10591.81
631.687	10626.16
632.041	10558.82
632.396	10532.6
632.75	10500.51
633.104	10560.85
633.459	10507.29
633.813	10492.15
634.167	10493.51
634.521	10482.66
634.875	10512.04
635.229	10403.79
635.583	10373.29
635.937	10410.8
636.291	10382.1
636.645	10378.03
636.999	10396.56
637.352	10413.51
637.706	10351.59
638.06	10375.77
638.413	10354.98
638.767	10346.39
639.121	10296
639.474	10252.61
639.828	10237.92
640.181	10286.28
640.534	10273.63
640.888	10244.93
641.241	10215.32
641.594	10237.24
641.947	10230.24
642.301	10188.88
642.654	10183.24
643.007	10256.68
643.36	10205.83
643.713	10279.96
644.066	10223.91
644.419	10159.05
644.771	10105.72
645.124	10018.49
645.477	9928.1
645.83	9885.84
646.182	9927.2
646.535	9902.79
646.888	9932.62
647.24	9851.72
647.593	9857.37
647.945	9873.86
648.298	9838.61
648.65	9859.4
649.002	9755.68
649.355	9893.75
649.707	9806.52
650.059	9831.38
650.411	10037.93
650.763	10026.18
651.115	10184.82
651.467	10074.31
651.819	10133.29
652.171	10043.35
652.523	10071.83
652.875	10114.31
653.227	9965.39
653.578	10024.82
653.93	10061.2
654.282	10058.94
654.633	9961.09
654.985	10060.3
655.337	10083.12
655.688	10128.55
656.039	10096.91
656.391	10065.05
656.742	10020.3
657.094	10085.16
657.445	10148.89
657.796	10071.37
658.147	10045.84
658.498	10055.33
658.849	10189.56
659.2	10114.31
659.551	10040.87
659.902	10088.32
660.253	10102.56
660.604	10157.02
660.955	10013.52
661.306	10164.7
661.656	10136.91
662.007	10214.42
662.358	10173.29
662.708	10229.34
663.059	10137.36
663.409	10064.14
663.76	10185.95
664.11	10155.67
664.461	10227.75
664.811	10161.99
665.161	10145.04
665.511	10121.77
665.862	10087.87
666.212	10132.61
666.562	10161.31
666.912	10173.52
667.262	10168.77
667.612	10160.18
667.962	10124.48
668.312	10114.08
668.662	10240.86
669.011	10164.48
669.361	10099.4
669.711	10197.47
670.06	10127.19
670.41	10114.31
670.76	10169.45
671.109	10136.91
671.459	10112.28
671.808	10188.43
672.157	10210.35
672.507	10062.11
672.856	10060.07
673.205	10104.82
673.554	10147.53
673.904	10076.35
674.253	10112.5
674.602	10053.75
674.951	9975.33
675.3	9933.98
675.649	10053.29
675.998	10095.55
676.346	10096.23
676.695	10021.66
677.044	9968.33
677.393	10003.35
677.741	10024.82
678.09	9959.96
678.438	9936.01
678.787	9991.83
679.135	9902.34
679.484	9823.02
679.832	9916.35
680.181	9794.09
680.529	9908.89
680.877	9865.28
681.225	9808.56
681.573	9809.01
681.922	9807.65
682.27	9740.08
682.618	9803.81
682.966	9707.77
683.314	9726.75
683.661	9702.8
684.009	9673.42
684.357	9611.05
684.705	9602.23
685.053	9669.58
685.4	9658.05
685.748	9586.41
686.095	9512.52
686.443	9567.66
686.79	9507.32
687.138	9547.77
687.485	9507.55
687.832	9463.93
688.18	9459.64
688.527	9437.49
688.874	9367.44
689.221	9343.03
689.568	9390.71
689.915	9213.09
690.262	9291.73
690.609	9275.69
690.956	9196.37
691.303	9233.43
691.65	9148.69
691.997	9156.82
692.344	9088.35
692.69	9065.3
693.037	9085.41
693.383	9023.49
693.73	8995.24
694.077	8892.42
694.423	8936.71
694.769	8904.62
695.116	8830.5
695.462	8855.36
695.808	8852.2
696.155	8807.45
696.501	8722.26
696.847	8679.55
697.193	8626.44
697.539	8656.27
697.885	8668.02
698.231	8628.7
698.577	8615.37
698.923	8565.65
699.269	8476.16
699.614	8451.98
699.96	8465.77
700.306	8441.59
700.651	8364.07
700.997	8302.38
701.342	8356.84
701.688	8288.14
702.033	8278.2
702.379	8248.14
702.724	8145.32
703.069	8202.27
703.415	8082.05
703.76	8119.11
704.105	8135.61
704.45	8114.59
704.795	7998.21
705.14	7998.89
705.485	8013.57
705.83	7914.82
706.175	7938.55
706.52	7887.93
706.865	7844.09
707.209	7845.9
707.554	7821.72
707.899	7865.33
708.243	7766.35
708.588	7753.69
708.932	7680.93
709.277	7746.24
709.621	7728.38
709.966	7605
710.31	7610.2
710.654	7534.72
710.998	7619.91
711.342	7613.81
711.687	7571.55
712.031	7533.36
712.375	7453.59
712.719	7549.41
713.063	7481.61
713.407	7525.45
713.75	7463.08
714.094	7530.2
714.438	7414.72
714.782	7409.97
715.125	7347.83
715.469	7365.68
715.812	7379.69
716.156	7315.74
716.499	7389.64
716.843	7387.15
717.186	7230.54
717.53	7319.58
717.873	7283.42
718.216	7376.76
718.559	7292.46
718.902	7200.71
719.246	7246.59
719.589	7242.07
719.932	7253.82
720.275	7242.3
720.617	7283.2
720.96	7187.61
721.303	7149.19
721.646	7210.43
721.989	7169.98
722.331	7255.18
722.674	7114.62
723.016	7134.95
723.359	7152.81
723.701	7166.82
724.044	7128.85
724.386	7141.28
724.729	7165.24
725.071	7125.24
725.413	7172.01
725.755	7073.03
726.097	7100.83
726.439	7038.46
726.782	7150.09
727.124	7113.26
727.465	7073.03
727.807	7086.14
728.149	7103.54
728.491	7031.45
728.833	7092.69
729.175	7055.63
729.516	7045.69
729.858	7087.5
730.199	7086.82
730.541	7057.67
730.882	7075.29
731.224	7053.6
731.565	7040.94
731.906	7080.72
732.248	7065.35
732.589	7062.41
732.93	7014.5
733.271	7028.06
733.612	7049.31
733.953	7045.92
734.294	7070.32
734.635	7050.44
734.976	7113.71
735.317	7069.42
735.658	7083.88
735.999	7092.69
736.339	7016.54
736.68	7099.02
737.021	7109.64
737.361	7118.68
737.702	7166.37
738.042	7092.92
738.383	7102.19
738.723	7129.53
739.063	7083.66
739.404	7160.04
739.744	7147.38
740.084	7134.05
740.424	7163.43
740.764	7179.25
741.104	7223.31
741.444	7195.97
741.784	7242.07
742.124	7224.89
742.464	7232.35
742.804	7338.56
743.143	7350.77
743.483	7336.98
743.823	7309.64
744.162	7387.15
744.502	7346.93
744.841	7427.15
745.181	7483.19
745.52	7540.14
745.86	7496.98
746.199	7618.56
746.538	7635.73
746.877	7714.6
747.216	7706.24
747.556	7850.87
747.895	7885.22
748.234	7843.64
748.573	7915.05
748.911	7976.74
749.25	8086.12
749.589	8169.95
749.928	8115.27
750.267	8259.9
750.605	8353
750.944	8390.06
751.283	8525.43
751.621	8644.07
751.96	8650.62
752.298	8788.02
752.636	8903.95
752.975	8962.7
753.313	9120.44
753.651	9176.03
753.989	9302.58
754.327	9438.17
754.666	9530.14
755.004	9755.22
755.342	9877.93
755.679	9956.35
756.017	10106.85
756.355	10259.84
756.693	10460.97
757.031	10585.48
757.368	10692.37
757.706	10918.36
758.044	11002.65
758.381	11188.86
758.719	11408.74
759.056	11631.78
759.394	11767.15
759.731	11888.05
760.068	12132.56
760.405	12291.88
760.743	12517.41
761.08	12645.09
761.417	12873.33
761.754	13011.64
762.091	13224.74
762.428	13437.16
762.765	13584.28
763.102	13798.96
763.438	14046.64
763.775	14155.56
764.112	14371.83
764.449	14658.15
764.785	14805.03
765.122	14920.29
765.458	15101.52
765.795	15311.91
766.131	15509.65
766.467	15617.67
766.804	15832.13
767.14	16003.42
767.476	16296.97
767.812	16233.25
768.148	16496.06
768.485	16662.61
768.821	16760.92
769.157	16900.12
769.492	17005.43
769.828	17312.77
770.164	17251.07
770.5	17388.7
770.836	17603.38
771.171	17686.31
771.507	17733.55
771.842	17902.81
772.178	17962.47
772.513	18161.56
772.849	18188
773.184	18299.41
773.519	18465.96
773.855	18470.47
774.19	18547.76
774.525	18698.04
774.86	18748.43
775.195	18874.76
775.53	18849.67
775.865	19085.6
776.2	19010.8
776.535	18985.26
776.87	19088.54
777.205	19077.46
777.539	19248.99
777.874	19342.77
778.209	19171.93
778.543	19261.87
778.878	19303.9
779.212	19422.09
779.547	19385.25
779.881	19501.86
780.215	19476.1
780.55	19588.86
780.884	19568.53
781.218	19586.83
781.552	19712.7
781.886	19663.44
782.22	19628.86
782.554	19608.75
782.888	19524.23
783.222	19504.12
783.556	19439.94
783.889	19505.48
784.223	19548.19
784.557	19606.04
784.89	19520.16
785.224	19495.31
785.557	19526.72
785.891	19557.68
786.224	19495.53
786.558	19562.2
786.891	19374.41
787.224	19477.91
787.557	19411.24
787.891	19462.31
788.224	19459.6
788.557	19561.97
788.89	19458.02
789.223	19491.46
789.556	19371.24
789.888	19325.59
790.221	19395.65
790.554	19208.99
790.887	19258.48
791.219	19220.06
791.552	19185.26
791.884	19155.88
792.217	19019.39
792.549	19004.7
792.882	19006.28
793.214	18981.65
793.546	19023.91
793.879	18881.99
794.211	18764.48
794.543	18935.1
794.875	18843.35
795.207	18882.44
795.539	18828.66
795.871	18837.24
796.203	18642.9
796.535	18641.54
796.867	18479.51
797.198	18633.18
797.53	18515.67
797.862	18464.15
798.193	18526.29
798.525	18451.27
798.856	18439.06
799.188	18288.78
799.519	18235.45
799.85	18109.58
800.182	18192.97
800.513	18181.89
800.844	18056.25
801.175	18122.01
801.506	18121.78
801.837	18042.24
802.168	18013.76
802.499	17939.87
802.83	17934.67
803.161	17867.78
803.491	17863.94
803.822	17879.3
804.153	17815.35
804.483	17643.15
804.814	17629.59
805.145	17648.35
805.475	17675.24
805.805	17597.05
806.136	17541.01
806.466	17569.48
806.796	17470.05
807.126	17469.37
807.457	17293.56
807.787	17378.75
808.117	17246.1
808.447	17165.65
808.777	17302.14
809.107	17093.79
809.436	17077.29
809.766	17146.89
810.096	17054.92
810.426	17001.59
810.755	17039.1
811.085	17028.48
811.414	16993.9
811.744	16936.28
812.073	16836.39
812.403	16838.65
812.732	16774.25
813.061	16863.74
813.39	16671.43
813.719	16647.25
814.049	16748.49
814.378	16609.05
814.707	16599.56
815.036	16583.52
815.365	16530.64
815.693	16469.17
816.022	16400.7
816.351	16402.73
816.68	16265.56
817.008	16482.96
817.337	16282.51
817.665	16185.56
817.994	16270.98
818.322	16221.27
818.651	16131.55
818.979	16106.47
819.307	16197.54
819.636	16133.14
819.964	15946.47
820.292	16054.49
820.62	16140.59
820.948	16060.14
821.276	16061.05
821.604	16083.64
821.932	16068.05
822.259	16028.51
822.587	16067.15
822.915	16006.13
823.243	16068.05
823.57	15956.64
823.898	16063.08
824.225	15965.68
824.553	15964.33
824.88	16031.67
825.207	16138.78
825.535	16055.85
825.862	16083.42
826.189	15939.92
826.516	16070.76
826.843	16052.23
827.17	16028.05
827.497	16080.71
827.824	16133.59
828.151	16163.42
828.478	16087.03
828.805	16151.89
829.131	16044.55
829.458	16066.47
829.785	16027.83
830.111	15928.62
830.438	16101.05
830.764	16125.45
831.09	15980.14
831.417	15967.26
831.743	16027.6
832.069	16017.43
832.395	16025.34
832.722	16014.72
833.048	15937.43
833.374	15940.82
833.7	15906.47
834.026	15965.23
834.351	16028.05
834.677	15822.41
835.003	15962.52
835.329	15880.49
835.654	15839.13
835.98	15826.25
836.306	15854.95
836.631	15859.24
836.956	15857.44
837.282	15793.71
837.607	15841.62
837.932	15736.54
838.258	15731.11
838.583	15766.82
838.908	15542.42
839.233	15636.88
839.558	15631
839.883	15592.13
840.208	15493.38
840.533	15596.88
840.858	15532.02
841.182	15491.8
841.507	15482.08
841.832	15400.72
842.156	15406.6
842.481	15320.95
842.805	15334.29
843.13	15371.57
843.454	15266.27
843.778	15249.09
844.103	15225.36
844.427	15181.3
844.751	15158.92
845.075	15083.22
845.399	15090.9
845.723	15025.37
846.047	15080.96
846.371	14855.43
846.695	14887.07
847.019	14823.11
847.343	14734.75
847.666	14672.83
847.99	14519.84
848.313	14588.32
848.637	14468.32
848.96	14519.17
849.284	14463.57
849.607	14271.94
849.931	14258.61
850.254	14199.63
850.577	14125.28
850.9	13996.69
851.223	14010.25
851.546	13974.32
851.869	13829.01
852.192	13960.08
852.515	13839.18
852.838	13749.47
853.161	13812.97
853.483	13658.85
853.806	13714.44
854.129	13588.12
854.451	13563.94
854.774	13504.73
855.096	13372.3
855.419	13364.17
855.741	13358.97
856.063	13249.14
856.385	13217.28
856.708	13193.55
857.03	13184.06
857.352	13159.88
857.674	13174.12
857.996	13062.48
858.318	13029.71
858.64	13012.99
858.961	13067.23
859.283	12997.62
859.605	12899.1
859.926	12855.26
860.248	12813.9
860.57	12763.05
860.891	12851.41
861.212	12733.45
861.534	12759.44
861.855	12760.79
862.176	12663.85
862.498	12685.77
862.819	12670.18
863.14	12576.17
863.461	12553.34
863.782	12500.46
864.103	12575.04
864.424	12575.04
864.745	12528.03
865.065	12375.72
865.386	12397.41
865.707	12433.8
866.027	12400.35
866.348	12354.48
866.668	12340.47
866.989	12295.27
867.309	12307.7
867.63	12324.2
867.95	12287.36
868.27	12217.53
868.59	12252.33
868.91	12154.93
869.23	12159.68
869.55	12119.91
869.87	12144.99
870.19	12080.13
870.51	12152.9
870.83	12137.31
871.15	11997.2
871.469	11978.89
871.789	12047.59
872.109	12037.65
872.428	11922.85
872.748	11925.79
873.067	11990.87
873.386	11950.87
873.706	11962.85
874.025	11854.83
874.344	11747.71
874.663	11850.54
874.982	11806.47
875.301	11767.15
875.62	11739.8
875.939	11745.23
876.258	11754.27
876.577	11685.12
876.896	11617.77
877.214	11677.89
877.533	11638.11
877.852	11652.57
878.17	11667.26
878.489	11541.84
878.807	11575.51
879.125	11558.79
879.444	11518.34
879.762	11532.58
880.08	11519.47
880.398	11456.42
880.716	11460.04
881.034	11366.03
881.352	11481.05
881.67	11381.17
881.988	11342.53
882.306	11218.69
882.624	11219.14
882.941	11253.26
883.259	11145.24
883.577	11210.55
883.894	11223.66
884.212	11155.41
884.529	11242.19
884.846	11083.1
885.164	11034.06
885.481	11068.64
885.798	11109.09
886.115	10996.32
886.432	11057.79
886.75	10977.34
887.067	10930.79
887.383	10912.26
887.7	10910.67
888.017	10921.97
888.334	10838.81
888.651	10809.43
888.967	10800.17
889.284	10728.98
889.6	10732.15
889.917	10681.53
890.233	10611.02
890.55	10708.42
890.866	10635.43
891.182	10606.05
891.498	10540.74
891.815	10539.38
892.131	10467.75
892.447	10519.95
892.763	10396.79
893.079	10417.13
893.395	10344.59
893.71	10334.42
894.026	10299.39
894.342	10233.86
894.657	10171.26
894.973	10224.14
895.289	10169
895.604	10166.51
895.92	10059.17
896.235	9969
896.55	10044.48
896.865	9994.54
897.181	9969.91
897.496	9937.14
897.811	9986.18
898.126	9897.59
898.441	9743.92
898.756	9780.31
899.071	9686.52
899.386	9700.54
899.7	9681.33
900.015	9668.9
900.33	9562.69
900.644	9546.87
900.959	9574.21
901.273	9504.38
901.588	9432.97
901.902	9420.09
902.216	9372.63
902.531	9324.27
902.845	9356.14
903.159	9262.81
903.473	9247.21
903.787	9197.05
904.101	9186.2
904.415	9157.05
904.729	9079.31
905.042	9069.59
905.356	9037.73
905.67	8935.13
905.984	8987.79
906.297	8939.88
906.611	8863.95
906.924	8874.79
907.237	8864.4
907.551	8833.44
907.864	8815.36
908.177	8766.32
908.491	8698.98
908.804	8620.34
909.117	8585.31
909.43	8526.56
909.743	8527.91
910.056	8493.34
910.368	8450.63
910.681	8398.88
910.994	8407.69
911.307	8356.62
911.619	8273.45
911.932	8312.1
912.244	8262.83
912.557	8255.6
912.869	8189.16
913.181	8186.23
913.494	8162.27
913.806	8074.36
914.118	8044.53
914.43	8001.82
914.742	8007.7
915.054	8009.28
915.366	7936.29
915.678	7956.17
915.99	7873.92
916.302	7805.22
916.613	7784.88
916.925	7817.87
917.236	7728.16
917.548	7745.11
917.859	7732.45
918.171	7621.04
918.482	7581.04
918.794	7591.44
919.105	7590.08
919.416	7530.42
919.727	7504.44
920.038	7488.84
920.349	7391.22
920.66	7419.47
920.971	7407.94
921.282	7330.88
921.593	7358.68
921.903	7204.33
922.214	7248.17
922.525	7205.23
922.835	7177.89
923.146	7150.09
923.456	7160.04
923.767	7096.76
924.077	7057.67
924.387	7026.26
924.697	6999.14
925.008	6939.93
925.318	6933.15
925.628	6971.57
925.938	6894.06
926.248	6873.49
926.558	6849.31
926.867	6778.58
927.177	6782.65
927.487	6754.62
927.796	6697.68
928.106	6695.19
928.416	6688.41
928.725	6618.36
929.034	6633.05
929.344	6626.04
929.653	6566.83
929.962	6451.81
930.271	6480.28
930.581	6452.03
930.89	6377.46
931.199	6465.82
931.508	6388.08
931.817	6413.16
932.125	6406.61
932.434	6339.27
932.743	6273.06
933.051	6231.7
933.36	6288.87
933.669	6189.44
933.977	6155.32
934.286	6188.54
934.594	6179.27
934.902	6098.6
935.21	6071.03
935.519	6115.77
935.827	6048.88
936.135	5980.86
936.443	6009.33
936.751	5919.39
937.059	5972.95
937.367	5893.18
937.674	5905.16
937.982	5899.96
938.29	5884.82
938.597	5825.84
938.905	5777.02
939.213	5746.74
939.52	5719.62
939.827	5741.32
940.135	5668.78
940.442	5636.01
940.749	5652.28
941.056	5631.94
941.363	5553.53
941.67	5545.84
941.977	5504.04
942.284	5448.67
942.591	5462.91
942.898	5403.93
943.205	5442.34
943.511	5429.69
943.818	5434.21
944.125	5347.2
944.431	5396.69
944.738	5401.21
945.044	5315.34
945.35	5232.63
945.657	5215.68
945.963	5291.84
946.269	5195.8
946.575	5204.38
946.881	5170.71
947.187	5161.45
947.493	5174.55
947.799	5109.7
948.105	5025.63
948.41	5059.53
948.716	5058.4
949.022	5042.58
949.327	5034.22
949.633	4954.67
949.938	4952.64
950.244	4958.29
950.549	4928.23
950.854	4878.29
951.16	4885.75
951.465	4804.85
951.77	4850.72
952.075	4823.38
952.38	4746.32
952.685	4750.16
952.99	4699.76
953.294	4692.76
953.599	4675.58
953.904	4672.87
954.209	4662.02
954.513	4668.8
954.818	4616.6
955.122	4596.26
955.426	4556.94
955.731	4534.34
956.035	4544.97
956.339	4532.54
956.643	4478.53
956.948	4525.53
957.252	4469.26
957.556	4484.63
957.86	4428.13
958.163	4431.07
958.467	4376.38
958.771	4351.52
959.075	4368.02
959.378	4377.51
959.682	4310.62
959.985	4275.37
960.289	4261.58
960.592	4250.06
960.896	4221.81
961.199	4201.92
961.502	4203.51
961.805	4198.99
962.108	4122.15
962.411	4144.07
962.714	4093.23
963.017	4087.12
963.32	4101.36
963.623	4069.95
963.926	4052.32
964.228	4052.55
964.531	4019.56
964.833	3993.34
965.136	3964.87
965.438	3973
965.741	3962.16
966.043	3939.11
966.345	3899.33
966.648	3887.36
966.95	3892.1
967.252	3839.45
967.554	3848.71
967.856	3838.09
968.158	3777.98
968.46	3797.19
968.761	3767.36
969.063	3806.68
969.365	3750.86
969.666	3733.01
969.968	3675.61
970.269	3713.12
970.571	3729.17
970.872	3676.29
971.174	3623.18
971.475	3623.63
971.776	3607.59
972.077	3636.97
972.378	3580.47
972.679	3574.14
972.98	3579.57
973.281	3535.5
973.582	3528.95
973.883	3511.55
974.183	3507.03
974.484	3515.61
974.785	3481.49
975.085	3470.19
975.386	3436.97
975.686	3415.73
975.986	3398.1
976.287	3447.14
976.587	3399.23
976.887	3402.62
977.187	3356.97
977.487	3361.95
977.787	3295.28
978.087	3344.77
978.387	3245.56
978.687	3289.18
978.987	3263.87
979.286	3219.35
979.586	3246.02
979.885	3216.41
980.185	3135.74
980.484	3168.5
980.784	3159.69
981.083	3126.47
981.382	3118.79
981.682	3101.61
981.981	3112.23
982.28	3087.6
982.579	3079.47
982.878	3081.73
983.177	3065
983.475	3048.51
983.774	3051.9
984.073	2976.87
984.372	2981.84
984.67	3001.05
984.969	2997.21
985.267	2966.93
985.566	2942.75
985.864	2962.63
986.162	2916.31
986.461	2903.43
986.759	2895.29
987.057	2849.42
987.355	2839.47
987.653	2872.47
987.951	2866.37
988.249	2841.73
988.547	2834.95
988.844	2785.46
989.142	2809.87
989.44	2789.76
989.737	2771
990.035	2749.98
990.332	2737.1
990.63	2734.39
990.927	2703.43
991.224	2709.31
991.521	2666.6
991.819	2701.85
992.116	2667.5
992.413	2640.16
992.71	2656.65
993.006	2608.74
993.303	2574.85
993.6	2593.38
993.897	2588.63
994.193	2602.19
994.49	2546.6
994.787	2548.63
995.083	2557.67
995.379	2509.76
995.676	2505.92
995.972	2513.38
996.268	2477.67
996.565	2470.22
996.861	2472.93
997.157	2474.06
997.453	2414.85
997.749	2434.06
998.044	2374.63
998.34	2414.63
998.636	2393.38
998.932	2385.7
999.227	2347.51
999.523	2337.57
999.818	2342.31
1000.114	2330.79
1000.409	2302.54
1000.704	2273.16
1001	2282.65
1001.295	2246.95
1001.59	2245.14
1001.885	2245.59
1002.18	2223.9
1002.475	2245.82
1002.77	2224.12
1003.065	2174.41
1003.359	2184.12
1003.654	2130.57
1003.949	2182.32
1004.243	2146.38
1004.538	2125.59
1004.832	2138.02
1005.127	2089.44
1005.421	2124.46
1005.715	2098.25
1006.009	2104.13
1006.304	2097.12
1006.598	2079.95
1006.892	2043.11
1007.186	2078.59
1007.48	2037.69
1007.773	1978.71
1008.067	2015.77
1008.361	1968.31
1008.655	1966.05
1008.948	1979.38
1009.242	1964.92
1009.535	1949.55
1009.829	1928.76
1010.122	1917.69
1010.415	1888.99
1010.708	1867.75
1011.001	1869.33
1011.295	1867.97
1011.588	1845.83
1011.881	1828.43
1012.173	1818.71
1012.466	1803.12
1012.759	1823.91
1013.052	1818.94
1013.344	1817.81
1013.637	1809.67
1013.93	1792.72
1014.222	1776.45
1014.514	1725.15
1014.807	1761.54
1015.099	1745.94
1015.391	1719.05
1015.683	1709.11
1015.976	1674.76
1016.268	1677.7
1016.56	1660.75
1016.851	1679.96
1017.143	1671.37
1017.435	1651.93
1017.727	1647.64
1018.018	1632.73
1018.31	1614.65
1018.602	1590.01
1018.893	1572.61
1019.185	1604.48
1019.476	1595.66
1019.767	1580.3
1020.058	1551.82
1020.35	1548.89
1020.641	1533.29
1020.932	1513.18
1021.223	1515.44
1021.514	1511.6
1021.804	1512.95
1022.095	1473.86
1022.386	1457.36
1022.677	1466.85
1022.967	1508.66
1023.258	1453.75
1023.548	1438.15
1023.839	1423.92
1024.129	1416.23
1024.419	1410.36
1024.709	1404.03
1025	1379.17
1025.29	1379.85
1025.58	1343.02
1025.87	1362.45
1026.16	1364.03
1026.449	1362
1026.739	1349.34
1027.029	1326.07
1027.319	1301.43
1027.608	1316.58
1027.898	1289.91
1028.187	1300.98
1028.477	1310.7
1028.766	1280.87
1029.055	1277.25
1029.344	1274.54
1029.634	1264.15
1029.923	1257.59
1030.212	1238.61
1030.501	1227.54
1030.79	1235
1031.078	1191.83
1031.367	1209.46
1031.656	1205.62
1031.945	1190.93
1032.233	1169.23
1032.522	1182.79
1032.81	1157.94
1033.099	1134.89
1033.387	1147.09
1033.675	1172.4
1033.963	1157.26
1034.251	1135.79
1034.54	1107.77
1034.828	1106.41
1035.116	1100.08
1035.403	1100.76
1035.691	1079.29
1035.979	1069.8
1036.267	1080.88
1036.554	1093.08
1036.842	1059.41
1037.129	1045.85
1037.417	1056.92
1037.704	1021.44
1037.992	1041.78
1038.279	993.42
1038.566	997.04
1038.853	997.04
1039.14	997.04
