Data from hue_130_FLMS001491_00057.txt Node
Date: Tue Feb 07 16:57:48 GMT 2017
User: dcchb
Spectrometer: FLMS00149
Trigger mode: 0
Integration Time (sec): 2.000000E-2
Scans to average: 10
Electric dark correction enabled: true
Nonlinearity correction enabled: false
Boxcar width: 0
XAxis mode: Wavelengths
Number of Pixels in Spectrum: 2048
>>>>>Begin Spectral Data<<<<<
341.393	-20.97
341.776	-20.97
342.16	-20.97
342.543	-55.1
342.927	-87.86
343.31	-58.26
343.693	-85.61
344.077	-89.45
344.46	-61.65
344.843	-60.97
345.226	-51.48
345.61	-0.86
345.993	-22.78
346.376	1.4
346.759	25.13
347.142	4.11
347.525	35.3
347.908	68.97
348.291	89.53
348.674	101.28
349.057	105.35
349.44	142.41
349.823	155.29
350.206	169.08
350.588	211.56
350.971	219.92
351.354	234.61
351.737	230.09
352.119	261.05
352.502	240.26
352.884	275.06
353.267	274.16
353.65	290.66
354.032	306.25
354.414	303.99
354.797	314.16
355.179	325.68
355.562	329.3
355.944	326.81
356.326	335.85
356.709	326.81
357.091	356.19
357.473	360.94
357.855	338.56
358.238	338.79
358.62	346.7
359.002	345.34
359.384	329.07
359.766	328.62
360.148	332.24
360.53	340.82
360.912	319.81
361.294	323.88
361.676	334.95
362.057	339.69
362.439	340.37
362.821	350.32
363.203	315.51
363.584	322.75
363.966	327.27
364.348	317.32
364.729	318
365.111	336.08
365.493	336.3
365.874	322.07
366.256	308.28
366.637	323.42
367.019	324.33
367.4	326.81
367.781	318.45
368.163	316.87
368.544	310.09
368.925	315.51
369.306	346.02
369.688	329.75
370.069	309.19
370.45	314.16
370.831	313.48
371.212	320.03
371.593	329.3
371.974	341.28
372.355	301.96
372.736	327.72
373.117	340.15
373.498	320.71
373.879	333.14
374.26	318.68
374.641	312.12
375.021	328.85
375.402	318.68
375.783	331.33
376.163	315.51
376.544	316.64
376.925	339.47
377.305	326.59
377.686	320.26
378.066	328.4
378.447	317.32
378.827	324.33
379.208	339.02
379.588	335.85
379.968	347.38
380.349	328.4
380.729	327.27
381.109	353.25
381.489	351.9
381.87	343.76
382.25	343.54
382.63	369.52
383.01	359.35
383.39	338.79
383.77	342.18
384.15	351.45
384.53	357.32
384.91	358.23
385.29	346.25
385.67	358.23
386.049	352.12
386.429	353.71
386.809	356.42
387.189	367.49
387.568	368.62
387.948	359.81
388.328	359.35
388.707	356.42
389.087	368.85
389.466	355.74
389.846	363.42
390.225	360.48
390.605	375.85
390.984	370.2
391.363	367.26
391.743	377.21
392.122	369.98
392.501	380.37
392.881	359.81
393.26	354.61
393.639	395.74
394.018	374.72
394.397	393.48
394.776	397.09
395.155	399.58
395.534	407.72
395.913	395.06
396.292	406.13
396.671	411.33
397.05	397.77
397.429	404.1
397.808	394.61
398.186	378.11
398.565	397.55
398.944	412.91
399.323	409.07
399.701	394.61
400.08	419.01
400.458	410.2
400.837	413.14
401.215	421.95
401.594	410.88
401.972	418.56
402.351	428.51
402.729	424.89
403.107	429.86
403.486	427.6
403.864	445
404.242	437.32
404.62	432.8
404.999	429.41
405.377	418.56
405.755	444.1
406.133	432.57
406.511	450.43
406.889	427.83
407.267	442.74
407.645	450.88
408.023	459.47
408.401	450.43
408.779	473.48
409.156	434.38
409.534	466.24
409.912	473.02
410.29	484.1
410.667	477.09
411.045	475.06
411.422	496.75
411.8	494.04
412.178	498.79
412.555	507.37
412.933	492.91
413.31	485.68
413.687	502.85
414.065	504.44
414.442	508.96
414.819	507.37
415.197	508.5
415.574	543.08
415.951	516.19
416.328	528.84
416.705	523.42
417.082	534.72
417.46	555.28
417.837	529.75
418.214	536.07
418.591	539.69
418.967	541.95
419.344	539.92
419.721	572.23
420.098	560.25
420.475	564.32
420.852	578.33
421.228	565.68
421.605	577.2
421.982	579.91
422.358	580.14
422.735	549.41
423.111	572.23
423.488	559.12
423.864	569.29
424.241	583.3
424.617	605.22
424.994	614.49
425.37	594.83
425.746	599.57
426.123	638.22
426.499	620.14
426.875	621.27
427.251	636.41
427.627	640.25
428.003	621.95
428.379	642.06
428.756	646.81
429.132	652
429.507	658.1
429.883	650.65
430.259	663.3
430.635	674.83
431.011	676.41
431.387	685.67
431.763	689.97
432.138	684.32
432.514	698.1
432.89	710.08
433.265	728.61
433.641	725.22
434.016	724.32
434.392	743.3
434.767	740.36
435.143	748.95
435.518	753.47
435.894	769.51
436.269	754.15
436.644	785.78
437.02	782.17
437.395	774.49
437.77	769.97
438.145	797.08
438.52	813.58
438.895	800.02
439.271	794.6
439.646	831.43
440.021	834.6
440.395	835.5
440.77	809.74
441.145	848.61
441.52	851.55
441.895	858.78
442.27	872.56
442.645	885.22
443.019	863.52
443.394	867.14
443.769	892
444.143	887.93
444.518	891.54
444.892	900.58
445.267	906.23
445.641	919.79
446.016	910.3
446.39	898.55
446.764	915.95
447.139	941.26
447.513	935.39
447.887	941.26
448.262	959.79
448.636	933.58
449.01	954.59
449.384	965.44
449.758	967.47
450.132	989.62
450.506	984.88
450.88	1004.54
451.254	986.91
451.628	1014.25
452.002	1044.08
452.376	1036.85
452.75	1023.29
453.123	1033.24
453.497	1061.03
453.871	1076.85
454.244	1073.69
454.618	1081.6
454.992	1101.71
455.365	1101.71
455.739	1146.45
456.112	1144.87
456.486	1154.81
456.859	1167.02
457.232	1170.86
457.606	1196.62
457.979	1194.14
458.352	1186.68
458.725	1223.96
459.099	1222.16
459.472	1265.55
459.845	1259.67
460.218	1294.7
460.591	1286.11
460.964	1293.12
461.337	1345.09
461.71	1353
462.083	1357.97
462.456	1380.57
462.829	1384.64
463.201	1407.01
463.574	1403.85
463.947	1455.6
464.32	1465.54
464.692	1481.36
465.065	1500.79
465.438	1513.45
465.81	1545.54
466.183	1582.83
466.555	1564.3
466.928	1619.66
467.3	1600.45
467.672	1633.22
468.045	1676.38
468.417	1698.3
468.789	1717.29
469.161	1738.75
469.534	1769.26
469.906	1787.57
470.278	1828.92
470.65	1846.1
471.022	1910.5
471.394	1937.84
471.766	1952.31
472.138	2021.23
472.51	2044.06
472.882	2115.47
473.253	2125.64
473.625	2167.22
473.997	2212.41
474.369	2230.72
474.74	2286.31
475.112	2341.22
475.484	2421.67
475.855	2443.59
476.227	2534.89
476.598	2592.74
476.97	2633.19
477.341	2729.46
477.713	2783.25
478.084	2825.5
478.455	2913.64
478.827	2992.51
479.198	3087.87
479.569	3149.79
479.94	3237.02
480.311	3276.79
480.682	3430.46
481.053	3553.85
481.424	3636.56
481.795	3711.36
482.166	3802.2
482.537	3883.56
482.908	4006.04
483.279	4106.6
483.65	4248.29
484.021	4324
484.391	4433.15
484.762	4547.04
485.133	4627.94
485.503	4700.71
485.874	4869.74
486.244	4969.63
486.615	5173.47
486.985	5235.61
487.356	5436.51
487.726	5524.19
488.097	5688.93
488.467	5820.45
488.837	5977.74
489.207	6060
489.578	6233.55
489.948	6388.35
490.318	6542.02
490.688	6577.72
491.058	6812.07
491.428	6922.12
491.798	7107.2
492.168	7303.58
492.538	7358.72
492.908	7547.87
493.278	7667.86
493.648	7785.15
494.017	7982.66
494.387	8102.43
494.757	8256.1
495.126	8382.42
495.496	8395.3
495.866	8562.08
496.235	8807.95
496.605	8921.62
496.974	8978.56
497.344	9151.89
497.713	9306.92
498.082	9348.72
498.452	9592.78
498.821	9654.7
499.19	9743.74
499.559	9901.25
499.928	9974.7
500.298	10107.57
500.667	10256.95
501.036	10201.81
501.405	10422.82
501.774	10449.26
502.143	10593.21
502.512	10741.23
502.88	10812.41
503.249	10904.39
503.618	11069.13
503.987	11058.28
504.356	11157.04
504.724	11299.41
505.093	11349.57
505.462	11442
505.83	11505.95
506.199	11603.81
506.567	11759.06
506.936	11751.37
507.304	11983
507.672	11995.43
508.041	12045.38
508.409	12088.76
508.777	12235.2
509.145	12308.19
509.514	12393.61
509.882	12445.59
510.25	12466.61
510.618	12540.05
510.986	12597.9
511.354	12694.62
511.722	12876.77
512.09	12914.51
512.458	12912.7
512.826	13073.82
513.193	13065.69
513.561	13113.14
513.929	13187.04
514.297	13281.28
514.664	13295.74
515.032	13265.68
515.4	13444.21
515.767	13460.48
516.135	13526.24
516.502	13455.96
516.869	13586.35
517.237	13662.28
517.604	13575.05
517.972	13744.99
518.339	13770.3
518.706	13761.49
519.073	13852.33
519.44	13859.34
519.808	13953.12
520.175	13900.47
520.542	14060.01
520.909	14137.52
521.276	14101.14
521.643	14122.83
522.009	14179.78
522.376	14219.78
522.743	14340
523.11	14394.69
523.477	14471.3
523.843	14469.04
524.21	14557.63
524.577	14647.79
524.943	14684.63
525.31	14689.83
525.676	14807.56
526.043	14703.84
526.409	14759.43
526.776	14857.28
527.142	14779.54
527.508	14842.14
527.874	14852.99
528.241	15048.91
528.607	14865.19
528.973	14985.41
529.339	14926.66
529.705	15004.85
530.071	15076.03
530.437	15100.44
530.803	15119.42
531.169	15133.43
531.535	15073.77
531.901	14991.96
532.267	15065.18
532.632	15030.83
532.998	15091.62
533.364	15110.38
533.73	15079.65
534.095	15132.07
534.461	15135.01
534.826	15125.07
535.192	15100.44
535.557	15085.3
535.923	15045.75
536.288	14993.55
536.653	15009.37
537.019	14917.16
537.384	15023.6
537.749	14936.15
538.114	14969.37
538.479	14933.21
538.845	14874.91
539.21	14804.17
539.575	14886.88
539.94	14815.47
540.305	14892.31
540.67	14801.01
541.034	14835.58
541.399	14791.07
541.764	14730.5
542.129	14701.8
542.494	14777.28
542.858	14683.27
543.223	14610.28
543.587	14631.97
543.952	14560.79
544.316	14504.75
544.681	14561.02
545.045	14537.29
545.41	14496.16
545.774	14381.13
546.138	14374.13
546.503	14429.49
546.867	14306.33
547.231	14379.1
547.595	14304.07
547.959	14292.32
548.324	14201.25
548.688	14265.43
549.052	14279.67
549.416	14171.87
549.779	14133.46
550.143	14124.42
550.507	14143.17
550.871	14114.25
551.235	14033.8
551.599	14055.94
551.962	14065.66
552.326	13997.19
552.689	14003.29
553.053	13905.67
553.417	13856.4
553.78	14001.03
554.143	13877.19
554.507	13894.59
554.87	13875.16
555.234	13963.97
555.597	13822.73
555.96	13889.39
556.323	13848.49
556.686	13806.91
557.05	13887.13
557.413	13810.3
557.776	13778.66
558.139	13733.24
558.502	13759.45
558.865	13724.65
559.228	13807.81
559.59	13802.62
559.953	13776.63
560.316	13793.58
560.679	13858.89
561.041	13888.04
561.404	13898.66
561.767	13891.65
562.129	13902.95
562.492	13951.54
562.854	13834.93
563.217	13870.41
563.579	13880.81
563.941	13937.98
564.304	13954.7
564.666	14009.17
565.028	13977.08
565.39	14047.81
565.753	14112.89
566.115	14082.61
566.477	14091.2
566.839	14039.22
567.201	14144.3
567.563	14101.14
567.925	14162.83
568.287	14170.74
568.648	14104.3
569.01	14215.49
569.372	14258.88
569.734	14187.47
570.095	14235.6
570.457	14195.38
570.819	14237.63
571.18	14257.75
571.542	14214.58
571.903	14208.48
572.265	14342.04
572.626	14338.2
572.987	14331.64
573.349	14329.16
573.71	14291.42
574.071	14337.07
574.432	14385.2
574.794	14542.03
575.155	14444.63
575.516	14369.83
575.877	14475.37
576.238	14380.91
576.599	14387.46
576.96	14457.74
577.32	14430.4
577.681	14427.69
578.042	14496.61
578.403	14441.47
578.763	14457.97
579.124	14477.4
579.485	14539.55
579.845	14525.08
580.206	14550.85
580.566	14472.66
580.927	14481.7
581.287	14536.38
581.648	14445.54
582.008	14532.09
582.368	14470.62
582.728	14545.87
583.089	14483.28
583.449	14497.29
583.809	14516.5
584.169	14435.37
584.529	14449.83
584.889	14550.17
585.249	14453.22
585.609	14367.12
585.969	14479.21
586.329	14497.97
586.688	14507.23
587.048	14451.41
587.408	14398.31
587.768	14418.42
588.127	14356.5
588.487	14365.77
588.846	14420.45
589.206	14288.93
589.565	14345.88
589.925	14351.53
590.284	14323.96
590.643	14301.59
591.003	14322.83
591.362	14368.03
591.721	14365.77
592.08	14288.93
592.44	14295.26
592.799	14352.43
593.158	14282.83
593.517	14355.37
593.876	14338.2
594.235	14327.8
594.593	14335.48
594.952	14253.45
595.311	14232.21
595.67	14199.67
596.029	14360.79
596.387	14252.32
596.746	14257.97
597.104	14220.91
597.463	14183.62
597.822	14226.79
598.18	14176.17
598.538	14171.42
598.897	14248.93
599.255	14153.12
599.613	14301.59
599.972	14224.75
600.33	14269.95
600.688	14166.68
601.046	14267.92
601.404	14350.4
601.762	14210.97
602.12	14277.86
602.478	14312.43
602.836	14250.29
603.194	14229.95
603.552	14177.07
603.91	14173
604.268	14285.09
604.625	14235.6
604.983	14286.9
605.341	14202.15
605.698	14223.85
606.056	14279.44
606.413	14242.83
606.771	14244.19
607.128	14331.87
607.485	14237.86
607.843	14274.24
608.2	14266.56
608.557	14407.57
608.914	14366.44
609.272	14409.61
609.629	14391.08
609.986	14449.83
610.343	14330.96
610.7	14449.38
611.057	14470.62
611.414	14290.51
611.771	14290.74
612.127	14500.9
612.484	14437.85
612.841	14475.14
613.198	14457.29
613.554	14470.17
613.911	14528.7
614.267	14524.86
614.624	14448.93
614.98	14517.63
615.337	14541.58
615.693	14562.15
616.05	14530.51
616.406	14669.26
616.762	14501.36
617.118	14547.68
617.475	14551.3
617.831	14641.69
618.187	14617.96
618.543	14674.01
618.899	14671.3
619.255	14731.63
619.611	14783.38
619.967	14727.79
620.323	14754.46
620.678	14652.76
621.034	14679.2
621.39	14574.35
621.746	14646.21
622.101	14770.95
622.457	14704.29
622.812	14794.91
623.168	14673.1
623.523	14685.08
623.879	14762.37
624.234	14604.18
624.589	14691.86
624.945	14794.68
625.3	14691.63
625.655	14692.76
626.01	14769.6
626.365	14718.07
626.72	14676.04
627.075	14609.15
627.43	14685.31
627.785	14687.57
628.14	14723.5
628.495	14704.29
628.85	14639.88
629.205	14599.66
629.559	14741.12
629.914	14650.5
630.269	14626.32
630.623	14642.37
630.978	14566.67
631.332	14657.06
631.687	14650.5
632.041	14582.03
632.396	14598.08
632.75	14501.58
633.104	14570.28
633.459	14467.01
633.813	14497.51
634.167	14588.36
634.521	14459.32
634.875	14533.9
635.229	14340.68
635.583	14304.98
635.937	14474.24
636.291	14370.29
636.645	14358.76
636.999	14375.71
637.352	14369.16
637.706	14243.96
638.06	14366.67
638.413	14349.27
638.767	14261.59
639.121	14265.88
639.474	14217.07
639.828	14247.35
640.181	14250.29
640.534	14245.32
640.888	14101.37
641.241	14136.62
641.594	14112.21
641.947	14205.77
642.301	14101.37
642.654	14193.34
643.007	14123.06
643.36	14036.51
643.713	14072.44
644.066	14151.31
644.419	14035.83
644.771	13943.63
645.124	13836.29
645.477	13863.18
645.83	13702.73
646.182	13664.32
646.535	13620.93
646.888	13679.68
647.24	13602.62
647.593	13669.51
647.945	13675.39
648.298	13603.53
648.65	13632.68
649.002	13525.79
649.355	13557.43
649.707	13533.25
650.059	13564.88
650.411	13791.09
650.763	13780.92
651.115	13919
651.467	13878.77
651.819	13929.39
652.171	13853.01
652.523	13867.25
652.875	13853.24
653.227	13738.44
653.578	13954.03
653.93	13831.77
654.282	13865.89
654.633	13838.77
654.985	13787.48
655.337	13859.34
655.688	13876.06
656.039	13850.98
656.391	13888.26
656.742	13832.45
657.094	13824.76
657.445	13922.39
657.796	13865.67
658.147	13888.94
658.498	13926
658.849	13896.4
659.2	13826.12
659.551	13901.82
659.902	13964.87
660.253	13895.5
660.604	13940.69
660.955	13901.82
661.306	14031.76
661.656	13948.38
662.007	13919.22
662.358	13903.86
662.708	13959.45
663.059	14013.46
663.409	13826.8
663.76	13947.92
664.11	14017.3
664.461	13992.67
664.811	13911.54
665.161	13997.64
665.511	13819.57
665.862	13957.64
666.212	13978.43
666.562	13976.62
666.912	14012.33
667.262	13918.55
667.612	13938.88
667.962	13931.2
668.312	13956.29
668.662	13987.7
669.011	13969.17
669.361	13948.15
669.711	13979.56
670.06	13831.54
670.41	13857.08
670.76	13805.1
671.109	13911.32
671.459	13795.61
671.808	13870.64
672.157	13859.56
672.507	13770.75
672.856	13833.58
673.205	13791.32
673.554	13874.48
673.904	13787.48
674.253	13871.54
674.602	13802.62
674.951	13646.01
675.3	13609.4
675.649	13714.26
675.998	13756.74
676.346	13723.98
676.695	13749.29
677.044	13682.85
677.393	13640.36
677.741	13715.16
678.09	13694.37
678.438	13639.46
678.787	13641.04
679.135	13627.25
679.484	13538.67
679.832	13660.93
680.181	13504.32
680.529	13495.73
680.877	13478.11
681.225	13544.32
681.573	13577.09
681.922	13435.4
682.27	13434.27
682.618	13413.47
682.966	13359.24
683.314	13386.58
683.661	13403.98
684.009	13244.21
684.357	13170.09
684.705	13232.46
685.053	13245.8
685.4	13211.22
685.748	13156.08
686.095	13133.26
686.443	13046.03
686.79	13025.91
687.138	13123.77
687.485	13059.59
687.832	13063.65
688.18	13025.69
688.527	12889.87
688.874	12921.51
689.221	12852.59
689.568	12827.95
689.915	12763.32
690.262	12857.11
690.609	12757.9
690.956	12672.93
691.303	12676.77
691.65	12618.69
691.997	12627.96
692.344	12549.99
692.69	12517
693.037	12498.24
693.383	12368.98
693.73	12429.09
694.077	12274.3
694.423	12328.31
694.769	12255.54
695.116	12174.64
695.462	12306.39
695.808	12223.9
696.155	12225.94
696.501	11993.63
696.847	12013.74
697.193	11929.67
697.539	12020.97
697.885	11916.57
698.231	11938.26
698.577	11901.2
698.923	11790.01
699.269	11800.41
699.614	11723.35
699.96	11733.29
700.306	11672.05
700.651	11616.91
700.997	11600.42
701.342	11494.2
701.688	11496.01
702.033	11453.75
702.379	11512.96
702.724	11388.44
703.069	11372.17
703.415	11294.21
703.76	11288.11
704.105	11264.83
704.45	11220.09
704.795	11130.37
705.14	11174.66
705.485	11110.71
705.83	11036.14
706.175	11023.93
706.52	11044.27
706.865	10961.11
707.209	10934.22
707.554	10959.08
707.899	10899.19
708.243	10833.43
708.588	10869.36
708.932	10755.69
709.277	10746.65
709.621	10710.95
709.966	10670.72
710.31	10681.8
710.654	10578.52
710.998	10659.2
711.342	10602.7
711.687	10488.58
712.031	10471.63
712.375	10525.87
712.719	10581.69
713.063	10489.26
713.407	10476.38
713.75	10462.82
714.094	10415.59
714.438	10334.69
714.782	10398.64
715.125	10322.71
715.469	10363.16
715.812	10272.31
716.156	10234.12
716.499	10252.65
716.843	10249.26
717.186	10211.53
717.53	10184.18
717.873	10298.75
718.216	10215.82
718.559	10143.28
718.902	10135.37
719.246	10138.08
719.589	10126.33
719.932	10095.6
720.275	10091.53
720.617	10037.29
720.96	10073.22
721.303	10000.68
721.646	10013.79
721.989	9942.15
722.331	9969.5
722.674	9937.18
723.016	10003.85
723.359	10004.07
723.701	9948.26
724.044	9860.8
724.386	9863.74
724.729	9911.19
725.071	9928.59
725.413	9925.43
725.755	9903.74
726.097	9843.17
726.439	9793.91
726.782	9832.1
727.124	9934.02
727.465	9752.1
727.807	9833.91
728.149	9776.06
728.491	9783.06
728.833	9842.04
729.175	9855.6
729.516	9829.84
729.858	9749.84
730.199	9773.57
730.541	9758.66
730.882	9732.89
731.224	9784.87
731.565	9674.14
731.906	9756.85
732.248	9751.65
732.589	9715.49
732.93	9684.08
733.271	9675.49
733.612	9731.31
733.953	9731.31
734.294	9651.54
734.635	9670.3
734.976	9777.19
735.317	9713.69
735.658	9773.12
735.999	9736.06
736.339	9705.1
736.68	9756.62
737.021	9704.42
737.361	9677.53
737.702	9685.44
738.042	9710.3
738.383	9656.51
738.723	9771.08
739.063	9715.04
739.404	9841.59
739.744	9737.41
740.084	9797.52
740.424	9802.72
740.764	9769.95
741.104	9927.46
741.444	9786.23
741.784	9842.5
742.124	9863.74
742.464	9929.5
742.804	9888.37
743.143	9844.53
743.483	9898.99
743.823	9890.86
744.162	9969.72
744.502	9997.97
744.841	10055.37
745.181	10070.51
745.52	10075.71
745.86	10045.65
746.199	10199.77
746.538	10213.79
746.877	10190.28
747.216	10221.92
747.556	10237.74
747.895	10379.43
748.234	10351.86
748.573	10401.8
748.911	10495.36
749.25	10563.15
749.589	10570.16
749.928	10651.06
750.267	10772.41
750.605	10743.04
750.944	10880.89
751.283	10935.57
751.621	11021.67
751.96	11084.04
752.298	11210.6
752.636	11310.48
752.975	11329.01
753.313	11439.97
753.651	11555.9
753.989	11706.18
754.327	11727.19
754.666	11825.27
755.004	12013.74
755.342	12198.82
755.679	12265.71
756.017	12399.26
756.355	12511.13
756.693	12592.93
757.031	12845.58
757.368	12935.97
757.706	13032.47
758.044	13242.41
758.381	13357.21
758.719	13466.81
759.056	13688.5
759.394	13816.4
759.731	13914.48
760.068	14057.07
760.405	14236.96
760.743	14405.77
761.08	14558.76
761.417	14686.44
761.754	14891.63
762.091	14979.54
762.428	15183.6
762.765	15307.89
763.102	15598.05
763.438	15610.03
763.775	15800.3
764.112	16040.75
764.449	16163.46
764.785	16342.66
765.122	16454.52
765.458	16540.62
765.795	16721.86
766.131	16893.16
766.467	16974.06
766.804	17111.46
767.14	17189.42
767.476	17385.57
767.812	17432.13
768.148	17638.45
768.485	17653.36
768.821	17751.21
769.157	17871.66
769.492	18089.51
769.828	18179.9
770.164	18259.45
770.5	18341.48
770.836	18391.2
771.171	18472.55
771.507	18659.21
771.842	18597.75
772.178	18668.03
772.513	18786.67
772.849	18841.81
773.184	18989.37
773.519	19042.93
773.855	19030.5
774.19	19054.46
774.525	19213.77
774.86	19351.17
775.195	19379.65
775.53	19390.94
775.865	19352.98
776.2	19402.47
776.535	19327.9
776.87	19482.47
777.205	19475.01
777.539	19484.73
777.874	19676.59
778.209	19436.14
778.543	19564.5
778.878	19561.56
779.212	19698.96
779.547	19565.4
779.881	19794.78
780.215	19574.67
780.55	19763.14
780.884	19496.48
781.218	19638.17
781.552	19685.4
781.886	19679.52
782.22	19686.08
782.554	19569.92
782.888	19427.33
783.222	19480.21
783.556	19424.39
783.889	19375.58
784.223	19409.02
784.557	19417.16
784.89	19551.62
785.224	19369.25
785.557	19381.23
785.891	19227.79
786.224	19299.65
786.558	19356.14
786.891	19260.55
787.224	19278.63
787.557	19228.01
787.891	19072.31
788.224	19280.44
788.557	19241.34
788.89	19241.12
789.223	19165.64
789.556	19132.65
789.888	19044.74
790.221	18994.35
790.554	18927.68
790.887	18925.19
791.219	18904.63
791.552	18861.69
791.884	18712.77
792.217	18813.33
792.549	18781.47
792.882	18665.99
793.214	18686.78
793.546	18729.49
793.879	18473
794.211	18475.26
794.543	18585.54
794.875	18501.02
795.207	18522.27
795.539	18458.31
795.871	18409.73
796.203	18421.48
796.535	18195.27
796.867	18154.82
797.198	18106.46
797.53	18219.68
797.862	18021.94
798.193	18119.11
798.525	17900.81
798.856	18087.25
799.188	17860.36
799.519	17821.49
799.85	17736.75
800.182	17792.34
800.513	17779.01
800.844	17667.83
801.175	17746.47
801.506	17699.46
801.837	17583.99
802.168	17548.96
802.499	17470.77
802.83	17347.61
803.161	17419.25
803.491	17452.24
803.822	17425.12
804.153	17309.87
804.483	17172.47
804.814	17150.78
805.145	17078.01
805.475	17169.76
805.805	17017.67
806.136	17049.76
806.466	17059.25
806.796	16980.61
807.126	16836.44
807.457	16929.99
807.787	16873.72
808.117	16859.49
808.447	16787.17
808.777	16756.21
809.107	16722.54
809.436	16607.06
809.766	16637.35
810.096	16590.34
810.426	16545.6
810.755	16525.71
811.085	16546.27
811.414	16522.09
811.744	16253.17
812.073	16406.84
812.403	16328.65
812.732	16244.59
813.061	16291.37
813.39	16177.02
813.719	16187.41
814.049	16239.62
814.378	16223.34
814.707	16137.92
815.036	16116.91
815.365	15943.58
815.693	15865.84
816.022	15875.78
816.351	15874.43
816.68	15744.94
817.008	15959.4
817.337	15726.86
817.665	15758.72
817.994	15767.76
818.322	15710.59
818.651	15625.39
818.979	15693.64
819.307	15659.97
819.636	15562.12
819.964	15558.96
820.292	15612.97
820.62	15506.75
820.948	15497.71
821.276	15460.2
821.604	15518.5
821.932	15525.28
822.259	15544.27
822.587	15510.59
822.915	15398.06
823.243	15554.21
823.57	15477.6
823.898	15452.97
824.225	15459.07
824.553	15395.12
824.88	15424.5
825.207	15524.61
825.535	15449.13
825.862	15488
826.189	15517.37
826.516	15633.53
826.843	15657.48
827.17	15617.71
827.497	15511.5
827.824	15562.8
828.151	15621.55
828.478	15498.39
828.805	15557.6
829.131	15501.1
829.458	15455.91
829.785	15462.91
830.111	15524.38
830.438	15499.3
830.764	15478.96
831.09	15501.78
831.417	15481.9
831.743	15507.21
832.069	15501.1
832.395	15447.77
832.722	15439.41
833.048	15407.32
833.374	15382.24
833.7	15409.81
834.026	15292.3
834.351	15417.49
834.677	15331.16
835.003	15378.4
835.329	15302.01
835.654	15257.95
835.98	15302.92
836.306	15260.43
836.631	15204.61
836.956	15285.29
837.282	15272.18
837.607	15209.59
837.932	15169.59
838.258	15114.67
838.583	15113.54
838.908	14952.64
839.233	15051.17
839.558	15111.74
839.883	14961.46
840.208	14942.25
840.533	14962.81
840.858	15015.92
841.182	14979.76
841.507	14929.82
841.832	14903.15
842.156	14883.04
842.481	14789.94
842.805	14777.05
843.13	14811.86
843.454	14741.8
843.778	14740.9
844.103	14686.66
844.427	14631.07
844.751	14603.95
845.075	14617.51
845.399	14590.62
845.723	14450.06
846.047	14450.28
846.371	14372.32
846.695	14333.22
847.019	14255.26
847.343	14194.02
847.666	14159.9
847.99	14130.07
848.313	14043.97
848.637	13995.15
848.96	13971.43
849.284	13921.48
849.607	13806.46
849.931	13810.3
850.254	13607.59
850.577	13599.91
850.9	13522.85
851.223	13531.44
851.546	13424.77
851.869	13380.93
852.192	13350.65
852.515	13286.25
852.838	13310.2
853.161	13254.84
853.483	13301.84
853.806	13100.49
854.129	13089.64
854.451	12954.96
854.774	13001.51
855.096	12937.1
855.419	12885.13
855.741	12834.28
856.063	12849.87
856.385	12819.14
856.708	12762.87
857.03	12701.4
857.352	12686.94
857.674	12646.04
857.996	12588.19
858.318	12534.18
858.64	12551.35
858.961	12450.34
859.283	12588.19
859.605	12422.09
859.926	12430.68
860.248	12400.62
860.57	12347.97
860.891	12330.57
861.212	12276.56
861.534	12230.91
861.855	12130.8
862.176	12217.8
862.498	12192.49
862.819	12213.96
863.14	12070.69
863.461	12142.55
863.782	12049.44
864.103	11958.82
864.424	11992.72
864.745	12046.05
865.065	12006.28
865.386	11900.75
865.707	11973.29
866.027	11866.85
866.348	11877.47
866.668	11877.24
866.989	11752.73
867.309	11813.07
867.63	11827.53
867.95	11769.9
868.27	11760.41
868.59	11771.03
868.91	11740.75
869.23	11727.19
869.55	11672.05
869.87	11669.34
870.19	11636.57
870.51	11640.64
870.83	11678.38
871.15	11533.52
871.469	11544.82
871.789	11581.43
872.109	11587.99
872.428	11506.86
872.748	11531.04
873.067	11569.68
873.386	11467.09
873.706	11472.51
874.025	11414.21
874.344	11313.87
874.663	11383.25
874.982	11370.14
875.301	11378.95
875.62	11365.17
875.939	11284.04
876.258	11294.43
876.577	11249.92
876.896	11267.54
877.214	11280.88
877.533	11265.51
877.852	11197.94
878.17	11171.27
878.489	11243.59
878.807	11143.03
879.125	11251.05
879.444	11171.27
879.762	11164.72
880.08	11085.17
880.398	11063.71
880.716	11055.34
881.034	11018.51
881.352	11000.88
881.67	10922.47
881.988	10927.89
882.306	10907.33
882.624	10897.38
882.941	10794.11
883.259	10847.21
883.577	10837.27
883.894	10826.65
884.212	10745.97
884.529	10789.59
884.846	10712.08
885.164	10768.35
885.481	10668.46
885.798	10670.27
886.115	10533.32
886.432	10532.65
886.75	10539.88
887.067	10539.88
887.383	10532.65
887.7	10495.59
888.017	10473.67
888.334	10463.04
888.651	10409.26
888.967	10407.23
889.284	10372.2
889.6	10311.86
889.917	10314.8
890.233	10324.74
890.55	10152.54
890.866	10232.09
891.182	10190.51
891.498	10191.64
891.815	10121.58
892.131	10120.23
892.447	10049.04
892.763	9979.22
893.079	9983.51
893.395	9972.44
893.71	9923.17
894.026	9930.4
894.342	9924.3
894.657	9830.74
894.973	9806.56
895.289	9842.04
895.604	9762.95
895.92	9720.92
896.235	9691.99
896.55	9644.31
896.865	9653.35
897.181	9530.19
897.496	9657.42
897.811	9513.01
898.126	9525.67
898.441	9487.48
898.756	9418.78
899.071	9329.74
899.386	9341.94
899.7	9299.68
900.015	9238.44
900.33	9248.39
900.644	9188.05
900.959	9163.87
901.273	9157.09
901.588	9186.02
901.902	9052.01
902.216	9043.87
902.531	8978.79
902.845	8979.02
903.159	8957.55
903.473	8861.96
903.787	8863.31
904.101	8886.14
904.415	8866.7
904.729	8718.68
905.042	8739.25
905.356	8684.56
905.67	8685.24
905.984	8688.85
906.297	8652.92
906.611	8638.69
906.924	8545.81
907.237	8539.93
907.551	8511.91
907.864	8476.66
908.177	8416.09
908.491	8376.09
908.804	8318.24
909.117	8290.67
909.43	8266.72
909.743	8219.71
910.056	8255.64
910.368	8193.95
910.681	8100.62
910.994	8108.76
911.307	8068.3
911.619	8037.8
911.932	8020.17
912.244	7996.22
912.557	7997.12
912.869	7931.81
913.181	7862.43
913.494	7943.79
913.806	7850.91
914.118	7744.92
914.43	7782.66
914.742	7753.96
915.054	7723.23
915.366	7721.2
915.678	7576.57
915.99	7630.8
916.302	7520.75
916.613	7521.2
916.925	7521.43
917.236	7433.52
917.548	7374.09
917.859	7439.85
918.171	7336.8
918.482	7392.39
918.794	7346.74
919.105	7237.59
919.416	7225.62
919.727	7235.78
920.038	7172.28
920.349	7141.55
920.66	7133.41
920.971	7175.45
921.282	7101.1
921.593	7031.04
921.903	7022.68
922.214	6991.04
922.525	6976.81
922.835	6877.38
923.146	6870.6
923.456	6926.64
923.767	6812.07
924.077	6844.16
924.387	6852.07
924.697	6731.84
925.008	6720.77
925.318	6725.06
925.628	6705.85
925.938	6681.67
926.248	6640.77
926.558	6589.47
926.867	6599.87
927.177	6555.35
927.487	6503.6
927.796	6485.3
928.106	6444.84
928.416	6458.4
928.725	6417.05
929.034	6381.12
929.344	6402.13
929.653	6344.96
929.962	6306.09
930.271	6276.49
930.581	6238.75
930.89	6263.15
931.199	6215.92
931.508	6156.94
931.817	6148.13
932.125	6126.89
932.434	6113.1
932.743	6057.96
933.051	6057.96
933.36	6041.24
933.669	5992.65
933.977	5959.21
934.286	5997.62
934.594	5919.21
934.902	5916.5
935.21	5866.1
935.519	5854.8
935.827	5845.31
936.135	5797.63
936.443	5762.38
936.751	5694.36
937.059	5721.47
937.367	5710.63
937.674	5702.04
937.982	5629.27
938.29	5609.84
938.597	5654.36
938.905	5570.07
939.213	5497.3
939.52	5507.92
939.827	5553.57
940.135	5476.96
940.442	5455.94
940.749	5434.7
941.056	5452.78
941.363	5387.7
941.67	5399.45
941.977	5333.69
942.284	5370.07
942.591	5278.77
942.898	5250.75
943.205	5224.09
943.511	5216.18
943.818	5229.96
944.125	5226.35
944.431	5217.98
944.738	5213.46
945.044	5133.01
945.35	5067.25
945.657	5015.05
945.963	5043.98
946.269	5030.87
946.575	4997.2
946.881	4994.71
947.187	4966.24
947.493	4949.52
947.799	4955.62
948.105	4909.74
948.41	4912.91
948.716	4891.89
949.022	4936.86
949.327	4872.68
949.633	4773.48
949.938	4757.88
950.244	4783.87
950.549	4716.3
950.854	4712.69
951.16	4697.77
951.465	4712.01
951.77	4656.42
952.075	4665
952.38	4646.25
952.685	4622.29
952.99	4615.74
953.294	4594.05
953.599	4543.65
953.904	4528.74
954.209	4480.15
954.513	4460.26
954.818	4468.17
955.122	4474.95
955.426	4405.8
955.731	4380.04
956.035	4416.65
956.339	4356.99
956.643	4340.72
956.948	4327.39
957.252	4263.66
957.556	4276.09
957.86	4264.56
958.163	4209.42
958.467	4228.41
958.771	4209.42
959.075	4212.59
959.378	4165.13
959.682	4183.89
959.985	4147.5
960.289	4093.49
960.592	4117.22
960.896	4065.92
961.199	4096.88
961.502	4065.92
961.805	4022.31
962.108	3966.27
962.411	4029.77
962.714	4013.95
963.017	3956.1
963.32	3990.45
963.623	3958.13
963.926	3907.96
964.228	3900.5
964.531	3885.59
964.833	3877
965.136	3860.51
965.438	3880.62
965.741	3802.88
966.043	3807.4
966.345	3790.45
966.648	3764.01
966.95	3762.43
967.252	3752.03
967.554	3677.46
967.856	3708.19
968.158	3685.6
968.46	3694.63
968.761	3649.66
969.063	3639.72
969.365	3672.49
969.666	3624.13
969.968	3574.64
970.269	3606.05
970.571	3582.1
970.872	3585.48
971.174	3502.1
971.475	3533.73
971.776	3504.81
972.077	3456.22
972.378	3509.1
972.679	3462.32
972.98	3416.22
973.281	3417.81
973.582	3404.47
973.883	3387.52
974.183	3409.9
974.484	3360.86
974.785	3360.86
975.085	3317.92
975.386	3354.3
975.686	3279.73
975.986	3274.08
976.287	3251.71
976.587	3253.74
976.887	3217.58
977.187	3212.61
977.487	3230.69
977.787	3229.79
978.087	3220.75
978.387	3187.53
978.687	3162.22
978.987	3162.22
979.286	3106.4
979.586	3120.19
979.885	3142.11
980.185	3125.84
980.484	3079.51
980.784	3072.73
981.083	3049.68
981.382	3052.62
981.682	2998.61
981.981	3003.58
982.28	3000.42
982.579	2943.69
982.878	2973.52
983.177	2956.57
983.475	2955.9
983.774	2958.83
984.073	2931.49
984.372	2886.75
984.67	2891.72
984.969	2901.89
985.267	2861.66
985.566	2875.22
985.864	2841.78
986.162	2869.57
986.461	2812.4
986.759	2799.52
987.057	2792.29
987.355	2790.25
987.653	2773.98
987.951	2779.86
988.249	2762
988.547	2731.27
988.844	2704.38
989.142	2748.67
989.44	2690.37
989.737	2672.51
990.035	2667.54
990.332	2649.24
990.63	2620.76
990.927	2672.51
991.224	2635.23
991.521	2591.84
991.819	2584.16
992.116	2591.39
992.413	2543.25
992.71	2555.23
993.006	2543.25
993.303	2514.55
993.6	2508.45
993.897	2541.44
994.193	2522.24
994.49	2482.91
994.787	2484.72
995.083	2446.76
995.379	2469.58
995.676	2425.06
995.972	2452.63
996.268	2378.96
996.565	2370.83
996.861	2385.97
997.157	2356.82
997.453	2376.93
997.749	2349.81
998.044	2356.14
998.34	2334.22
998.636	2336.7
998.932	2302.13
999.227	2265.75
999.523	2317.04
999.818	2251.51
1000.114	2264.16
1000.409	2261.23
1000.704	2253.09
1001	2226.65
1001.295	2218.52
1001.59	2199.76
1001.885	2188.23
1002.18	2155.92
1002.475	2156.82
1002.77	2124.51
1003.065	2114.34
1003.359	2146.2
1003.654	2120.66
1003.949	2090.16
1004.243	2092.64
1004.538	2084.28
1004.832	2069.82
1005.127	2038.41
1005.421	2043.15
1005.715	2037.28
1006.009	2056.71
1006.304	2023.49
1006.598	1979.43
1006.892	1992.98
1007.186	1968.13
1007.48	1952.99
1007.773	1933.32
1008.067	1921.8
1008.361	1925.42
1008.655	1907.11
1008.948	1915.02
1009.242	1903.27
1009.535	1864.4
1009.829	1881.35
1010.122	1877.28
1010.415	1862.82
1010.708	1876.38
1011.001	1833.89
1011.295	1816.94
1011.588	1828.69
1011.881	1783.5
1012.173	1769.94
1012.466	1768.81
1012.759	1762.48
1013.052	1780.79
1013.344	1776.72
1013.637	1734.91
1013.93	1743.95
1014.222	1739.66
1014.514	1711.86
1014.807	1721.58
1015.099	1674.57
1015.391	1712.09
1015.683	1655.14
1015.976	1655.82
1016.268	1659.89
1016.56	1622.82
1016.851	1606.55
1017.143	1614.92
1017.435	1638.87
1017.727	1607.01
1018.018	1580.34
1018.31	1591.64
1018.602	1564.3
1018.893	1545.54
1019.185	1537.86
1019.476	1518.65
1019.767	1555.03
1020.058	1521.81
1020.35	1485.88
1020.641	1500.12
1020.932	1520.91
1021.223	1480
1021.514	1478.42
1021.804	1467.35
1022.095	1448.59
1022.386	1431.64
1022.677	1428.03
1022.967	1424.41
1023.258	1420.57
1023.548	1379.67
1023.839	1401.36
1024.129	1392.1
1024.419	1369.27
1024.709	1368.37
1025	1374.24
1025.29	1335.6
1025.58	1341.93
1025.87	1303.51
1026.16	1312.1
1026.449	1320.46
1026.739	1313.68
1027.029	1304.19
1027.319	1284.53
1027.608	1297.18
1027.898	1264.19
1028.187	1222.38
1028.477	1262.16
1028.766	1254.92
1029.055	1226.68
1029.344	1243.63
1029.634	1218.77
1029.923	1195.49
1030.212	1185.55
1030.501	1211.31
1030.79	1176.06
1031.078	1196.85
1031.367	1162.72
1031.656	1158.66
1031.945	1152.78
1032.233	1139.22
1032.522	1152.1
1032.81	1136.06
1033.099	1128.83
1033.387	1115.72
1033.675	1138.32
1033.963	1079.56
1034.251	1111.2
1034.54	1099.45
1034.828	1072.78
1035.116	1081.37
1035.403	1090.86
1035.691	1064.87
1035.979	1076.17
1036.267	1048.6
1036.554	1040.24
1036.842	1056.06
1037.129	1018.77
1037.417	1032.33
1037.704	1028.04
1037.992	1035.27
1038.279	1014.48
1038.566	990.3
1038.853	990.3
1039.14	990.3
