Data from hue_80_FLMS001491_23.txt Node
Date: Mon Feb 06 15:22:43 GMT 2017
User: dcchb
Spectrometer: FLMS00149
Trigger mode: 0
Integration Time (sec): 2.000000E-2
Scans to average: 10
Electric dark correction enabled: true
Nonlinearity correction enabled: false
Boxcar width: 0
XAxis mode: Wavelengths
Number of Pixels in Spectrum: 2048
>>>>>Begin Spectral Data<<<<<
341.393	-2.71
341.776	-2.71
342.16	-2.71
342.543	-72.31
342.927	-64.63
343.31	-83.84
343.693	-57.17
344.077	-77.51
344.46	-58.53
344.843	-34.35
345.226	-33.9
345.61	-40.22
345.993	-29.83
346.376	-13.33
346.759	-4.52
347.142	18.53
347.525	37.51
347.908	69.83
348.291	88.59
348.674	106.89
349.057	111.86
349.44	123.84
349.823	147.79
350.206	152.31
350.588	178.53
350.971	187.79
351.354	241.58
351.737	236.6
352.119	237.28
352.502	273.89
352.884	260.56
353.267	274.8
353.65	270.73
354.032	291.07
354.414	307.11
354.797	314.12
355.179	307.11
355.562	316.15
355.944	328.13
356.326	324.06
356.709	340.1
357.091	338.52
357.473	319.77
357.855	331.97
358.238	339.43
358.62	330.84
359.002	309.82
359.384	343.04
359.766	345.75
360.148	336.71
360.53	347.11
360.912	321.8
361.294	311.63
361.676	306.21
362.057	331.52
362.439	316.38
362.821	327.22
363.203	323.83
363.584	296.49
363.966	309.37
364.348	341.91
364.729	332.19
365.111	305.75
365.493	306.21
365.874	294.68
366.256	292.2
366.637	304.85
367.019	318.64
367.4	334.68
367.781	317.96
368.163	305.3
368.544	297.39
368.925	294.91
369.306	310.27
369.688	306.88
370.069	311.4
370.45	316.38
370.831	324.06
371.212	325.87
371.593	317.96
371.974	308.92
372.355	334
372.736	328.35
373.117	323.83
373.498	297.17
373.879	296.72
374.26	316.6
374.641	317.05
375.021	307.56
375.402	315.7
375.783	304.4
376.163	340.56
376.544	332.65
376.925	333.1
377.305	317.96
377.686	314.79
378.066	325.19
378.447	315.92
378.827	310.5
379.208	320.67
379.588	304.85
379.968	325.42
380.349	342.59
380.729	313.44
381.109	338.3
381.489	339.2
381.87	329.93
382.25	344.17
382.63	319.77
383.01	348.24
383.39	343.27
383.77	324.74
384.15	330.16
384.53	332.87
384.91	297.85
385.29	347.56
385.67	355.47
386.049	338.97
386.429	345.3
386.809	338.97
387.189	333.55
387.568	355.02
387.948	349.82
388.328	351.4
388.707	353.89
389.087	348.69
389.466	348.01
389.846	344.85
390.225	352.99
390.605	365.87
390.984	362.25
391.363	376.94
391.743	353.66
392.122	345.53
392.501	359.99
392.881	344.17
393.26	355.24
393.639	347.11
394.018	330.16
394.397	370.39
394.776	379.43
395.155	359.76
395.534	368.58
395.913	352.53
396.292	385.3
396.671	364.28
397.05	375.58
397.429	386.88
397.808	376.49
398.186	382.14
398.565	390.5
398.944	371.97
399.323	373.32
399.701	386.2
400.08	380.33
400.458	398.86
400.837	384.17
401.215	392.98
401.594	393.21
401.972	370.61
402.351	402.93
402.729	386.88
403.107	402.25
403.486	395.02
403.864	386.66
404.242	391.4
404.62	409.03
404.999	388.69
405.377	413.32
405.755	412.64
406.133	416.03
406.511	428.01
406.889	402.48
407.267	415.58
407.645	426.2
408.023	409.93
408.401	421.68
408.779	416.71
409.156	408.58
409.534	420.1
409.912	425.3
410.29	445.86
410.667	430.5
411.045	407.9
411.422	430.5
411.8	419.88
412.178	450.61
412.555	442.7
412.933	450.84
413.31	438.41
413.687	470.04
414.065	456.26
414.442	472.3
414.819	451.51
415.197	439.31
415.574	486.54
415.951	445.86
416.328	454.68
416.705	466.43
417.082	485.64
417.46	467.11
417.837	493.55
418.214	477.95
418.591	484.51
418.967	478.41
419.344	482.7
419.721	490.16
420.098	505.75
420.475	493.09
420.852	492.42
421.228	497.61
421.605	512.3
421.982	503.04
422.358	500.55
422.735	500.1
423.111	492.87
423.488	521.57
423.864	525.18
424.241	532.87
424.617	536.26
424.994	521.57
425.37	537.16
425.746	525.18
426.123	542.13
426.499	538.06
426.875	559.53
427.251	569.93
427.627	565.86
428.003	543.26
428.379	569.48
428.756	559.76
429.132	561.57
429.507	580.55
429.883	551.4
430.259	570.83
430.635	596.14
431.011	613.09
431.387	575.8
431.763	594.79
432.138	612.41
432.514	622.36
432.89	600.66
433.265	615.35
433.641	629.14
434.016	614.67
434.392	611.96
434.767	627.55
435.143	605.41
435.518	635.92
435.894	653.54
436.269	663.71
436.644	647.44
437.02	671.17
437.395	660.77
437.77	672.52
438.145	670.72
438.52	679.76
438.895	701.9
439.271	691.06
439.646	696.7
440.021	711.17
440.395	688.8
440.77	714.33
441.145	706.2
441.52	733.99
441.895	707.1
442.27	727.89
442.645	713.65
443.019	733.99
443.394	729.02
443.769	731.05
444.143	738.51
444.518	747.78
444.892	730.83
445.267	777.15
445.641	764.73
446.016	766.53
446.39	778.06
446.764	775.35
447.139	766.31
447.513	764.95
447.887	766.53
448.262	806.31
448.636	785.74
449.01	805.63
449.384	800.2
449.758	823.26
450.132	830.03
450.506	842.69
450.88	834.55
451.254	826.64
451.628	829.36
452.002	840.2
452.376	855.34
452.75	869.58
453.123	865.97
453.497	836.59
453.871	886.3
454.244	872.97
454.618	895.57
454.992	897.15
455.365	903.48
455.739	920.43
456.112	915.23
456.486	956.81
456.859	976.92
457.232	949.13
457.606	980.77
457.979	976.02
458.352	995.45
458.725	1057.37
459.099	1030.71
459.472	1003.36
459.845	1026.87
460.218	1040.42
460.591	1029.13
460.964	1032.97
461.337	1047.43
461.71	1093.76
462.083	1101.67
462.456	1089.69
462.829	1107.77
463.201	1147.31
463.574	1116.35
463.947	1168.1
464.32	1170.36
464.692	1189.35
465.065	1189.35
465.438	1243.13
465.81	1235.45
466.183	1239.52
466.555	1281.32
466.928	1296.24
467.3	1324.03
467.672	1321.1
468.045	1340.08
468.417	1322.45
468.789	1370.59
469.161	1405.61
469.534	1442.67
469.906	1452.39
470.278	1450.13
470.65	1466.63
471.022	1489
471.394	1561.77
471.766	1579.85
472.138	1605.38
472.51	1635.44
472.882	1694.87
473.253	1723.57
473.625	1749.78
473.997	1745.72
474.369	1815.77
474.74	1822.32
475.112	1895.54
475.484	1917.01
475.855	1968.54
476.227	2020.96
476.598	2061.41
476.97	2108.87
477.341	2169.21
477.713	2254.18
478.084	2250.56
478.455	2333.95
478.827	2390.22
479.198	2481.52
479.569	2503.66
479.94	2609.65
480.311	2647.61
480.682	2714.73
481.053	2810.32
481.424	2868.17
481.795	2956.53
482.166	3034.04
482.537	3092.12
482.908	3216.64
483.279	3293.47
483.65	3416.63
484.021	3460.25
484.391	3564.2
484.762	3637.42
485.133	3771.2
485.503	3847.81
485.874	3964.19
486.244	4053.23
486.615	4176.61
486.985	4274.01
487.356	4407.34
487.726	4579.31
488.097	4667.9
488.467	4787.67
488.837	4911.74
489.207	5068.12
489.578	5141.33
489.948	5262.46
490.318	5422.46
490.688	5503.58
491.058	5660.87
491.428	5783.58
491.798	5912.84
492.168	6129.33
492.538	6166.39
492.908	6267.86
493.278	6471.92
493.648	6545.36
494.017	6693.84
494.387	6861.97
494.757	6979.7
495.126	7160.04
495.496	7151.9
495.866	7298.57
496.235	7484.1
496.605	7566.81
496.974	7745.79
497.344	7896.74
497.713	7974.48
498.082	8141.93
498.452	8263.96
498.821	8418.31
499.19	8501.92
499.559	8574.92
499.928	8693.1
500.298	8889.71
500.667	8978.07
501.036	9003.15
501.405	9096.48
501.774	9199.76
502.143	9381.45
502.512	9415.12
502.88	9555.23
503.249	9656.24
503.618	9799.52
503.987	9846.52
504.356	9935.33
504.724	10018.49
505.093	10191.82
505.462	10254.42
505.83	10327.19
506.199	10457.13
506.567	10661.41
506.936	10718.14
507.304	10749.55
507.672	10922.42
508.041	10959.94
508.409	11058.92
508.777	11200.84
509.145	11228.41
509.514	11292.36
509.882	11369.19
510.25	11463.88
510.618	11566.48
510.986	11649.86
511.354	11791.55
511.722	11846.92
512.09	11949.97
512.458	11916.97
512.826	12108.16
513.193	12138.21
513.561	12170.75
513.929	12338.43
514.297	12384.08
514.664	12479.67
515.032	12476.73
515.4	12613.68
515.767	12639.22
516.135	12766.9
516.502	12753.56
516.869	12963.5
517.237	12956.72
517.604	12916.27
517.972	13061.35
518.339	13112.2
518.706	13131.41
519.073	13227
519.44	13268.13
519.808	13381.8
520.175	13394.68
520.542	13549.47
520.909	13582.24
521.276	13634.9
521.643	13725.29
522.009	13795.8
522.376	13969.58
522.743	13883.02
523.11	13992.63
523.477	14164.83
523.843	14183.36
524.21	14327.53
524.577	14334.99
524.943	14369.34
525.31	14467.64
525.676	14517.81
526.043	14546.51
526.409	14607.3
526.776	14694.98
527.142	14786.5
527.508	14782.66
527.874	14843.23
528.241	14956.22
528.607	14883.22
528.973	14972.26
529.339	14991.7
529.705	15099.94
530.071	15189.66
530.437	15127.74
530.803	15196.21
531.169	15311.69
531.535	15268.98
531.901	15243.44
532.267	15207.51
532.632	15346.49
532.998	15373.16
533.364	15422.19
533.73	15424.68
534.095	15481.85
534.461	15534.28
534.826	15535.18
535.192	15555.07
535.557	15580.83
535.923	15575.41
536.288	15638.01
536.653	15639.81
537.019	15582.87
537.384	15591.45
537.749	15646.59
538.114	15572.25
538.479	15622.41
538.845	15601.62
539.21	15549.65
539.575	15556.65
539.94	15587.39
540.305	15661.06
540.67	15645.69
541.034	15668.06
541.399	15608.86
541.764	15669.87
542.129	15738.8
542.494	15650.44
542.858	15645.69
543.223	15645.46
543.587	15719.59
543.952	15642.3
544.316	15581.96
544.681	15576.99
545.045	15680.04
545.41	15613.83
545.774	15711.9
546.138	15551.68
546.503	15557.56
546.867	15628.06
547.231	15572.7
547.595	15656.09
547.959	15575.18
548.324	15568.4
548.688	15636.88
549.052	15576.99
549.416	15595.97
549.779	15472.59
550.143	15540.38
550.507	15589.87
550.871	15613.6
551.235	15558.01
551.599	15709.64
551.962	15663.77
552.326	15589.19
552.689	15662.41
553.053	15514.17
553.417	15580.61
553.78	15707.61
554.143	15510.33
554.507	15584.22
554.87	15635.75
555.234	15718
555.597	15618.8
555.96	15679.81
556.323	15638.91
556.686	15652.02
557.05	15777.44
557.413	15744.9
557.776	15742.86
558.139	15736.76
558.502	15747.83
558.865	15682.53
559.228	15769.75
559.59	15806.82
559.953	15798.68
560.316	16008.84
560.679	15879.81
561.041	15970.43
561.404	15989.41
561.767	16115.51
562.129	15946.7
562.492	16092.91
562.854	16108.73
563.217	16040.26
563.579	16077.77
563.941	16149.63
564.304	16152.57
564.666	16181.72
565.028	16259.69
565.39	16327.25
565.753	16292.23
566.115	16344.2
566.477	16275.73
566.839	16340.36
567.201	16413.35
567.563	16449.29
567.925	16505.1
568.287	16496.52
568.648	16535.61
569.01	16547.59
569.372	16693.12
569.734	16664.87
570.095	16758.88
570.457	16738.77
570.819	16732.89
571.18	16754.14
571.542	16823.06
571.903	16822.61
572.265	16833
572.626	16866.22
572.987	16934.7
573.349	16915.26
573.71	16978.99
574.071	16941.25
574.432	17003.17
574.794	17132.2
575.155	17050.17
575.516	16975.6
575.877	17148.48
576.238	17097.18
576.599	17145.99
576.96	17230.96
577.32	17171.75
577.681	17268.92
578.042	17143.96
578.403	17244.07
578.763	17232.99
579.124	17245.2
579.485	17265.53
579.845	17204.07
580.206	17216.27
580.566	17216.27
580.927	17251.3
581.287	17278.87
581.648	17222.15
582.008	17331.97
582.368	17329.71
582.728	17360.22
583.089	17325.87
583.449	17244.52
583.809	17256.27
584.169	17307.34
584.529	17291.97
584.889	17379.43
585.249	17275.25
585.609	17122.94
585.969	17346.89
586.329	17253.11
586.688	17290.84
587.048	17292.88
587.408	17195.03
587.768	17268.02
588.127	17252.65
588.487	17260.79
588.846	17264.63
589.206	17117.74
589.565	17181.24
589.925	17209.04
590.284	17304.86
590.643	17191.41
591.003	17240.22
591.362	17150.28
591.721	17200.68
592.08	17194.35
592.44	17273.9
592.799	17180.57
593.158	17200.68
593.517	17225.08
593.876	17256.72
594.235	17142.37
594.593	17117.74
594.952	17270.96
595.311	17080.23
595.67	17149.38
596.029	17262.14
596.387	17219.89
596.746	17224.41
597.104	17162.49
597.463	17279.32
597.822	17221.02
598.18	17033.45
598.538	17217.17
598.897	17277.06
599.255	17054.69
599.613	17305.31
599.972	17185.54
600.33	17176.95
600.688	17216.27
601.046	17226.89
601.404	17253.56
601.762	17319.32
602.12	17343.5
602.478	17237.96
602.836	17305.76
603.194	17170.62
603.552	17187.57
603.91	17169.27
604.268	17254.91
604.625	17174.01
604.983	17312.99
605.341	17157.06
605.698	17188.7
606.056	17326.1
606.413	17283.61
606.771	17378.3
607.128	17258.08
607.485	17205.65
607.843	17252.88
608.2	17366.32
608.557	17403.61
608.914	17337.85
609.272	17415.59
609.629	17448.35
609.986	17483.16
610.343	17469.82
610.7	17595.24
611.057	17526.32
611.414	17478.86
611.771	17584.4
612.127	17559.76
612.484	17559.54
612.841	17583.94
613.198	17620.33
613.554	17529.48
613.911	17664.39
614.267	17588.01
614.624	17582.81
614.98	17687.22
615.337	17747.33
615.693	17737.39
616.05	17661.91
616.406	17853.32
616.762	17734.9
617.118	17858.74
617.475	17711.85
617.831	17761.34
618.187	17829.36
618.543	17851.96
618.899	17891.06
619.255	17862.36
619.611	17838.85
619.967	17918.85
620.323	17929.92
620.678	17821.68
621.034	17843.82
621.39	17790.27
621.746	17821.23
622.101	18066.42
622.457	17823.49
622.812	17924.95
623.168	17999.53
623.523	17909.81
623.879	18028.68
624.234	17922.24
624.589	18011.28
624.945	17941.68
625.3	17992.52
625.655	18021.67
626.01	18078.39
626.365	17945.06
626.72	17999.3
627.075	17880.43
627.43	17920.66
627.785	17923.6
628.14	17939.42
628.495	18021.9
628.85	17961.34
629.205	17839.76
629.559	17972.63
629.914	17939.42
630.269	17895.12
630.623	17931.73
630.978	17849.25
631.332	17916.59
631.687	17893.31
632.041	17837.5
632.396	17884.73
632.75	17772.19
633.104	17859.87
633.459	17771.96
633.813	17750.49
634.167	17683.38
634.521	17733.77
634.875	17788.68
635.229	17671.17
635.583	17640.67
635.937	17552.98
636.291	17595.24
636.645	17634.79
636.999	17582.36
637.352	17602.48
637.706	17482.48
638.06	17664.17
638.413	17508.24
638.767	17390.73
639.121	17482.48
639.474	17362.03
639.828	17400.45
640.181	17421.46
640.534	17430.73
640.888	17466.21
641.241	17341.01
641.594	17348.47
641.947	17465.76
642.301	17400.22
642.654	17433.67
643.007	17358.87
643.36	17319.09
643.713	17341.01
644.066	17398.64
644.419	17300.11
644.771	17159.55
645.124	16994.58
645.477	16954.36
645.83	16878.88
646.182	16815.38
646.535	16741.03
646.888	16764.08
647.24	16697.87
647.593	16812.21
647.945	16718.88
648.298	16626.23
648.65	16668.94
649.002	16681.82
649.355	16639.79
649.707	16652.44
650.059	16743.74
650.411	16960.01
650.763	16993.45
651.115	17165.65
651.467	17071.42
651.819	17222.82
652.171	17150.96
652.523	17057.18
652.875	17079.55
653.227	16983.28
653.578	17075.03
653.93	17091.53
654.282	16987.35
654.633	17063.28
654.985	17073.22
655.337	17058.53
655.688	16968.37
656.039	17083.84
656.391	16924.98
656.742	16937.18
657.094	17012.21
657.445	17169.72
657.796	16998.65
658.147	16975.37
658.498	17057.63
658.849	16997.07
659.2	17046.78
659.551	16929.72
659.902	16966.79
660.253	16983.51
660.604	17148.7
660.955	16908.71
661.306	17074.81
661.656	16999.78
662.007	17007.69
662.358	16985.54
662.708	16945.09
663.059	16971.76
663.409	16941.25
663.76	17075.26
664.11	17006.56
664.461	17051.08
664.811	16994.36
665.161	17071.19
665.511	17014.92
665.862	17154.35
666.212	17099.44
666.562	17163.39
666.912	17035.71
667.262	17025.77
667.612	17075.48
667.962	17107.57
668.312	17083.84
668.662	17142.15
669.011	17098.99
669.361	16964.98
669.711	17034.81
670.06	17005.65
670.41	17057.86
670.76	16970.4
671.109	17042.04
671.459	16980.57
671.808	16967.01
672.157	17004.52
672.507	16877.07
672.856	16832.33
673.205	16867.58
673.554	16919.1
673.904	16891.31
674.253	16964.98
674.602	16849.27
674.951	16637.08
675.3	16571.77
675.649	16831.87
675.998	16838.43
676.346	16755.72
676.695	16940.35
677.044	16770.86
677.393	16687.02
677.741	16870.52
678.09	16773.8
678.438	16742.16
678.787	16655.83
679.135	16771.31
679.484	16535.61
679.832	16710.3
680.181	16609.05
680.529	16684.53
680.877	16643.86
681.225	16639.34
681.573	16652.22
681.922	16533.8
682.27	16412.68
682.618	16509.4
682.966	16355.05
683.314	16439.34
683.661	16315.05
684.009	16276.41
684.357	16248.39
684.705	16386.46
685.053	16290.42
685.4	16169.52
685.748	16122.51
686.095	16149.86
686.443	16115.51
686.79	16102.63
687.138	16091.1
687.485	16110.31
687.832	15951.44
688.18	16020.82
688.527	15946.47
688.874	15835.29
689.221	15806.59
689.568	15825.57
689.915	15793.48
690.262	15736.76
690.609	15656.99
690.956	15602.53
691.303	15534.28
691.65	15579.93
691.997	15506.03
692.344	15385.58
692.69	15412.7
693.037	15379.93
693.383	15230.56
693.73	15230.11
694.077	15201.86
694.423	15200.73
694.769	15117.57
695.116	15073.05
695.462	14992.6
695.808	15054.52
696.155	14972.71
696.501	14856.33
696.847	14848.65
697.193	14774.75
697.539	14732.72
697.885	14631.48
698.231	14582.44
698.577	14668.09
698.923	14548.09
699.269	14510.35
699.614	14418.6
699.96	14352.39
700.306	14428.77
700.651	14346.06
700.997	14243.47
701.342	14286.86
701.688	14181.55
702.033	14173.41
702.379	14117.37
702.724	14051.83
703.069	14035.34
703.415	13906.08
703.76	13895.91
704.105	13880.76
704.45	13857.71
704.795	13768
705.14	13796.7
705.485	13681
705.83	13583.37
706.175	13666.31
706.52	13643.94
706.865	13527.33
707.209	13538.85
707.554	13456.14
707.899	13497.5
708.243	13403.94
708.588	13387.44
708.932	13257.28
709.277	13206.66
709.621	13243.27
709.966	13174.12
710.31	13218.86
710.654	13100.22
710.998	13092.99
711.342	13118.07
711.687	12980.68
712.031	13020.9
712.375	12850.06
712.719	12881.7
713.063	12872.2
713.407	12916.27
713.75	12880.57
714.094	12801.25
714.438	12675.6
714.782	12780.45
715.125	12645.54
715.469	12795.37
715.812	12659.55
716.156	12637.63
716.499	12686.67
716.843	12618.43
717.186	12487.58
717.53	12629.5
717.873	12681.47
718.216	12588.6
718.559	12516.28
718.902	12468.15
719.246	12507.69
719.589	12470.63
719.932	12400.35
720.275	12402.61
720.617	12388.15
720.96	12382.95
721.303	12371.65
721.646	12342.95
721.989	12311.54
722.331	12380.69
722.674	12395.61
723.016	12250.75
723.359	12342.27
723.701	12302.05
724.044	12273.12
724.386	12196.52
724.729	12226.35
725.071	12282.61
725.413	12224.76
725.755	12175.95
726.097	12094.15
726.439	12134.14
726.782	12061.38
727.124	12181.6
727.465	12089.4
727.807	12042.17
728.149	12020.47
728.491	11968.5
728.833	12150.19
729.175	12026.12
729.516	12098.89
729.858	12039.68
730.199	11961.27
730.541	11971.21
730.882	11924.43
731.224	12083.98
731.565	11969.4
731.906	11963.53
732.248	12053.92
732.589	11929.4
732.93	11864.55
733.271	11892.12
733.612	11961.49
733.953	11912.46
734.294	11961.27
734.635	11902.51
734.976	11920.82
735.317	11869.97
735.658	11889.4
735.999	11961.27
736.339	11843.98
736.68	11963.08
737.021	11928.27
737.361	11860.48
737.702	12034.49
738.042	11997.88
738.383	11897.77
738.723	11916.52
739.063	11935.73
739.404	11949.97
739.744	11939.12
740.084	11931.44
740.424	11919.46
740.764	11922.17
741.104	11914.49
741.444	11894.15
741.784	11955.17
742.124	11982.96
742.464	12018.67
742.804	11974.15
743.143	12039.68
743.483	12036.75
743.823	12053.47
744.162	12074.94
744.502	12198.32
744.841	12131.21
745.181	12230.86
745.52	12208.72
745.86	12248.27
746.199	12243.07
746.538	12282.61
746.877	12265.89
747.216	12336.17
747.556	12379.34
747.895	12503.17
748.234	12448.94
748.573	12524.87
748.911	12567.58
749.25	12655.26
749.589	12618.43
749.928	12665.88
750.267	12802.6
750.605	12769.38
750.944	12794.01
751.283	12986.33
751.621	13055.25
751.96	13054.12
752.298	13125.3
752.636	13274.45
752.975	13343.6
753.313	13280.78
753.651	13492.75
753.989	13513.32
754.327	13574.11
754.666	13645.97
755.004	13778.85
755.342	13875.12
755.679	13854.55
756.017	13952.85
756.355	14043.47
756.693	14175.9
757.031	14385.84
757.368	14367.53
757.706	14457.7
758.044	14516.45
758.381	14716.9
758.719	14798.25
759.056	15012.03
759.394	15042.32
759.731	15118.7
760.068	15222.42
760.405	15253.84
760.743	15381.97
761.08	15458.8
761.417	15552.59
761.754	15718.23
762.091	15856.53
762.428	15892.01
762.765	15832.58
763.102	16060.14
763.438	16112.8
763.775	16267.59
764.112	16266.01
764.449	16480.7
764.785	16513.24
765.122	16501.26
765.458	16577.42
765.795	16717.07
766.131	16863.74
766.467	16861.48
766.804	16856.28
767.14	16925.43
767.476	17044.07
767.812	17074.13
768.148	17207.23
768.485	17206.55
768.821	17231.86
769.157	17294.69
769.492	17222.37
769.828	17403.16
770.164	17385.53
770.5	17272.31
770.836	17402.48
771.171	17463.95
771.507	17513.21
771.842	17396.38
772.178	17529.48
772.513	17505.08
772.849	17510.27
773.184	17534.23
773.519	17654.45
773.855	17631.63
774.19	17524.28
774.525	17635.24
774.86	17581.23
775.195	17621.46
775.53	17594.57
775.865	17572.42
776.2	17431.63
776.535	17392.99
776.87	17507.11
777.205	17387.79
777.539	17447
777.874	17481.12
778.209	17407.45
778.543	17371.75
778.878	17319.54
779.212	17304.4
779.547	17263.05
779.881	17348.47
780.215	17197.51
780.55	17246.1
780.884	17208.59
781.218	17214.46
781.552	17240
781.886	17079.32
782.22	16965.88
782.554	17000.46
782.888	16896.5
783.222	16842.49
783.556	16788.94
783.889	16823.74
784.223	16697.87
784.557	16766.79
784.89	16802.27
785.224	16668.49
785.557	16719.56
785.891	16607.92
786.224	16636.85
786.558	16622.61
786.891	16541.49
787.224	16345.11
787.557	16376.52
787.891	16402.28
788.224	16386.91
788.557	16376.07
788.89	16307.82
789.223	16337.88
789.556	16151.21
789.888	16230.31
790.221	16240.93
790.554	16013.82
790.887	16163.42
791.219	16017.43
791.552	16036.87
791.884	15924.78
792.217	15895.63
792.549	15855.63
792.882	15853.14
793.214	15684.33
793.546	15814.95
793.879	15599.59
794.211	15563.21
794.543	15583.32
794.875	15551.23
795.207	15595.3
795.539	15469.42
795.871	15406.83
796.203	15399.14
796.535	15293.61
796.867	15228.07
797.198	15258.81
797.53	15242.99
797.862	15154.18
798.193	15121.64
798.525	15067.17
798.856	15118.47
799.188	14951.25
799.519	14870.57
799.85	14839.16
800.182	14853.85
800.513	14845.71
800.844	14774.07
801.175	14785.37
801.506	14784.02
801.837	14683.46
802.168	14635.32
802.499	14634.42
802.83	14518.26
803.161	14476
803.491	14436.91
803.822	14450.02
804.153	14391.49
804.483	14353.52
804.814	14284.6
805.145	14302.45
805.475	14238.27
805.805	14175.67
806.136	14219.51
806.466	14091.61
806.796	14079.86
807.126	13977.71
807.457	13959.86
807.787	13994.89
808.117	13863.82
808.447	13876.25
808.777	13897.49
809.107	13857.26
809.436	13768.9
809.766	13834.89
810.096	13775.91
810.426	13726.19
810.755	13700.2
811.085	13663.14
811.414	13675.35
811.744	13543.6
812.073	13487.33
812.403	13477.39
812.732	13475.13
813.061	13453.43
813.39	13368.24
813.719	13346.09
814.049	13444.39
814.378	13366.65
814.707	13245.75
815.036	13309.71
815.365	13144.29
815.693	13138.86
816.022	13143.16
816.351	13121.01
816.68	12996.72
817.008	13070.39
817.337	12953.11
817.665	12921.24
817.994	12950.85
818.322	12926.67
818.651	12869.72
818.979	12888.25
819.307	12915.14
819.636	12775.48
819.964	12739.55
820.292	12791.3
820.62	12810.06
820.948	12737.29
821.276	12783.62
821.604	12711.53
821.932	12702.26
822.259	12728.93
822.587	12734.81
822.915	12747.24
823.243	12804.18
823.57	12751.76
823.898	12751.76
824.225	12649.38
824.553	12652.77
824.88	12718.08
825.207	12744.98
825.535	12617.52
825.862	12761.92
826.189	12686.67
826.516	12738.2
826.843	12842.6
827.17	12700.91
827.497	12700.46
827.824	12644.64
828.151	12757.86
828.478	12678.31
828.805	12756.05
829.131	12705.2
829.458	12543.62
829.785	12539.33
830.111	12624.3
830.438	12709.72
830.764	12647.8
831.09	12693.68
831.417	12594.92
831.743	12670.18
832.069	12582.27
832.395	12559.67
832.722	12638.09
833.048	12596.5
833.374	12653.45
833.7	12551.76
834.026	12553.34
834.351	12554.7
834.677	12577.75
835.003	12557.18
835.329	12616.39
835.654	12480.8
835.98	12456.17
836.306	12472.44
836.631	12380.01
836.956	12471.99
837.282	12403.52
837.607	12437.64
837.932	12411.65
838.258	12376.62
838.583	12454.59
838.908	12306.57
839.233	12335.95
839.558	12295.04
839.883	12223.63
840.208	12194.03
840.533	12193.58
840.858	12234.93
841.182	12222.05
841.507	12133.92
841.832	12127.14
842.156	12040.36
842.481	12086.01
842.805	12098.66
843.13	12097.31
843.454	12006.46
843.778	11924.88
844.103	11928.5
844.427	11949.06
844.751	11916.97
845.075	11914.71
845.399	11824.77
845.723	11773.7
846.047	11753.82
846.371	11694.38
846.695	11715.62
847.019	11567.15
847.343	11545.23
847.666	11465.46
847.99	11425.91
848.313	11500.04
848.637	11330.55
848.96	11380.49
849.284	11252.36
849.607	11228.86
849.931	11187.73
850.254	11082.42
850.577	11021.86
850.9	11113.38
851.223	10972.82
851.546	10932.82
851.869	10861.64
852.192	10915.42
852.515	10784.58
852.838	10838.81
853.161	10739.38
853.483	10646.95
853.806	10755.42
854.129	10718.14
854.451	10691.92
854.774	10552.04
855.096	10660.96
855.419	10523.34
855.741	10575.54
856.063	10440.86
856.385	10430.69
856.708	10377.35
857.03	10444.02
857.352	10394.98
857.674	10348.88
857.996	10325.15
858.318	10218.94
858.64	10266.17
858.961	10185.27
859.283	10214.19
859.605	10089
859.926	10119.96
860.248	10088.77
860.57	9961.77
860.891	10017.36
861.212	9996.35
861.534	10043.58
861.855	9985.05
862.176	9951.83
862.498	9919.51
862.819	9933.52
863.14	9845.84
863.461	9876.12
863.782	9835.22
864.103	9829.57
864.424	9827.31
864.745	9813.3
865.065	9830.02
865.386	9691.5
865.707	9706.64
866.027	9627.32
866.348	9679.75
866.668	9648.79
866.989	9617.83
867.309	9635.45
867.63	9603.36
867.95	9550.71
868.27	9553.2
868.59	9504.16
868.91	9563.59
869.23	9509.81
869.55	9418.51
869.87	9491.5
870.19	9448.79
870.51	9448.11
870.83	9473.2
871.15	9419.64
871.469	9430.03
871.789	9338.06
872.109	9384.84
872.428	9313.65
872.748	9342.81
873.067	9407.21
873.386	9400.2
873.706	9378.06
874.025	9309.81
874.344	9262.81
874.663	9275.24
874.982	9292.41
875.301	9248.34
875.62	9249.93
875.939	9186.2
876.258	9256.93
876.577	9145.97
876.896	9162.24
877.214	9133.55
877.533	9112.53
877.852	9115.69
878.17	9141
878.489	9126.31
878.807	9119.99
879.125	9072.98
879.444	9051.06
879.762	8977.39
880.08	8991.85
880.398	8989.14
880.716	9011.51
881.034	8974.68
881.352	9002.02
881.67	9005.41
881.988	8939.43
882.306	8912.99
882.624	8900.78
882.941	8869.6
883.259	8747.11
883.577	8799.09
883.894	8830.73
884.212	8782.82
884.529	8786.89
884.846	8731.3
885.164	8755.48
885.481	8674.12
885.798	8687.23
886.115	8640.22
886.432	8667.34
886.75	8515.48
887.067	8627.12
887.383	8537.85
887.7	8537.18
888.017	8517.52
888.334	8514.13
888.651	8487.01
888.967	8401.81
889.284	8442.49
889.6	8343.74
889.917	8417.41
890.233	8381.02
890.55	8328.14
890.866	8296.05
891.182	8264.87
891.498	8238.2
891.815	8282.95
892.131	8153.91
892.447	8212.67
892.763	8165.21
893.079	8181.71
893.395	8088.15
893.71	8058.77
894.026	8069.62
894.342	8037.3
894.657	8005.89
894.973	8004.31
895.289	8067.58
895.604	8004.08
895.92	7941.71
896.235	7888.61
896.55	7917.31
896.865	7852
897.181	7886.12
897.496	7838.44
897.811	7815.84
898.126	7744.66
898.441	7695.39
898.756	7695.84
899.071	7597.09
899.386	7639.12
899.7	7592.12
900.015	7552.8
900.33	7499.46
900.644	7499.46
900.959	7487.49
901.273	7511.21
901.588	7416.53
901.902	7414.95
902.216	7320.26
902.531	7313.03
902.845	7371.56
903.159	7318
903.473	7311.22
903.787	7200.71
904.101	7137.44
904.415	7152.81
904.729	7171.56
905.042	7162.98
905.356	7116.65
905.67	7047.5
905.984	7072.36
906.297	7034.39
906.611	6971.12
906.924	6975.41
907.237	6965.47
907.551	6896.77
907.864	6890.21
908.177	6889.08
908.491	6871.23
908.804	6862.19
909.117	6787.62
909.43	6696.55
909.743	6749.43
910.056	6726.83
910.368	6681.18
910.681	6641.41
910.994	6605.02
911.307	6599.6
911.619	6576.1
911.932	6515.53
912.244	6501.75
912.557	6530.45
912.869	6479.38
913.181	6427.63
913.494	6454.75
913.806	6398.93
914.118	6354.18
914.43	6261.53
914.742	6350.12
915.054	6271.25
915.366	6287.74
915.678	6243.68
915.99	6224.02
916.302	6181.98
916.613	6160.29
916.925	6175.66
917.236	6126.17
917.548	6052.95
917.859	6062.67
918.171	6007.07
918.482	6028.32
918.794	5979.73
919.105	5952.39
919.416	5912.84
919.727	5897.92
920.038	5898.83
920.349	5840.75
920.66	5872.16
920.971	5810.92
921.282	5796.91
921.593	5722.11
921.903	5758.49
922.214	5701.77
922.525	5674.88
922.835	5671.72
923.146	5653.41
923.456	5626.07
923.767	5606.41
924.077	5656.35
924.387	5603.47
924.697	5520.08
925.008	5544.71
925.318	5514.43
925.628	5471.95
925.938	5479.86
926.248	5391.95
926.558	5421.1
926.867	5352.63
927.177	5380.2
927.487	5307.21
927.796	5303.36
928.106	5300.43
928.416	5300.43
928.725	5241.67
929.034	5274.89
929.344	5201.67
929.653	5226.76
929.962	5149.92
930.271	5139.53
930.581	5113.99
930.89	5142.92
931.199	5027.89
931.508	5067.21
931.817	4996.7
932.125	5029.25
932.434	4966.65
932.743	4945.86
933.051	4941.56
933.36	4902.02
933.669	4902.47
933.977	4870.15
934.286	4852.98
934.594	4871.06
934.902	4799.87
935.21	4786.54
935.519	4790.83
935.827	4792.19
936.135	4712.19
936.443	4727.79
936.751	4691.4
937.059	4704.96
937.367	4669.26
937.674	4632.65
937.982	4653.21
938.29	4594.68
938.597	4575.25
938.905	4559.2
939.213	4544.06
939.52	4503.84
939.827	4530.28
940.135	4510.39
940.442	4458.41
940.749	4462.03
941.056	4496.6
941.363	4420.67
941.67	4407.57
941.977	4389.26
942.284	4358.3
942.591	4353.11
942.898	4286.89
943.205	4283.73
943.511	4293.45
943.818	4257.29
944.125	4282.83
944.431	4243.73
944.738	4224.52
945.044	4210.28
945.35	4230.17
945.657	4180.91
945.963	4176.39
946.269	4115.37
946.575	4169.61
946.881	4068.59
947.187	4123.28
947.493	4057.97
947.799	4055.03
948.105	4054.13
948.41	4012.55
948.716	4024.75
949.022	3979.78
949.327	3993.12
949.633	3931.2
949.938	3946.79
950.244	3926
950.549	3896.39
950.854	3834.25
951.16	3838.32
951.465	3852.1
951.77	3871.99
952.075	3816.62
952.38	3759.9
952.685	3801.26
952.99	3792.67
953.294	3772.33
953.599	3729.62
953.904	3744.99
954.209	3707.25
954.513	3674.71
954.818	3676.97
955.122	3665.44
955.426	3608.72
955.731	3681.71
956.035	3594.71
956.339	3606.46
956.643	3559
956.948	3519
957.252	3538.21
957.556	3510.19
957.86	3535.95
958.163	3549.06
958.467	3504.54
958.771	3491.66
959.075	3444.66
959.378	3442.17
959.682	3428.38
959.985	3402.4
960.289	3378.89
960.592	3386.58
960.896	3366.01
961.199	3377.54
961.502	3346.8
961.805	3332.79
962.108	3302.74
962.411	3291.66
962.714	3255.51
963.017	3285.56
963.32	3274.04
963.623	3234.72
963.926	3248.95
964.228	3191.55
964.531	3232.46
964.833	3211.89
965.136	3152.01
965.438	3144.55
965.741	3103.87
966.043	3088.05
966.345	3137.77
966.648	3119.92
966.95	3134.15
967.252	3051.67
967.554	3082.86
967.856	3046.93
968.158	3025.68
968.46	3023.65
968.761	3018.68
969.063	3020.26
969.365	2987.27
969.666	2954.27
969.968	2950.66
970.269	2957.44
970.571	2961.96
970.872	2919.7
971.174	2887.83
971.475	2896.42
971.776	2891.22
972.077	2867.72
972.378	2862.98
972.679	2856.42
972.98	2850.77
973.281	2826.14
973.582	2802.41
973.883	2827.95
974.183	2793.82
974.484	2768.51
974.785	2764.67
975.085	2740.49
975.386	2761.06
975.686	2719.25
975.986	2691.45
976.287	2700.95
976.587	2662.75
976.887	2687.61
977.187	2673.6
977.487	2724.9
977.787	2640.16
978.087	2622.98
978.387	2612.59
978.687	2606.94
978.987	2604.45
979.286	2568.29
979.586	2565.81
979.885	2554.51
980.185	2552.25
980.484	2542.76
980.784	2549.54
981.083	2496.43
981.382	2475.64
981.682	2521.29
981.981	2512.48
982.28	2491.69
982.579	2440.61
982.878	2474.29
983.177	2449.88
983.475	2427.96
983.774	2422.54
984.073	2423.89
984.372	2358.58
984.67	2405.59
984.969	2390.45
985.267	2400.84
985.566	2359.03
985.864	2325.59
986.162	2328.75
986.461	2330.33
986.759	2346.15
987.057	2315.65
987.355	2312.03
987.653	2302.76
987.951	2295.08
988.249	2292.37
988.547	2278.81
988.844	2248.53
989.142	2228.19
989.44	2224.57
989.737	2197.46
990.035	2245.59
990.332	2194.29
990.63	2196.55
990.927	2174.86
991.224	2142.32
991.521	2175.99
991.819	2173.5
992.116	2166.5
992.413	2141.41
992.71	2093.05
993.006	2134.63
993.303	2115.65
993.6	2092.83
993.897	2088.53
994.193	2063
994.49	2070.45
994.787	2057.35
995.083	2031.81
995.379	2035.43
995.676	2040.4
995.972	2014.64
996.268	1997.91
996.565	1998.14
996.861	1995.65
997.157	2016.44
997.453	1961.08
997.749	1959.04
998.044	1953.85
998.34	1922.89
998.636	1945.71
998.932	1933.51
999.227	1923.79
999.523	1892.83
999.818	1909.33
1000.114	1881.08
1000.409	1894.41
1000.704	1843.57
1001	1864.36
1001.295	1831.59
1001.59	1818.94
1001.885	1870.23
1002.18	1812.83
1002.475	1812.16
1002.77	1794.98
1003.065	1770.35
1003.359	1787.3
1003.654	1784.13
1003.949	1739.84
1004.243	1767.86
1004.538	1735.55
1004.832	1723.34
1005.127	1697.13
1005.421	1721.76
1005.715	1722.67
1006.009	1686.96
1006.304	1696.68
1006.598	1687.64
1006.892	1645.61
1007.186	1654.65
1007.48	1648.09
1007.773	1663.91
1008.067	1644.25
1008.361	1611.48
1008.655	1609.9
1008.948	1573.52
1009.242	1600.41
1009.535	1571.26
1009.829	1564.93
1010.122	1563.12
1010.415	1568.32
1010.708	1573.52
1011.001	1552.95
1011.295	1539.39
1011.588	1504.59
1011.881	1491.94
1012.173	1519.51
1012.466	1514.99
1012.759	1494.2
1013.052	1502.33
1013.344	1454.43
1013.637	1484.48
1013.93	1455.33
1014.222	1439.96
1014.514	1449.23
1014.807	1445.16
1015.099	1430.92
1015.391	1420.53
1015.683	1421.43
1015.976	1414.65
1016.268	1387.76
1016.56	1379.4
1016.851	1376.23
1017.143	1383.24
1017.435	1351.83
1017.727	1333.52
1018.018	1353.64
1018.31	1329.46
1018.602	1343.47
1018.893	1334.43
1019.185	1315.45
1019.476	1294.2
1019.767	1311.38
1020.058	1271.83
1020.35	1281.55
1020.641	1281.1
1020.932	1272.96
1021.223	1259.18
1021.514	1245.39
1021.804	1238.39
1022.095	1237.48
1022.386	1211.95
1022.677	1232.96
1022.967	1224.6
1023.258	1174.43
1023.548	1197.48
1023.839	1212.85
1024.129	1175.56
1024.419	1164.26
1024.709	1166.07
1025	1169.46
1025.29	1142.57
1025.58	1148.67
1025.87	1131.95
1026.16	1144.15
1026.449	1126.75
1026.739	1131.5
1027.029	1104.83
1027.319	1090.59
1027.608	1099.18
1027.898	1075.45
1028.187	1097.37
1028.477	1059.63
1028.766	1090.82
1029.055	1065.06
1029.344	1048.56
1029.634	1030.26
1029.923	1025.51
1030.212	1049.24
1030.501	1020.09
1030.79	1017.37
1031.078	1018.28
1031.367	974.89
1031.656	973.31
1031.945	982.57
1032.233	976.47
1032.522	966.75
1032.81	961.78
1033.099	973.76
1033.387	948.9
1033.675	983.7
1033.963	979.86
1034.251	952.52
1034.54	942.12
1034.828	915.68
1035.116	937.15
1035.403	934.21
1035.691	924.27
1035.979	918.62
1036.267	909.81
1036.554	896.7
1036.842	883.14
1037.129	904.16
1037.417	913.87
1037.704	883.82
1037.992	883.14
1038.279	852.63
1038.566	887.21
1038.853	887.21
1039.14	887.21
