Data from hue_240_FLMS001491_00096.txt Node
Date: Tue Feb 07 16:36:12 GMT 2017
User: dcchb
Spectrometer: FLMS00149
Trigger mode: 0
Integration Time (sec): 2.000000E-2
Scans to average: 10
Electric dark correction enabled: true
Nonlinearity correction enabled: false
Boxcar width: 0
XAxis mode: Wavelengths
Number of Pixels in Spectrum: 2048
>>>>>Begin Spectral Data<<<<<
341.393	-27.74
341.776	-27.74
342.16	-27.74
342.543	-49.43
342.927	-71.81
343.31	-82.2
343.693	-87.17
344.077	-62.99
344.46	-43.78
344.843	-67.74
345.226	-50.56
345.61	-26.38
345.993	-4.69
346.376	-11.02
346.759	9.1
347.142	45.03
347.525	48.64
347.908	61.07
348.291	78.7
348.674	84.8
349.057	109.21
349.44	118.25
349.823	143.56
350.206	160.05
350.588	171.35
350.971	202.54
351.354	215.19
351.737	233.5
352.119	251.58
352.502	237.56
352.884	290.22
353.267	271.69
353.65	294.51
354.032	287.28
354.414	272.37
354.797	289.09
355.179	302.2
355.562	302.42
355.944	330.9
356.326	311.01
356.709	316.21
357.091	313.72
357.473	351.01
357.855	309.88
358.238	339.93
358.62	338.8
359.002	355.08
359.384	324.79
359.766	340.84
360.148	332.93
360.53	341.06
360.912	334.28
361.294	342.42
361.676	318.47
362.057	319.6
362.439	322.99
362.821	314.4
363.203	307.85
363.584	319.14
363.966	279.6
364.348	296.32
364.729	304.91
365.111	310.78
365.493	313.72
365.874	308.52
366.256	294.74
366.637	302.42
367.019	304.68
367.4	293.38
367.781	297.68
368.163	299.48
368.544	306.04
368.925	304.23
369.306	309.88
369.688	313.72
370.069	305.13
370.45	313.04
370.831	301.07
371.212	295.19
371.593	303.78
371.974	300.39
372.355	286.6
372.736	285.02
373.117	300.84
373.498	300.61
373.879	303.1
374.26	315.98
374.641	312.59
375.021	297
375.402	308.52
375.783	322.76
376.163	316.66
376.544	332.03
376.925	318.24
377.305	323.89
377.686	322.76
378.066	335.87
378.447	321.4
378.827	322.31
379.208	314.62
379.588	316.43
379.968	328.86
380.349	308.97
380.729	324.57
381.109	321.18
381.489	326.83
381.87	334.06
382.25	334.06
382.63	332.93
383.01	333.83
383.39	327.05
383.77	316.66
384.15	348.3
384.53	330.22
384.91	346.71
385.29	340.84
385.67	337.22
386.049	339.26
386.429	331.35
386.809	332.48
387.189	356.66
387.568	346.71
387.948	343.1
388.328	346.04
388.707	360.05
389.087	352.59
389.466	339.93
389.846	352.36
390.225	356.21
390.605	361.4
390.984	370.89
391.363	362.76
391.743	366.83
392.122	378.35
392.501	364.34
392.881	373.38
393.26	350.1
393.639	353.27
394.018	387.62
394.397	383.1
394.776	382.42
395.155	375.87
395.534	360.05
395.913	361.18
396.292	373.15
396.671	377.67
397.05	373.61
397.429	386.49
397.808	384.91
398.186	398.69
398.565	392.36
398.944	395.75
399.323	385.13
399.701	420.16
400.08	411.35
400.458	416.54
400.837	419.71
401.215	417.9
401.594	426.03
401.972	411.12
402.351	402.98
402.729	417.67
403.107	409.76
403.486	422.64
403.864	430.78
404.242	433.49
404.62	453.38
404.999	438.92
405.377	451.8
405.755	446.82
406.133	443.89
406.511	461.74
406.889	455.19
407.267	453.38
407.645	461.51
408.023	466.71
408.401	473.94
408.779	464.9
409.156	471.91
409.534	458.58
409.912	478.69
410.29	494.51
410.667	511.23
411.045	515.52
411.422	517.11
411.8	493.38
412.178	488.63
412.555	526.82
412.933	535.18
413.31	565.01
413.687	536.77
414.065	555.75
414.442	567.27
414.819	586.26
415.197	576.54
415.574	563.66
415.951	581.06
416.328	599.14
416.705	608.63
417.082	605.46
417.46	596.42
417.837	622.41
418.214	631.68
418.591	635.52
418.967	628.06
419.344	621.28
419.721	649.08
420.098	638.01
420.475	659.25
420.852	681.39
421.228	669.64
421.605	669.87
421.982	704.67
422.358	699.02
422.735	718.68
423.111	708.96
423.488	733.6
423.864	742.64
424.241	753.26
424.617	763.88
424.994	764.56
425.37	759.81
425.746	777.44
426.123	786.7
426.499	773.82
426.875	799.81
427.251	806.59
427.627	828.06
428.003	839.81
428.379	831.67
428.756	840.26
429.132	831
429.507	866.93
429.883	884.78
430.259	871.22
430.635	876.87
431.011	918.9
431.387	932.69
431.763	947.15
432.138	922.07
432.514	962.74
432.89	947.38
433.265	999.58
433.641	1008.62
434.016	1001.16
434.392	1033.25
434.767	1033.25
435.143	1047.03
435.518	1051.33
435.894	1084.77
436.269	1099.01
436.644	1110.76
437.02	1114.15
437.395	1139.69
437.77	1139.91
438.145	1152.34
438.52	1169.74
438.895	1205
439.271	1172.68
439.646	1212.68
440.021	1261.72
440.395	1229.4
440.77	1235.05
441.145	1267.59
441.52	1287.48
441.895	1299.23
442.27	1289.51
442.645	1315.05
443.019	1336.74
443.394	1334.03
443.769	1363.18
444.143	1352.79
444.518	1367.7
444.892	1376.97
445.267	1423.75
445.641	1394.82
446.016	1396.4
446.39	1427.59
446.764	1443.86
447.139	1434.6
447.513	1447.7
447.887	1446.35
448.262	1477.76
448.636	1464.2
449.01	1501.71
449.384	1496.97
449.758	1508.04
450.132	1535.84
450.506	1538.77
450.88	1523.63
451.254	1547.59
451.628	1573.12
452.002	1588.94
452.376	1604.31
452.75	1608.38
453.123	1583.97
453.497	1631.2
453.871	1667.81
454.244	1698.99
454.618	1706.9
454.992	1704.64
455.365	1722.27
455.739	1766.56
456.112	1741.25
456.486	1770.18
456.859	1791.42
457.232	1797.3
457.606	1827.13
457.979	1849.05
458.352	1877.75
458.725	1920.23
459.099	1901.7
459.472	1925.43
459.845	1963.85
460.218	1983.51
460.591	2016.95
460.964	1977.86
461.337	2034.81
461.71	2055.82
462.083	2086.56
462.456	2081.13
462.829	2084.75
463.201	2140.34
463.574	2137.63
463.947	2202.94
464.32	2209.72
464.692	2226.89
465.065	2250.84
465.438	2257.62
465.81	2265.31
466.183	2312.54
466.555	2368.36
466.928	2401.35
467.3	2386.66
467.672	2418.75
468.045	2465.3
468.417	2479.99
468.789	2531.29
469.161	2533.78
469.534	2571.06
469.906	2632.3
470.278	2621.23
470.65	2673.21
471.022	2664.85
471.394	2765.18
471.766	2740.78
472.138	2775.35
472.51	2835.91
472.882	2863.03
473.253	2920.21
473.625	2944.16
473.997	2965.85
474.369	3004.05
474.74	3049.92
475.112	3068.9
475.484	3106.42
475.855	3200.65
476.227	3216.02
476.598	3311.83
476.97	3309.8
477.341	3376.92
477.713	3388.67
478.084	3425.73
478.455	3537.82
478.827	3571.49
479.198	3634.31
479.569	3630.02
479.94	3699.17
480.311	3776
480.682	3823.46
481.053	3896.68
481.424	3951.82
481.795	3981.19
482.166	4040.4
482.537	4074.3
482.908	4173.96
483.279	4191.13
483.65	4218.02
484.021	4304.8
484.391	4378.47
484.762	4432.71
485.133	4428.64
485.503	4493.5
485.874	4545.93
486.244	4594.06
486.615	4680.61
486.985	4715.19
487.356	4816.88
487.726	4856.88
488.097	4970.1
488.467	4933.94
488.837	4970.32
489.207	5101.39
489.578	5120.37
489.948	5201.73
490.318	5244.66
490.688	5260.03
491.058	5295.51
491.428	5420.25
491.798	5446.24
492.168	5498.44
492.538	5484.88
492.908	5648.72
493.278	5657.31
493.648	5671.09
494.017	5762.39
494.387	5809.17
494.757	5868.38
495.126	5849.62
495.496	5850.75
495.866	5902.73
496.235	5950.18
496.605	6014.36
496.974	6049.61
497.344	6056.62
497.713	6100.01
498.082	6106.11
498.452	6216.39
498.821	6199.67
499.19	6261.81
499.559	6280.8
499.928	6281.02
500.298	6331.64
500.667	6354.24
501.036	6366.44
501.405	6449.38
501.774	6443.73
502.143	6498.64
502.512	6499.77
502.88	6591.75
503.249	6532.77
503.618	6548.13
503.987	6614.57
504.356	6668.58
504.724	6690.5
505.093	6690.05
505.462	6739.99
505.83	6714.23
506.199	6817.05
506.567	6860.67
506.936	6810.95
507.304	6897.73
507.672	6918.52
508.041	6957.16
508.409	6966.43
508.777	7041
509.145	7043.04
509.514	7028.35
509.882	7076.03
510.25	7028.35
510.618	7085.75
510.986	7158.51
511.354	7160.77
511.722	7256.36
512.09	7225.4
512.458	7210.04
512.826	7272.63
513.193	7311.5
513.561	7375.68
513.929	7360.54
514.297	7385.63
514.664	7447.09
515.032	7408.22
515.4	7466.75
515.767	7482.8
516.135	7482.57
516.502	7431.73
516.869	7620.65
517.237	7523.02
517.604	7542.46
517.972	7584.26
518.339	7582.91
518.706	7662.23
519.073	7634.43
519.44	7667.65
519.808	7720.76
520.175	7762.11
520.542	7753.98
520.909	7782.9
521.276	7800.76
521.643	7813.86
522.009	7877.14
522.376	7892.73
522.743	7866.97
523.11	7931.37
523.477	8056.12
523.843	8023.35
524.21	8052.95
524.577	8090.92
524.943	8095.66
525.31	8160.52
525.676	8206.85
526.043	8130.69
526.409	8220.63
526.776	8217.24
527.142	8278.26
527.508	8306.96
527.874	8250.01
528.241	8279.39
528.607	8238.48
528.973	8370.23
529.339	8317.35
529.705	8363.9
530.071	8411.36
530.437	8365.26
530.803	8391.47
531.169	8403.9
531.535	8391.02
531.901	8426.5
532.267	8421.08
532.632	8414.75
532.998	8454.98
533.364	8474.86
533.73	8488.65
534.095	8519.38
534.461	8518.7
534.826	8503.34
535.192	8549.66
535.557	8596.89
535.923	8532.49
536.288	8587.63
536.653	8552.83
537.019	8501.53
537.384	8528.65
537.749	8537.91
538.114	8536.33
538.479	8458.14
538.845	8532.71
539.21	8527.52
539.575	8515.09
539.94	8508.99
540.305	8583.79
540.67	8521.64
541.034	8510.12
541.399	8535.43
541.764	8518.48
542.129	8543.33
542.494	8463.56
542.858	8522.09
543.223	8475.77
543.587	8552.15
543.952	8518.93
544.316	8537.23
544.681	8527.06
545.045	8527.06
545.41	8609.32
545.774	8551.24
546.138	8502.88
546.503	8523.67
546.867	8527.52
547.231	8590.34
547.595	8524.13
547.959	8508.99
548.324	8508.99
548.688	8448.42
549.052	8546.95
549.416	8465.37
549.779	8479.83
550.143	8542.88
550.507	8571.13
550.871	8511.47
551.235	8482.32
551.599	8553.96
551.962	8514.63
552.326	8508.31
552.689	8551.02
553.053	8480.74
553.417	8497.69
553.78	8587.18
554.143	8496.78
554.507	8531.58
554.87	8526.16
555.234	8582.66
555.597	8534.52
555.96	8599.6
556.323	8544.92
556.686	8567.74
557.05	8609.1
557.413	8596.21
557.776	8547.4
558.139	8624.01
558.502	8589.21
558.865	8662.43
559.228	8660.62
559.59	8622.65
559.953	8672.82
560.316	8731.8
560.679	8775.19
561.041	8779.03
561.404	8775.19
561.767	8783.55
562.129	8774.74
562.492	8867.17
562.854	8792.59
563.217	8770.9
563.579	8829.88
563.941	8881.4
564.304	8890.44
564.666	8940.61
565.028	8875.3
565.39	8948.3
565.753	9010.44
566.115	9047.95
566.477	9073.04
566.839	9034.17
567.201	9106.26
567.563	9032.14
567.925	9110.33
568.287	9134.05
568.648	9147.61
569.01	9172.24
569.372	9178.57
569.734	9207.72
570.095	9241.17
570.457	9291.79
570.819	9292.47
571.18	9305.8
571.542	9275.97
571.903	9281.85
572.265	9374.5
572.626	9410.88
572.987	9429.64
573.349	9428.96
573.71	9439.13
574.071	9414.05
574.432	9569.07
574.794	9561.61
575.155	9520.26
575.516	9541.27
575.877	9577.88
576.238	9535.85
576.599	9612.23
576.96	9634.61
577.32	9634.38
577.681	9682.06
578.042	9688.16
578.403	9619.46
578.763	9737.88
579.124	9732.23
579.485	9757.99
579.845	9796.64
580.206	9796.86
580.566	9759.12
580.927	9862.4
581.287	9845.9
581.648	9848.16
582.008	9832.79
582.368	9847.93
582.728	9913.47
583.089	9872.34
583.449	9849.52
583.809	9891.77
584.169	9890.64
584.529	9943.75
584.889	9949.4
585.249	9956.4
585.609	10003.64
585.969	10010.41
586.329	9943.3
586.688	10023.07
587.048	9991.88
587.408	9981.49
587.768	9995.73
588.127	10016.97
588.487	9990.98
588.846	9959.79
589.206	10073.69
589.565	10011.09
589.925	10063.75
590.284	10019.91
590.643	10031.66
591.003	10040.24
591.362	10076.4
591.721	10035.05
592.08	10060.58
592.44	10134.71
592.799	10161.82
593.158	10109.85
593.517	10142.39
593.876	10166.57
594.235	10020.13
594.593	10121.37
594.952	10217.64
595.311	10112.56
595.67	10131.54
596.029	10217.87
596.387	10184.65
596.746	10213.8
597.104	10221.93
597.463	10166.79
597.822	10230.75
598.18	10093.35
598.538	10189.85
598.897	10213.57
599.255	10160.24
599.613	10331.76
599.972	10213.57
600.33	10275.49
600.688	10247.24
601.046	10283.18
601.404	10254.25
601.762	10247.24
602.12	10202.5
602.478	10338.99
602.836	10343.74
603.194	10259
603.552	10277.07
603.91	10249.5
604.268	10273.01
604.625	10266.91
604.983	10330.63
605.341	10288.83
605.698	10367.02
606.056	10402.72
606.413	10315.27
606.771	10322.5
607.128	10375.83
607.485	10390.29
607.843	10263.74
608.2	10361.82
608.557	10381.25
608.914	10363.17
609.272	10436.39
609.629	10442.72
609.986	10506.22
610.343	10407.24
610.7	10482.27
611.057	10434.13
611.414	10489.72
611.771	10472.78
612.127	10515.03
612.484	10514.81
612.841	10539.67
613.198	10534.47
613.554	10518.42
613.911	10616.05
614.267	10547.8
614.624	10539.21
614.98	10575.82
615.337	10541.7
615.693	10630.29
616.05	10618.08
616.406	10646.56
616.762	10562.94
617.118	10636.16
617.475	10579.67
617.831	10580.8
618.187	10653.11
618.543	10670.28
618.899	10724.07
619.255	10658.99
619.611	10624.86
619.967	10760
620.323	10706.89
620.678	10692.66
621.034	10708.48
621.39	10643.84
621.746	10672.77
622.101	10812.65
622.457	10700.34
622.812	10711.64
623.168	10716.38
623.523	10727.23
623.879	10710.96
624.234	10713
624.589	10646.1
624.945	10723.39
625.3	10720.68
625.655	10698.31
626.01	10693.33
626.365	10724.07
626.72	10651.53
627.075	10714.35
627.43	10701.92
627.785	10684.3
628.14	10696.72
628.495	10713.9
628.85	10677.29
629.205	10665.31
629.559	10758.64
629.914	10619.66
630.269	10646.1
630.623	10625.77
630.978	10607.24
631.332	10539.21
631.687	10627.35
632.041	10585.31
632.396	10603.85
632.75	10549.61
633.104	10513.68
633.459	10519.78
633.813	10505.32
634.167	10489.95
634.521	10522.49
634.875	10503.51
635.229	10579.21
635.583	10409.95
635.937	10428.26
636.291	10383.29
636.645	10499.44
636.999	10461.02
637.352	10453.57
637.706	10422.61
638.06	10420.35
638.413	10308.03
638.767	10400.01
639.121	10352.55
639.474	10284.31
639.828	10287.47
640.181	10328.37
640.534	10295.83
640.888	10291.99
641.241	10227.13
641.594	10242.05
641.947	10266.23
642.301	10303.06
642.654	10269.17
643.007	10254.02
643.36	10185.55
643.713	10157.76
644.066	10235.95
644.419	10171.99
644.771	10070.53
645.124	9992.34
645.477	10092.9
645.83	10012
646.182	9932
646.535	9863.3
646.888	9978.55
647.24	9802.51
647.593	9916.18
647.945	9811.55
648.298	9797.09
648.65	9730.87
649.002	9792.79
649.355	9820.36
649.707	9812.23
650.059	9823.98
650.411	9964.54
650.763	9948.27
651.115	10046.35
651.467	9989.62
651.819	9993.47
652.171	10011.54
652.523	10025.56
652.875	10005.22
653.227	9955.5
653.578	9976.07
653.93	9993.24
654.282	9937.42
654.633	9919.8
654.985	9955.73
655.337	9985.33
655.688	9962.05
656.039	10037.31
656.391	9924.77
656.742	9939.46
657.094	9932.22
657.445	9944.65
657.796	9955.95
658.147	9990.75
658.498	9928.38
658.849	9956.86
659.2	9943.07
659.551	9919.8
659.902	9982.17
660.253	9945.33
660.604	10007.93
660.955	9913.02
661.306	9977.42
661.656	9921.83
662.007	9948.27
662.358	9907.37
662.708	9966.8
663.059	9965.44
663.409	9859.91
663.76	9914.15
664.11	9950.53
664.461	9944.2
664.811	9899.68
665.161	9922.96
665.511	9900.14
665.862	9974.71
666.212	9866.01
666.562	10000.7
666.912	9970.64
667.262	9893.13
667.612	9946.46
667.962	9970.87
668.312	9930.64
668.662	9903.07
669.011	9951.89
669.361	9878.89
669.711	9913.92
670.06	9896.29
670.41	9866.24
670.76	9850.64
671.109	9922.06
671.459	9821.95
671.808	9861.04
672.157	9823.75
672.507	9819.46
672.856	9783.3
673.205	9788.95
673.554	9833.92
673.904	9789.63
674.253	9902.39
674.602	9834.83
674.951	9725.45
675.3	9649.07
675.649	9771.78
675.998	9838.89
676.346	9764.77
676.695	9769.29
677.044	9708.5
677.393	9813.58
677.741	9787.82
678.09	9739.01
678.438	9738.56
678.787	9723.19
679.135	9690.65
679.484	9683.42
679.832	9676.86
680.181	9683.19
680.529	9583.53
680.877	9596.64
681.225	9577.66
681.573	9626.02
681.922	9550.99
682.27	9573.59
682.618	9576.75
682.966	9605.45
683.314	9552.12
683.661	9521.61
684.009	9439.81
684.357	9409.3
684.705	9406.14
685.053	9421.28
685.4	9362.07
685.748	9374.95
686.095	9352.58
686.443	9296.99
686.79	9337.66
687.138	9339.92
687.485	9293.15
687.832	9246.14
688.18	9241.85
688.527	9209.08
688.874	9208.63
689.221	9169.53
689.568	9152.36
689.915	9115.75
690.262	9092.25
690.609	9139.93
690.956	9029.2
691.303	8992.36
691.65	8937
691.997	8971.57
692.344	8970.44
692.69	8927.73
693.037	8912.59
693.383	8868.52
693.73	8834.17
694.077	8834.63
694.423	8760.73
694.769	8766.83
695.116	8678.47
695.462	8727.74
695.808	8675.53
696.155	8659.26
696.501	8621.75
696.847	8634.41
697.193	8574.97
697.539	8594.41
697.885	8467.63
698.231	8511.7
698.577	8485.03
698.923	8481.64
699.269	8358.25
699.614	8363.9
699.96	8333.62
700.306	8360.74
700.651	8319.16
700.997	8298.82
701.342	8287.3
701.688	8215.66
702.033	8202.55
702.379	8180.18
702.724	8199.39
703.069	8149.45
703.415	8114.19
703.76	8057.02
704.105	8074.19
704.45	8072.16
704.795	8060.18
705.14	7952.16
705.485	7929.34
705.83	7906.29
706.175	7950.58
706.52	7879.17
706.865	7901.09
707.209	7931.15
707.554	7807.53
707.899	7846.4
708.243	7844.37
708.588	7768.89
708.932	7740.19
709.277	7726.86
709.621	7756.24
709.966	7703.81
710.31	7710.14
710.654	7620.87
710.998	7589.01
711.342	7617.94
711.687	7642.12
712.031	7637.82
712.375	7554.21
712.719	7533.42
713.063	7589.46
713.407	7613.64
713.75	7493.42
714.094	7490.03
714.438	7488
714.782	7525.73
715.125	7417.94
715.469	7432.63
715.812	7393.76
716.156	7374.55
716.499	7343.59
716.843	7367.09
717.186	7306.98
717.53	7351.95
717.873	7382.46
718.216	7353.31
718.559	7321.45
718.902	7279.87
719.246	7272.63
719.589	7216.59
719.932	7179.98
720.275	7226.31
720.617	7270.83
720.96	7236.25
721.303	7149.92
721.646	7234.67
721.989	7155.57
722.331	7215.46
722.674	7177.04
723.016	7183.82
723.359	7193.99
723.701	7147.89
724.044	7103.15
724.386	7117.16
724.729	7130.04
725.071	7172.07
725.413	7136.14
725.755	7099.76
726.097	7083.94
726.439	7047.55
726.782	7088.91
727.124	7034
727.465	7062.92
727.807	7045.52
728.149	7014.56
728.491	6987.67
728.833	7035.35
729.175	7010.49
729.516	6995.35
729.858	7048.91
730.199	6987.22
730.541	6955.58
730.882	7022.02
731.224	6926.65
731.565	6966.88
731.906	6955.35
732.248	6965.98
732.589	6957.84
732.93	6949.48
733.271	6943.15
733.612	6916.48
733.953	6962.59
734.294	6925.52
734.635	6937.95
734.976	6908.35
735.317	6949.93
735.658	6919.65
735.999	6918.07
736.339	6907.67
736.68	6936.82
737.021	6895.69
737.361	6953.09
737.702	6984.05
738.042	6955.81
738.383	6925.3
738.723	6920.1
739.063	6869.93
739.404	6942.47
739.744	6964.85
740.084	6890.72
740.424	6928.24
740.764	6978.18
741.104	7005.3
741.444	6891.63
741.784	6917.39
742.124	6937.05
742.464	6977.95
742.804	6939.08
743.143	6930.72
743.483	7018.4
743.823	6989.03
744.162	6973.88
744.502	6998.06
744.841	7045.97
745.181	7064.5
745.52	7096.82
745.86	7053.66
746.199	7065.86
746.538	7052.07
746.877	7152.86
747.216	7176.36
747.556	7154.22
747.895	7229.92
748.234	7219.98
748.573	7271.5
748.911	7281.67
749.25	7350.6
749.589	7334.55
749.928	7309.69
750.267	7438.96
750.605	7400.09
750.944	7485.74
751.283	7548.11
751.621	7616.35
751.96	7630.14
752.298	7687.99
752.636	7726.18
752.975	7765.05
753.313	7804.6
753.651	7893.63
753.989	7959.62
754.327	8017.25
754.666	8026.74
755.004	8068.54
755.342	8203.91
755.679	8223.34
756.017	8350.35
756.355	8492.71
756.693	8450.91
757.031	8624.69
757.368	8599.15
757.706	8701.52
758.044	8736.55
758.381	8922.99
758.719	8925.7
759.056	9009.31
759.394	9070.78
759.731	9165.24
760.068	9259.47
760.405	9327.49
760.743	9423.09
761.08	9548.05
761.417	9670.08
761.754	9666.02
762.091	9750.53
762.428	9895.84
762.765	9936.52
763.102	10138.1
763.438	10145.1
763.775	10177.42
764.112	10313.23
764.449	10474.81
764.785	10477.75
765.122	10545.54
765.458	10583.06
765.795	10619.66
766.131	10669.61
766.467	10793.67
766.804	10830.51
767.14	10946.66
767.476	10990.73
767.812	11055.59
768.148	11127.67
768.485	11130.39
768.821	11141.46
769.157	11234.79
769.492	11388.23
769.828	11425.52
770.164	11334.67
770.5	11461.22
770.836	11440.43
771.171	11539.19
771.507	11585.51
771.842	11550.26
772.178	11668.22
772.513	11600.2
772.849	11695.79
773.184	11758.84
773.519	11727.88
773.855	11699.64
774.19	11756.81
774.525	11808.11
774.86	11848.33
775.195	11896.24
775.53	11895.56
775.865	11889.46
776.2	11845.62
776.535	11860.08
776.87	11865.28
777.205	11913.64
777.539	11933.3
777.874	11925.84
778.209	11884.94
778.543	11853.53
778.878	11911.61
779.212	11922
779.547	11863.47
779.881	11942.12
780.215	11893.08
780.55	11967.88
780.884	11829.12
781.218	11864.38
781.552	11857.15
781.886	11872.96
782.22	11887.65
782.554	11835.9
782.888	11823.7
783.222	11804.94
783.556	11750.26
783.889	11803.36
784.223	11711.16
784.557	11647.89
784.89	11713.19
785.224	11628.23
785.557	11661.9
785.891	11667.77
786.224	11582.35
786.558	11646.3
786.891	11548.23
787.224	11549.81
787.557	11508.91
787.891	11522.47
788.224	11490.83
788.557	11500.09
788.89	11451.05
789.223	11526.08
789.556	11432.3
789.888	11452.41
790.221	11365.18
790.554	11263.94
790.887	11314.34
791.219	11312.3
791.552	11303.49
791.884	11256.48
792.217	11239.31
792.549	11203.6
792.882	11141.91
793.214	11121.35
793.546	11171.06
793.879	11100.56
794.211	11024.63
794.543	11112.08
794.875	11109.37
795.207	11074.57
795.539	11043.16
795.871	11030.95
796.203	10930.39
796.535	10810.62
796.867	10890.62
797.198	10887.91
797.53	10892.88
797.862	10772.43
798.193	10819.43
798.525	10734.69
798.856	10743.95
799.188	10728.36
799.519	10688.36
799.85	10526.79
800.182	10667.12
800.513	10531.76
800.844	10539.44
801.175	10575.37
801.506	10571.53
801.837	10518.88
802.168	10454.7
802.499	10456.05
802.83	10447.01
803.161	10394.13
803.491	10438.2
803.822	10362.5
804.153	10314.59
804.483	10272.78
804.814	10214.03
805.145	10212.9
805.475	10176.29
805.805	10100.58
806.136	10222.61
806.466	10151.88
806.796	10156.85
807.126	10082.73
807.457	10043.86
807.787	10086.34
808.117	10056.74
808.447	9974.48
808.777	10043.18
809.107	9990.08
809.436	10001.6
809.766	9963.86
810.096	9864.2
810.426	9851.1
810.755	9944.88
811.085	9808.61
811.414	9870.53
811.744	9737.2
812.073	9756.86
812.403	9762.06
812.732	9619.46
813.061	9730.87
813.39	9614.49
813.719	9620.59
814.049	9663.31
814.378	9591.44
814.707	9552.8
815.036	9565.45
815.365	9508.28
815.693	9446.81
816.022	9446.81
816.351	9458.56
816.68	9468.73
817.008	9464.44
817.337	9327.49
817.665	9330.88
817.994	9443.88
818.322	9356.65
818.651	9292.92
818.979	9311.22
819.307	9324.33
819.636	9380.6
819.964	9238.91
820.292	9320.72
820.62	9313.03
820.948	9264.67
821.276	9292.69
821.604	9239.59
821.932	9227.84
822.259	9262.86
822.587	9237.33
822.915	9220.83
823.243	9239.81
823.57	9146.93
823.898	9208.63
824.225	9169.53
824.553	9175.41
824.88	9197.1
825.207	9250.66
825.535	9223.09
825.862	9330.88
826.189	9214.5
826.516	9261.51
826.843	9178.57
827.17	9211.11
827.497	9317.78
827.824	9272.36
828.151	9248.63
828.478	9216.54
828.805	9303.54
829.131	9247.95
829.458	9180.38
829.785	9250.89
830.111	9292.24
830.438	9302.41
830.764	9267.16
831.09	9289.3
831.417	9144
831.743	9245.46
832.069	9239.81
832.395	9136.77
832.722	9227.16
833.048	9213.37
833.374	9194.84
833.7	9158.69
834.026	9160.04
834.351	9236.2
834.677	9228.97
835.003	9256.54
835.329	9149.19
835.654	9172.7
835.98	9182.64
836.306	9125.01
836.631	9116.65
836.956	9157.1
837.282	9167.27
837.607	9022.19
837.932	9061.06
838.258	9088.86
838.583	9067.16
838.908	9022.64
839.233	9063.1
839.558	9012.25
839.883	8968.63
840.208	9007.5
840.533	8958.24
840.858	8887.28
841.182	8929.09
841.507	8905.36
841.832	8875.08
842.156	8861.52
842.481	8823.1
842.805	8824.91
843.13	8792.37
843.454	8793.72
843.778	8741.97
844.103	8687.96
844.427	8741.75
844.751	8765.93
845.075	8690.22
845.399	8673.95
845.723	8640.96
846.047	8623.11
846.371	8545.82
846.695	8620.17
847.019	8546.05
847.343	8481.19
847.666	8484.13
847.99	8391.25
848.313	8438.93
848.637	8339.27
848.96	8363.23
849.284	8336.79
849.607	8293.62
849.931	8245.72
850.254	8230.35
850.577	8188.32
850.9	8108.54
851.223	8068.09
851.546	8074.42
851.869	8007.53
852.192	8018.83
852.515	7998.94
852.838	7968.43
853.161	7939.06
853.483	7889.79
853.806	7825.39
854.129	7928.66
854.451	7866.97
854.774	7804.6
855.096	7789
855.419	7752.85
855.741	7783.13
856.063	7724.15
856.385	7701.1
856.708	7663.58
857.03	7632.85
857.352	7589.69
857.674	7593.08
857.996	7572.06
858.318	7498.16
858.64	7569.12
858.961	7514.21
859.283	7493.19
859.605	7483.25
859.926	7456.36
860.248	7403.93
860.57	7431.5
860.891	7453.19
861.212	7349.02
861.534	7367.32
861.855	7357.6
862.176	7327.32
862.498	7326.64
862.819	7342.01
863.14	7333.42
863.461	7280.99
863.782	7276.93
864.103	7263.59
864.424	7230.37
864.745	7243.26
865.065	7217.72
865.386	7168.46
865.707	7198.06
866.027	7241.45
866.348	7172.75
866.668	7122.13
866.989	7146.54
867.309	7122.36
867.63	7164.39
867.95	7130.72
868.27	7096.14
868.59	7096.37
868.91	7103.82
869.23	7059.76
869.55	7015.01
869.87	7084.84
870.19	7019.76
870.51	7010.95
870.83	7021.34
871.15	7010.72
871.469	7013.21
871.789	7038.74
872.109	6962.36
872.428	6942.25
872.748	6968.01
873.067	6982.7
873.386	6927.11
873.706	6977.05
874.025	6827.45
874.344	6890.5
874.663	6853.89
874.982	6865.86
875.301	6822.48
875.62	6858.41
875.939	6799.65
876.258	6824.51
876.577	6803.04
876.896	6831.52
877.214	6819.99
877.533	6819.31
877.852	6800.1
878.17	6765.53
878.489	6754.23
878.807	6737.28
879.125	6740.22
879.444	6755.59
879.762	6708.81
880.08	6779.99
880.398	6676.72
880.716	6662.93
881.034	6632.88
881.352	6681.91
881.67	6642.82
881.988	6687.79
882.306	6589.94
882.624	6592.88
882.941	6571.41
883.259	6515.82
883.577	6575.93
883.894	6561.47
884.212	6561.24
884.529	6497.96
884.846	6563.73
885.164	6505.87
885.481	6447.8
885.798	6470.39
886.115	6399.89
886.432	6426.55
886.75	6369.15
887.067	6443.73
887.383	6359.44
887.7	6429.04
888.017	6369.38
888.334	6391.53
888.651	6338.65
888.967	6331.87
889.284	6281.25
889.6	6295.26
889.917	6250.06
890.233	6177.97
890.55	6177.75
890.866	6224.98
891.182	6177.3
891.498	6138.88
891.815	6152.66
892.131	6179.1
892.447	6061.82
892.763	6092.78
893.079	6058.88
893.395	6074.93
893.71	6051.87
894.026	6046.45
894.342	6025.43
894.657	6004.64
894.973	5944.98
895.289	5990.86
895.604	5954.7
895.92	5888.26
896.235	5850.75
896.55	5902.27
896.865	5895.04
897.181	5837.42
897.496	5843.97
897.811	5808.04
898.126	5747.48
898.441	5741.37
898.756	5716.97
899.071	5686.69
899.386	5740.24
899.7	5647.59
900.015	5707.93
900.33	5605.33
900.644	5601.49
900.959	5662.51
901.273	5652.56
901.588	5587.48
901.902	5539.12
902.216	5521.04
902.531	5527.37
902.845	5512.45
903.159	5488.27
903.473	5472.45
903.787	5447.6
904.101	5430.2
904.415	5387.03
904.729	5355.17
905.042	5334.15
905.356	5361.27
905.67	5335.28
905.984	5296.41
906.297	5255.74
906.611	5261.16
906.924	5262.74
907.237	5258.9
907.551	5221.61
907.864	5220.94
908.177	5204.67
908.491	5220.71
908.804	5115.85
909.117	5092.35
909.43	5116.31
909.743	5037.66
910.056	5088.96
910.368	5002.64
910.681	4973.26
910.994	5000.83
911.307	4979.81
911.619	4972.81
911.932	4928.97
912.244	4945.92
912.557	4912.02
912.869	4880.61
913.181	4881.51
913.494	4868.18
913.806	4825.01
914.118	4830.21
914.43	4780.27
914.742	4789.76
915.054	4776.43
915.366	4756.99
915.678	4698.46
915.99	4696.2
916.302	4672.48
916.613	4660.27
916.925	4659.14
917.236	4654.17
917.548	4604
917.859	4604.68
918.171	4565.59
918.482	4536.89
918.794	4535.98
919.105	4558.58
919.416	4501.86
919.727	4452.82
920.038	4415.53
920.349	4411.69
920.66	4431.13
920.971	4431.35
921.282	4428.19
921.593	4402.2
921.903	4341.64
922.214	4288.98
922.525	4321.3
922.835	4297.57
923.146	4281.53
923.456	4281.75
923.767	4243.56
924.077	4251.02
924.387	4252.37
924.697	4223.9
925.008	4174.86
925.318	4191.36
925.628	4144.58
925.938	4131.25
926.248	4120.4
926.558	4071.36
926.867	4128.54
927.177	4068.88
927.487	4038.37
927.796	4037.46
928.106	4020.06
928.416	4034.75
928.725	3997.01
929.034	4008.54
929.344	3975.09
929.653	3938.26
929.962	3907.07
930.271	3906.17
930.581	3900.74
930.89	3864.59
931.199	3857.13
931.508	3839.28
931.817	3818.49
932.125	3832.27
932.434	3848.32
932.743	3824.81
933.051	3797.92
933.36	3747.3
933.669	3744.59
933.977	3731.48
934.286	3727.42
934.594	3708.66
934.902	3695.33
935.21	3722.9
935.519	3669.79
935.827	3644.93
936.135	3626.18
936.443	3605.39
936.751	3565.84
937.059	3567.65
937.367	3571.49
937.674	3605.39
937.982	3568.55
938.29	3489.23
938.597	3556.57
938.905	3488.33
939.213	3494.65
939.52	3428.21
939.827	3480.64
940.135	3446.07
940.442	3427.99
940.749	3437.71
941.056	3453.98
941.363	3398.16
941.67	3363.58
941.977	3345.05
942.284	3369.91
942.591	3347.99
942.898	3344.6
943.205	3323.13
943.511	3298.5
943.818	3272.06
944.125	3235.68
944.431	3251.72
944.738	3296.24
945.044	3265.96
945.35	3189.58
945.657	3182.57
945.963	3174.21
946.269	3175.11
946.575	3192.29
946.881	3163.14
947.187	3152.74
947.493	3108.22
947.799	3120.2
948.105	3055.8
948.41	3095.12
948.716	3079.3
949.022	3042.91
949.327	3034.78
949.633	3019.19
949.938	3013.99
950.244	3022.58
950.549	3000.43
950.854	2966.53
951.16	2962.46
951.465	2962.01
951.77	2928.34
952.075	2938.51
952.38	2920.88
952.685	2934.67
952.99	2903.03
953.294	2912.3
953.599	2916.36
953.904	2882.47
954.209	2860.09
954.513	2825.29
954.818	2852.64
955.122	2823.03
955.426	2788.46
955.731	2802.47
956.035	2785.29
956.339	2783.26
956.643	2773.77
956.948	2769.25
957.252	2712.53
957.556	2683.38
957.86	2727.22
958.163	2709.14
958.467	2689.93
958.771	2658.52
959.075	2665.75
959.378	2649.03
959.682	2689.03
959.985	2630.5
960.289	2618.97
960.592	2604.06
960.896	2601.8
961.199	2582.81
961.502	2604.73
961.805	2583.04
962.108	2560.67
962.411	2558.63
962.714	2555.24
963.017	2555.24
963.32	2543.49
963.623	2497.84
963.926	2518.63
964.228	2509.82
964.531	2508.01
964.833	2512.76
965.136	2453.1
965.438	2471.4
965.741	2454.23
966.043	2453.55
966.345	2401.58
966.648	2450.16
966.95	2418.3
967.252	2371.07
967.554	2403.38
967.856	2363.84
968.158	2355.93
968.46	2361.35
968.761	2339.43
969.063	2320
969.365	2344.18
969.666	2354.34
969.968	2289.94
970.269	2307.34
970.571	2297.4
970.872	2310.73
971.174	2279.54
971.475	2250.84
971.776	2272.31
972.077	2263.05
972.378	2263.73
972.679	2231.41
972.98	2203.16
973.281	2221.47
973.582	2179.89
973.883	2201.81
974.183	2175.59
974.484	2176.04
974.785	2190.06
975.085	2193.45
975.386	2164.52
975.686	2177.85
975.986	2127.46
976.287	2162.71
976.587	2141.7
976.887	2117.74
977.187	2137.4
977.487	2099.44
977.787	2073
978.087	2077.74
978.387	2080.91
978.687	2015.14
978.987	2089.27
979.286	2056.27
979.586	2059.44
979.885	2027.8
980.185	2020.34
980.484	2024.86
980.784	1999.78
981.083	2003.85
981.382	2000.46
981.682	1970.4
981.981	1973.11
982.28	1957.07
982.579	1946.67
982.878	1961.13
983.177	1908.71
983.475	1889.5
983.774	1908.71
984.073	1916.16
984.372	1880.69
984.67	1909.61
984.969	1888.82
985.267	1922.27
985.566	1853.34
985.864	1847.47
986.162	1852.66
986.461	1843.17
986.759	1873.68
987.057	1833.91
987.355	1809.27
987.653	1809.05
987.951	1772.21
988.249	1800.24
988.547	1789.84
988.844	1800.69
989.142	1771.54
989.44	1749.39
989.737	1774.93
990.035	1761.14
990.332	1708.03
990.63	1741.25
990.927	1692.44
991.224	1732.89
991.521	1720.46
991.819	1698.54
992.116	1700.12
992.413	1700.58
992.71	1705.32
993.006	1671.65
993.303	1651.09
993.6	1687.02
993.897	1641.14
994.193	1646.57
994.49	1634.59
994.787	1663.74
995.083	1626.91
995.379	1596.85
995.676	1607.47
995.972	1591.2
996.268	1587.81
996.565	1584.65
996.861	1588.04
997.157	1567.25
997.453	1595.49
997.749	1565.21
998.044	1520.47
998.34	1551.43
998.636	1556.4
998.932	1534.48
999.227	1523.63
999.523	1549.85
999.818	1511.2
1000.114	1490.86
1000.409	1478.21
1000.704	1503.75
1001	1462.62
1001.295	1452.22
1001.59	1474.14
1001.885	1478.66
1002.18	1462.39
1002.475	1453.58
1002.77	1436.85
1003.065	1426.23
1003.359	1416.52
1003.654	1431.21
1003.949	1416.97
1004.243	1405.44
1004.538	1384.2
1004.832	1398.21
1005.127	1412.22
1005.421	1383.97
1005.715	1353.47
1006.009	1336.29
1006.304	1339.46
1006.598	1376.07
1006.892	1330.42
1007.186	1333.58
1007.48	1344.88
1007.773	1317.31
1008.067	1310.53
1008.361	1312.79
1008.655	1304.2
1008.948	1280.25
1009.242	1307.37
1009.535	1294.03
1009.829	1282.73
1010.122	1262.17
1010.415	1273.92
1010.708	1296.07
1011.001	1270.08
1011.295	1228.72
1011.588	1245.67
1011.881	1243.64
1012.173	1203.64
1012.466	1219.01
1012.759	1232.79
1013.052	1201.38
1013.344	1202.28
1013.637	1219.01
1013.93	1176.07
1014.222	1192.34
1014.514	1161.16
1014.807	1168.39
1015.099	1157.09
1015.391	1144.43
1015.683	1148.95
1015.976	1161.38
1016.268	1139.24
1016.56	1129.52
1016.851	1104.89
1017.143	1108.5
1017.435	1118.9
1017.727	1088.39
1018.018	1090.88
1018.31	1099.46
1018.602	1075.06
1018.893	1092.01
1019.185	1067.15
1019.476	1060.37
1019.767	1067.6
1020.058	1079.12
1020.35	1054.49
1020.641	1035.06
1020.932	1039.13
1021.223	1010.65
1021.514	1032.35
1021.804	1018.33
1022.095	1020.14
1022.386	984.21
1022.677	995.06
1022.967	974.04
1023.258	982.63
1023.548	976.3
1023.839	961.16
1024.129	988.73
1024.419	967.26
1024.709	963.2
1025	959.35
1025.29	930.88
1025.58	970.2
1025.87	909.64
1026.16	910.32
1026.449	932.24
1026.739	937.88
1027.029	942.4
1027.319	906.93
1027.608	899.02
1027.898	920.26
1028.187	907.6
1028.477	889.07
1028.766	878.9
1029.055	882.07
1029.344	875.97
1029.634	867.6
1029.923	895.63
1030.212	877.55
1030.501	844.55
1030.79	846.59
1031.078	841.84
1031.367	835.29
1031.656	830.54
1031.945	826.93
1032.233	820.83
1032.522	830.54
1032.81	812.24
1033.099	789.41
1033.387	807.72
1033.675	806.81
1033.963	803.65
1034.251	788.74
1034.54	781.73
1034.828	782.86
1035.116	788.51
1035.403	783.99
1035.691	772.47
1035.979	768.4
1036.267	771.11
1036.554	773.14
1036.842	760.26
1037.129	762.3
1037.417	752.13
1037.704	770.43
1037.992	745.12
1038.279	739.02
1038.566	733.6
1038.853	733.6
1039.14	733.6
