Data from hue_130_FLMS001491_00038.txt Node
Date: Tue Feb 07 16:57:32 GMT 2017
User: dcchb
Spectrometer: FLMS00149
Trigger mode: 0
Integration Time (sec): 2.000000E-2
Scans to average: 10
Electric dark correction enabled: true
Nonlinearity correction enabled: false
Boxcar width: 0
XAxis mode: Wavelengths
Number of Pixels in Spectrum: 2048
>>>>>Begin Spectral Data<<<<<
341.393	-24.8
341.776	-24.8
342.16	-24.8
342.543	-72.71
342.927	-71.35
343.31	-72.03
343.693	-56.21
344.077	-91.01
344.46	-41.07
344.843	-49.66
345.226	-48.53
345.61	-47.4
345.993	-11.02
346.376	-5.59
346.759	0.28
347.142	11.58
347.525	36.44
347.908	58.59
348.291	77.12
348.674	120.96
349.057	117.57
349.44	138.81
349.823	135.19
350.206	152.14
350.588	208.19
350.971	210.22
351.354	246.38
351.737	240.28
352.119	244.34
352.502	275.53
352.884	262.42
353.267	261.97
353.65	298.81
354.032	306.04
354.414	298.13
354.797	308.3
355.179	313.49
355.562	329.54
355.944	320.95
356.326	329.99
356.709	344
357.091	342.19
357.473	331.12
357.855	341.97
358.238	326.6
358.62	341.97
359.002	355.08
359.384	338.13
359.766	333.83
360.148	330.9
360.53	335.19
360.912	328.86
361.294	353.49
361.676	338.58
362.057	349.2
362.439	324.34
362.821	320.95
363.203	329.99
363.584	328.86
363.966	313.49
364.348	321.4
364.729	316.66
365.111	329.09
365.493	302.42
365.874	313.95
366.256	314.4
366.637	302.65
367.019	324.12
367.4	327.73
367.781	323.44
368.163	301.52
368.544	329.31
368.925	323.44
369.306	330.9
369.688	331.35
370.069	332.48
370.45	332.25
370.831	324.34
371.212	313.72
371.593	313.49
371.974	303.78
372.355	350.1
372.736	318.69
373.117	299.26
373.498	324.34
373.879	308.75
374.26	319.14
374.641	312.14
375.021	326.15
375.402	321.63
375.783	327.96
376.163	329.54
376.544	318.69
376.925	336.09
377.305	319.14
377.686	320.05
378.066	336.54
378.447	321.4
378.827	322.31
379.208	327.05
379.588	313.04
379.968	335.19
380.349	332.48
380.729	338.35
381.109	320.73
381.489	346.26
381.87	330.9
382.25	331.8
382.63	336.77
383.01	347.17
383.39	330.22
383.77	343.32
384.15	352.59
384.53	348.75
384.91	346.94
385.29	349.43
385.67	350.33
386.049	355.3
386.429	345.36
386.809	337.67
387.189	358.92
387.568	343.55
387.948	361.4
388.328	349.65
388.707	352.59
389.087	327.73
389.466	350.33
389.846	355.98
390.225	366.37
390.605	369.09
390.984	356.66
391.363	350.33
391.743	387.16
392.122	373.15
392.501	369.76
392.881	364.34
393.26	374.28
393.639	377.9
394.018	388.97
394.397	376.32
394.776	379.26
395.155	372.48
395.534	372.48
395.913	386.04
396.292	384.45
396.671	378.58
397.05	405.02
397.429	382.65
397.808	406.15
398.186	390.33
398.565	392.14
398.944	395.3
399.323	397.11
399.701	408.86
400.08	392.81
400.458	400.27
400.837	399.14
401.215	411.57
401.594	399.82
401.972	400.5
402.351	409.76
402.729	427.39
403.107	404.57
403.486	435.98
403.864	420.61
404.242	397.79
404.62	414.73
404.999	412.02
405.377	424.9
405.755	419.93
406.133	440.27
406.511	423.77
406.889	431.68
407.267	447.95
407.645	456.99
408.023	439.82
408.401	454.51
408.779	447.05
409.156	459.93
409.534	445.02
409.912	452.02
410.29	459.25
410.667	460.16
411.045	444.34
411.422	472.81
411.8	460.61
412.178	474.17
412.555	466.94
412.933	474.62
413.31	483.66
413.687	495.41
414.065	500.16
414.442	484.34
414.819	474.85
415.197	494.51
415.574	486.82
415.951	496.99
416.328	513.04
416.705	507.84
417.082	522.53
417.46	511.46
417.837	524.34
418.214	525.69
418.591	529.08
418.967	557.1
419.344	516.65
419.721	518.91
420.098	532.47
420.475	534.28
420.852	543.77
421.228	548.74
421.605	565.01
421.982	539.25
422.358	557.56
422.735	568.4
423.111	541.74
423.488	562.98
423.864	570.21
424.241	590.32
424.617	560.04
424.994	573.83
425.37	605.01
425.746	584.67
426.123	591.91
426.499	583.09
426.875	601.17
427.251	610.44
427.627	612.92
428.003	595.52
428.379	598.68
428.756	629.64
429.132	631.9
429.507	648.63
429.883	634.62
430.259	653.15
430.635	656.99
431.011	664.67
431.387	671.45
431.763	666.71
432.138	678.91
432.514	668.29
432.89	684.56
433.265	703.31
433.641	701.73
434.016	703.09
434.392	709.64
434.767	725.24
435.143	730.21
435.518	726.82
435.894	728.17
436.269	765.46
436.644	720.04
437.02	738.57
437.395	727.49
437.77	740.6
438.145	780.6
438.52	775.18
438.895	784.89
439.271	786.7
439.646	785.8
440.021	805.23
440.395	790.77
440.77	811.79
441.145	825.57
441.52	815.4
441.895	810.43
442.27	851.56
442.645	830.32
443.019	838.45
443.394	843.42
443.769	830.32
444.143	834.16
444.518	850.66
444.892	862.86
445.267	859.69
445.641	890.43
446.016	870.77
446.39	887.26
446.764	880.71
447.139	906.7
447.513	885.23
447.887	877.55
448.262	932.46
448.636	924.33
449.01	920.03
449.384	927.04
449.758	947.6
450.132	941.5
450.506	919.58
450.88	960.03
451.254	953.7
451.628	958.68
452.002	955.06
452.376	975.17
452.75	985.34
453.123	1009.3
453.497	1002.29
453.871	1004.32
454.244	1029.86
454.618	1034.15
454.992	1030.76
455.365	1059.24
455.739	1081.38
456.112	1085.68
456.486	1110.54
456.859	1143.3
457.232	1112.8
457.606	1120.93
457.979	1161.83
458.352	1171.33
458.725	1187.14
459.099	1191.66
459.472	1230.76
459.845	1200.7
460.218	1204.54
460.591	1235.05
460.964	1261.04
461.337	1276.86
461.71	1316.63
462.083	1299.46
462.456	1318.21
462.829	1317.31
463.201	1339.46
463.574	1365.9
463.947	1384.2
464.32	1419.45
464.692	1450.19
465.065	1448.15
465.438	1428.27
465.81	1479.34
466.183	1500.58
466.555	1554.14
466.928	1522.05
467.3	1557.08
467.672	1579
468.045	1612.67
468.417	1632.33
468.789	1633.69
469.161	1685.21
469.534	1756.39
469.906	1756.17
470.278	1781.25
470.65	1832.1
471.022	1839.78
471.394	1879.1
471.766	1913.45
472.138	1932.21
472.51	2005.43
472.882	2033.68
473.253	2086.1
473.625	2074.35
473.997	2142.6
474.369	2182.15
474.74	2230.28
475.112	2297.17
475.484	2337.62
475.855	2378.75
476.227	2438.18
476.598	2516.37
476.97	2553.66
477.341	2618.07
477.713	2704.39
478.084	2765.63
478.455	2851.73
478.827	2894.67
479.198	2986.19
479.569	3007.66
479.94	3118.17
480.311	3199.29
480.682	3323.58
481.053	3450.36
481.424	3500.76
481.795	3601.09
482.166	3665.04
482.537	3741.2
482.908	3869.33
483.279	3954.75
483.65	4071.81
484.021	4189.1
484.391	4305.93
484.762	4394.29
485.133	4497.11
485.503	4590.67
485.874	4745.69
486.244	4844.67
486.615	4950.43
486.985	5077.89
487.356	5229.75
487.726	5354.49
488.097	5448.73
488.467	5564.43
488.837	5744.09
489.207	5855.27
489.578	6072.21
489.948	6140.01
490.318	6293.68
490.688	6382.71
491.058	6555.14
491.428	6639.88
491.798	6798.3
492.168	6940.21
492.538	7118.51
492.908	7264.27
493.278	7362.35
493.648	7537.03
494.017	7666.52
494.387	7760.3
494.757	7953.75
495.126	8098.37
495.496	8054.08
495.866	8252.95
496.235	8387.86
496.605	8469.21
496.974	8644.8
497.344	8783.78
497.713	8876.43
498.082	9029.42
498.452	9153.71
498.821	9246.82
499.19	9273.71
499.559	9477.32
499.928	9542.18
500.298	9682.97
500.667	9785.11
501.036	9771.1
501.405	10002.51
501.774	9961.38
502.143	10105.1
502.512	10206.57
502.88	10291.31
503.249	10331.31
503.618	10578.76
503.987	10673.22
504.356	10677.52
504.724	10704.63
505.093	10807.46
505.462	10830.51
505.83	10940.79
506.199	11063.72
506.567	11151.63
506.936	11245.64
507.304	11336.03
507.672	11357.95
508.041	11548
508.409	11561.11
508.777	11678.39
509.145	11749.58
509.514	11751.61
509.882	11857.37
510.25	11885.39
510.618	11892.85
510.986	12006.07
511.354	12150.47
511.722	12169.45
512.09	12188.21
512.458	12255.55
512.826	12324.48
513.193	12353.63
513.561	12361.54
513.929	12493.06
514.297	12575.55
514.664	12632.27
515.032	12716.33
515.4	12841.53
515.767	12766.95
516.135	12905.48
516.502	12732.38
516.869	12970.11
517.237	12973.73
517.604	12921.07
517.972	13007.62
518.339	13067.96
518.706	13074.74
519.073	13090.33
519.44	13198.13
519.808	13213.27
520.175	13295.98
520.542	13389.76
520.909	13339.37
521.276	13386.37
521.643	13461.62
522.009	13564.45
522.376	13547.72
522.743	13525.58
523.11	13685.57
523.477	13699.81
523.843	13754.27
524.21	13814.61
524.577	13907.26
524.943	13909.52
525.31	13951.78
525.676	14019.8
526.043	13936.87
526.409	13986.36
526.776	14098.67
527.142	14126.24
527.508	14123.53
527.874	14144.54
528.241	14159.68
528.607	14198.1
528.973	14156.97
529.339	14081.04
529.705	14303.86
530.071	14275.39
530.437	14358.1
530.803	14303.64
531.169	14368.94
531.535	14285.56
531.901	14162.85
532.267	14312.22
532.632	14302.96
532.998	14311.77
533.364	14316.29
533.73	14354.03
534.095	14261.15
534.461	14325.33
534.826	14366.46
535.192	14349.51
535.557	14381.83
535.923	14303.18
536.288	14259.12
536.653	14346.8
537.019	14242.62
537.384	14262.28
537.749	14299.34
538.114	14166.01
538.479	14159.23
538.845	14152.68
539.21	14068.84
539.575	14009.41
539.94	14016.19
540.305	14148.16
540.67	14004.89
541.034	13995.39
541.399	13963.08
541.764	13926.02
542.129	13981.16
542.494	13835.17
542.858	13938.45
543.223	13855.74
543.587	13951.33
543.952	13800.37
544.316	13809.86
544.681	13707.49
545.045	13712.24
545.41	13778.68
545.774	13748.4
546.138	13726.93
546.503	13664.33
546.867	13609.42
547.231	13672.47
547.595	13585.01
547.959	13526.03
548.324	13528.06
548.688	13479.02
549.052	13422.08
549.416	13458.91
549.779	13369.42
550.143	13396.99
550.507	13424.34
550.871	13374.39
551.235	13311.57
551.599	13347.5
551.962	13283.55
552.326	13311.12
552.689	13244.68
553.053	13137.34
553.417	13154.06
553.78	13321.97
554.143	13186.38
554.507	13201.07
554.87	13134.4
555.234	13187.73
555.597	13041.75
555.96	13066.61
556.323	13053.95
556.686	13102.31
557.05	13087.17
557.413	13115.19
557.776	13096.89
558.139	13100.95
558.502	13122.2
558.865	13025.25
559.228	13064.12
559.59	13100.28
559.953	13049.66
560.316	13098.92
560.679	13101.86
561.041	13148.41
561.404	13081.97
561.767	13144.12
562.129	13061.18
562.492	13115.64
562.854	13115.64
563.217	13049.2
563.579	13145.7
563.941	13144.57
564.304	13160.84
564.666	13164
565.028	13216.66
565.39	13167.39
565.753	13260.72
566.115	13222.99
566.477	13345.92
566.839	13343.66
567.201	13433.15
567.563	13227.96
567.925	13324
568.287	13350.67
568.648	13281.74
569.01	13394.73
569.372	13366.71
569.734	13357.67
570.095	13498.91
570.457	13459.36
570.819	13493.04
571.18	13427.73
571.542	13452.13
571.903	13490.78
572.265	13577.1
572.626	13517.67
572.987	13455.75
573.349	13540.27
573.71	13551.34
574.071	13543.2
574.432	13532.81
574.794	13639.7
575.155	13640.83
575.516	13528.29
575.877	13567.84
576.238	13646.03
576.599	13648.96
576.96	13617.55
577.32	13612.58
577.681	13738
578.042	13565.58
578.403	13631.79
578.763	13599.47
579.124	13577.33
579.485	13762.41
579.845	13709.53
580.206	13631.11
580.566	13646.25
580.927	13627.04
581.287	13627.49
581.648	13637.89
582.008	13627.49
582.368	13643.31
582.728	13695.74
583.089	13689.64
583.449	13662.97
583.809	13686.48
584.169	13619.36
584.529	13603.31
584.889	13664.78
585.249	13579.36
585.609	13593.82
585.969	13652.13
586.329	13591.79
586.688	13592.69
587.048	13529.64
587.408	13490.32
587.768	13567.38
588.127	13454.62
588.487	13430.21
588.846	13499.59
589.206	13467.72
589.565	13472.47
589.925	13503.43
590.284	13532.36
590.643	13474.96
591.003	13482.41
591.362	13485.58
591.721	13439.03
592.08	13512.24
592.44	13523.32
592.799	13459.14
593.158	13448.97
593.517	13463.21
593.876	13472.7
594.235	13396.09
594.593	13438.57
594.952	13400.83
595.311	13390.66
595.67	13367.84
596.029	13475.86
596.387	13418.91
596.746	13488.97
597.104	13357.9
597.463	13335.53
597.822	13482.41
598.18	13408.97
598.538	13401.96
598.897	13431.34
599.255	13311.57
599.613	13435.86
599.972	13384.56
600.33	13438.57
600.688	13358.12
601.046	13393.15
601.404	13326.71
601.762	13281.52
602.12	13390.89
602.478	13427.73
602.836	13351.12
603.194	13309.99
603.552	13340.04
603.91	13287.39
604.268	13353.6
604.625	13300.5
604.983	13284.68
605.341	13366.26
605.698	13327.84
606.056	13386.82
606.413	13401.29
606.771	13373.26
607.128	13362.19
607.485	13398.12
607.843	13354.06
608.2	13397.67
608.557	13485.8
608.914	13391.79
609.272	13428.63
609.629	13504.11
609.986	13582.07
610.343	13411.91
610.7	13433.83
611.057	13495.75
611.414	13418.46
611.771	13446.03
612.127	13535.29
612.484	13547.04
612.841	13613.26
613.198	13484.45
613.554	13541.17
613.911	13681.05
614.267	13596.76
614.624	13582.75
614.98	13593.6
615.337	13702.3
615.693	13643.31
616.05	13634.27
616.406	13672.47
616.762	13663.65
617.118	13671.79
617.475	13671.34
617.831	13672.47
618.187	13706.36
618.543	13763.08
618.899	13792.69
619.255	13664.1
619.611	13705.46
619.967	13811.9
620.323	13791.11
620.678	13806.25
621.034	13720.15
621.39	13733.03
621.746	13745.68
622.101	13924.89
622.457	13815.29
622.812	13797.43
623.168	13823.65
623.523	13784.1
623.879	13820.26
624.234	13614.16
624.589	13763.31
624.945	13783.65
625.3	13764.89
625.655	13848.51
626.01	13786.13
626.365	13861.39
626.72	13744.78
627.075	13712.92
627.43	13763.08
627.785	13754.5
628.14	13728.06
628.495	13743.88
628.85	13763.76
629.205	13658.23
629.559	13745.68
629.914	13720.83
630.269	13728.96
630.623	13649.64
630.978	13642.64
631.332	13754.72
631.687	13678.57
632.041	13677.66
632.396	13570.32
632.75	13574.39
633.104	13632.47
633.459	13525.35
633.813	13626.59
634.167	13593.15
634.521	13492.36
634.875	13534.16
635.229	13525.8
635.583	13530.32
635.937	13482.87
636.291	13469.76
636.645	13518.12
636.999	13442.19
637.352	13507.05
637.706	13309.09
638.06	13391.57
638.413	13354.51
638.767	13305.02
639.121	13346.15
639.474	13302.31
639.828	13273.15
640.181	13292.81
640.534	13314.73
640.888	13264.34
641.241	13254.17
641.594	13207.17
641.947	13273.38
642.301	13187.96
642.654	13243.32
643.007	13247.62
643.36	13236.32
643.713	13233.83
644.066	13312.7
644.419	13136.43
644.771	13046.49
645.124	12935.08
645.477	12910.68
645.83	12898.7
646.182	12825.26
646.535	12832.26
646.888	12890.34
647.24	12719.5
647.593	12807.63
647.945	12816.44
648.298	12677.01
648.65	12589.33
649.002	12597.92
649.355	12712.04
649.707	12854.41
650.059	12740.29
650.411	12918.13
650.763	12877.91
651.115	13129.65
651.467	12973.27
651.819	12980.96
652.171	13081.29
652.523	12993.84
652.875	12998.36
653.227	12929.66
653.578	12980.51
653.93	13018.02
654.282	13026.38
654.633	12875.88
654.985	12958.36
655.337	12962.65
655.688	12931.92
656.039	13008.98
656.391	12841.75
656.742	12971.24
657.094	12954.07
657.445	13018.25
657.796	13055.98
658.147	12914.52
658.498	12981.41
658.849	13028.64
659.2	13002.65
659.551	12949.77
659.902	13054.18
660.253	13082.42
660.604	13072.03
660.955	13010.56
661.306	13026.83
661.656	13062.09
662.007	13058.24
662.358	13038.58
662.708	13011.24
663.059	13035.65
663.409	12993.16
663.76	13031.58
664.11	13037.68
664.461	13047.4
664.811	13027.74
665.161	13025.48
665.511	13025.93
665.862	13045.36
666.212	13080.62
666.562	13179.6
666.912	13027.06
667.262	13055.53
667.612	13006.49
667.962	13043.56
668.312	13016.89
668.662	13085.14
669.011	13069.09
669.361	12979.15
669.711	12975.76
670.06	12952.94
670.41	13019.15
670.76	12935.76
671.109	12995.2
671.459	12980.96
671.808	12973.95
672.157	12990.9
672.507	12939.15
672.856	12971.92
673.205	12934.18
673.554	12965.59
673.904	12895.08
674.253	13001.3
674.602	12940.96
674.951	12766.5
675.3	12645.6
675.649	12829.32
675.998	12882.2
676.346	12848.08
676.695	12903.45
677.044	12806.73
677.393	12881.53
677.741	12755.43
678.09	12789.1
678.438	12699.61
678.787	12780.06
679.135	12821.19
679.484	12695.54
679.832	12719.04
680.181	12766.95
680.529	12684.69
680.877	12742.09
681.225	12591.59
681.573	12682.66
681.922	12573.06
682.27	12559.05
682.618	12556.34
682.966	12480.63
683.314	12524.02
683.661	12518.15
684.009	12442.22
684.357	12429.11
684.705	12402.89
685.053	12385.72
685.4	12415.78
685.748	12352.73
686.095	12276.12
686.443	12271.15
686.79	12296.68
687.138	12271.37
687.485	12256.46
687.832	12185.95
688.18	12203.58
688.527	12087.87
688.874	12055.78
689.221	12037.03
689.568	11975.79
689.915	11997.93
690.262	11991.38
690.609	11957.03
690.956	11842.23
691.303	11867.54
691.65	11840.65
691.997	11728.11
692.344	11715
692.69	11697.83
693.037	11587.77
693.383	11569.47
693.73	11597.72
694.077	11573.09
694.423	11514.33
694.769	11465.74
695.116	11416.48
695.462	11423.94
695.808	11403.15
696.155	11412.64
696.501	11303.26
696.847	11361.79
697.193	11264.39
697.539	11248.57
697.885	11145.98
698.231	11100.56
698.577	11089.26
698.923	11039.77
699.269	10955.93
699.614	10919.32
699.96	10870.05
700.306	10901.46
700.651	10809.04
700.997	10797.51
701.342	10739.89
701.688	10790.06
702.033	10627.12
702.379	10710.28
702.724	10668.93
703.069	10618.99
703.415	10509.38
703.76	10447.92
704.105	10542.15
704.45	10554.13
704.795	10394.81
705.14	10348.26
705.485	10393.68
705.83	10354.36
706.175	10314.59
706.52	10204.08
706.865	10241.14
707.209	10238.88
707.554	10150.52
707.899	10188.94
708.243	10155.27
708.588	10080.02
708.932	10057.87
709.277	10065.78
709.621	10034.14
709.966	9973.35
710.31	9972.22
710.654	9879.12
710.998	9865.33
711.342	9913.47
711.687	9921.15
712.031	9842.96
712.375	9858.1
712.719	9827.59
713.063	9749.4
713.407	9840.48
713.75	9743.3
714.094	9774.94
714.438	9670.54
714.782	9693.13
715.125	9600.93
715.469	9644.32
715.812	9555.51
716.156	9540.14
716.499	9565
716.843	9582.18
717.186	9551.67
717.53	9592.12
717.873	9561.39
718.216	9456.98
718.559	9460.6
718.902	9431.22
719.246	9419.47
719.589	9441.84
719.932	9360.94
720.275	9363.43
720.617	9433.48
720.96	9430.77
721.303	9332.47
721.646	9313.03
721.989	9306.93
722.331	9380.15
722.674	9343.09
723.016	9299.7
723.359	9332.47
723.701	9336.99
724.044	9308.06
724.386	9252.24
724.729	9253.37
725.071	9224.67
725.413	9257.67
725.755	9249.3
726.097	9158.69
726.439	9198.91
726.782	9196.2
727.124	9155.75
727.465	9164.34
727.807	9155.97
728.149	9163.43
728.491	9157.56
728.833	9148.06
729.175	9137.67
729.516	9131.57
729.858	9142.64
730.199	9170.21
730.541	9065.13
730.882	9056.32
731.224	9148.97
731.565	9085.69
731.906	9165.24
732.248	9122.53
732.589	9083.89
732.93	9099.03
733.271	9057.45
733.612	9089.54
733.953	9088.18
734.294	9109.65
734.635	9053.15
734.976	9092.47
735.317	9000.95
735.658	9077.78
735.999	9068.74
736.339	8998.01
736.68	9085.47
737.021	9050.44
737.361	9028.07
737.702	9066.94
738.042	9074.62
738.383	9068.74
738.723	9111.68
739.063	9069.42
739.404	9128.4
739.744	9094.73
740.084	9159.14
740.424	9078.46
740.764	9111.68
741.104	9158.46
741.444	9170.44
741.784	9207.27
742.124	9114.17
742.464	9195.07
742.804	9134.96
743.143	9168.85
743.483	9275.97
743.823	9170.21
744.162	9314.61
744.502	9291.34
744.841	9316.65
745.181	9374.27
745.52	9408.4
745.86	9488.17
746.199	9505.8
746.538	9532.24
746.877	9568.17
747.216	9615.85
747.556	9673.25
747.895	9653.36
748.234	9728.84
748.573	9722.51
748.911	9779.01
749.25	9864.88
749.589	9898.55
749.928	10050.64
750.267	10038.21
750.605	10135.84
750.944	10133.12
751.283	10240.69
751.621	10312.78
751.96	10379.9
752.298	10494.7
752.636	10577.41
752.975	10618.53
753.313	10709.15
753.651	10840.9
753.989	10948.47
754.327	10987.34
754.666	11115.02
755.004	11264.85
755.342	11352.75
755.679	11522.01
756.017	11602.01
756.355	11769.69
756.693	11872.74
757.031	11992.74
757.368	12066.63
757.706	12202.45
758.044	12361.31
758.381	12591.59
758.719	12653.28
759.056	12847.85
759.394	12966.04
759.731	13084.01
760.068	13143.44
760.405	13294.17
760.743	13503.2
761.08	13700.04
761.417	13795.85
761.754	13931.22
762.091	14066.81
762.428	14230.19
762.765	14319.91
763.102	14599.22
763.438	14659.56
763.775	14804.86
764.112	15050.06
764.449	15204.4
764.785	15317.17
765.122	15411.4
765.458	15501.8
765.795	15679.42
766.131	15892.29
766.467	16020.2
766.804	16053.65
767.14	16172.74
767.476	16352.17
767.812	16376.58
768.148	16529.57
768.485	16620.86
768.821	16734.53
769.157	16851.59
769.492	16998.25
769.828	17130.91
770.164	17064.47
770.5	17233.5
770.836	17386.27
771.171	17495.64
771.507	17485.02
771.842	17507.62
772.178	17729.99
772.513	17805.46
772.849	17801.62
773.184	17788.74
773.519	17939.92
773.855	18020.83
774.19	18105.8
774.525	18095.63
774.86	18189.18
775.195	18155.74
775.53	18207.71
775.865	18288.16
776.2	18230.54
776.535	18119.13
776.87	18218.79
777.205	18273.93
777.539	18310.08
777.874	18487.48
778.209	18326.35
778.543	18287.49
778.878	18365.45
779.212	18496.52
779.547	18390.76
779.881	18535.16
780.215	18359.12
780.55	18597.99
780.884	18492
781.218	18597.99
781.552	18539.46
781.886	18361.38
782.22	18464.88
782.554	18338.33
782.888	18413.58
783.222	18436.63
783.556	18448.61
783.889	18393.7
784.223	18252.91
784.557	18269.41
784.89	18365.45
785.224	18267.82
785.557	18202.97
785.891	18213.81
786.224	18261.72
786.558	18140.82
786.891	18190.54
787.224	18084.33
787.557	18091.33
787.891	18110.09
788.224	18067.15
788.557	18141.27
788.89	18074.38
789.223	18125.23
789.556	17927.95
789.888	17968.4
790.221	17870.55
790.554	17809.08
790.887	17767.72
791.219	17787.61
791.552	17785.13
791.884	17696.99
792.217	17669.87
792.549	17714.39
792.882	17617.22
793.214	17495.87
793.546	17639.59
793.879	17459.71
794.211	17377
794.543	17455.64
794.875	17419.03
795.207	17492.93
795.539	17314.4
795.871	17369.32
796.203	17192.82
796.535	17211.13
796.867	17120.96
797.198	17129.32
797.53	17170
797.862	16993.06
798.193	16995.77
798.525	16909.22
798.856	17003
799.188	16804.81
799.519	16735.21
799.85	16729.33
800.182	16732.5
800.513	16791.93
800.844	16566.63
801.175	16709.9
801.506	16598.94
801.837	16526.63
802.168	16391.94
802.499	16472.17
802.83	16473.97
803.161	16380.19
803.491	16400.98
803.822	16401.21
804.153	16278.72
804.483	16223.13
804.814	16152.4
805.145	16115.34
805.475	16162.12
805.805	16091.38
806.136	16031.27
806.466	16067.66
806.796	16032.18
807.126	15960.54
807.457	15846.87
807.787	15894.1
808.117	15798.06
808.447	15820.66
808.777	15765.97
809.107	15687.55
809.436	15758.51
809.766	15688.46
810.096	15617.5
810.426	15572.08
810.755	15594.9
811.085	15583.38
811.414	15561.46
811.744	15401.46
812.073	15398.3
812.403	15376.15
812.732	15298.19
813.061	15329.82
813.39	15268.36
813.719	15298.64
814.049	15363.27
814.378	15225.19
814.707	15177.28
815.036	15192.2
815.365	15086.89
815.693	14959.21
816.022	14951.3
816.351	14910.62
816.68	14827.01
817.008	14997.4
817.337	14817.75
817.665	14760.12
817.994	14814.13
818.322	14765.54
818.651	14747.92
818.979	14768.48
819.307	14763.74
819.636	14607.13
819.964	14547.7
820.292	14670.63
820.62	14692.78
820.948	14587.24
821.276	14732.32
821.604	14665.21
821.932	14629.5
822.259	14643.06
822.587	14634.7
822.915	14553.12
823.243	14593.57
823.57	14501.37
823.898	14551.76
824.225	14472.9
824.553	14489.84
824.88	14601.71
825.207	14646.68
825.535	14615.04
825.862	14603.51
826.189	14539.34
826.516	14643.74
826.843	14620.91
827.17	14572.1
827.497	14585.44
827.824	14596.96
828.151	14608.26
828.478	14543.63
828.805	14650.97
829.131	14609.62
829.458	14671.54
829.785	14515.61
830.111	14485.55
830.438	14621.37
830.764	14586.34
831.09	14665.89
831.417	14580.46
831.743	14615.04
832.069	14620.01
832.395	14537.3
832.722	14654.59
833.048	14525.32
833.374	14581.59
833.7	14468.15
834.026	14452.33
834.351	14602.84
834.677	14512.22
835.003	14588.15
835.329	14410.53
835.654	14458.66
835.98	14358.32
836.306	14433.58
836.631	14393.35
836.956	14409.85
837.282	14371.88
837.607	14374.37
837.932	14281.04
838.258	14288.04
838.583	14326.23
838.908	14144.09
839.233	14275.16
839.558	14213.69
839.883	14162.62
840.208	14094.83
840.533	14137.09
840.858	14104.77
841.182	14122.4
841.507	14047.6
841.832	13991.78
842.156	13985.45
842.481	14014.38
842.805	13966.47
843.13	13902.29
843.454	13916.53
843.778	13861.61
844.103	13814.83
844.427	13768.06
844.751	13741.16
845.075	13747.49
845.399	13645.57
845.723	13596.31
846.047	13628.17
846.371	13494.62
846.695	13538.68
847.019	13479.02
847.343	13386.82
847.666	13270.89
847.99	13215.53
848.313	13239.03
848.637	13142.76
848.96	13186.6
849.284	13060.05
849.607	12993.39
849.931	12990.9
850.254	12896.44
850.577	12790.45
850.9	12760.4
851.223	12736.67
851.546	12629.1
851.869	12601.08
852.192	12618.93
852.515	12531.7
852.838	12420.75
853.161	12536.22
853.483	12359.05
853.806	12332.61
854.129	12372.61
854.451	12246.74
854.774	12221.88
855.096	12266.4
855.419	12162.45
855.741	12174.43
856.063	12040.42
856.385	12064.82
856.708	12084.48
857.03	11887.2
857.352	11943.7
857.674	11837.03
857.996	11904.38
858.318	11835.45
858.64	11790.48
858.961	11805.17
859.283	11689.47
859.605	11680.88
859.926	11652.18
860.248	11654.44
860.57	11652.63
860.891	11637.26
861.212	11571.73
861.534	11510.94
861.855	11487.21
862.176	11492.64
862.498	11510.04
862.819	11498.51
863.14	11352.07
863.461	11401.34
863.782	11314.56
864.103	11326.76
864.424	11333.09
864.745	11269.59
865.065	11266.2
865.386	11218.07
865.707	11235.92
866.027	11172.87
866.348	11150.5
866.668	11212.19
866.989	11165.64
867.309	11151.18
867.63	11132.65
867.95	11091.29
868.27	11022.59
868.59	11078.41
868.91	11060.56
869.23	11006.32
869.55	10943.95
869.87	11029.37
870.19	10961.12
870.51	11002.48
870.83	10927.68
871.15	10927.68
871.469	10907.79
871.789	10928.81
872.109	10834.57
872.428	10834.8
872.748	10869.15
873.067	10812.2
873.386	10836.61
873.706	10802.71
874.025	10795.25
874.344	10725.88
874.663	10751.41
874.982	10646.33
875.301	10702.37
875.62	10679.1
875.939	10654.69
876.258	10643.84
876.577	10635.48
876.896	10574.69
877.214	10556.62
877.533	10621.47
877.852	10603.62
878.17	10595.94
878.489	10530.18
878.807	10499.44
879.125	10533.56
879.444	10526.11
879.762	10461.25
880.08	10481.81
880.398	10405.66
880.716	10429.61
881.034	10354.36
881.352	10383.51
881.67	10335.38
881.988	10364.3
882.306	10313.91
882.624	10245.66
882.941	10225.55
883.259	10106.23
883.577	10154.59
883.894	10208.15
884.212	10167.02
884.529	10063.52
884.846	10140.81
885.164	10013.35
885.481	10137.19
885.798	10074.14
886.115	9967.7
886.432	9983.52
886.75	9961.15
887.067	9972.45
887.383	9904.2
887.7	9912.56
888.017	9874.15
888.334	9848.39
888.651	9800.25
888.967	9832.11
889.284	9739.01
889.6	9710.31
889.917	9710.08
890.233	9693.13
890.55	9631.22
890.866	9713.47
891.182	9548.96
891.498	9588.28
891.815	9515.74
892.131	9510.77
892.447	9468.28
892.763	9393.48
893.079	9434.84
893.395	9376.08
893.71	9392.8
894.026	9371.79
894.342	9300.83
894.657	9281.85
894.973	9323.43
895.289	9202.3
895.604	9171.57
895.92	9126.14
896.235	9092.25
896.55	9082.3
896.865	9066.94
897.181	9044.56
897.496	9036.66
897.811	8954.17
898.126	8921.86
898.441	8849.09
898.756	8853.38
899.071	8875.98
899.386	8780.16
899.7	8684.35
900.015	8699.94
900.33	8652.48
900.644	8598.02
900.959	8654.52
901.273	8607.51
901.588	8576.33
901.902	8552.15
902.216	8582.88
902.531	8507.4
902.845	8427.63
903.159	8438.03
903.473	8332.27
903.787	8355.54
904.101	8321.87
904.415	8370.01
904.729	8254.53
905.042	8238.26
905.356	8236.68
905.67	8250.24
905.984	8177.24
906.297	8165.04
906.611	8052.73
906.924	8105.38
907.237	8067.41
907.551	8012.05
907.864	8029
908.177	7968.89
908.491	7941.99
908.804	7865.39
909.117	7881.21
909.43	7782.68
909.743	7790.81
910.056	7768.67
910.368	7692.28
910.681	7645.73
910.994	7673.53
911.307	7627.65
911.619	7525.96
911.932	7599.86
912.244	7494.1
912.557	7492.97
912.869	7451.16
913.181	7444.61
913.494	7356.25
913.806	7366.64
914.118	7332.29
914.43	7271.28
914.742	7282.58
915.054	7273.54
915.366	7182.69
915.678	7184.5
915.99	7136.14
916.302	7097.5
916.613	7094.11
916.925	7056.59
917.236	7022.7
917.548	7068.8
917.859	7000.78
918.171	6965.75
918.482	6934.56
918.794	6907.9
919.105	6880.1
919.416	6821.12
919.727	6810.72
920.038	6807.34
920.349	6772.08
920.66	6738.41
920.971	6786.54
921.282	6699.54
921.593	6661.12
921.903	6577.51
922.214	6638.98
922.525	6481.69
922.835	6531.41
923.146	6507.23
923.456	6507
923.767	6456.38
924.077	6462.03
924.387	6366.44
924.697	6373
925.008	6372.32
925.318	6320.79
925.628	6258.65
925.938	6271.76
926.248	6229.95
926.558	6219.55
926.867	6211.87
927.177	6160.57
927.487	6163.96
927.796	6124.19
928.106	6053.91
928.416	6089.84
928.725	6064.3
929.034	6046
929.344	6065.43
929.653	5999.9
929.962	5963.06
930.271	5925.78
930.581	5922.61
930.89	5843.52
931.199	5826.34
931.508	5856.85
931.817	5793.12
932.125	5813.69
932.434	5747.25
932.743	5733.01
933.051	5734.14
933.36	5670.19
933.669	5676.07
933.977	5610.08
934.286	5677.2
934.594	5603.07
934.902	5594.94
935.21	5577.31
935.519	5508.84
935.827	5532.79
936.135	5457.09
936.443	5435.17
936.751	5442.4
937.059	5384.77
937.367	5359.46
937.674	5352.01
937.982	5337.32
938.29	5277.43
938.597	5280.6
938.905	5254.61
939.213	5262.52
939.52	5195.4
939.827	5229.3
940.135	5181.62
940.442	5146.14
940.749	5149.07
941.056	5157.66
941.363	5069.08
941.67	5086.7
941.977	5060.26
942.284	4984.11
942.591	5006.25
942.898	5025.46
943.205	4955.41
943.511	4922.41
943.818	4909.76
944.125	4866.6
944.431	4883.09
944.738	4950.89
945.044	4871.11
945.35	4853.26
945.657	4739.82
945.963	4744.79
946.269	4713.38
946.575	4760.61
946.881	4725.81
947.187	4742.98
947.493	4685.81
947.799	4668.41
948.105	4693.94
948.41	4588.86
948.716	4610.78
949.022	4609.65
949.327	4570.33
949.633	4526.49
949.938	4530.78
950.244	4514.51
950.549	4494.85
950.854	4469.77
951.16	4416.21
951.465	4413.95
951.77	4421.64
952.075	4429.77
952.38	4417.12
952.685	4368.98
952.99	4357.68
953.294	4339.83
953.599	4314.52
953.904	4314.75
954.209	4238.36
954.513	4280.17
954.818	4207.63
955.122	4208.08
955.426	4180.51
955.731	4200.4
956.035	4121.53
956.339	4128.54
956.643	4102.77
956.948	4100.97
957.252	4091.25
957.556	4032.04
957.86	4052.15
958.163	4025.26
958.467	3962.21
958.771	4007.63
959.075	3983.68
959.378	3915.21
959.682	3936
959.985	3980.52
960.289	3879.05
960.592	3867.07
960.896	3887.19
961.199	3882.44
961.502	3855.32
961.805	3836.79
962.108	3762.9
962.411	3791.14
962.714	3756.57
963.017	3764.03
963.32	3741.43
963.623	3695.1
963.926	3727.64
964.228	3700.98
964.531	3670.47
964.833	3658.72
965.136	3653.52
965.438	3642.67
965.741	3601.32
966.043	3609
966.345	3571.71
966.648	3584.6
966.95	3594.54
967.252	3538.27
967.554	3537.82
967.856	3487.65
968.158	3447.2
968.46	3473.64
968.761	3498.5
969.063	3469.8
969.365	3432.06
969.666	3450.14
969.968	3396.58
970.269	3409.68
970.571	3392.74
970.872	3382.79
971.174	3370.14
971.475	3332.17
971.776	3301.21
972.077	3307.31
972.378	3281.33
972.679	3271.16
972.98	3272.74
973.281	3255.11
973.582	3239.29
973.883	3213.08
974.183	3200.2
974.484	3173.08
974.785	3152.29
975.085	3172.4
975.386	3162.91
975.686	3178.28
975.986	3120.88
976.287	3148.9
976.587	3058.06
976.887	3079.52
977.187	3067.55
977.487	3070.48
977.787	3026.64
978.087	3018.73
978.387	3001.79
978.687	3018.73
978.987	3004.5
979.286	2969.7
979.586	2966.98
979.885	2932.86
980.185	2924.95
980.484	2918.85
980.784	2900.09
981.083	2914.56
981.382	2902.81
981.682	2867.55
981.981	2844.95
982.28	2838.63
982.579	2871.39
982.878	2807.21
983.177	2800.89
983.475	2773.09
983.774	2781.45
984.073	2742.36
984.372	2750.72
984.67	2729.02
984.969	2721.79
985.267	2717.05
985.566	2684.51
985.864	2697.39
986.162	2676.82
986.461	2685.86
986.759	2680.21
987.057	2644.28
987.355	2659.65
987.653	2671.62
987.951	2571.51
988.249	2574.45
988.547	2603.38
988.844	2621
989.142	2594.11
989.44	2530.39
989.737	2551.18
990.035	2523.15
990.332	2523.83
990.63	2482.93
990.927	2516.83
991.224	2456.94
991.521	2497.84
991.819	2477.51
992.116	2483.38
992.413	2451.07
992.71	2436.15
993.006	2409.03
993.303	2406.77
993.6	2376.04
993.897	2383.27
994.193	2358.86
994.49	2343.05
994.787	2335.14
995.083	2331.75
995.379	2339.2
995.676	2301.24
995.972	2289.49
996.268	2296.72
996.565	2287.45
996.861	2263.27
997.157	2295.59
997.453	2258.98
997.749	2253.56
998.044	2212.43
998.34	2203.84
998.636	2184.63
998.932	2216.27
999.227	2138.53
999.523	2184.18
999.818	2165.42
1000.114	2130.17
1000.409	2136.05
1000.704	2126.55
1001	2112.09
1001.295	2094.69
1001.59	2087.23
1001.885	2088.36
1002.18	2102.15
1002.475	2081.13
1002.77	2037.52
1003.065	2013.34
1003.359	2035.26
1003.654	2040
1003.949	1987.35
1004.243	1990.74
1004.538	1972.89
1004.832	1983.28
1005.127	1956.84
1005.421	1942.38
1005.715	1953.23
1006.009	1926.79
1006.304	1908.03
1006.598	1914.81
1006.892	1908.48
1007.186	1896.96
1007.48	1871.65
1007.773	1861.48
1008.067	1864.41
1008.361	1836.17
1008.655	1837.07
1008.948	1827.13
1009.242	1820.35
1009.535	1799.11
1009.829	1780.12
1010.122	1769.28
1010.415	1757.98
1010.708	1769.28
1011.001	1757.07
1011.295	1739.67
1011.588	1740.12
1011.881	1707.36
1012.173	1709.62
1012.466	1690.18
1012.759	1675.49
1013.052	1679.56
1013.344	1673.01
1013.637	1672.55
1013.93	1626.45
1014.222	1654.7
1014.514	1647.47
1014.807	1619.22
1015.099	1605.89
1015.391	1625.1
1015.683	1583.29
1015.976	1577.42
1016.268	1563.41
1016.56	1562.95
1016.851	1538.55
1017.143	1547.59
1017.435	1530.86
1017.727	1529.73
1018.018	1536.06
1018.31	1521.37
1018.602	1495.84
1018.893	1484.09
1019.185	1488.15
1019.476	1487.7
1019.767	1458.55
1020.058	1427.59
1020.35	1450.19
1020.641	1448.38
1020.932	1403.64
1021.223	1392.11
1021.514	1416.52
1021.804	1387.36
1022.095	1398.21
1022.386	1396.63
1022.677	1365.67
1022.967	1369.06
1023.258	1351.43
1023.548	1346.46
1023.839	1323.86
1024.129	1309.17
1024.419	1315.05
1024.709	1323.41
1025	1320.25
1025.29	1277.31
1025.58	1293.81
1025.87	1284.09
1026.16	1268.95
1026.449	1299.46
1026.739	1258.33
1027.029	1243.64
1027.319	1231.21
1027.608	1255.84
1027.898	1211.1
1028.187	1223.08
1028.477	1207.93
1028.766	1177.88
1029.055	1167.94
1029.344	1184.43
1029.634	1162.51
1029.923	1158.67
1030.212	1161.16
1030.501	1133.81
1030.79	1137.88
1031.078	1150.76
1031.367	1132.91
1031.656	1113.93
1031.945	1106.69
1032.233	1136.3
1032.522	1099.46
1032.81	1097.2
1033.099	1100.14
1033.387	1086.58
1033.675	1099.69
1033.963	1081.38
1034.251	1070.31
1034.54	1078.45
1034.828	1049.97
1035.116	1060.14
1035.403	1037.77
1035.691	1007.04
1035.979	1020.14
1036.267	1009.52
1036.554	995.51
1036.842	1005.91
1037.129	1002.52
1037.417	999.8
1037.704	980.82
1037.992	962.74
1038.279	934.95
1038.566	953.93
1038.853	953.93
1039.14	953.93
