Data from hue_130_FLMS001491_00099.txt Node
Date: Tue Feb 07 16:58:22 GMT 2017
User: dcchb
Spectrometer: FLMS00149
Trigger mode: 0
Integration Time (sec): 2.000000E-2
Scans to average: 10
Electric dark correction enabled: true
Nonlinearity correction enabled: false
Boxcar width: 0
XAxis mode: Wavelengths
Number of Pixels in Spectrum: 2048
>>>>>Begin Spectral Data<<<<<
341.393	-10.49
341.776	-10.49
342.16	-10.49
342.543	-57.95
342.927	-62.7
343.31	-63.15
343.693	-67.22
344.077	-70.38
344.46	-52.98
344.843	-61.11
345.226	-38.52
345.61	-26.31
345.993	-21.79
346.376	4.19
346.759	20.24
347.142	30.86
347.525	35.15
347.908	36.28
348.291	54.81
348.674	106.56
349.057	113.34
349.44	131.88
349.823	148.37
350.206	158.32
350.588	192.89
350.971	197.64
351.354	233.57
351.737	238.09
352.119	264.75
352.502	259.1
352.884	254.81
353.267	279.22
353.65	313.57
354.032	292.55
354.414	281.7
354.797	317.63
355.179	327.8
355.562	323.96
355.944	323.06
356.326	334.36
356.709	337.75
357.091	348.59
357.473	333.45
357.855	332.1
358.238	357.41
358.62	369.61
359.002	367.58
359.384	338.2
359.766	342.94
360.148	358.99
360.53	318.08
360.912	318.54
361.294	325.09
361.676	320.57
362.057	325.77
362.439	336.16
362.821	342.94
363.203	325.54
363.584	324.64
363.966	328.03
364.348	332.32
364.729	310.4
365.111	318.54
365.493	323.06
365.874	306.11
366.256	323.06
366.637	330.74
367.019	305.66
367.4	324.86
367.781	305.88
368.163	314.7
368.544	295.71
368.925	313.11
369.306	303.85
369.688	303.85
370.069	321.7
370.45	319.21
370.831	300.46
371.212	312.66
371.593	314.47
371.974	315.37
372.355	324.64
372.736	302.94
373.117	314.47
373.498	321.47
373.879	308.14
374.26	288.26
374.641	311.08
375.021	306.56
375.402	309.27
375.783	316.5
376.163	313.34
376.544	334.13
376.925	310.85
377.305	321.47
377.686	334.13
378.066	306.56
378.447	335.03
378.827	334.13
379.208	328.93
379.588	335.94
379.968	328.48
380.349	331.87
380.729	346.56
381.109	335.26
381.489	313.34
381.87	316.95
382.25	341.14
382.63	339.55
383.01	356.73
383.39	337.52
383.77	337.97
384.15	343.62
384.53	332.77
384.91	344.52
385.29	347.91
385.67	337.75
386.049	357.63
386.429	347.91
386.809	339.1
387.189	341.81
387.568	348.37
387.948	327.8
388.328	353.34
388.707	352.89
389.087	343.39
389.466	376.16
389.846	366.22
390.225	354.69
390.605	348.14
390.984	359.44
391.363	347.24
391.743	365.32
392.122	376.84
392.501	365.32
392.881	371.87
393.26	356.5
393.639	390.85
394.018	355.82
394.397	379.33
394.776	375.71
395.155	387.46
395.534	390.17
395.913	365.32
396.292	396.5
396.671	397.18
397.05	395.14
397.429	381.36
397.808	377.29
398.186	399.44
398.565	387.91
398.944	400.12
399.323	369.83
399.701	386.78
400.08	368.48
400.458	403.51
400.837	393.79
401.215	400.79
401.594	398.31
401.972	393.56
402.351	421.13
402.729	384.98
403.107	419.33
403.486	410.96
403.864	393.34
404.242	399.66
404.62	416.39
404.999	413.9
405.377	432.21
405.755	413.45
406.133	374.35
406.511	427.01
406.889	404.86
407.267	426.1
407.645	440.57
408.023	446.44
408.401	437.18
408.779	427.91
409.156	439.66
409.534	438.31
409.912	439.66
410.29	415.71
410.667	451.19
411.045	453.22
411.422	448.02
411.8	466.33
412.178	444.64
412.555	469.95
412.933	471.08
413.31	475.37
413.687	484.18
414.065	479.44
414.442	460.91
414.819	488.48
415.197	476.95
415.574	473.56
415.951	500.45
416.328	473.34
416.705	474.01
417.082	488.25
417.46	480.57
417.837	490.74
418.214	499.1
418.591	496.84
418.967	511.98
419.344	508.59
419.721	485.31
420.098	490.28
420.475	509.04
420.852	526.89
421.228	517.85
421.605	538.42
421.982	516.95
422.358	511.98
422.735	525.31
423.111	524.18
423.488	548.59
423.864	542.94
424.241	538.64
424.617	543.84
424.994	530.73
425.37	554.24
425.746	550.62
426.123	561.47
426.499	550.62
426.875	557.85
427.251	564.63
427.627	565.54
428.003	584.29
428.379	598.98
428.756	568.7
429.132	606.21
429.507	599.43
429.883	589.49
430.259	610.28
430.635	613.44
431.011	618.87
431.387	625.2
431.763	632.88
432.138	612.99
432.514	654.57
432.89	638.53
433.265	629.72
433.641	645.76
434.016	650.96
434.392	658.19
434.767	671.3
435.143	647.34
435.518	668.58
435.894	676.27
436.269	678.75
436.644	664.97
437.02	686.21
437.395	696.38
437.77	680.79
438.145	702.48
438.52	694.8
438.895	696.15
439.271	722.82
439.646	732.76
440.021	738.19
440.395	725.08
440.77	725.98
441.145	745.19
441.52	733.22
441.895	744.74
442.27	781.8
442.645	742.25
443.019	770.05
443.394	758.98
443.769	780.22
444.143	748.58
444.518	778.64
444.892	801.91
445.267	803.27
445.641	798.3
446.016	768.47
446.39	799.65
446.764	822.93
447.139	809.15
447.513	831.74
447.887	845.3
448.262	834.46
448.636	827.68
449.01	824.06
449.384	828.81
449.758	832.65
450.132	841.46
450.506	848.47
450.88	862.03
451.254	884.17
451.628	889.82
452.002	908.58
452.376	884.85
452.75	893.44
453.123	920.33
453.497	923.49
453.871	935.92
454.244	928.92
454.618	914.91
454.992	945.41
455.365	957.84
455.739	967.79
456.112	987.9
456.486	983.6
456.859	988.58
457.232	984.96
457.606	1027.67
457.979	1009.37
458.352	1037.61
458.725	1080.55
459.099	1058.18
459.472	1066.09
459.845	1078.74
460.218	1106.09
460.591	1109.93
460.964	1107.44
461.337	1147.67
461.71	1136.14
462.083	1168.46
462.456	1177.95
462.829	1188.8
463.201	1187.44
463.574	1200.1
463.947	1261.11
464.32	1265.63
464.692	1235.8
465.065	1270.15
465.438	1299.3
465.81	1326.42
466.183	1350.6
466.555	1330.94
466.928	1370.94
467.3	1380.88
467.672	1388.57
468.045	1449.58
468.417	1430.6
468.789	1441.45
469.161	1490.03
469.534	1513.76
469.906	1530.03
470.278	1532.74
470.65	1573.87
471.022	1588.11
471.394	1655.22
471.766	1671.04
472.138	1695.45
472.51	1715.34
472.882	1795.33
473.253	1822.9
473.625	1852.06
473.997	1915.33
474.369	1942.67
474.74	1965.27
475.112	2012.5
475.484	2055.67
475.855	2118.72
476.227	2148.77
476.598	2218.83
476.97	2280.29
477.341	2339.73
477.713	2380.63
478.084	2406.39
478.455	2519.61
478.827	2553.28
479.198	2633.5
479.569	2675.76
479.94	2777.91
480.311	2818.81
480.682	2949.65
481.053	3002.53
481.424	3091.57
481.795	3136.99
482.166	3231
482.537	3304.45
482.908	3414.95
483.279	3500.15
483.65	3601.39
484.021	3757.09
484.391	3784.21
484.762	3879.35
485.133	3989.85
485.503	4102.39
485.874	4219.68
486.244	4324.53
486.615	4439.78
486.985	4555.94
487.356	4681.81
487.726	4745.09
488.097	4884.97
488.467	4978.08
488.837	5169.26
489.207	5312.08
489.578	5447.89
489.948	5582.13
490.318	5682.46
490.688	5744.61
491.058	5868.45
491.428	6035.45
491.798	6164.03
492.168	6397.25
492.538	6438.15
492.908	6517.92
493.278	6747.07
493.648	6769.67
494.017	6975.31
494.387	7064.57
494.757	7199.26
495.126	7320.16
495.496	7405.36
495.866	7556.31
496.235	7671.79
496.605	7786.36
496.974	7888.96
497.344	8043.31
497.713	8170.53
498.082	8201.72
498.452	8406.46
498.821	8469.28
499.19	8525.78
499.559	8710.41
499.928	8787.24
500.298	8898.88
500.667	9018.65
501.036	9036.27
501.405	9168.7
501.774	9266.55
502.143	9353.55
502.512	9406.21
502.88	9538.63
503.249	9603.04
503.618	9719.65
503.987	9752.19
504.356	9831.73
504.724	9946.08
505.093	9988.11
505.462	10051.84
505.83	10201.44
506.199	10295.9
506.567	10369.35
506.936	10385.84
507.304	10539.51
507.672	10579.06
508.041	10646.85
508.409	10705.61
508.777	10814.31
509.145	10897.92
509.514	10885.26
509.882	11018.37
510.25	11075.09
510.618	11057.69
510.986	11158.25
511.354	11227.4
511.722	11296.78
512.09	11386.27
512.458	11364.8
512.826	11457
513.193	11456.55
513.561	11480.5
513.929	11637.79
514.297	11614.29
514.664	11716.66
515.032	11784.22
515.4	11788.29
515.767	11776.54
516.135	11889.31
516.502	11738.35
516.869	11961.17
517.237	11925.92
517.604	11944.9
517.972	12015.86
518.339	12068.51
518.706	12096.31
519.073	12137.89
519.44	12187.83
519.808	12293.14
520.175	12214.27
520.542	12364.1
520.909	12340.82
521.276	12308.73
521.643	12398.9
522.009	12490.65
522.376	12494.26
522.743	12469.18
523.11	12576.07
523.477	12608.16
523.843	12667.14
524.21	12766.57
524.577	12700.13
524.943	12731.77
525.31	12731.09
525.676	12774.48
526.043	12765.44
526.409	12880.01
526.776	12914.14
527.142	12878.43
527.508	12875.27
527.874	12882.27
528.241	12961.59
528.607	12804.76
528.973	12976.74
529.339	12937.64
529.705	13009.05
530.071	12973.57
530.437	13066.68
530.803	13046.79
531.169	13051.99
531.535	12993.23
531.901	12946.68
532.267	13054.02
532.632	13086.56
532.998	13000.92
533.364	12948.26
533.73	12971.31
534.095	13011.54
534.461	13016.96
534.826	13003.18
535.192	12916.4
535.557	12970.41
535.923	12953.68
536.288	12923.63
536.653	12924.08
537.019	12823.74
537.384	12807.93
537.749	12809.28
538.114	12837.76
538.479	12735.84
538.845	12765.67
539.21	12725.89
539.575	12694.26
539.94	12714.6
540.305	12637.31
540.67	12644.54
541.034	12609.06
541.399	12622.62
541.764	12534.94
542.129	12523.41
542.494	12509.63
542.858	12532.9
543.223	12420.37
543.587	12402.51
543.952	12372.91
544.316	12333.36
544.681	12290.2
545.045	12321.39
545.41	12322.51
545.774	12294.49
546.138	12182.86
546.503	12146.93
546.867	12064.67
547.231	12207.94
547.595	12181.5
547.959	12147.15
548.324	12040.94
548.688	12008.85
549.052	12022.18
549.416	11981.06
549.779	11915.97
550.143	11926.37
550.507	11958.23
550.871	11925.46
551.235	11818.57
551.599	11802.75
551.962	11821.74
552.326	11751
552.689	11868.06
553.053	11683.89
553.417	11649.54
553.78	11803.43
554.143	11688.63
554.507	11721.17
554.87	11635.75
555.234	11763.66
555.597	11602.76
555.96	11593.72
556.323	11627.17
556.686	11503.55
557.05	11517.79
557.413	11626.26
557.776	11511.91
558.139	11576.32
558.502	11475.76
558.865	11598.47
559.228	11581.07
559.59	11495.87
559.953	11531.35
560.316	11540.39
560.679	11529.99
561.041	11582.2
561.404	11490.22
561.767	11583.1
562.129	11507.85
562.492	11563.89
562.854	11494.51
563.217	11508.98
563.579	11526.6
563.941	11551.91
564.304	11579.48
564.666	11544
565.028	11572.7
565.39	11555.08
565.753	11555.76
566.115	11645.7
566.477	11632.36
566.839	11617.22
567.201	11722.53
567.563	11666.94
567.925	11736.54
568.287	11659.03
568.648	11657.9
569.01	11704.45
569.372	11702.87
569.734	11667.84
570.095	11736.54
570.457	11735.41
570.819	11764.79
571.18	11708.97
571.542	11777.67
571.903	11774.28
572.265	11803.66
572.626	11746.03
572.987	11799.59
573.349	11792.81
573.71	11824
574.071	11873.94
574.432	11865.58
574.794	11888.18
575.155	11918.01
575.516	11845.92
575.877	11856.09
576.238	11912.36
576.599	11894.05
576.96	11848.4
577.32	11979.47
577.681	11969.53
578.042	11993.03
578.403	11871
578.763	11926.82
579.124	11886.37
579.485	11947.61
579.845	12066.25
580.206	11874.39
580.566	11965.01
580.927	11919.36
581.287	11913.03
581.648	11926.82
582.008	11887.05
582.368	11941.51
582.728	11978.57
583.089	11848.63
583.449	11948.51
583.809	11950.55
584.169	11853.15
584.529	11879.36
584.889	11988.06
585.249	11831.91
585.609	11758.91
585.969	11881.85
586.329	11786.03
586.688	11861.74
587.048	11833.04
587.408	11748.74
587.768	11785.35
588.127	11838.69
588.487	11757.33
588.846	11822.19
589.206	11745.13
589.565	11675.98
589.925	11858.12
590.284	11715.53
590.643	11773.15
591.003	11754.85
591.362	11719.37
591.721	11782.42
592.08	11738.12
592.44	11763.89
592.799	11680.72
593.158	11706.49
593.517	11781.74
593.876	11681.18
594.235	11666.94
594.593	11712.14
594.952	11714.62
595.311	11597.34
595.67	11712.36
596.029	11657.45
596.387	11674.85
596.746	11753.72
597.104	11658.13
597.463	11653.61
597.822	11708.52
598.18	11634.4
598.538	11620.61
598.897	11679.59
599.255	11566.6
599.613	11795.75
599.972	11600.73
600.33	11579.71
600.688	11635.08
601.046	11628.75
601.404	11755.07
601.762	11684.79
602.12	11673.72
602.478	11691.57
602.836	11701.51
603.194	11647.28
603.552	11699.03
603.91	11608.18
604.268	11606.38
604.625	11546.72
604.983	11694.96
605.341	11582.2
605.698	11674.4
606.056	11726.6
606.413	11621.97
606.771	11598.01
607.128	11651.35
607.485	11665.58
607.843	11642.53
608.2	11683.89
608.557	11694.96
608.914	11654.96
609.272	11736.32
609.629	11741.29
609.986	11745.58
610.343	11727.95
610.7	11753.49
611.057	11795.3
611.414	11751.91
611.771	11726.6
612.127	11840.04
612.484	11816.77
612.841	11790.55
613.198	11831
613.554	11741.51
613.911	11866.93
614.267	11755.75
614.624	11810.89
614.98	11867.16
615.337	11848.63
615.693	11858.57
616.05	11805.92
616.406	11903.09
616.762	11821.96
617.118	11853.37
617.475	11853.6
617.831	11809.31
618.187	11924.56
618.543	11930.21
618.899	11955.07
619.255	11984.44
619.611	11899.7
619.967	11963.65
620.323	11961.62
620.678	11908.29
621.034	11906.25
621.39	11974.28
621.746	11937.89
622.101	12017.66
622.457	11959.36
622.812	11996.42
623.168	12018.12
623.523	11981.96
623.879	12004.56
624.234	11940.38
624.589	12012.01
624.945	11891.34
625.3	11967.95
625.655	11927.05
626.01	11956.65
626.365	11964.33
626.72	11942.64
627.075	12027.61
627.43	11938.57
627.785	11919.81
628.14	11864
628.495	11938.8
628.85	11911.68
629.205	11809.08
629.559	11900.15
629.914	11849.08
630.269	11871
630.623	11875.3
630.978	11873.26
631.332	11969.98
631.687	11896.76
632.041	11817.22
632.396	11774.96
632.75	11867.16
633.104	11801.85
633.459	11701.97
633.813	11770.44
634.167	11769.76
634.521	11731.57
634.875	11815.41
635.229	11731.8
635.583	11725.24
635.937	11636.88
636.291	11658.35
636.645	11656.32
636.999	11633.04
637.352	11667.39
637.706	11631.23
638.06	11642.76
638.413	11600.27
638.767	11582.42
639.121	11594.4
639.474	11483.44
639.828	11532.48
640.181	11626.71
640.534	11502.42
640.888	11533.84
641.241	11440.05
641.594	11472.82
641.947	11517.11
642.301	11489.32
642.654	11468.07
643.007	11513.04
643.36	11417.23
643.713	11460.62
644.066	11525.02
644.419	11472.14
644.771	11412.93
645.124	11285.25
645.477	11234.41
645.83	11217.69
646.182	11170.23
646.535	11122.55
646.888	11161.42
647.24	11074.86
647.593	11076.22
647.945	11160.29
648.298	11103.56
648.65	11056.56
649.002	10979.73
649.355	11061.76
649.707	11029.44
650.059	11107.18
650.411	11211.81
650.763	11229.21
651.115	11407.51
651.467	11312.6
651.819	11354.63
652.171	11286.84
652.523	11238.48
652.875	11236.67
653.227	11325.93
653.578	11323.67
653.93	11305.82
654.282	11255.65
654.633	11334.29
654.985	11358.92
655.337	11348.76
655.688	11285.48
656.039	11392.6
656.391	11244.35
656.742	11229.89
657.094	11383.56
657.445	11351.24
657.796	11350.79
658.147	11267.18
658.498	11350.34
658.849	11310.34
659.2	11294.29
659.551	11330.68
659.902	11400.51
660.253	11297.46
660.604	11409.09
660.955	11300.39
661.306	11389.88
661.656	11367.06
662.007	11348.3
662.358	11360.05
662.708	11344.69
663.059	11328.19
663.409	11309.66
663.76	11372.71
664.11	11411.8
664.461	11346.27
664.811	11449.77
665.161	11346.5
665.511	11271.02
665.862	11381.75
666.212	11427.62
666.562	11383.1
666.912	11349.89
667.262	11330.22
667.612	11355.99
667.962	11462.88
668.312	11320.73
668.662	11397.57
669.011	11462.2
669.361	11339.04
669.711	11340.39
670.06	11341.75
670.41	11384.91
670.76	11325.71
671.109	11335.2
671.459	11424.91
671.808	11350.34
672.157	11426.72
672.507	11240.28
672.856	11264.69
673.205	11355.99
673.554	11354.18
673.904	11264.69
674.253	11383.33
674.602	11296.78
674.951	11090.23
675.3	11118.03
675.649	11241.87
675.998	11212.04
676.346	11268.98
676.695	11216.33
677.044	11146.73
677.393	11115.54
677.741	11216.78
678.09	11164.35
678.438	11134.98
678.787	11186.05
679.135	11136.78
679.484	11017.92
679.832	11130
680.181	11089.33
680.529	11070.34
680.877	11055.88
681.225	11000.97
681.573	11068.76
681.922	10923.46
682.27	10959.84
682.618	10994.19
682.966	10958.48
683.314	10899.05
683.661	10924.81
684.009	10854.53
684.357	10799.62
684.705	10834.87
685.053	10807.3
685.4	10800.3
685.748	10735.66
686.095	10733.86
686.443	10701.31
686.79	10677.81
687.138	10708.09
687.485	10720.3
687.832	10610.47
688.18	10622.22
688.527	10599.62
688.874	10538.38
689.221	10589.45
689.568	10459.97
689.915	10449.12
690.262	10435.11
690.609	10360.76
690.956	10367.09
691.303	10384.26
691.65	10324.83
691.997	10277.82
692.344	10192.4
692.69	10250.48
693.037	10211.16
693.383	10178.62
693.73	10178.16
694.077	10035.12
694.423	10068.11
694.769	10006.64
695.116	9928.91
695.462	9929.36
695.808	9966.42
696.155	9953.76
696.501	9847.78
696.847	9899.75
697.193	9729.59
697.539	9789.93
697.885	9791.28
698.231	9723.49
698.577	9733.43
698.923	9691.4
699.269	9620.89
699.614	9565.75
699.96	9501.12
700.306	9570.27
700.651	9493.44
700.997	9450.5
701.342	9410.05
701.688	9390.84
702.033	9379.09
702.379	9355.59
702.724	9334.12
703.069	9276.72
703.415	9174.12
703.76	9239.21
704.105	9121.92
704.45	9160.34
704.795	9117.18
705.14	9052.54
705.485	9094.58
705.83	9007.12
706.175	9047.12
706.52	8933.23
706.865	8955.82
707.209	8927.35
707.554	8881.7
707.899	8936.39
708.243	8887.58
708.588	8855.94
708.932	8808.26
709.277	8784.53
709.621	8770.07
709.966	8749.5
710.31	8719.22
710.654	8620.24
710.998	8675.83
711.342	8644.42
711.687	8598.55
712.031	8613.01
712.375	8501.15
712.719	8556.96
713.063	8578.66
713.407	8562.39
713.75	8521.94
714.094	8553.12
714.438	8477.42
714.782	8455.05
715.125	8425.67
715.469	8397.65
715.812	8365.1
716.156	8367.82
716.499	8416.4
716.843	8386.8
717.186	8331.21
717.53	8313.58
717.873	8296.18
718.216	8346.8
718.559	8261.6
718.902	8241.04
719.246	8253.02
719.589	8263.41
719.932	8273.36
720.275	8195.17
720.617	8187.48
720.96	8176.41
721.303	8240.14
721.646	8207.14
721.989	8115.62
722.331	8173.47
722.674	8100.71
723.016	8094.6
723.359	8177.09
723.701	8112.46
724.044	8097.77
724.386	8092.57
724.729	8100.25
725.071	8090.99
725.413	8123.53
725.755	8019.13
726.097	8046.02
726.439	8040.14
726.782	8001.95
727.124	8059.58
727.465	8047.6
727.807	8035.17
728.149	8008.96
728.491	7973.02
728.833	8030.42
729.175	8007.37
729.516	8050.31
729.858	7942.74
730.199	7983.87
730.541	8005.57
730.882	7951.56
731.224	8029.29
731.565	7965.12
731.906	8003.08
732.248	8011.22
732.589	7988.17
732.93	7906.59
733.271	7930.54
733.612	8009.18
733.953	7988.84
734.294	8003.98
734.635	7976.41
734.976	8001.5
735.317	7936.42
735.658	7987.26
735.999	8022.97
736.339	7951.78
736.68	8021.39
737.021	8040.14
737.361	7952.01
737.702	7983.19
738.042	7936.64
738.383	7997.43
738.723	8045.79
739.063	8015.06
739.404	8013.02
739.744	8037.88
740.084	8035.17
740.424	8065.23
740.764	8024.1
741.104	8037.2
741.444	8055.51
741.784	8078.78
742.124	8081.95
742.464	8139.57
742.804	8124.89
743.143	8144.09
743.483	8114.94
743.823	8182.51
744.162	8201.72
744.502	8282.4
744.841	8255.05
745.181	8267.25
745.52	8343.41
745.86	8377.53
746.199	8413.69
746.538	8432.67
746.877	8481.49
747.216	8542.5
747.556	8552.44
747.895	8619.79
748.234	8634.7
748.573	8679.9
748.911	8733.23
749.25	8775.49
749.589	8846
749.928	8863.62
750.267	8976.16
750.605	9069.49
750.944	9126.44
751.283	9164.86
751.621	9236.72
751.96	9295.48
752.298	9370.95
752.636	9489.14
752.975	9535.7
753.313	9661.79
753.651	9796.48
753.989	9864.05
754.327	9989.47
754.666	10066.76
755.004	10204.15
755.342	10310.82
755.679	10500.64
756.017	10504.71
756.355	10667.87
756.693	10831.71
757.031	10964.13
757.368	11100.17
757.706	11221.98
758.044	11334.29
758.381	11449.09
758.719	11618.58
759.056	11770.67
759.394	11957.78
759.731	11993.48
760.068	12221.5
760.405	12348.05
760.743	12379.69
761.08	12710.75
761.417	12780.58
761.754	12927.24
762.091	13072.33
762.428	13234.36
762.765	13364.3
763.102	13590.28
763.438	13649.94
763.775	13813.1
764.112	14007.22
764.449	14168.12
764.785	14301.9
765.122	14346.64
765.458	14546.19
765.795	14678.61
766.131	14877.7
766.467	14945.95
766.804	15067.98
767.14	15171.93
767.476	15376.67
767.812	15448.53
768.148	15615.76
768.485	15746.38
768.821	15788.64
769.157	15947.96
769.492	16033.6
769.828	16250.1
770.164	16188.18
770.5	16375.29
770.836	16402.18
771.171	16469.3
771.507	16666.58
771.842	16630.42
772.178	16689.18
772.513	16848.05
772.849	16955.39
773.184	17010.98
773.519	17069.06
773.855	17036.29
774.19	17107.25
774.525	17149.96
774.86	17299.11
775.195	17406.68
775.53	17366.9
775.865	17422.49
776.2	17344.08
776.535	17365.09
776.87	17476.05
777.205	17479.44
777.539	17487.35
777.874	17620.45
778.209	17616.61
778.543	17550.85
778.878	17625.2
779.212	17660.23
779.547	17660.91
779.881	17737.29
780.215	17632.66
780.55	17798.53
780.884	17685.54
781.218	17710.4
781.552	17728.47
781.886	17728.47
782.22	17656.84
782.554	17683.05
782.888	17632.66
783.222	17673.33
783.556	17595.37
783.889	17635.37
784.223	17508.14
784.557	17671.3
784.89	17685.31
785.224	17597.18
785.557	17446.22
785.891	17554.24
786.224	17443.96
786.558	17589.95
786.891	17393.34
787.224	17427.01
787.557	17389.5
787.891	17382.04
788.224	17443.96
788.557	17480.8
788.89	17381.37
789.223	17529.61
789.556	17258.66
789.888	17288.94
790.221	17302.72
790.554	17149.28
790.887	17214.14
791.219	17182.95
791.552	17120.35
791.884	17037.87
792.217	17102.28
792.549	16971.43
792.882	17003.52
793.214	16962.39
793.546	17022.5
793.879	16873.36
794.211	16729.18
794.543	16847.37
794.875	16825.67
795.207	16794.26
795.539	16706.81
795.871	16754.04
796.203	16627.26
796.535	16587.04
796.867	16563.99
797.198	16520.14
797.53	16570.54
797.862	16475.17
798.193	16449.19
798.525	16417.77
798.856	16386.14
799.188	16248.74
799.519	16127.84
799.85	16145.47
800.182	16099.14
800.513	16091.23
800.844	16094.17
801.175	16154.73
801.506	16113.6
801.837	16001.29
802.168	15965.13
802.499	15923.32
802.83	15933.27
803.161	15812.82
803.491	15848.52
803.822	15832.48
804.153	15690.34
804.483	15589.77
804.814	15510.91
805.145	15673.16
805.475	15570.34
805.805	15465.03
806.136	15535.54
806.466	15462.09
806.796	15518.59
807.126	15378.03
807.457	15401.3
807.787	15338.93
808.117	15281.76
808.447	15263.45
808.777	15322.89
809.107	15175.1
809.436	15158.82
809.766	15136
810.096	15135.77
810.426	15028.43
810.755	15134.87
811.085	14933.97
811.414	15023.46
811.744	14813.52
812.073	14928.77
812.403	14894.65
812.732	14852.62
813.061	14813.07
813.39	14785.05
813.719	14663.47
814.049	14816.69
814.378	14748.89
814.707	14652.17
815.036	14667.09
815.365	14604.94
815.693	14500.08
816.022	14447.43
816.351	14545.73
816.68	14455.57
817.008	14503.02
817.337	14386.64
817.665	14301.9
817.994	14308.68
818.322	14336.25
818.651	14228
818.979	14226.65
819.307	14300.54
819.636	14298.06
819.964	14217.38
820.292	14258.74
820.62	14123.82
820.948	14122.02
821.276	14158.4
821.604	14119.98
821.932	14185.52
822.259	14194.56
822.587	14134.22
822.915	14146.87
823.243	14120.43
823.57	14045.41
823.898	14134.67
824.225	14102.36
824.553	14091.06
824.88	14130.38
825.207	14144.39
825.535	14074.11
825.862	14105.74
826.189	14053.77
826.516	14199.53
826.843	14182.35
827.17	14188
827.497	14169.02
827.824	14187.1
828.151	14295.34
828.478	14220.32
828.805	14255.35
829.131	14187.1
829.458	14226.65
829.785	14097.16
830.111	14158.62
830.438	14225.29
830.764	14189.36
831.09	14180.09
831.417	14120.43
831.743	14186.42
832.069	14132.41
832.395	14124.95
832.722	14171.28
833.048	13979.65
833.374	14089.02
833.7	13973.77
834.026	14076.37
834.351	14041.79
834.677	13985.07
835.003	14026.2
835.329	14000.89
835.654	14053.32
835.98	13980.32
836.306	13986.43
836.631	13979.42
836.956	13988.91
837.282	13890.84
837.607	13937.39
837.932	13919.31
838.258	13803.83
838.583	13952.3
838.908	13727.9
839.233	13804.28
839.558	13822.14
839.883	13757.28
840.208	13715.92
840.533	13668.24
840.858	13694.68
841.182	13688.81
841.507	13655.14
841.832	13655.36
842.156	13487.23
842.481	13520
842.805	13488.13
843.13	13505.08
843.454	13504.4
843.778	13412.43
844.103	13364.75
844.427	13409.72
844.751	13264.86
845.075	13300.12
845.399	13259.67
845.723	13171.76
846.047	13214.02
846.371	13122.49
846.695	13113
847.019	13015.83
847.343	12911.2
847.666	12880.92
847.99	12850.18
848.313	12811.54
848.637	12651.55
848.96	12767.25
849.284	12770.41
849.607	12628.04
849.931	12571.1
850.254	12456.52
850.577	12424.43
850.9	12382.85
851.223	12345.79
851.546	12283.87
851.869	12202.52
852.192	12225.79
852.515	12172.46
852.838	12118.23
853.161	12062.41
853.483	11945.8
853.806	11979.02
854.129	11996.42
854.451	11872.58
854.774	11856.31
855.096	11777.22
855.419	11701.74
855.741	11741.51
856.063	11743.32
856.385	11670.78
856.708	11640.5
857.03	11543.33
857.352	11590.1
857.674	11553.95
857.996	11497.45
858.318	11431.24
858.64	11519.82
858.961	11391.01
859.283	11344.24
859.605	11330.68
859.926	11414.29
860.248	11225.82
860.57	11203.67
860.891	11326.38
861.212	11158.7
861.534	11124.35
861.855	11153.96
862.176	11146.95
862.498	11111.25
862.819	11084.58
863.14	11003.68
863.461	10993.06
863.782	11028.31
864.103	11011.14
864.424	10960.97
864.745	11002.55
865.065	10954.19
865.386	10876.45
865.707	10875.1
866.027	10854.3
866.348	10852.05
866.668	10815.44
866.989	10798.71
867.309	10746.51
867.63	10778.6
867.95	10770.24
868.27	10735.89
868.59	10730.92
868.91	10673.52
869.23	10694.99
869.55	10652.05
869.87	10654.99
870.19	10628.55
870.51	10680.3
870.83	10708.32
871.15	10601.2
871.469	10540.41
871.789	10611.83
872.109	10611.37
872.428	10506.07
872.748	10541.32
873.067	10564.82
873.386	10487.08
873.706	10461.32
874.025	10407.54
874.344	10415.45
874.663	10351.27
874.982	10483.02
875.301	10374.32
875.62	10332.28
875.939	10261.1
876.258	10358.05
876.577	10374.32
876.896	10275.56
877.214	10221.33
877.533	10160.09
877.852	10199.18
878.17	10257.26
878.489	10223.81
878.807	10211.61
879.125	10171.84
879.444	10182.46
879.762	10197.37
880.08	10161.22
880.398	10033.76
880.716	10035.12
881.034	10024.72
881.352	10036.7
881.67	10005.97
881.988	10022.91
882.306	9975.46
882.624	9925.29
882.941	9813.65
883.259	9883.26
883.577	9901.34
883.894	9890.04
884.212	9852.3
884.529	9822.69
884.846	9819.53
885.164	9799.87
885.481	9747.67
885.798	9773.66
886.115	9653.66
886.432	9705.41
886.75	9630.83
887.067	9694.11
887.383	9608.46
887.7	9631.06
888.017	9589.03
888.334	9576.6
888.651	9539.99
888.967	9528.01
889.284	9493.89
889.6	9484.85
889.917	9391.97
890.233	9424.06
890.55	9397.39
890.866	9377.06
891.182	9326.66
891.498	9330.96
891.815	9266.78
892.131	9250.51
892.447	9211.18
892.763	9181.58
893.079	9152.2
893.395	9121.02
893.71	9180.45
894.026	9116.05
894.342	9122.37
894.657	8970.06
894.973	8976.39
895.289	8927.12
895.604	8959.67
895.92	8818.43
896.235	8819.33
896.55	8761.93
896.865	8791.31
897.181	8730.97
897.496	8736.39
897.811	8783.62
898.126	8680.35
898.441	8636.28
898.756	8611.43
899.071	8527.59
899.386	8559.45
899.7	8493.69
900.015	8454.37
900.33	8406.01
900.644	8421.83
900.959	8360.13
901.273	8397.65
901.588	8337.76
901.902	8304.54
902.216	8240.81
902.531	8308.61
902.845	8220.7
903.159	8233.36
903.473	8167.37
903.787	8127.82
904.101	8078.33
904.415	8071.55
904.729	8083.08
905.042	8026.58
905.356	7980.71
905.67	7969.18
905.984	7940.26
906.297	7921.27
906.611	7877.21
906.924	7828.62
907.237	7823.42
907.551	7778.91
907.864	7713.14
908.177	7749.75
908.491	7690.32
908.804	7589.53
909.117	7536.2
909.43	7510.21
909.743	7542.3
910.056	7433.38
910.368	7452.36
910.681	7475.86
910.994	7444.45
911.307	7406.49
911.619	7346.37
911.932	7342.53
912.244	7278.13
912.557	7284.46
912.869	7216.66
913.181	7204.23
913.494	7166.27
913.806	7125.82
914.118	7129.66
914.43	7080.39
914.742	7058.7
915.054	7020.06
915.366	7050.79
915.678	6932.15
915.99	6917.69
916.302	6906.84
916.613	6841.3
916.925	6844.01
917.236	6798.14
917.548	6791.36
917.859	6791.13
918.171	6768.99
918.482	6721.98
918.794	6660.97
919.105	6715.43
919.416	6621.42
919.727	6593.63
920.038	6551.59
920.349	6569.22
920.66	6540.52
920.971	6484.48
921.282	6469.11
921.593	6452.61
921.903	6491.03
922.214	6400.18
922.525	6323.12
922.835	6342.79
923.146	6341.88
923.456	6338.04
923.767	6304.14
924.077	6232.05
924.387	6251.04
924.697	6187.54
925.008	6186.86
925.318	6104.6
925.628	6152.28
925.938	6123.13
926.248	6078.39
926.558	6000.42
926.867	6052.62
927.177	6026.86
927.487	5914.77
927.796	5902.57
928.106	5880.42
928.416	5874.55
928.725	5869.13
929.034	5808.56
929.344	5941.44
929.653	5822.35
929.962	5795.68
930.271	5767.66
930.581	5723.59
930.89	5678.62
931.199	5668
931.508	5677.72
931.817	5640.2
932.125	5641.11
932.434	5618.96
932.743	5541.22
933.051	5530.83
933.36	5465.75
933.669	5483.37
933.977	5454
934.286	5442.02
934.594	5444.05
934.902	5450.83
935.21	5378.06
935.519	5380.32
935.827	5288.12
936.135	5287.67
936.443	5297.39
936.751	5252.19
937.059	5254.45
937.367	5231.85
937.674	5244.73
937.982	5216.94
938.29	5151.4
938.597	5120.9
938.905	5126.09
939.213	5070.73
939.52	5082.93
939.827	5074.8
940.135	5052.2
940.442	5017.4
940.749	5027.34
941.056	4957.51
941.363	4959.54
941.67	4895.37
941.977	4888.36
942.284	4862.82
942.591	4863.73
942.898	4855.14
943.205	4847.68
943.511	4785.76
943.818	4791.64
944.125	4728.14
944.431	4722.49
944.738	4703.73
945.044	4685.2
945.35	4662.6
945.657	4669.38
945.963	4650.17
946.269	4583.51
946.575	4642.04
946.881	4589.38
947.187	4578.99
947.493	4564.53
947.799	4548.93
948.105	4498.09
948.41	4488.14
948.716	4456.51
949.022	4434.81
949.327	4483.63
949.633	4399.79
949.938	4408.82
950.244	4381.71
950.549	4323.86
950.854	4341.93
951.16	4324.99
951.465	4271.88
951.77	4311.43
952.075	4248.38
952.38	4224.65
952.685	4222.61
952.99	4193.92
953.294	4166.57
953.599	4192.33
953.904	4150.53
954.209	4143.07
954.513	4127.25
954.818	4110.3
955.122	4091.32
955.426	4026.91
955.731	4088.61
956.035	4035.73
956.339	4032.79
956.643	3991.66
956.948	3978.1
957.252	3948.5
957.556	3942.17
957.86	3927.48
958.163	3931.78
958.467	3883.64
958.771	3868.27
959.075	3859.69
959.378	3842.06
959.682	3835.73
959.985	3817.2
960.289	3779.91
960.592	3802.51
960.896	3769.07
961.199	3754.15
961.502	3716.64
961.805	3720.48
962.108	3685.91
962.411	3732.46
962.714	3649.3
963.017	3678.67
963.32	3647.71
963.623	3620.6
963.926	3630.09
964.228	3603.87
964.531	3569.75
964.833	3602.29
965.136	3547.38
965.438	3550.77
965.741	3530.66
966.043	3514.16
966.345	3481.62
966.648	3494.72
966.95	3459.7
967.252	3442.52
967.554	3412.69
967.856	3433.71
968.158	3398.46
968.46	3390.09
968.761	3393.94
969.063	3351
969.365	3324.56
969.666	3320.72
969.968	3307.84
970.269	3273.94
970.571	3300.61
970.872	3282.75
971.174	3229.65
971.475	3276.65
971.776	3241.62
972.077	3220.38
972.378	3181.29
972.679	3170.89
972.98	3156.65
973.281	3195.75
973.582	3149.2
973.883	3146.49
974.183	3136.54
974.484	3103.1
974.785	3055.64
975.085	3089.76
975.386	3105.13
975.686	3040.05
975.986	3076.66
976.287	3024.23
976.587	3009.09
976.887	2962.76
977.187	2973.83
977.487	2977.9
977.787	2968.18
978.087	2947.85
978.387	2955.98
978.687	2892.93
978.987	2872.82
979.286	2916.89
979.586	2875.08
979.885	2860.16
980.185	2865.59
980.484	2844.57
980.784	2830.34
981.083	2778.81
981.382	2801.86
981.682	2802.54
981.981	2773.61
982.28	2722.99
982.579	2750.79
982.878	2732.26
983.177	2712.15
983.475	2714.18
983.774	2717.12
984.073	2678.47
984.372	2689.32
984.67	2685.48
984.969	2654.75
985.267	2657.91
985.566	2628.31
985.864	2630.34
986.162	2595.09
986.461	2574.97
986.759	2574.3
987.057	2546.73
987.355	2555.99
987.653	2544.69
987.951	2507.41
988.249	2547.63
988.547	2523.68
988.844	2511.47
989.142	2495.65
989.44	2475.32
989.737	2450.68
990.035	2447.97
990.332	2445.49
990.63	2411.14
990.927	2415.88
991.224	2406.84
991.521	2428.76
991.819	2396.22
992.116	2392.15
992.413	2369.78
992.71	2355.32
993.006	2341.76
993.303	2320.52
993.6	2365.26
993.897	2305.6
994.193	2319.39
994.49	2292.04
994.787	2274.19
995.083	2266.51
995.379	2255.89
995.676	2236
995.972	2231.48
996.268	2228.54
996.565	2215.89
996.861	2230.58
997.157	2195.55
997.453	2191.71
997.749	2182.44
998.044	2149.68
998.34	2153.52
998.636	2145.38
998.932	2138.6
999.227	2110.58
999.523	2095.21
999.818	2120.3
1000.114	2083.69
1000.409	2066.97
1000.704	2039.17
1001	2046.18
1001.295	2009.79
1001.59	2016.35
1001.885	2024.03
1002.18	2006.63
1002.475	1990.36
1002.77	1979.06
1003.065	1973.63
1003.359	1959.85
1003.654	1964.82
1003.949	1925.73
1004.243	1923.92
1004.538	1924.82
1004.832	1911.26
1005.127	1926.4
1005.421	1904.94
1005.715	1885.28
1006.009	1869
1006.304	1873.75
1006.598	1841.66
1006.892	1829.01
1007.186	1801.89
1007.48	1810.25
1007.773	1807.31
1008.067	1797.37
1008.361	1750.14
1008.655	1793.98
1008.948	1786.97
1009.242	1743.58
1009.535	1760.08
1009.829	1745.84
1010.122	1718.27
1010.415	1742
1010.708	1698.39
1011.001	1666.3
1011.295	1688.22
1011.588	1676.69
1011.881	1667.88
1012.173	1680.31
1012.466	1660.65
1012.759	1652.51
1013.052	1654.55
1013.344	1631.5
1013.637	1617.71
1013.93	1612.97
1014.222	1602.34
1014.514	1617.26
1014.807	1595.11
1015.099	1572.29
1015.391	1570.26
1015.683	1530.26
1015.976	1551.72
1016.268	1505.62
1016.56	1538.17
1016.851	1490.71
1017.143	1494.33
1017.435	1511.95
1017.727	1473.08
1018.018	1489.35
1018.31	1490.03
1018.602	1457.49
1018.893	1443.93
1019.185	1461.78
1019.476	1435.12
1019.767	1436.25
1020.058	1402.12
1020.35	1397.6
1020.641	1361.22
1020.932	1374.1
1021.223	1372.07
1021.514	1375.23
1021.804	1351.05
1022.095	1361.22
1022.386	1353.99
1022.677	1350.15
1022.967	1330.49
1023.258	1297.27
1023.548	1323.93
1023.839	1329.81
1024.129	1260.21
1024.419	1287.78
1024.709	1292.52
1025	1280.32
1025.29	1276.25
1025.58	1259.53
1025.87	1256.37
1026.16	1261.11
1026.449	1247.1
1026.739	1233.99
1027.029	1199.64
1027.319	1227.21
1027.608	1175.92
1027.898	1193.32
1028.187	1197.84
1028.477	1207.78
1028.766	1139.98
1029.055	1161.68
1029.344	1171.62
1029.634	1137.95
1029.923	1142.24
1030.212	1121.68
1030.501	1121
1030.79	1097.5
1031.078	1098.63
1031.367	1118.52
1031.656	1080.55
1031.945	1074
1032.233	1090.27
1032.522	1098.18
1032.81	1074.68
1033.099	1049.37
1033.387	1046.88
1033.675	1044.17
1033.963	1029.93
1034.251	1038.29
1034.54	1014.34
1034.828	1032.64
1035.116	1011.17
1035.403	1017.5
1035.691	988.58
1035.979	1000.1
1036.267	979.99
1036.554	987.9
1036.842	957.16
1037.129	982.7
1037.417	961.46
1037.704	951.29
1037.992	949.93
1038.279	952.19
1038.566	938.18
1038.853	938.18
1039.14	938.18
