Data from hue_180_FLMS001491_00051.txt Node
Date: Tue Feb 07 16:47:10 GMT 2017
User: dcchb
Spectrometer: FLMS00149
Trigger mode: 0
Integration Time (sec): 2.000000E-2
Scans to average: 10
Electric dark correction enabled: true
Nonlinearity correction enabled: false
Boxcar width: 0
XAxis mode: Wavelengths
Number of Pixels in Spectrum: 2048
>>>>>Begin Spectral Data<<<<<
341.393	-38.73
341.776	-38.73
342.16	-38.73
342.543	-63.59
342.927	-69.01
343.31	-46.41
343.693	-68.11
344.077	-78.95
344.46	-71.95
344.843	-54.09
345.226	-45.96
345.61	-25.85
345.993	-32.17
346.376	-3.7
346.759	39.24
347.142	17.32
347.525	42.17
347.908	60.93
348.291	77.2
348.674	84.43
349.057	105.9
349.44	133.25
349.823	143.41
350.206	156.3
350.588	194.26
350.971	205.56
351.354	204.2
351.737	227.03
352.119	233.58
352.502	268.83
352.884	277.2
353.267	289.63
353.65	283.3
354.032	295.5
354.414	304.31
354.797	310.64
355.179	331.66
355.562	335.05
355.944	308.38
356.326	325.33
356.709	332.79
357.091	316.07
357.473	339.12
357.855	328.49
358.238	335.5
358.62	335.5
359.002	342.05
359.384	335.95
359.766	344.76
360.148	341.83
360.53	323.97
360.912	339.79
361.294	354.26
361.676	344.76
362.057	318.1
362.439	335.05
362.821	324.65
363.203	329.62
363.584	339.34
363.966	346.12
364.348	342.51
364.729	313.58
365.111	321.71
365.493	340.7
365.874	301.6
366.256	311.55
366.637	316.29
367.019	303.18
367.4	340.7
367.781	316.74
368.163	314.26
368.544	307.93
368.925	307.93
369.306	302.28
369.688	304.31
370.069	318.1
370.45	308.61
370.831	306.57
371.212	326.91
371.593	312
371.974	310.64
372.355	304.31
372.736	307.03
373.117	313.13
373.498	315.84
373.879	297.31
374.26	303.41
374.641	313.35
375.021	313.13
375.402	328.72
375.783	323.75
376.163	319
376.544	340.02
376.925	335.05
377.305	316.52
377.686	312
378.066	317.65
378.447	314.71
378.827	314.48
379.208	322.17
379.588	330.98
379.968	314.71
380.349	347.48
380.729	304.99
381.109	315.84
381.489	324.65
381.87	326.91
382.25	336.4
382.63	336.86
383.01	342.28
383.39	367.82
383.77	334.82
384.15	323.97
384.53	347.48
384.91	341.15
385.29	346.12
385.67	342.28
386.049	329.4
386.429	362.17
386.809	328.49
387.189	333.24
387.568	347.48
387.948	349.74
388.328	376.18
388.707	359.23
389.087	349.96
389.466	348.15
389.846	344.99
390.225	374.82
390.605	367.59
390.984	353.8
391.363	369.17
391.743	356.74
392.122	352.22
392.501	373.92
392.881	355.61
393.26	389.96
393.639	366.46
394.018	385.22
394.397	387.7
394.776	398.32
395.155	391.09
395.534	394.26
395.913	382.05
396.292	375.5
396.671	367.82
397.05	375.05
397.429	394.71
397.808	377.31
398.186	383.41
398.565	380.92
398.944	390.87
399.323	406.91
399.701	414.59
400.08	408.49
400.458	397.42
400.837	409.62
401.215	399.68
401.594	409.17
401.972	420.47
402.351	403.75
402.729	417.08
403.107	431.77
403.486	430.19
403.864	434.93
404.242	424.76
404.62	447.59
404.999	430.41
405.377	453.91
405.755	432.67
406.133	455.95
406.511	453.46
406.889	446.68
407.267	456.85
407.645	467.25
408.023	466.57
408.401	475.83
408.779	479
409.156	488.49
409.534	478.77
409.912	514.7
410.29	505.21
410.667	493.91
411.045	502.73
411.422	497.08
411.8	523.07
412.178	535.27
412.555	567.36
412.933	546.12
413.31	535.49
413.687	555.15
414.065	588.83
414.442	581.82
414.819	568.94
415.197	576.17
415.574	589.28
415.951	608.94
416.328	605.1
416.705	611.88
417.082	620.01
417.46	623.85
417.837	626.11
418.214	645.32
418.591	653.91
418.967	627.47
419.344	670.41
419.721	667.47
420.098	671.76
420.475	683.29
420.852	693.91
421.228	694.13
421.605	716.05
421.982	737.07
422.358	739.56
422.735	735.04
423.111	751.31
423.488	744.3
423.864	762.61
424.241	779.78
424.617	798.09
424.994	788.6
425.37	801.93
425.746	848.93
426.123	798.76
426.499	852.32
426.875	850.74
427.251	864.98
427.627	868.82
428.003	888.03
428.379	880.8
428.756	900.91
429.132	920.79
429.507	909.5
429.883	918.54
430.259	944.75
430.635	943.85
431.011	978.87
431.387	992.66
431.763	1030.17
432.138	987.46
432.514	1018.65
432.89	1014.58
433.265	1049.15
433.641	1090.06
434.016	1080.34
434.392	1108.36
434.767	1132.31
435.143	1133.44
435.518	1130.06
435.894	1162.6
436.269	1204.18
436.644	1217.51
437.02	1216.15
437.395	1199.21
437.77	1233.56
438.145	1275.36
438.52	1312.42
438.895	1301.12
439.271	1322.14
439.646	1343.61
440.021	1364.4
440.395	1386.09
440.77	1361.01
441.145	1378.64
441.52	1440.56
441.895	1433.1
442.27	1420.22
442.645	1471.97
443.019	1475.81
443.394	1481.23
443.769	1521.23
444.143	1504.51
444.518	1541.34
444.892	1546.77
445.267	1530.95
445.641	1532.98
446.016	1560.33
446.39	1568.24
446.764	1603.71
447.139	1604.17
447.513	1618.18
447.887	1606.65
448.262	1644.62
448.636	1672.41
449.01	1654.34
449.384	1713.54
449.758	1714.9
450.132	1696.37
450.506	1721
450.88	1765.07
451.254	1749.7
451.628	1797.38
452.002	1802.81
452.376	1821.56
452.75	1840.77
453.123	1820.66
453.497	1882.58
453.871	1873.54
454.244	1907.21
454.618	1920.09
454.992	1931.39
455.365	1962.8
455.739	1985.63
456.112	2036.25
456.486	2038.05
456.859	2082.12
457.232	2113.08
457.606	2105.4
457.979	2157.6
458.352	2188.78
458.725	2214.32
459.099	2217.26
459.472	2262.45
459.845	2235.79
460.218	2335.45
460.591	2353.75
460.964	2353.3
461.337	2394.2
461.71	2437.37
462.083	2463.35
462.456	2500.87
462.829	2504.71
463.201	2537.7
463.574	2531.37
463.947	2560.75
464.32	2680.52
464.692	2689.79
465.065	2671.71
465.438	2725.72
465.81	2798.49
466.183	2821.08
466.555	2867.41
466.928	2919.16
467.3	2910.12
467.672	2957.58
468.045	3092.04
468.417	3042.32
468.789	3080.51
469.161	3122.55
469.534	3209.77
469.906	3256.78
470.278	3319.83
470.65	3314.63
471.022	3395.08
471.394	3517.79
471.766	3449.09
472.138	3501.74
472.51	3642.31
472.882	3718.46
473.253	3736.99
473.625	3831.23
473.997	3884.78
474.369	3939.02
474.74	3962.52
475.112	4079.36
475.484	4133.59
475.855	4226.92
476.227	4257.66
476.598	4411.32
476.97	4417.88
477.341	4522.51
477.713	4575.84
478.084	4640.7
478.455	4792.78
478.827	4873.91
479.198	4989.61
479.569	4990.97
479.94	5205.43
480.311	5233.22
480.682	5355.03
481.053	5431.18
481.424	5631.63
481.795	5664.4
482.166	5729.03
482.537	5799.08
482.908	5962.92
483.279	6084.95
483.65	6155.46
484.021	6293.54
484.391	6377.83
484.762	6432.06
485.133	6521.1
485.503	6664.15
485.874	6808.78
486.244	6887.42
486.615	7023.91
486.985	7188.65
487.356	7248.99
487.726	7372.15
488.097	7473.39
488.467	7516.1
488.837	7675.42
489.207	7862.08
489.578	7932.14
489.948	7962.87
490.318	8086.93
490.688	8184.33
491.058	8309.08
491.428	8392.24
491.798	8493.48
492.168	8658.44
492.538	8724.21
492.908	8852.11
493.278	8967.59
493.648	8916.52
494.017	9114.03
494.387	9152.89
494.757	9298.2
495.126	9325.09
495.496	9376.39
495.866	9462.94
496.235	9593.79
496.605	9631.75
496.974	9705.42
497.344	9821.13
497.713	9769.83
498.082	9889.37
498.452	10009.37
498.821	10038.52
499.19	10087.79
499.559	10179.76
499.928	10283.94
500.298	10283.03
500.667	10370.04
501.036	10323.49
501.405	10477.83
501.774	10416.59
502.143	10528.68
502.512	10473.76
502.88	10706.75
503.249	10614.33
503.618	10653.42
503.987	10780.87
504.356	10722.57
504.724	10833.98
505.093	10857.26
505.462	10894.09
505.83	10973.86
506.199	11033.3
506.567	11163.24
506.936	11099.96
507.304	11151.71
507.672	11213.18
508.041	11225.38
508.409	11292.73
508.777	11287.75
509.145	11359.84
509.514	11372.27
509.882	11435.09
510.25	11461.76
510.618	11433.29
510.986	11456.34
511.354	11603
511.722	11547.86
512.09	11623.11
512.458	11626.95
512.826	11732.26
513.193	11697.23
513.561	11710.57
513.929	11757.12
514.297	11794.63
514.664	11833.05
515.032	11842.32
515.4	11845.03
515.767	11963.67
516.135	11988.98
516.502	11840.06
516.869	11991.46
517.237	12058.13
517.604	12012.71
517.972	12047.51
518.339	12001.18
518.706	11899.26
519.073	11989.2
519.44	12021.52
519.808	12137.68
520.175	12106.26
520.542	12238.24
520.909	12253.6
521.276	12065.13
521.643	12175.87
522.009	12315.07
522.376	12163.89
522.743	12320.04
523.11	12304.9
523.477	12408.85
523.843	12372.47
524.21	12454.05
524.577	12477.78
524.943	12530.43
525.31	12390.1
525.676	12535.63
526.043	12506.71
526.409	12546.93
526.776	12565.01
527.142	12583.09
527.508	12598.91
527.874	12585.57
528.241	12528.4
528.607	12539.02
528.973	12587.38
529.339	12472.81
529.705	12551.9
530.071	12632.8
530.437	12430.1
530.803	12543.31
531.169	12537.66
531.535	12444.33
531.901	12471.45
532.267	12461.96
532.632	12426.48
532.998	12404.79
533.364	12454.5
533.73	12358.91
534.095	12432.81
534.461	12409.08
534.826	12389.65
535.192	12312.81
535.557	12350.78
535.923	12281.4
536.288	12209.31
536.653	12183.32
537.019	12164.57
537.384	12075.98
537.749	12158.92
538.114	12017
538.479	11966.83
538.845	12042.99
539.21	11931.13
539.575	11892.71
539.94	11830.56
540.305	11896.33
540.67	11813.16
541.034	11786.95
541.399	11744.01
541.764	11725.93
542.129	11654.3
542.494	11699.72
542.858	11572.49
543.223	11602.1
543.587	11501.53
543.952	11500.86
544.316	11538.14
544.681	11355.77
545.045	11391.03
545.41	11309.9
545.774	11275.55
546.138	11241.88
546.503	11208.43
546.867	11112.62
547.231	11167.53
547.595	11136.8
547.959	11127.31
548.324	11049.57
548.688	11034.2
549.052	10954.88
549.416	10936.58
549.779	10898.16
550.143	10830.14
550.507	10909.46
550.871	10771.38
551.235	10733.87
551.599	10789.91
551.962	10716.7
552.326	10611.84
552.689	10686.41
553.053	10577.26
553.417	10541.56
553.78	10596.47
554.143	10434.44
554.507	10462.69
554.87	10511.96
555.234	10476.25
555.597	10372.3
555.96	10426.08
556.323	10428.12
556.686	10333.2
557.05	10358.74
557.413	10364.39
557.776	10341.34
558.139	10329.59
558.502	10208.01
558.865	10246.65
559.228	10242.36
559.59	10270.15
559.953	10193.55
560.316	10221.12
560.679	10141.12
561.041	10265.18
561.404	10223.6
561.767	10223.38
562.129	10180.44
562.492	10216.37
562.854	10203.94
563.217	10103.83
563.579	10198.97
563.941	10167.33
564.304	10170.72
564.666	10246.2
565.028	10178.63
565.39	10133.89
565.753	10147.45
566.115	10204.62
566.477	10195.35
566.839	10184.28
567.201	10170.04
567.563	10154.45
567.925	10184.73
568.287	10217.05
568.648	10237.16
569.01	10190.61
569.372	10326.2
569.734	10227.89
570.095	10220.44
570.457	10223.83
570.819	10254.56
571.18	10205.07
571.542	10262.02
571.903	10222.47
572.265	10325.52
572.626	10228.12
572.987	10223.38
573.349	10290.04
573.71	10218.18
574.071	10267.89
574.432	10259.08
574.794	10337.5
575.155	10332.98
575.516	10291.85
575.877	10325.52
576.238	10258.63
576.599	10312.41
576.96	10278.06
577.32	10304.05
577.681	10234.45
578.042	10300.21
578.403	10235.8
578.763	10297.5
579.124	10364.39
579.485	10325.29
579.845	10370.72
580.206	10215.47
580.566	10235.13
580.927	10242.81
581.287	10268.35
581.648	10298.4
582.008	10346.99
582.368	10234.45
582.728	10261.34
583.089	10208.46
583.449	10197.39
583.809	10229.93
584.169	10249.82
584.529	10188.35
584.889	10256.37
585.249	10208.23
585.609	10082.14
585.969	10260.89
586.329	10141.57
586.688	10146.32
587.048	10145.64
587.408	10045.75
587.768	10117.16
588.127	10108.35
588.487	10002.14
588.846	10023.15
589.206	10038.07
589.565	10104.06
589.925	10137.28
590.284	10104.96
590.643	10092.31
591.003	10105.64
591.362	10069.71
591.721	10093.89
592.08	10000.33
592.44	10119.42
592.799	10033.32
593.158	10013.66
593.517	9984.74
593.876	9911.07
594.235	9957.39
594.593	9988.81
594.952	9977.05
595.311	9995.58
595.67	9947
596.029	10024.28
596.387	10032.42
596.746	9986.09
597.104	9899.09
597.463	9909.03
597.822	9978.64
598.18	9914.23
598.538	9900.22
598.897	9942.7
599.255	9851.86
599.613	10017.05
599.972	9936.38
600.33	9942.7
600.688	9930.95
601.046	9917.17
601.404	9963.95
601.762	9956.49
602.12	9970.05
602.478	9993.32
602.836	9935.02
603.194	9876.94
603.552	9788.81
603.91	9831.75
604.268	9863.38
604.625	9878.75
604.983	9815.7
605.341	9853.22
605.698	9873.33
606.056	9887.79
606.413	9865.64
606.771	9867.9
607.128	10005.53
607.485	9844.4
607.843	9837.85
608.2	9909.26
608.557	9936.15
608.914	9803.27
609.272	9930.05
609.629	9966.43
609.986	9907
610.343	9952.2
610.7	9945.64
611.057	9943.16
611.414	9867.9
611.771	9927.56
612.127	10097.28
612.484	9898.86
612.841	9959.2
613.198	9987.22
613.554	9949.48
613.911	10035.58
614.267	10019.31
614.624	9992.42
614.98	9962.82
615.337	10077.84
615.693	9975.47
616.05	9986.55
616.406	10063.38
616.762	10022.48
617.118	9997.39
617.475	10055.7
617.831	10019.76
618.187	10011.4
618.543	10024.06
618.899	10161.46
619.255	10082.59
619.611	10097.73
619.967	10145.19
620.323	10113.32
620.678	10096.82
621.034	10097.05
621.39	10049.82
621.746	10054.79
622.101	10189.03
622.457	10100.89
622.812	10150.61
623.168	10091.63
623.523	10113.77
623.879	10140.89
624.234	10078.29
624.589	10073.77
624.945	10078.29
625.3	10051.18
625.655	10128.46
626.01	10115.81
626.365	10070.61
626.72	10075.36
627.075	10059.99
627.43	9983.38
627.785	10049.82
628.14	10043.49
628.495	10071.06
628.85	10026.54
629.205	10016.15
629.559	10085.07
629.914	10010.73
630.269	10102.7
630.623	10021.35
630.978	9980.9
631.332	10100.21
631.687	10087.56
632.041	9996.26
632.396	9948.81
632.75	9943.38
633.104	10003.72
633.459	9921.91
633.813	9882.59
634.167	9873.1
634.521	9845.76
634.875	9949.71
635.229	9887.11
635.583	9859.32
635.937	9853.89
636.291	9812.54
636.645	9842.59
636.999	9794.69
637.352	9827
637.706	9778.64
638.06	9778.42
638.413	9796.72
638.767	9712.65
639.121	9756.27
639.474	9704.74
639.828	9635.82
640.181	9694.12
640.534	9701.36
640.888	9636.05
641.241	9656.84
641.594	9643.28
641.947	9605.09
642.301	9606.22
642.654	9639.66
643.007	9636.72
643.36	9638.08
643.713	9624.52
644.066	9630.4
644.419	9568.03
644.771	9507.91
645.124	9437.86
645.477	9440.34
645.83	9410.74
646.182	9352.44
646.535	9297.3
646.888	9370.52
647.24	9255.94
647.593	9288.71
647.945	9305.66
648.298	9256.4
648.65	9260.46
649.002	9255.94
649.355	9336.39
649.707	9340.01
650.059	9369.16
650.411	9491.19
650.763	9415.71
651.115	9543.85
651.467	9499.1
651.819	9465.43
652.171	9510.17
652.523	9395.37
652.875	9468.14
653.227	9411.87
653.578	9492.55
653.93	9521.92
654.282	9429.95
654.633	9405.77
654.985	9490.97
655.337	9443.73
655.688	9528.03
656.039	9471.3
656.391	9391.08
656.742	9421.14
657.094	9465.43
657.445	9548.14
657.796	9557.4
658.147	9481.02
658.498	9527.57
658.849	9581.81
659.2	9509.04
659.551	9511.98
659.902	9562.83
660.253	9505.88
660.604	9479.89
660.955	9486.9
661.306	9549.04
661.656	9525.54
662.007	9507.01
662.358	9479.89
662.708	9511.76
663.059	9484.64
663.409	9482.83
663.76	9529.83
664.11	9544.75
664.461	9551.98
664.811	9591.53
665.161	9543.39
665.511	9511.76
665.862	9509.95
666.212	9529.83
666.562	9518.76
666.912	9530.06
667.262	9634.24
667.612	9553.11
667.962	9540
668.312	9520.57
668.662	9518.31
669.011	9518.08
669.361	9498.42
669.711	9512.21
670.06	9520.57
670.41	9492.32
670.76	9507.69
671.109	9536.16
671.459	9535.48
671.808	9507.46
672.157	9520.57
672.507	9399.22
672.856	9446.45
673.205	9469.04
673.554	9497.74
673.904	9485.77
674.253	9457.07
674.602	9457.97
674.951	9292.33
675.3	9298.65
675.649	9381.82
675.998	9383.4
676.346	9417.52
676.695	9378.43
677.044	9315.83
677.393	9385.21
677.741	9329.61
678.09	9321.48
678.438	9329.39
678.787	9387.47
679.135	9343.62
679.484	9310.18
679.832	9313.34
680.181	9221.14
680.529	9244.42
680.877	9201.48
681.225	9238.54
681.573	9245.32
681.922	9160.13
682.27	9185.66
682.618	9231.31
682.966	9177.75
683.314	9196.28
683.661	9119
684.009	9049.62
684.357	9073.35
684.705	9042.62
685.053	9038.1
685.4	9006.23
685.748	9053.46
686.095	8977.53
686.443	8964.2
686.79	8915.39
687.138	8942.73
687.485	8876.52
687.832	8895.05
688.18	8895.27
688.527	8822.06
688.874	8761.94
689.221	8740.02
689.568	8794.03
689.915	8735.05
690.262	8726.01
690.609	8710.19
690.956	8669.74
691.303	8629.52
691.65	8504.32
691.997	8630.65
692.344	8533.48
692.69	8532.8
693.037	8549.07
693.383	8453.93
693.73	8421.84
694.077	8416.87
694.423	8348.4
694.769	8333.71
695.116	8294.39
695.462	8321.5
695.808	8285.8
696.155	8255.29
696.501	8248.51
696.847	8189.3
697.193	8147.95
697.539	8124.22
697.885	8111.79
698.231	8103.88
698.577	8058.23
698.923	8041.51
699.269	8078.12
699.614	7973.72
699.96	7952.02
700.306	7904.79
700.651	7883.32
700.997	7881.29
701.342	7845.81
701.688	7805.59
702.033	7759.03
702.379	7794.06
702.724	7705.93
703.069	7752.25
703.415	7631.8
703.76	7599.49
704.105	7627.96
704.45	7561.98
704.795	7524.46
705.14	7529.21
705.485	7543.45
705.83	7485.14
706.175	7442.43
706.52	7451.24
706.865	7399.95
707.209	7409.89
707.554	7378.25
707.899	7368.54
708.243	7306.39
708.588	7272.27
708.932	7260.52
709.277	7197.01
709.621	7195.43
709.966	7179.61
710.31	7187.75
710.654	7119.28
710.998	7162.66
711.342	7093.29
711.687	7088.99
712.031	7042.22
712.375	7065.49
712.719	7064.36
713.063	7093.51
713.407	7090.35
713.75	6996.79
714.094	7018.04
714.438	6986.62
714.782	7005.38
715.125	6960.41
715.469	6968.09
715.812	6923.12
716.156	6893.52
716.499	6891.03
716.843	6936.68
717.186	6880.64
717.53	6930.35
717.873	6893.07
718.216	6869.11
718.559	6845.61
718.902	6802
719.246	6795.22
719.589	6794.54
719.932	6757.48
720.275	6816.69
720.617	6811.26
720.96	6723.81
721.303	6809.91
721.646	6785.73
721.989	6745.73
722.331	6731.49
722.674	6701.89
723.016	6790.25
723.359	6680.87
723.701	6746.86
724.044	6694.65
724.386	6659.63
724.729	6668.89
725.071	6682.23
725.413	6678.38
725.755	6668.89
726.097	6665.73
726.439	6606.97
726.782	6651.72
727.124	6652.4
727.465	6629.12
727.807	6635.45
728.149	6626.18
728.491	6597.03
728.833	6656.46
729.175	6592.06
729.516	6655.79
729.858	6644.94
730.199	6621.44
730.541	6602
730.882	6604.94
731.224	6581.66
731.565	6590.7
731.906	6636.58
732.248	6585.28
732.589	6534.66
732.93	6560.87
733.271	6573.75
733.612	6601.55
733.953	6580.99
734.294	6599.97
734.635	6622.79
734.976	6614.43
735.317	6603.13
735.658	6591.38
735.999	6634.77
736.339	6587.54
736.68	6644.94
737.021	6600.87
737.361	6575.79
737.702	6619.85
738.042	6634.77
738.383	6630.02
738.723	6661.89
739.063	6621.66
739.404	6689
739.744	6689.46
740.084	6683.13
740.424	6703.24
740.764	6724.94
741.104	6750.02
741.444	6739.85
741.784	6788.89
742.124	6718.38
742.464	6788.44
742.804	6789.34
743.143	6800.41
743.483	6786.18
743.823	6784.6
744.162	6778.27
744.502	6912.28
744.841	6915.89
745.181	6983.46
745.52	7018.04
745.86	7015.78
746.199	7056
746.538	7090.8
746.877	7163.34
747.216	7192.04
747.556	7216.45
747.895	7207.64
748.234	7288.99
748.573	7268.88
748.911	7400.4
749.25	7349.55
749.589	7419.38
749.928	7544.35
750.267	7634.52
750.605	7638.36
750.944	7720.39
751.283	7806.49
751.621	7852.36
751.96	7935.98
752.298	8026.14
752.636	8126.71
752.975	8238.34
753.313	8286.7
753.651	8408.06
753.989	8486.92
754.327	8574.83
754.666	8602.17
755.004	8802.4
755.342	8930.75
755.679	9102.27
756.017	9088.49
756.355	9296.62
756.693	9462.27
757.031	9535.94
757.368	9751.3
757.706	9869.71
758.044	9958.3
758.381	10152.64
758.719	10271.51
759.056	10416.59
759.394	10648.22
759.731	10707.88
760.068	10868.33
760.405	10990.81
760.743	11121.2
761.08	11281.65
761.417	11412.5
761.754	11644.13
762.091	11847.51
762.428	11984.68
762.765	12067.62
763.102	12320.72
763.438	12469.64
763.775	12601.39
764.112	12797.54
764.449	13006.58
764.785	13085.22
765.122	13144.2
765.458	13395.95
765.795	13569.28
766.131	13636.62
766.467	13807.91
766.804	13927.46
767.14	14074.35
767.476	14294
767.812	14405.41
768.148	14539.42
768.485	14621.23
768.821	14704.16
769.157	14812.18
769.492	14973.08
769.828	15035.45
770.164	15128.56
770.5	15277.25
770.836	15503.24
771.171	15488.77
771.507	15665.04
771.842	15633.4
772.178	15812.61
772.513	15882.44
772.849	15986.16
773.184	16050.11
773.519	16184.12
773.855	16151.13
774.19	16297.57
774.525	16307.51
774.86	16483.32
775.195	16458.01
775.53	16530.55
775.865	16619.59
776.2	16582.98
776.535	16518.58
776.87	16647.84
777.205	16716.31
777.539	16748.4
777.874	16875.4
778.209	16808.51
778.543	16920.6
778.878	16879.02
779.212	16955.85
779.547	16971.45
779.881	17067.04
780.215	16977.77
780.55	17178.9
780.884	17080.82
781.218	17125.34
781.552	17131.89
781.886	17098.67
782.22	17044.89
782.554	17069.3
782.888	17056.42
783.222	17055.96
783.556	16981.84
783.889	17066.36
784.223	16978.68
784.557	16983.88
784.89	17147.71
785.224	16994.5
785.557	16986.14
785.891	16914.27
786.224	17039.47
786.558	17018.22
786.891	16877.89
787.224	16805.8
787.557	16865.23
787.891	16845.12
788.224	16895.52
788.557	16914.5
788.89	16932.8
789.223	16810.09
789.556	16841.05
789.888	16792.02
790.221	16736.42
790.554	16603.55
790.887	16683.54
791.219	16644.45
791.552	16676.09
791.884	16539.37
792.217	16588.86
792.549	16475.41
792.882	16538.24
793.214	16507.73
793.546	16480.61
793.879	16431.57
794.211	16338.69
794.543	16427.96
794.875	16382.54
795.207	16505.02
795.539	16291.69
795.871	16371.01
796.203	16201.52
796.535	16153.16
796.867	16128.08
797.198	16196.33
797.53	16138.25
797.862	16088.76
798.193	16040.62
798.525	16034.97
798.856	16003.34
799.188	15811.93
799.519	15806.51
799.85	15769.9
800.182	15774.19
800.513	15839.72
800.844	15643.12
801.175	15766.73
801.506	15657.36
801.837	15578.94
802.168	15638.15
802.499	15598.15
802.83	15489.45
803.161	15447.87
803.491	15506.17
803.822	15445.16
804.153	15401.77
804.483	15331.72
804.814	15265.05
805.145	15249.68
805.475	15269.34
805.805	15287.87
806.136	15246.07
806.466	15231.15
806.796	15246.75
807.126	15118.39
807.457	15150.03
807.787	15059.18
808.117	15016.7
808.447	14950.71
808.777	14947.54
809.107	14921.1
809.436	14915.91
809.766	14882.69
810.096	14794.1
810.426	14811.28
810.755	14798.85
811.085	14792.75
811.414	14837.49
811.744	14607.44
812.073	14610.38
812.403	14641.11
812.732	14562.7
813.061	14508.69
813.39	14452.87
813.719	14530.38
814.049	14542.36
814.378	14435.02
814.707	14375.36
815.036	14370.16
815.365	14297.39
815.693	14220.11
816.022	14286.55
816.351	14208.58
816.68	14146.44
817.008	14164.74
817.337	14084.06
817.665	14034.12
817.994	14111.41
818.322	14078.64
818.651	13991.86
818.979	13992.54
819.307	14050.85
819.636	13998.87
819.964	13874.35
820.292	13953.9
820.62	13981.69
820.948	13960
821.276	13919.78
821.604	13932.43
821.932	14020.79
822.259	13932.66
822.587	13857.86
822.915	13859.66
823.243	13912.32
823.57	13908.02
823.898	13905.99
824.225	13890.85
824.553	13875.03
824.88	13888.59
825.207	13908.25
825.535	13913.22
825.862	13930.17
826.189	13850.4
826.516	14044.52
826.843	13929.27
827.17	13957.29
827.497	13976.72
827.824	13960.68
828.151	14059.88
828.478	14098.3
828.805	14083.16
829.131	13889.49
829.458	13936.95
829.785	13882.94
830.111	13873.22
830.438	13971.98
830.764	13951.64
831.09	14060.34
831.417	13899.44
831.743	14004.97
832.069	13932.43
832.395	13860.12
832.722	13883.17
833.048	13894.69
833.374	13782.6
833.7	13844.75
834.026	13959.77
834.351	13817.18
834.677	13810.17
835.003	13910.74
835.329	13861.25
835.654	13806.56
835.98	13775.37
836.306	13741.93
836.631	13690.4
836.956	13777.18
837.282	13835.03
837.607	13725.88
837.932	13720.68
838.258	13612.66
838.583	13663.96
838.908	13562.04
839.233	13631.2
839.558	13504.64
839.883	13539.22
840.208	13474.59
840.533	13404.99
840.858	13526.34
841.182	13511.88
841.507	13418.55
841.832	13416.29
842.156	13356.17
842.481	13323.63
842.805	13308.49
843.13	13327.7
843.454	13261.49
843.778	13212.22
844.103	13195.05
844.427	13199.57
844.751	13176.74
845.075	13114.6
845.399	13048.61
845.723	13033.24
846.047	13120.93
846.371	12962.29
846.695	12912.34
847.019	12821.5
847.343	12747.83
847.666	12727.04
847.99	12593.26
848.313	12621.73
848.637	12586.25
848.96	12539.92
849.284	12512.35
849.607	12490.89
849.931	12453.6
850.254	12342.64
850.577	12244.34
850.9	12210.22
851.223	12117.34
851.546	12060.62
851.869	12045.47
852.192	12093.16
852.515	11949.88
852.838	11960.5
853.161	11902.43
853.483	11821.07
853.806	11819.94
854.129	11758.02
854.451	11798.7
854.774	11654.3
855.096	11630.8
855.419	11678.25
855.741	11549.22
856.063	11548.99
856.385	11536.34
856.708	11494.3
857.03	11501.53
857.352	11495.43
857.674	11432.16
857.996	11353.06
858.318	11358.03
858.64	11312.39
858.961	11295.66
859.283	11208.89
859.605	11210.47
859.926	11215.89
860.248	11171.15
860.57	11122.33
860.891	11176.57
861.212	11110.36
861.534	11109.45
861.855	11061.09
862.176	11057.03
862.498	11033.52
862.819	11018.61
863.14	10997.59
863.461	10933.41
863.782	10879.86
864.103	10864.26
864.424	10879.86
864.745	10879.4
865.065	10828.78
865.386	10762.12
865.707	10721.89
866.027	10799.18
866.348	10790.59
866.668	10756.47
866.989	10656.13
867.309	10653.87
867.63	10632.86
867.95	10684.38
868.27	10643.93
868.59	10568.45
868.91	10558.06
869.23	10587.21
869.55	10507.21
869.87	10526.64
870.19	10521.9
870.51	10509.24
870.83	10520.77
871.15	10450.71
871.469	10450.04
871.789	10453.88
872.109	10473.09
872.428	10307.67
872.748	10424.27
873.067	10309.02
873.386	10372.98
873.706	10347.44
874.025	10251.62
874.344	10262.02
874.663	10275.13
874.982	10263.37
875.301	10243.26
875.62	10219.99
875.939	10198.74
876.258	10199.2
876.577	10225.86
876.896	10162.13
877.214	10203.71
877.533	10136.37
877.852	10106.77
878.17	10068.13
878.489	10146.99
878.807	10079.65
879.125	10072.19
879.444	10066.09
879.762	9973.21
880.08	10064.74
880.398	9956.94
880.716	9986.09
881.034	9968.47
881.352	9989.94
881.67	9925.08
881.988	9851.86
882.306	9839.43
882.624	9814.8
882.941	9839.66
883.259	9763.5
883.577	9760.56
883.894	9778.19
884.212	9762.82
884.529	9687.8
884.846	9721.47
885.164	9682.37
885.481	9636.5
885.798	9635.82
886.115	9558.99
886.432	9592.88
886.75	9500.91
887.067	9554.69
887.383	9415.03
887.7	9464.3
888.017	9438.76
888.334	9405.77
888.651	9456.84
888.967	9466.78
889.284	9376.84
889.6	9222.27
889.917	9287.81
890.233	9324.87
890.55	9282.84
890.866	9244.42
891.182	9235.6
891.498	9230.41
891.815	9114.03
892.131	9117.87
892.447	9108.6
892.763	9081.94
893.079	9044.2
893.395	9000.13
893.71	8963.07
894.026	8997.42
894.342	8909.29
894.657	8907.7
894.973	8881.72
895.289	8791.32
895.604	8787.71
895.92	8728.27
896.235	8730.99
896.55	8733.24
896.865	8700.25
897.181	8697.54
897.496	8686.69
897.811	8670.42
898.126	8617.32
898.441	8557.43
898.756	8539.13
899.071	8529.63
899.386	8416.64
899.7	8400.15
900.015	8407.83
900.33	8384.78
900.644	8325.12
900.959	8380.49
901.273	8260.04
901.588	8227.72
901.902	8206.71
902.216	8133.94
902.531	8161.73
902.845	8110.21
903.159	8069.99
903.473	8079.48
903.787	8022.76
904.101	7982.53
904.415	7908.86
904.729	7929.65
905.042	7955.64
905.356	7865.02
905.67	7811.46
905.984	7822.08
906.297	7815.98
906.611	7839.48
906.924	7800.61
907.237	7732.37
907.551	7695.08
907.864	7691.69
908.177	7597.46
908.491	7604.91
908.804	7541.64
909.117	7467.74
909.43	7439.72
909.743	7468.42
910.056	7389.33
910.368	7347.07
910.681	7262.78
910.994	7315.66
911.307	7302.1
911.619	7265.26
911.932	7275.88
912.244	7160.86
912.557	7168.77
912.869	7118.15
913.181	7087.41
913.494	7070.01
913.806	7054.87
914.118	7026.17
914.43	6969
914.742	6988.66
915.054	6994.76
915.366	6903.91
915.678	6891.94
915.99	6856.23
916.302	6817.14
916.613	6794.76
916.925	6709.12
917.236	6770.36
917.548	6706.63
917.859	6676.35
918.171	6668.89
918.482	6633.64
918.794	6604.49
919.105	6653.07
919.416	6592.06
919.727	6541.66
920.038	6498.95
920.349	6489.01
920.66	6439.97
920.971	6434.32
921.282	6432.06
921.593	6324.49
921.903	6328.11
922.214	6388.45
922.525	6308.45
922.835	6301.44
923.146	6273.2
923.456	6208.57
923.767	6201.56
924.077	6173.99
924.387	6165.18
924.697	6120.21
925.008	6096.7
925.318	6038.85
925.628	6056.71
925.938	6022.36
926.248	5977.16
926.558	5983.49
926.867	6020.1
927.177	5936.93
927.487	5910.72
927.796	5870.04
928.106	5812.19
928.416	5790.72
928.725	5816.26
929.034	5775.36
929.344	5759.54
929.653	5799.08
929.962	5709.6
930.271	5670.27
930.581	5660.33
930.89	5629.82
931.199	5636.38
931.508	5592.99
931.817	5630.05
932.125	5535.36
932.434	5565.19
932.743	5478.87
933.051	5463.05
933.36	5530.62
933.669	5445.65
933.977	5392.77
934.286	5403.61
934.594	5363.39
934.902	5369.72
935.21	5305.31
935.519	5354.8
935.827	5307.57
936.135	5233.68
936.443	5264.41
936.751	5219.44
937.059	5260.57
937.367	5176.28
937.674	5206.33
937.982	5163.17
938.29	5102.61
938.597	5111.42
938.905	5091.08
939.213	5035.04
939.52	5077.97
939.827	5017.64
940.135	4994.36
940.442	4949.62
940.749	4960.91
941.056	4968.82
941.363	4922.72
941.67	4885.66
941.977	4880.46
942.284	4835.49
942.591	4839.34
942.898	4790.52
943.205	4759.11
943.511	4781.26
943.818	4758.43
944.125	4708.94
944.431	4671.88
944.738	4706.01
945.044	4661.94
945.35	4629.4
945.657	4587.14
945.963	4602.51
946.269	4528.16
946.575	4540.59
946.881	4552.11
947.187	4557.08
947.493	4508.95
947.799	4480.02
948.105	4415.39
948.41	4433.92
948.716	4424.88
949.022	4419.23
949.327	4408.61
949.633	4343.76
949.938	4366.35
950.244	4375.62
950.549	4292.68
950.854	4229.41
951.16	4287.26
951.465	4238
951.77	4228.5
952.075	4212.69
952.38	4142.18
952.685	4172.69
952.99	4175.17
953.294	4125.91
953.599	4118.9
953.904	4075.29
954.209	4077.1
954.513	4121.16
954.818	4053.37
955.122	4055.85
955.426	3999.81
955.731	4029.87
956.035	4025.12
956.339	3983.77
956.643	3943.77
956.948	3920.26
957.252	3972.69
957.556	3927.04
957.86	3910.55
958.163	3883.2
958.467	3887.72
958.771	3883.65
959.075	3819.02
959.378	3802.98
959.682	3804.11
959.985	3788.74
960.289	3752.58
960.592	3801.85
960.896	3767.95
961.199	3747.61
961.502	3708.07
961.805	3670.33
962.108	3655.19
962.411	3678.91
962.714	3662.19
963.017	3654.73
963.32	3660.16
963.623	3620.61
963.926	3586.94
964.228	3538.35
964.531	3556.21
964.833	3500.84
965.136	3508.07
965.438	3494.29
965.741	3489.09
966.043	3469.43
966.345	3488.64
966.648	3484.57
966.95	3417.9
967.252	3410.45
967.554	3387.85
967.856	3381.52
968.158	3391.24
968.46	3364.8
968.761	3352.37
969.063	3349.21
969.365	3288.42
969.666	3275.31
969.968	3284.12
970.269	3285.7
970.571	3227.85
970.872	3245.71
971.174	3217.23
971.475	3226.27
971.776	3189.89
972.077	3174.07
972.378	3164.58
972.679	3147.18
972.98	3128.65
973.281	3115.77
973.582	3114.86
973.883	3096.33
974.183	3064.24
974.484	3068.54
974.785	3039.61
975.085	3047.97
975.386	3035.99
975.686	3028.08
975.986	2986.05
976.287	3024.69
976.587	2986.5
976.887	2953.96
977.187	2962.1
977.487	2937.69
977.787	2952.83
978.087	2952.83
978.387	2902.21
978.687	2898.6
978.987	2892.72
979.286	2858.82
979.586	2864.25
979.885	2802.1
980.185	2824.93
980.484	2790.12
980.784	2789.9
981.083	2841.65
981.382	2771.14
981.682	2791.25
981.981	2756.9
982.28	2697.02
982.579	2774.53
982.878	2714.87
983.177	2692.27
983.475	2691.37
983.774	2677.58
984.073	2614.54
984.372	2640.07
984.67	2671.26
984.969	2618.38
985.267	2615.44
985.566	2654.31
985.864	2608.66
986.162	2562.56
986.461	2563.69
986.759	2557.59
987.057	2553.97
987.355	2514.2
987.653	2539.96
987.951	2500.19
988.249	2500.64
988.547	2487.31
988.844	2508.32
989.142	2498.83
989.44	2466.29
989.737	2468.78
990.035	2437.82
990.332	2412.28
990.63	2419.74
990.927	2424.94
991.224	2397.59
991.521	2398.72
991.819	2382
992.116	2363.02
992.413	2359.85
992.71	2306.3
993.006	2297.48
993.303	2319.4
993.6	2293.19
993.897	2313.75
994.193	2258.39
994.49	2271.04
994.787	2257.93
995.083	2287.54
995.379	2236.69
995.676	2233.53
995.972	2211.61
996.268	2222.46
996.565	2229.91
996.861	2208.44
997.157	2149.24
997.453	2181.78
997.749	2147.43
998.044	2158.28
998.34	2167.54
998.636	2132.97
998.932	2125.06
999.227	2112.18
999.523	2095.68
999.818	2057.04
1000.114	2066.3
1000.409	2095.68
1000.704	2062.69
1001	2051.84
1001.295	2006.87
1001.59	2029.92
1001.885	2022.91
1002.18	1978.17
1002.475	1985.4
1002.77	1995.57
1003.065	1954.21
1003.359	1966.87
1003.654	1944.27
1003.949	1957.15
1004.243	1917.15
1004.538	1887.78
1004.832	1915.57
1005.127	1891.84
1005.421	1911.96
1005.715	1869.47
1006.009	1883.48
1006.304	1832.86
1006.598	1863.14
1006.892	1866.08
1007.186	1815.69
1007.48	1813.65
1007.773	1794.9
1008.067	1783.6
1008.361	1768
1008.655	1732.53
1008.948	1726.2
1009.242	1736.59
1009.535	1711.51
1009.829	1704.28
1010.122	1713.54
1010.415	1704.96
1010.708	1701.57
1011.001	1660.89
1011.295	1664.05
1011.588	1671.74
1011.881	1639.42
1012.173	1622.92
1012.466	1642.58
1012.759	1630.61
1013.052	1603.49
1013.344	1653.43
1013.637	1609.82
1013.93	1597.39
1014.222	1566.2
1014.514	1564.62
1014.807	1582.25
1015.099	1577.27
1015.391	1550.16
1015.683	1524.17
1015.976	1541.34
1016.268	1512.42
1016.56	1481.91
1016.851	1483.04
1017.143	1453.89
1017.435	1484.85
1017.727	1457.28
1018.018	1489.59
1018.31	1469.03
1018.602	1424.51
1018.893	1429.71
1019.185	1416.6
1019.476	1429.03
1019.767	1419.99
1020.058	1404.62
1020.35	1373.21
1020.641	1363.04
1020.932	1384.29
1021.223	1347
1021.514	1342.93
1021.804	1335.02
1022.095	1354.23
1022.386	1337.06
1022.677	1316.72
1022.967	1311.29
1023.258	1305.19
1023.548	1293.21
1023.839	1302.71
1024.129	1309.26
1024.419	1282.59
1024.709	1264.06
1025	1256.61
1025.29	1224.06
1025.58	1270.39
1025.87	1231.07
1026.16	1216.38
1026.449	1229.94
1026.739	1201.47
1027.029	1220.22
1027.319	1184.97
1027.608	1193.1
1027.898	1160.34
1028.187	1186.78
1028.477	1166.89
1028.766	1159.66
1029.055	1148.13
1029.344	1141.13
1029.634	1163.05
1029.923	1118.53
1030.212	1157.85
1030.501	1120.34
1030.79	1094.8
1031.078	1104.29
1031.367	1082.6
1031.656	1078.98
1031.945	1087.34
1032.233	1069.49
1032.522	1095.03
1032.81	1083.05
1033.099	1047.8
1033.387	1045.54
1033.675	1035.59
1033.963	1051.41
1034.251	1040.57
1034.54	1023.62
1034.828	1021.36
1035.116	974.58
1035.403	1000.34
1035.691	977.06
1035.979	992.66
1036.267	992.21
1036.554	964.41
1036.842	968.7
1037.129	961.02
1037.417	962.38
1037.704	937.52
1037.992	958.08
1038.279	940.23
1038.566	947.23
1038.853	947.23
1039.14	947.23
