Data from hue_90_FLMS001491_42.txt Node
Date: Mon Feb 06 15:25:11 GMT 2017
User: dcchb
Spectrometer: FLMS00149
Trigger mode: 0
Integration Time (sec): 2.000000E-2
Scans to average: 10
Electric dark correction enabled: true
Nonlinearity correction enabled: false
Boxcar width: 0
XAxis mode: Wavelengths
Number of Pixels in Spectrum: 2048
>>>>>Begin Spectral Data<<<<<
341.393	-25.69
341.776	-25.69
342.16	-25.69
342.543	-68.18
342.927	-62.3
343.31	-81.96
343.693	-69.98
344.077	-67.05
344.46	-86.03
344.843	-42.19
345.226	-44.67
345.61	-23.43
345.993	-10.55
346.376	-6.71
346.759	13.18
347.142	19.51
347.525	31.03
347.908	61.99
348.291	92.5
348.674	110.35
349.057	104.02
349.44	129.56
349.823	165.26
350.206	173.63
350.588	191.93
350.971	212.95
351.354	208.43
351.737	234.19
352.119	250.01
352.502	267.86
352.884	270.8
353.267	284.13
353.65	291.36
354.032	323
354.414	306.5
354.797	314.64
355.179	311.93
355.562	337.91
355.944	323.9
356.326	345.37
356.709	347.86
357.091	325.71
357.473	315.09
357.855	353.06
358.238	325.71
358.62	336.78
359.002	331.36
359.384	331.59
359.766	346.73
360.148	336.11
360.53	357.12
360.912	335.66
361.294	324.13
361.676	325.26
362.057	324.13
362.439	326.16
362.821	325.71
363.203	316.67
363.584	327.52
363.966	332.49
364.348	332.49
364.729	319.61
365.111	298.82
365.493	318.71
365.874	310.57
366.256	332.94
366.637	325.94
367.019	330.46
367.4	314.19
367.781	317.8
368.163	295.2
368.544	328.42
368.925	325.26
369.306	334.75
369.688	318.03
370.069	333.4
370.45	286.84
370.831	322.1
371.212	333.62
371.593	336.56
371.974	315.54
372.355	329.55
372.736	325.49
373.117	316.22
373.498	314.41
373.879	324.81
374.26	315.54
374.641	319.84
375.021	323.68
375.402	331.36
375.783	337.91
376.163	329.1
376.544	324.13
376.925	345.15
377.305	351.47
377.686	321.19
378.066	300.63
378.447	343.11
378.827	343.11
379.208	334.53
379.588	333.85
379.968	350.34
380.349	349.67
380.729	341.3
381.109	346.95
381.489	336.11
381.87	337.91
382.25	355.09
382.63	350.12
383.01	356.67
383.39	355.99
383.77	350.34
384.15	349.44
384.53	347.18
384.91	340.4
385.29	357.12
385.67	348.31
386.049	370.91
386.429	356.9
386.809	367.74
387.189	355.99
387.568	340.85
387.948	365.94
388.328	366.61
388.707	336.11
389.087	353.28
389.466	367.29
389.846	366.61
390.225	369.1
390.605	365.71
390.984	357.12
391.363	387.63
391.743	381.53
392.122	365.03
392.501	377.91
392.881	384.02
393.26	389.21
393.639	382.89
394.018	367.29
394.397	392.15
394.776	398.03
395.155	390.12
395.534	395.54
395.913	384.02
396.292	398.7
396.671	398.48
397.05	409.78
397.429	382.89
397.808	382.66
398.186	377.24
398.565	397.8
398.944	381.3
399.323	407.74
399.701	404.13
400.08	402.77
400.458	390.79
400.837	396.22
401.215	413.85
401.594	422.43
401.972	422.21
402.351	414.07
402.729	426.05
403.107	415.2
403.486	422.43
403.864	413.85
404.242	419.49
404.62	422.66
404.999	426.05
405.377	426.27
405.755	424.01
406.133	419.49
406.511	443.45
406.889	437.12
407.267	459.72
407.645	410.68
408.023	452.49
408.401	436.9
408.779	479.83
409.156	452.26
409.534	451.36
409.912	464.24
410.29	470.79
410.667	467.18
411.045	475.09
411.422	463.11
411.8	479.38
412.178	491.81
412.555	477.57
412.933	459.04
413.31	515.31
413.687	475.54
414.065	489.1
414.442	487.06
414.819	499.49
415.197	535.2
415.574	483.67
415.951	519.15
416.328	490
416.705	497.91
417.082	517.12
417.46	514.63
417.837	513.05
418.214	501.07
418.591	530.68
418.967	553.73
419.344	517.12
419.721	538.81
420.098	519.38
420.475	546.95
420.852	527.51
421.228	540.17
421.605	562.32
421.982	529.1
422.358	533.16
422.735	546.72
423.111	559.6
423.488	563.67
423.864	561.64
424.241	568.87
424.617	595.76
424.994	591.92
425.37	569.32
425.746	572.94
426.123	579.72
426.499	587.4
426.875	586.04
427.251	597.57
427.627	614.07
428.003	590.79
428.379	614.29
428.756	637.79
429.132	636.44
429.507	634.18
429.883	634.18
430.259	647.96
430.635	654.74
431.011	638.47
431.387	636.21
431.763	652.03
432.138	673.05
432.514	652.48
432.89	687.96
433.265	694.29
433.641	688.87
434.016	680.05
434.392	713.72
434.767	711.46
435.143	704.68
435.518	705.81
435.894	726.38
436.269	706.72
436.644	740.84
437.02	737
437.395	744.91
437.77	736.32
438.145	743.1
438.52	751.92
438.895	753.72
439.271	767.28
439.646	780.16
440.021	783.33
440.395	792.59
440.77	788.3
441.145	798.92
441.52	787.85
441.895	803.44
442.27	820.61
442.645	804.57
443.019	818.58
443.394	850.9
443.769	830.56
444.143	839.82
444.518	835.08
444.892	820.61
445.267	840.95
445.641	844.57
446.016	845.7
446.39	859.03
446.764	855.87
447.139	877.11
447.513	865.81
447.887	858.58
448.262	870.33
448.636	876.88
449.01	896.32
449.384	925.02
449.758	910.56
450.132	918.69
450.506	894.96
450.88	929.76
451.254	951.68
451.628	951.46
452.002	939.48
452.376	939.71
452.75	970.44
453.123	955.53
453.497	986.49
453.871	980.38
454.244	996.88
454.618	997.56
454.992	1028.74
455.365	1044.34
455.739	1061.74
456.112	1048.63
456.486	1033.72
456.859	1062.42
457.232	1080.04
457.606	1099.25
457.979	1109.42
458.352	1125.69
458.725	1123.43
459.099	1143.32
459.472	1176.54
459.845	1161.17
460.218	1188.06
460.591	1190.77
460.964	1209.53
461.337	1170.89
461.71	1244.11
462.083	1249.3
462.456	1268.51
462.829	1310.54
463.201	1275.52
463.574	1275.97
463.947	1334.27
464.32	1342.86
464.692	1355.29
465.065	1360.71
465.438	1402.29
465.81	1422.86
466.183	1449.07
466.555	1496.53
466.928	1446.59
467.3	1452.24
467.672	1493.59
468.045	1563.65
468.417	1553.93
468.789	1566.36
469.161	1604.55
469.534	1642.51
469.906	1654.26
470.278	1717.54
470.65	1722.96
471.022	1753.24
471.394	1786.69
471.766	1823.98
472.138	1861.04
472.51	1889.74
472.882	1916.18
473.253	1962.28
473.625	2021.03
473.997	2030.98
474.369	2080.69
474.74	2083.86
475.112	2164.31
475.484	2219.67
475.855	2277.75
476.227	2311.87
476.598	2395.94
476.97	2428.03
477.341	2508.25
477.713	2590.74
478.084	2584.64
478.455	2679.32
478.827	2743.05
479.198	2824.86
479.569	2891.75
479.94	3001.35
480.311	3007.68
480.682	3131.74
481.053	3249.25
481.424	3334.67
481.795	3437.95
482.166	3477.04
482.537	3570.6
482.908	3685.85
483.279	3789.35
483.65	3887.65
484.021	4009.46
484.391	4087.42
484.762	4170.36
485.133	4278.6
485.503	4351.37
485.874	4485.38
486.244	4606.73
486.615	4717.46
486.985	4875.87
487.356	5018.47
487.726	5155.19
488.097	5304.56
488.467	5361.96
488.837	5570.55
489.207	5650.77
489.578	5817.09
489.948	5869.52
490.318	6055.05
490.688	6124.66
491.058	6293.01
491.428	6392.22
491.798	6550.63
492.168	6784.52
492.538	6844.41
492.908	6998.08
493.278	7142.26
493.648	7238.75
494.017	7391.97
494.387	7518.97
494.757	7615.69
495.126	7762.13
495.496	7900.88
495.866	8062.46
496.235	8218.39
496.605	8311.26
496.974	8374.54
497.344	8512.84
497.713	8603.69
498.082	8704.7
498.452	8834.87
498.821	8951.47
499.19	9034.41
499.559	9193.05
499.928	9208.19
500.298	9343.78
500.667	9542.19
501.036	9563.66
501.405	9682.75
501.774	9762.3
502.143	9962.52
502.512	9927.27
502.88	10129.52
503.249	10137.66
503.618	10225.34
503.987	10233.25
504.356	10362.51
504.724	10471.66
505.093	10578.1
505.462	10574.48
505.83	10729.73
506.199	10800.01
506.567	10876.39
506.936	10927.47
507.304	11066.67
507.672	11159.33
508.041	11216.05
508.409	11297.17
508.777	11309.83
509.145	11474.35
509.514	11415.36
509.882	11548.24
510.25	11608.58
510.618	11584.4
510.986	11721.57
511.354	11888.8
511.722	11889.25
512.09	11963.82
512.458	11987.33
512.826	12092.41
513.193	12046.31
513.561	12131.28
513.929	12113.65
514.297	12246.08
514.664	12430.48
515.032	12368.78
515.4	12485.17
515.767	12449.01
516.135	12475
516.502	12367.2
516.869	12657.82
517.237	12594.32
517.604	12493.08
517.972	12686.06
518.339	12689.91
518.706	12676.35
519.073	12794.08
519.44	12747.31
519.808	12849.68
520.175	12845.83
520.542	12987.3
520.909	12994.76
521.276	12918.38
521.643	13072.04
522.009	13082.66
522.376	13133.28
522.743	13207.86
523.11	13250.57
523.477	13397.23
523.843	13379.15
524.21	13427.97
524.577	13420.28
524.943	13423.45
525.31	13535.99
525.676	13552.03
526.043	13671.8
526.409	13605.36
526.776	13594.97
527.142	13664.8
527.508	13716.77
527.874	13605.81
528.241	13740.95
528.607	13728.98
528.973	13713.61
529.339	13664.12
529.705	13802.87
530.071	13804.23
530.437	13765.36
530.803	13861.18
531.169	13834.96
531.535	13747.05
531.901	13768.75
532.267	13775.3
532.632	13846.49
532.998	13801.29
533.364	13802.65
533.73	13813.27
534.095	13905.02
534.461	13837.67
534.826	13801.29
535.192	13835.87
535.557	13846.71
535.923	13723.55
536.288	13762.19
536.653	13788.63
537.019	13683.1
537.384	13687.85
537.749	13726.04
538.114	13651.01
538.479	13612.82
538.845	13653.95
539.21	13552.71
539.575	13599.94
539.94	13536.66
540.305	13520.62
540.67	13541.86
541.034	13513.39
541.399	13478.36
541.764	13404.69
542.129	13459.83
542.494	13353.62
542.858	13381.19
543.223	13298.7
543.587	13396.33
543.952	13266.61
544.316	13219.16
544.681	13234.75
545.045	13175.09
545.41	13213.06
545.774	13189.1
546.138	13141.87
546.503	13113.4
546.867	13052.61
547.231	13144.36
547.595	13074.3
547.959	13036.34
548.324	12984.14
548.688	12942.78
549.052	12965.38
549.416	12952.72
549.779	12887.19
550.143	12815.78
550.507	12933.97
550.871	12740.07
551.235	12792.28
551.599	12802.22
551.962	12747.08
552.326	12703.47
552.689	12703.24
553.053	12634.09
553.417	12635.44
553.78	12755.89
554.143	12603.36
554.507	12657.14
554.87	12493.75
555.234	12628.67
555.597	12521.1
555.96	12554.77
556.323	12515.22
556.686	12494.21
557.05	12408.78
557.413	12570.36
557.776	12529.91
558.139	12523.58
558.502	12479.06
558.865	12512.51
559.228	12546.63
559.59	12523.81
559.953	12503.92
560.316	12469.57
560.679	12520.87
561.041	12483.81
561.404	12475.45
561.767	12531.94
562.129	12467.09
562.492	12605.39
562.854	12553.86
563.217	12564.26
563.579	12530.36
563.941	12630.25
564.304	12607.2
564.666	12635.9
565.028	12599.97
565.39	12580.53
565.753	12745.5
566.115	12563.81
566.477	12648.33
566.839	12707.31
567.201	12714.76
567.563	12692.17
567.925	12687.19
568.287	12723.58
568.648	12685.61
569.01	12759.74
569.372	12816.91
569.734	12755.67
570.095	12787.98
570.457	12789.56
570.819	12817.59
571.18	12777.14
571.542	12910.47
571.903	12869.79
572.265	12962.44
572.626	12860.98
572.987	12861.65
573.349	12855.33
573.71	12960.41
574.071	12856.23
574.432	12901.88
574.794	13029.11
575.155	12965.15
575.516	12901.88
575.877	13012.84
576.238	13025.94
576.599	12905.27
576.96	12910.69
577.32	12910.69
577.681	12948.88
578.042	13020.52
578.403	12878.15
578.763	12950.24
579.124	13035.66
579.485	13060.29
579.845	13021.88
580.206	12994.53
580.566	13012.84
580.927	12966.06
581.287	12990.92
581.648	12984.14
582.008	13080.4
582.368	13031.14
582.728	13005.38
583.089	12982.33
583.449	12910.92
583.809	12994.08
584.169	12861.43
584.529	12921.99
584.889	12986.85
585.249	12841.31
585.609	12844.7
585.969	13006.73
586.329	12815.1
586.688	12978.71
587.048	12851.94
587.408	12886.06
587.768	12796.34
588.127	12792.5
588.487	12790.24
588.846	12854.65
589.206	12779.4
589.565	12779.17
589.925	12877.92
590.284	12830.47
590.643	12803.8
591.003	12844.03
591.362	12849.45
591.721	12733.3
592.08	12778.72
592.44	12838.38
592.799	12829.11
593.158	12843.35
593.517	12738.27
593.876	12834.99
594.235	12661.88
594.593	12712.28
594.952	12708.21
595.311	12632.96
595.67	12671.15
596.029	12819.39
596.387	12784.37
596.746	12750.92
597.104	12722.45
597.463	12678.38
597.822	12666.63
598.18	12662.34
598.538	12604.71
598.897	12764.03
599.255	12604.94
599.613	12757.25
599.972	12701.88
600.33	12631.38
600.688	12658.72
601.046	12687.19
601.404	12724.93
601.762	12650.13
602.12	12701.88
602.478	12720.87
602.836	12701.88
603.194	12669.57
603.552	12604.03
603.91	12607.65
604.268	12656.01
604.625	12672.96
604.983	12705.95
605.341	12630.02
605.698	12696.01
606.056	12737.36
606.413	12616.24
606.771	12760.64
607.128	12751.83
607.485	12730.36
607.843	12672.96
608.2	12678.83
608.557	12758.15
608.914	12691.94
609.272	12739.62
609.629	12778.94
609.986	12814.87
610.343	12729.68
610.7	12856.91
611.057	12814.42
611.414	12776.46
611.771	12820.3
612.127	12815.55
612.484	12830.69
612.841	12901.2
613.198	12846.51
613.554	12862.11
613.911	12870.92
614.267	12862.33
614.624	12865.72
614.98	12940.3
615.337	12982.55
615.693	12981.42
616.05	12949.11
616.406	12959.5
616.762	12926.28
617.118	12940.97
617.475	12911.37
617.831	12953.4
618.187	12981.88
618.543	12975.77
618.899	13059.61
619.255	13025.94
619.611	13037.47
619.967	13040.86
620.323	13098.03
620.678	13040.63
621.034	13045.38
621.39	12906.17
621.746	13030.69
622.101	13128.31
622.457	13043.34
622.812	13001.99
623.168	13128.31
623.523	13079.05
623.879	13111.36
624.234	12966.51
624.589	12982.33
624.945	13104.81
625.3	13067.98
625.655	13052.38
626.01	13022.33
626.365	13113.62
626.72	13014.42
627.075	12970.35
627.43	13083.79
627.785	13070.69
628.14	13004.7
628.495	12952.95
628.85	13009.9
629.205	12872.73
629.559	13069.11
629.914	12940.97
630.269	12965.83
630.623	12986.17
630.978	12953.85
631.332	12942.1
631.687	12985.94
632.041	12933.52
632.396	12904.59
632.75	12876.34
633.104	12909.79
633.459	12879.73
633.813	12865.95
634.167	12858.94
634.521	12869.34
634.875	12859.85
635.229	12806.51
635.583	12809.45
635.937	12779.85
636.291	12828.89
636.645	12769.23
636.999	12709.79
637.352	12780.3
637.706	12639.51
638.06	12686.29
638.413	12617.82
638.767	12576.69
639.121	12622.79
639.474	12537.82
639.828	12670.92
640.181	12593.19
640.534	12603.36
640.888	12511.61
641.241	12480.19
641.594	12508.67
641.947	12547.76
642.301	12464.83
642.654	12498.95
643.007	12522.68
643.36	12413.53
643.713	12446.3
644.066	12491.72
644.419	12428.22
644.771	12369.46
645.124	12276.58
645.477	12237.04
645.83	12158.39
646.182	12055.57
646.535	12091.5
646.888	12133.31
647.24	11990.72
647.593	12235
647.945	12144.61
648.298	12077.04
648.65	12018.06
649.002	12082.46
649.355	12069.58
649.707	12061.22
650.059	12124.05
650.411	12279.3
650.763	12230.94
651.115	12417.6
651.467	12343.93
651.819	12353.42
652.171	12338.5
652.523	12300.31
652.875	12250.6
653.227	12251.95
653.578	12312.97
653.93	12300.76
654.282	12233.42
654.633	12218.28
654.985	12224.61
655.337	12262.12
655.688	12330.59
656.039	12340.99
656.391	12232.52
656.742	12210.6
657.094	12266.19
657.445	12330.37
657.796	12237.04
658.147	12299.41
658.498	12291.5
658.849	12371.5
659.2	12382.12
659.551	12331.05
659.902	12333.31
660.253	12316.36
660.604	12316.36
660.955	12260.31
661.306	12352.29
661.656	12292.18
662.007	12368.11
662.358	12325.4
662.708	12315.9
663.059	12352.51
663.409	12311.39
663.76	12359.75
664.11	12353.87
664.461	12397.26
664.811	12383.7
665.161	12367.88
665.511	12334.44
665.862	12387.32
666.212	12409.24
666.562	12492.62
666.912	12381.21
667.262	12382.34
667.612	12402.68
667.962	12405.85
668.312	12301.44
668.662	12447.88
669.011	12422.12
669.361	12420.31
669.711	12380.08
670.06	12329.01
670.41	12426.64
670.76	12366.98
671.109	12372.17
671.459	12364.04
671.808	12336.02
672.157	12429.12
672.507	12282.23
672.856	12257.83
673.205	12330.14
673.554	12384.38
673.904	12271.61
674.253	12348.67
674.602	12346.64
674.951	12131.05
675.3	12068
675.649	12235
675.998	12195.46
676.346	12239.3
676.695	12227.09
677.044	12182.8
677.393	12154.33
677.741	12232.07
678.09	12179.64
678.438	12120.88
678.787	12137.38
679.135	12231.84
679.484	12083.59
679.832	12046.31
680.181	12032.3
680.529	12135.34
680.877	12082.01
681.225	11983.03
681.573	12058.74
681.922	12018.29
682.27	11981.9
682.618	11882.7
682.966	11903.49
683.314	11945.07
683.661	11877.5
684.009	11837.95
684.357	11774.9
684.705	11780.1
685.053	11732.64
685.4	11778.29
685.748	11608.35
686.095	11658.97
686.443	11632.53
686.79	11651.97
687.138	11633.44
687.485	11661.01
687.832	11547.56
688.18	11502.37
688.527	11523.84
688.874	11522.03
689.221	11510.05
689.568	11416.27
689.915	11470.28
690.262	11355.93
690.609	11314.12
690.956	11288.14
691.303	11252.43
691.65	11152.77
691.997	11190.96
692.344	11101.93
692.69	11127.46
693.037	11134.02
693.383	10990.06
693.73	11039.78
694.077	10918.43
694.423	10953.23
694.769	10849.73
695.116	10877.52
695.462	10819.22
695.808	10762.27
696.155	10776.96
696.501	10606.57
696.847	10680.92
697.193	10681.37
697.539	10637.31
697.885	10560.7
698.231	10518.66
698.577	10483.41
698.923	10502.85
699.269	10439.57
699.614	10323.87
699.96	10374.49
700.306	10311.66
700.651	10327.93
700.997	10272.57
701.342	10292.23
701.688	10196.86
702.033	10125.68
702.379	10126.13
702.724	10057.89
703.069	10086.36
703.415	9945.8
703.76	10033.93
704.105	10013.14
704.45	9879.13
704.795	9851.34
705.14	9845.24
705.485	9753.49
705.83	9775.18
706.175	9733.83
706.52	9775.18
706.865	9701.96
707.209	9678.91
707.554	9633.72
707.899	9691.57
708.243	9553.27
708.588	9583.77
708.932	9500.39
709.277	9486.37
709.621	9548.29
709.966	9418.81
710.31	9426.94
710.654	9335.42
710.998	9315.53
711.342	9350.33
711.687	9350.79
712.031	9280.05
712.375	9229.66
712.719	9237.57
713.063	9255.42
713.407	9289.54
713.75	9234.86
714.094	9277.57
714.438	9102.2
714.782	9174.29
715.125	9164.12
715.469	9124.8
715.812	9084.58
716.156	9078.93
716.499	9094.97
716.843	9124.8
717.186	9001.19
717.53	9099.72
717.873	9094.75
718.216	9066.5
718.559	8978.14
718.902	8937.91
719.246	8978.37
719.589	8937.01
719.932	8948.99
720.275	8936.11
720.617	8894.98
720.96	8894.07
721.303	8874.41
721.646	8867.18
721.989	8839.39
722.331	8854.53
722.674	8861.76
723.016	8767.3
723.359	8832.15
723.701	8813.62
724.044	8752.83
724.386	8773.63
724.729	8779.5
725.071	8720.52
725.413	8754.87
725.755	8776.56
726.097	8632.16
726.439	8634.42
726.782	8705.83
727.124	8730.69
727.465	8634.19
727.807	8684.81
728.149	8672.84
728.491	8626.06
728.833	8665.83
729.175	8661.31
729.516	8682.33
729.858	8678.26
730.199	8629
730.541	8666.28
730.882	8680.29
731.224	8773.85
731.565	8629.45
731.906	8633.29
732.248	8688.43
732.589	8615.66
732.93	8636.45
733.271	8657.7
733.612	8602.1
733.953	8644.59
734.294	8660.41
734.635	8651.14
734.976	8606.17
735.317	8609.34
735.658	8657.47
735.999	8629
736.339	8655.66
736.68	8629.22
737.021	8582.22
737.361	8604.82
737.702	8665.83
738.042	8597.58
738.383	8656.34
738.723	8680.75
739.063	8632.39
739.404	8668.77
739.744	8624.93
740.084	8658.6
740.424	8696.79
740.764	8694.53
741.104	8691.82
741.444	8649.79
741.784	8624.02
742.124	8704.7
742.464	8725.26
742.804	8735.66
743.143	8749.22
743.483	8822.66
743.823	8803.68
744.162	8833.96
744.502	8927.07
744.841	8882.32
745.181	8941.3
745.52	8965.71
745.86	9037.12
746.199	9059.72
746.538	9009.55
746.877	9098.36
747.216	9154.41
747.556	9178.13
747.895	9311.46
748.234	9286.61
748.573	9346.49
748.911	9396.43
749.25	9399.6
749.589	9407.51
749.928	9517.56
750.267	9655.86
750.605	9656.99
750.944	9798.01
751.283	9757.33
751.621	9937.66
751.96	10049.07
752.298	10017.89
752.636	10188.5
752.975	10201.61
753.313	10254.94
753.651	10464.43
753.989	10459
754.327	10620.58
754.666	10640.47
755.004	10890.63
755.342	11050.85
755.679	11052.66
756.017	11129.95
756.355	11375.14
756.693	11352.99
757.031	11585.75
757.368	11715.47
757.706	11882.24
758.044	11944.62
758.381	12134.21
758.719	12186.64
759.056	12478.39
759.394	12488.56
759.731	12629.57
760.068	12846.74
760.405	12935.1
760.743	13058.03
761.08	13206.73
761.417	13371.7
761.754	13527.85
762.091	13751.8
762.428	13826.6
762.765	14007.39
763.102	14207.61
763.438	14320.37
763.775	14408.51
764.112	14583.42
764.449	14812.56
764.785	14854.37
765.122	15053.69
765.458	15098.88
765.795	15300.23
766.131	15454.35
766.467	15524.18
766.804	15624.07
767.14	15852.76
767.476	16032.64
767.812	16075.58
768.148	16220.66
768.485	16290.94
768.821	16369.81
769.157	16434.67
769.492	16609.35
769.828	16746.52
770.164	16772.51
770.5	16884.37
770.836	17000.53
771.171	16914.2
771.507	17170.92
771.842	17123.69
772.178	17242.33
772.513	17313.74
772.849	17365.26
773.184	17443.91
773.519	17637.8
773.855	17568.87
774.19	17584.47
774.525	17683
774.86	17790.34
775.195	17842.31
775.53	17850.45
775.865	17752.6
776.2	17821.52
776.535	17809.55
776.87	17859.26
777.205	17866.95
777.539	17877.79
777.874	18013.38
778.209	18000.05
778.543	17978.58
778.878	17976.1
779.212	17991.69
779.547	17925.47
779.881	17972.03
780.215	18031.01
780.55	18112.59
780.884	18050.67
781.218	18022.87
781.552	18077.34
781.886	18058.35
782.22	18054.74
782.554	18000.73
782.888	17922.54
783.222	17927.96
783.556	17961.63
783.889	17944.68
784.223	17793.95
784.557	17837.12
784.89	17988.75
785.224	17897.91
785.557	17845.25
785.891	17901.97
786.224	17807.29
786.558	17700.17
786.891	17734.52
787.224	17701.75
787.557	17678.7
787.891	17718.47
788.224	17687.29
788.557	17657.01
788.89	17753.28
789.223	17765.48
789.556	17638.25
789.888	17588.08
790.221	17570.91
790.554	17417.24
790.887	17472.38
791.219	17386.73
791.552	17381.53
791.884	17274.42
792.217	17254.53
792.549	17258.37
792.882	17179.28
793.214	17134.54
793.546	17155.1
793.879	17101.99
794.211	17026.74
794.543	17043.46
794.875	16976.12
795.207	17002.34
795.539	16944.71
795.871	16927.08
796.203	16846.18
796.535	16698.39
796.867	16809.35
797.198	16703.59
797.53	16747.88
797.862	16585.4
798.193	16645.96
798.525	16565.74
798.856	16684.38
799.188	16434.89
799.519	16390.37
799.85	16319.42
800.182	16482.12
800.513	16434.21
800.844	16189.25
801.175	16389.7
801.506	16320.77
801.837	16281.22
802.168	16157.16
802.499	16081
802.83	16057.73
803.161	16064.06
803.491	16064.51
803.822	16018.18
804.153	15886.43
804.483	15860.22
804.814	15833.1
805.145	15806.89
805.475	15783.38
805.805	15714.46
806.136	15684.63
806.466	15774.12
806.796	15637.17
807.126	15553.33
807.457	15560.57
807.787	15532.32
808.117	15427.01
808.447	15378.42
808.777	15508.82
809.107	15322.83
809.436	15375.71
809.766	15321.02
810.096	15331.87
810.426	15215.94
810.755	15288.48
811.085	15255.04
811.414	15163.06
811.744	15111.54
812.073	15123.06
812.403	15019.34
812.732	15024.31
813.061	14947.7
813.39	14871.77
813.719	14908.38
814.049	15046
814.378	14840.13
814.707	14790.87
815.036	14845.33
815.365	14817.08
815.693	14599.01
816.022	14669.52
816.351	14609.63
816.68	14604.43
817.008	14558.11
817.337	14450.76
817.665	14469.07
817.994	14541.16
818.322	14574.15
818.651	14467.03
818.979	14361.95
819.307	14512.68
819.636	14445.79
819.964	14239.24
820.292	14359.02
820.62	14361.5
820.948	14317.66
821.276	14340.71
821.604	14288.06
821.932	14362.18
822.259	14336.87
822.587	14260.49
822.915	14206.02
823.243	14354.04
823.57	14246.93
823.898	14263.2
824.225	14223.2
824.553	14241.28
824.88	14220.49
825.207	14361.5
825.535	14263.2
825.862	14268.4
826.189	14205.12
826.516	14275.85
826.843	14321.5
827.17	14394.04
827.497	14342.29
827.824	14342.52
828.151	14345.23
828.478	14323.54
828.805	14352.91
829.131	14312.69
829.458	14231.79
829.785	14239.24
830.111	14094.84
830.438	14264.1
830.764	14260.94
831.09	14303.2
831.417	14210.54
831.743	14281.5
832.069	14282.86
832.395	14209.87
832.722	14232.24
833.048	14102.3
833.374	14190.43
833.7	14104.11
834.026	14169.42
834.351	14185.01
834.677	14189.53
835.003	14245.8
835.329	14217.1
835.654	14136.87
835.98	14131.22
836.306	14107.27
836.631	14087.38
836.956	14072.24
837.282	14089.19
837.607	13952.02
837.932	13958.12
838.258	14003.77
838.583	13957.44
838.908	13853.94
839.233	13886.26
839.558	13905.47
839.883	13899.37
840.208	13808.3
840.533	13847.39
840.858	13851.23
841.182	13847.16
841.507	13788.63
841.832	13774.17
842.156	13709.09
842.481	13685.13
842.805	13609.43
843.13	13666.83
843.454	13534.63
843.778	13429.55
844.103	13517.23
844.427	13446.95
844.751	13415.09
845.075	13467.97
845.399	13412.15
845.723	13296.44
846.047	13360.85
846.371	13188.88
846.695	13184.36
847.019	13133.06
847.343	13033.63
847.666	13001.08
847.99	12960.86
848.313	12950.69
848.637	12863.91
848.96	12836.57
849.284	12809.45
849.607	12676.35
849.931	12577.59
850.254	12602.9
850.577	12598.61
850.9	12448.1
851.223	12400.65
851.546	12394.32
851.869	12253.76
852.192	12402.91
852.515	12309.8
852.838	12237.26
853.161	12164.72
853.483	12083.82
853.806	12111.39
854.129	12078.85
854.451	12013.99
854.774	11961.11
855.096	11981.68
855.419	11892.87
855.741	11871.62
856.063	11790.95
856.385	11750.5
856.708	11772.42
857.03	11719.08
857.352	11651.74
857.674	11663.49
857.996	11562.48
858.318	11553.44
858.64	11536.49
858.961	11544.17
859.283	11523.38
859.605	11442.48
859.926	11385.31
860.248	11421.69
860.57	11359.77
860.891	11357.74
861.212	11329.04
861.534	11280.45
861.855	11355.93
862.176	11289.27
862.498	11284.75
862.819	11335.82
863.14	11125.2
863.461	11114.35
863.782	11120.46
864.103	11094.92
864.424	10993.45
864.745	11089.04
865.065	11018.31
865.386	10954.13
865.707	11018.09
866.027	11001.14
866.348	10955.49
866.668	10925.89
866.989	10899.45
867.309	10784.87
867.63	10878.88
867.95	10857.19
868.27	10710.75
868.59	10832.55
868.91	10744.65
869.23	10783.97
869.55	10738.09
869.87	10793.23
870.19	10732.9
870.51	10714.82
870.83	10670.75
871.15	10619
871.469	10585.78
871.789	10600.24
872.109	10636.4
872.428	10551.66
872.748	10669.62
873.067	10609.06
873.386	10525.9
873.706	10547.14
874.025	10491.09
874.344	10564.99
874.663	10501.49
874.982	10484.99
875.301	10500.59
875.62	10455.61
875.939	10438.21
876.258	10363.19
876.577	10316.64
876.896	10424.43
877.214	10349.18
877.533	10321.38
877.852	10375.39
878.17	10389.85
878.489	10320.93
878.807	10244.32
879.125	10262.17
879.444	10179.01
879.762	10162.74
880.08	10244.1
880.398	10106.92
880.716	10176.07
881.034	10119.13
881.352	10072.8
881.67	10092.91
881.988	10122.97
882.306	10104.89
882.624	10000.03
882.941	9972.46
883.259	9979.02
883.577	9884.33
883.894	9907.83
884.212	9912.58
884.529	9979.7
884.846	9906.93
885.164	9880.49
885.481	9829.87
885.798	9813.15
886.115	9753.71
886.432	9712.81
886.75	9704.9
887.067	9680.72
887.383	9652.02
887.7	9698.12
888.017	9613.15
888.334	9645.24
888.651	9531.57
888.967	9559.82
889.284	9547.39
889.6	9576.99
889.917	9392.82
890.233	9431.91
890.55	9393.27
890.866	9437.11
891.182	9368.41
891.498	9377
891.815	9314.18
892.131	9278.47
892.447	9251.13
892.763	9197.79
893.079	9276.44
893.395	9177.23
893.71	9168.87
894.026	9154.41
894.342	9142.2
894.657	9049.78
894.973	9020.17
895.289	9081.41
895.604	8999.38
895.92	8920.51
896.235	8888.2
896.55	8903.11
896.865	8899.05
897.181	8810.46
897.496	8779.27
897.811	8796.68
898.126	8774.3
898.441	8725.26
898.756	8672.84
899.071	8651.59
899.386	8603.91
899.7	8544.7
900.015	8567.75
900.33	8497.7
900.644	8508.32
900.959	8478.94
901.273	8445.27
901.588	8414.54
901.902	8339.29
902.216	8334.54
902.531	8320.08
902.845	8269.91
903.159	8227.88
903.473	8184.26
903.787	8142.91
904.101	8120.54
904.415	8120.54
904.729	8085.96
905.042	8050.03
905.356	8012.29
905.67	8002.12
905.984	7930.94
906.297	7902.46
906.611	7890.26
906.924	7859.52
907.237	7845.74
907.551	7821.56
907.864	7822.46
908.177	7707.89
908.491	7757.83
908.804	7773.43
909.117	7697.95
909.43	7628.34
909.743	7606.42
910.056	7580.44
910.368	7513.77
910.681	7478.74
910.994	7487.11
911.307	7437.62
911.619	7391.06
911.932	7410.95
912.244	7320.78
912.557	7339.31
912.869	7276.04
913.181	7240.11
913.494	7208.24
913.806	7167.34
914.118	7208.24
914.43	7114.01
914.742	7118.53
915.054	7065.65
915.366	7043.05
915.678	7012.99
915.99	6961.7
916.302	6919.44
916.613	6867.46
916.925	6890.28
917.236	6883.73
917.548	6803.73
917.859	6840.79
918.171	6771.64
918.482	6770.97
918.794	6749.5
919.105	6700.69
919.416	6689.84
919.727	6681.25
920.038	6613.91
920.349	6582.04
920.66	6594.02
920.971	6597.19
921.282	6534.81
921.593	6522.38
921.903	6512.22
922.214	6425.21
922.525	6385.67
922.835	6414.37
923.146	6301.6
923.456	6369.17
923.767	6304.09
924.077	6332.56
924.387	6283.3
924.697	6240.13
925.008	6258.44
925.318	6214.37
925.628	6198.33
925.938	6114.71
926.248	6125.79
926.558	6110.19
926.867	6027.48
927.177	6029.06
927.487	6027.48
927.796	5997.65
928.106	5977.54
928.416	5895.28
928.725	5929.41
929.034	5914.72
929.344	5925.11
929.653	5888.05
929.962	5800.82
930.271	5794.95
930.581	5779.35
930.89	5732.58
931.199	5739.58
931.508	5719.47
931.817	5710.2
932.125	5672.01
932.434	5643.09
932.743	5596.76
933.051	5538.91
933.36	5552.02
933.669	5496.88
933.977	5528.06
934.286	5476.54
934.594	5488.29
934.902	5458.46
935.21	5426.14
935.519	5382.53
935.827	5388.4
936.135	5341.4
936.443	5328.97
936.751	5274.96
937.059	5307.95
937.367	5255.75
937.674	5280.84
937.982	5237.67
938.29	5218.24
938.597	5194.28
938.905	5103.89
939.213	5120.84
939.52	5140.73
939.827	5086.26
940.135	5040.62
940.442	5030.45
940.749	5049.43
941.056	5032.25
941.363	4939.15
941.67	4960.39
941.977	4912.26
942.284	4893.95
942.591	4832.49
942.898	4829.55
943.205	4827.74
943.511	4835.2
943.818	4857.8
944.125	4808.53
944.431	4792.26
944.738	4745.48
945.044	4756.1
945.35	4744.13
945.657	4709.1
945.963	4674.52
946.269	4674.98
946.575	4614.19
946.881	4594.53
947.187	4622.77
947.493	4606.28
947.799	4581.87
948.105	4542.78
948.41	4521.53
948.716	4544.81
949.022	4468.65
949.327	4476.34
949.633	4395.89
949.938	4409.22
950.244	4395.44
950.549	4375.32
950.854	4344.14
951.16	4339.84
951.465	4283.57
951.77	4311.82
952.075	4309.79
952.38	4259.62
952.685	4285.38
952.99	4241.32
953.294	4241.77
953.599	4211.03
953.904	4190.92
954.209	4142.11
954.513	4163.12
954.818	4093.52
955.122	4110.02
955.426	4075.9
955.731	4087.19
956.035	4057.82
956.339	4057.59
956.643	4007.87
956.948	4026.18
957.252	4002.9
957.556	4013.52
957.86	3961.55
958.163	3957.03
958.467	3947.31
958.771	3897.6
959.075	3909.57
959.378	3826.18
959.682	3874.09
959.985	3822.12
960.289	3814.89
960.592	3837.03
960.896	3781.89
961.199	3744.15
961.502	3744.83
961.805	3776.24
962.108	3719.29
962.411	3731.5
962.714	3722.68
963.017	3684.72
963.32	3659.41
963.623	3653.76
963.926	3626.64
964.228	3596.59
964.531	3595.91
964.833	3614.66
965.136	3576.25
965.438	3542.35
965.741	3548
966.043	3525.85
966.345	3528.11
966.648	3492.63
966.95	3474.33
967.252	3441.34
967.554	3436.82
967.856	3455.57
968.158	3420.55
968.46	3385.52
968.761	3401.11
969.063	3389.13
969.365	3364.28
969.666	3339.42
969.968	3292.41
970.269	3329.47
970.571	3287.89
970.872	3271.85
971.174	3266.43
971.475	3269.82
971.776	3270.95
972.077	3201.12
972.378	3237.27
972.679	3188.91
972.98	3191.17
973.281	3183.49
973.582	3178.74
973.883	3151.63
974.183	3138.75
974.484	3156.37
974.785	3080.22
975.085	3104.4
975.386	3127.45
975.686	3064.17
975.986	3058.52
976.287	3045.64
976.587	2979.88
976.887	3034.57
977.187	2970.84
977.487	3012.65
977.787	2999.54
978.087	2971.74
978.387	2940.56
978.687	2937.62
978.987	2897.62
979.286	2872.09
979.586	2853.78
979.885	2917.06
980.185	2863.5
980.484	2831.41
980.784	2870.05
981.083	2805.65
981.382	2779.66
981.682	2767.91
981.981	2758.87
982.28	2777.17
982.579	2766.33
982.878	2762.48
983.177	2754.57
983.475	2760.68
983.774	2733.33
984.073	2684.97
984.372	2684.52
984.67	2696.5
984.969	2689.94
985.267	2671.19
985.566	2640.91
985.864	2634.8
986.162	2658.76
986.461	2606.56
986.759	2580.79
987.057	2590.06
987.355	2583.96
987.653	2575.82
987.951	2533.11
988.249	2537.86
988.547	2512.32
988.844	2491.08
989.142	2498.31
989.44	2476.84
989.737	2482.72
990.035	2462.15
990.332	2484.75
990.63	2453.79
990.927	2425.09
991.224	2434.13
991.521	2424.87
991.819	2415.15
992.116	2377.41
992.413	2400.01
992.71	2366.34
993.006	2350.29
993.303	2350.52
993.6	2302.83
993.897	2340.35
994.193	2314.13
994.49	2310.97
994.787	2287.02
995.083	2270.07
995.379	2254.47
995.676	2270.07
995.972	2246.11
996.268	2242.5
996.565	2230.97
996.861	2195.49
997.157	2203.85
997.453	2195.27
997.749	2173.57
998.044	2176.28
998.34	2131.54
998.636	2146.23
998.932	2144.2
999.227	2141.48
999.523	2152.33
999.818	2081.6
1000.114	2093.8
1000.409	2097.19
1000.704	2077.53
1001	2061.94
1001.295	2042.05
1001.59	2066.23
1001.885	2061.94
1002.18	2045.89
1002.475	1990.53
1002.77	2026.46
1003.065	1989.4
1003.359	1967.93
1003.654	1970.41
1003.949	1971.54
1004.243	1942.39
1004.538	1918.66
1004.832	1927.25
1005.127	1890.87
1005.421	1905.11
1005.715	1909.17
1006.009	1894.94
1006.304	1849.29
1006.598	1851.55
1006.892	1839.12
1007.186	1845.9
1007.48	1827.14
1007.773	1807.93
1008.067	1848.16
1008.361	1796.63
1008.655	1782.85
1008.948	1798.67
1009.242	1753.02
1009.535	1767.26
1009.829	1768.61
1010.122	1745.11
1010.415	1735.84
1010.708	1733.58
1011.001	1706.92
1011.295	1724.77
1011.588	1684.09
1011.881	1691.78
1012.173	1637.54
1012.466	1677.31
1012.759	1633.7
1013.052	1602.97
1013.344	1643.19
1013.637	1627.37
1013.93	1633.93
1014.222	1581.05
1014.514	1588.73
1014.807	1596.64
1015.099	1574.94
1015.391	1566.36
1015.683	1540.6
1015.976	1550.99
1016.268	1537.88
1016.56	1523.87
1016.851	1527.94
1017.143	1527.04
1017.435	1506.25
1017.727	1498.56
1018.018	1489.07
1018.31	1466.47
1018.602	1468.51
1018.893	1458.11
1019.185	1436.19
1019.476	1459.69
1019.767	1412.24
1020.058	1443.2
1020.35	1422.18
1020.641	1418.11
1020.932	1379.24
1021.223	1369.3
1021.514	1362.07
1021.804	1370.66
1022.095	1355.52
1022.386	1350.09
1022.677	1349.19
1022.967	1318.45
1023.258	1313.93
1023.548	1314.39
1023.839	1290.43
1024.129	1305.8
1024.419	1293.6
1024.709	1263.31
1025	1263.09
1025.29	1263.09
1025.58	1244.78
1025.87	1250.89
1026.16	1254.05
1026.449	1234.61
1026.739	1238.91
1027.029	1209.53
1027.319	1216.54
1027.608	1225.35
1027.898	1200.49
1028.187	1180.6
1028.477	1195.75
1028.766	1159.59
1029.055	1160.49
1029.344	1159.36
1029.634	1151.68
1029.923	1137.22
1030.212	1112.36
1030.501	1136.31
1030.79	1102.87
1031.078	1100.15
1031.367	1132.47
1031.656	1104
1031.945	1094.28
1032.233	1093.83
1032.522	1049.99
1032.81	1071
1033.099	1063.32
1033.387	1055.18
1033.675	1048.18
1033.963	1045.47
1034.251	1011.12
1034.54	1056.99
1034.828	1028.07
1035.116	1030.33
1035.403	1015.41
1035.691	1008.18
1035.979	986.94
1036.267	1000.5
1036.554	1013.83
1036.842	979.93
1037.129	960.5
1037.417	955.07
1037.704	994.62
1037.992	948.07
1038.279	953.72
1038.566	943.1
1038.853	943.1
1039.14	943.1
