Data from hue_130_FLMS001491_00043.txt Node
Date: Tue Feb 07 16:57:39 GMT 2017
User: dcchb
Spectrometer: FLMS00149
Trigger mode: 0
Integration Time (sec): 2.000000E-2
Scans to average: 10
Electric dark correction enabled: true
Nonlinearity correction enabled: false
Boxcar width: 0
XAxis mode: Wavelengths
Number of Pixels in Spectrum: 2048
>>>>>Begin Spectral Data<<<<<
341.393	-9.38
341.776	-9.38
342.16	-9.38
342.543	-55.25
342.927	-78.98
343.31	-64.52
343.693	-91.41
344.077	-59.32
344.46	-63.84
344.843	-48.93
345.226	-57.06
345.61	-32.2
345.993	-29.26
346.376	-15.25
346.759	-0.11
347.142	29.94
347.525	64.29
347.908	55.7
348.291	82.37
348.674	98.87
349.057	130.73
349.44	146.32
349.823	156.04
350.206	156.95
350.588	198.53
350.971	200.33
351.354	219.54
351.737	227.9
352.119	252.99
352.502	251.41
352.884	285.76
353.267	288.69
353.65	275.13
354.032	290.05
354.414	313.33
354.797	309.26
355.179	316.71
355.562	338.86
355.944	327.56
356.326	346.77
356.709	355.13
357.091	332.76
357.473	351.52
357.855	325.98
358.238	344.96
358.62	334.79
359.002	349.03
359.384	356.04
359.766	348.58
360.148	342.48
360.53	347.22
360.912	344.96
361.294	345.64
361.676	326.66
362.057	350.84
362.439	316.49
362.821	329.6
363.203	330.05
363.584	328.47
363.966	327.34
364.348	338.64
364.729	330.5
365.111	323.49
365.493	329.6
365.874	311.07
366.256	328.24
366.637	319.88
367.019	323.95
367.4	323.95
367.781	316.04
368.163	311.97
368.544	310.16
368.925	319.65
369.306	322.14
369.688	304.51
370.069	315.58
370.45	326.66
370.831	328.24
371.212	328.24
371.593	333.89
371.974	323.27
372.355	303.16
372.736	322.14
373.117	295.25
373.498	309.71
373.879	310.39
374.26	312.65
374.641	325.98
375.021	339.99
375.402	325.08
375.783	318.75
376.163	335.92
376.544	328.24
376.925	315.13
377.305	332.99
377.686	329.6
378.066	337.28
378.447	335.7
378.827	341.57
379.208	355.81
379.588	338.41
379.968	309.03
380.349	360.1
380.729	329.6
381.109	336.15
381.489	324.4
381.87	353.1
382.25	318.97
382.63	322.36
383.01	337.51
383.39	346.77
383.77	331.4
384.15	328.92
384.53	352.87
384.91	369.14
385.29	359.2
385.67	350.39
386.049	362.36
386.429	370.5
386.809	363.72
387.189	364.4
387.568	383.15
387.948	353.32
388.328	362.82
388.707	375.24
389.087	389.26
389.466	364.17
389.846	372.76
390.225	356.04
390.605	372.31
390.984	358.52
391.363	365.3
391.743	373.44
392.122	358.75
392.501	371.4
392.881	378.86
393.26	389.71
393.639	391.74
394.018	370.27
394.397	397.62
394.776	379.54
395.155	395.13
395.534	377.05
395.913	374.57
396.292	408.46
396.671	387.9
397.05	390.16
397.429	398.75
397.808	403.49
398.186	401.01
398.565	400.55
398.944	378.18
399.323	405.07
399.701	397.84
400.08	410.5
400.458	421.8
400.837	416.37
401.215	403.94
401.594	429.03
401.972	409.82
402.351	420.21
402.729	432.19
403.107	394.9
403.486	407.56
403.864	417.73
404.242	420.21
404.62	428.58
404.999	420.21
405.377	440.78
405.755	450.72
406.133	415.92
406.511	444.17
406.889	446.88
407.267	430.16
407.645	435.58
408.023	461.8
408.401	445.3
408.779	456.82
409.156	474.9
409.534	437.16
409.912	445.07
410.29	472.87
410.667	457.73
411.045	473.09
411.422	483.49
411.8	494.79
412.178	477.61
412.555	474.9
412.933	475.13
413.31	481.46
413.687	483.26
414.065	493.89
414.442	492.76
414.819	483.72
415.197	507.22
415.574	503.6
415.951	494.79
416.328	503.83
416.705	502.7
417.082	509.25
417.46	505.18
417.837	514.22
418.214	529.14
418.591	520.33
418.967	537.05
419.344	543.15
419.721	530.72
420.098	533.66
420.475	543.15
420.852	541.34
421.228	555.13
421.605	559.65
421.982	556.48
422.358	546.54
422.735	550.38
423.111	564.39
423.488	550.61
423.864	589.7
424.241	576.37
424.617	600.32
424.994	587.89
425.37	581.11
425.746	588.35
426.123	602.58
426.499	586.99
426.875	592.64
427.251	590.83
427.627	626.76
428.003	610.94
428.379	602.13
428.756	629.02
429.132	621.11
429.507	652.3
429.883	634.22
430.259	647.78
430.635	670.15
431.011	665.86
431.387	671.28
431.763	670.15
432.138	680.55
432.514	683.48
432.89	695.91
433.265	691.85
433.641	715.57
434.016	711.05
434.392	713.77
434.767	733.43
435.143	697.95
435.518	720.77
435.894	717.16
436.269	757.61
436.644	749.7
437.02	775.01
437.395	761.67
437.77	736.14
438.145	771.62
438.52	778.62
438.895	777.49
439.271	812.97
439.646	807.1
440.021	789.92
440.395	801.45
440.77	803.93
441.145	802.13
441.52	810.26
441.895	836.93
442.27	824.5
442.645	826.31
443.019	841.67
443.394	836.48
443.769	848.9
444.143	831.05
444.518	869.02
444.892	854.55
445.267	881.22
445.641	875.34
446.016	863.14
446.39	859.3
446.764	877.83
447.139	891.39
447.513	882.8
447.887	902.46
448.262	902.24
448.636	939.3
449.01	927.77
449.384	905.63
449.758	942.01
450.132	950.82
450.506	954.66
450.88	940.65
451.254	952.4
451.628	963.25
452.002	961.22
452.376	961.9
452.75	993.76
453.123	978.62
453.497	1025.85
453.871	1036.24
454.244	1019.07
454.618	1046.41
454.992	1078.95
455.365	1072.18
455.739	1059.29
456.112	1093.42
456.486	1099.07
456.859	1123.93
457.232	1139.29
457.606	1120.54
457.979	1167.31
458.352	1174.09
458.725	1172.06
459.099	1160.99
459.472	1187.88
459.845	1216.58
460.218	1224.94
460.591	1236.01
460.964	1239.85
461.337	1258.84
461.71	1284.6
462.083	1285.28
462.456	1311.72
462.829	1302.68
463.201	1343.35
463.574	1359.63
463.947	1369.57
464.32	1368.89
464.692	1405.73
465.065	1417.25
465.438	1412.05
465.81	1488.44
466.183	1485.95
466.555	1510.36
466.928	1509.45
467.3	1547.42
467.672	1527.76
468.045	1590.13
468.417	1618.6
468.789	1625.83
469.161	1663.8
469.534	1692.05
469.906	1724.81
470.278	1754.19
470.65	1761.2
471.022	1817.69
471.394	1854.08
471.766	1875.09
472.138	1903.57
472.51	1927.29
472.882	1961.87
473.253	2015.88
473.625	2055.65
473.997	2129.55
474.369	2139.04
474.74	2197.12
475.112	2240.51
475.484	2287.28
475.855	2363.89
476.227	2367.06
476.598	2468.3
476.97	2509.2
477.341	2567.05
477.713	2641.85
478.084	2647.95
478.455	2769.08
478.827	2845.46
479.198	2934.27
479.569	2981.05
479.94	3080.48
480.311	3144.21
480.682	3254.49
481.053	3344.43
481.424	3453.58
481.795	3474.15
482.166	3608.83
482.537	3689.51
482.908	3801.37
483.279	3855.38
483.65	3967.69
484.021	4143.05
484.391	4219.89
484.762	4257.63
485.133	4364.74
485.503	4531.97
485.874	4631.63
486.244	4751.85
486.615	4935.8
486.985	4991.62
487.356	5125.85
487.726	5265.74
488.097	5427.99
488.467	5453.98
488.837	5707.31
489.207	5841.09
489.578	5950.24
489.948	6079.73
490.318	6191.36
490.688	6267.29
491.058	6468.87
491.428	6599.71
491.798	6750.22
492.168	6947.5
492.538	7030.89
492.908	7148.4
493.278	7360.37
493.648	7418.67
494.017	7559.24
494.387	7744.54
494.757	7848.04
495.126	7943.41
495.496	8084.42
495.866	8184.53
496.235	8384.07
496.605	8515.37
496.974	8560.11
497.344	8782.93
497.713	8796.94
498.082	8992.64
498.452	9039.2
498.821	9170.49
499.19	9239.87
499.559	9356.25
499.928	9496.36
500.298	9604.15
500.667	9757.37
501.036	9816.58
501.405	9968.21
501.774	10010.92
502.143	10139.28
502.512	10213.86
502.88	10307.86
503.249	10365.72
503.618	10530.68
503.987	10621.3
504.356	10629.21
504.724	10740.62
505.093	10849.77
505.462	10958.47
505.83	10991.69
506.199	11081.18
506.567	11230.78
506.936	11149.65
507.304	11486.59
507.672	11378.34
508.041	11501.05
508.409	11576.53
508.777	11770.2
509.145	11813.59
509.514	11804.55
509.882	11909.63
510.25	11912.79
510.618	11907.14
510.986	12019.46
511.354	12084.99
511.722	12219.68
512.09	12303.52
512.458	12236.85
512.826	12396.62
513.193	12447.24
513.561	12435.04
513.929	12564.75
514.297	12626
514.664	12663.73
515.032	12689.04
515.4	12805.43
515.767	12819.21
516.135	12756.39
516.502	12754.81
516.869	12917.97
517.237	12899.21
517.604	12830.96
517.972	13075.93
518.339	13061.01
518.706	13094.68
519.073	13125.42
519.44	13108.69
519.808	13238.18
520.175	13169.03
520.542	13346.88
520.909	13383.72
521.276	13346.43
521.643	13462.36
522.009	13507.78
522.376	13579.87
522.743	13538.06
523.11	13714.78
523.477	13668.68
523.843	13706.19
524.21	13797.94
524.577	13825.51
524.943	13862.35
525.31	13853.08
525.676	13926.98
526.043	14038.61
526.409	13982.8
526.776	14141.21
527.142	14044.04
527.508	14108.67
527.874	14115
528.241	14169.23
528.607	14164.94
528.973	14194.32
529.339	14168.33
529.705	14178.72
530.071	14373.97
530.437	14252.85
530.803	14278.61
531.169	14300.98
531.535	14204.94
531.901	14309.57
532.267	14323.58
532.632	14284.71
532.998	14298.49
533.364	14282
533.73	14222.11
534.095	14364.71
534.461	14190.7
534.826	14344.37
535.192	14286.52
535.557	14260.98
535.923	14221.89
536.288	14273.41
536.653	14278.16
537.019	14133.07
537.384	14150.02
537.749	14247.87
538.114	14295.78
538.479	14083.13
538.845	14098.05
539.21	14035
539.575	13997.71
539.94	13989.8
540.305	14009.91
540.67	13975.34
541.034	13990.25
541.399	13932.63
541.764	13872.29
542.129	13965.85
542.494	13921.78
542.858	13833.87
543.223	13781.67
543.587	13890.37
543.952	13746.87
544.316	13711.16
544.681	13669.58
545.045	13663.48
545.41	13660.09
545.774	13698.51
546.138	13644.73
546.503	13603.15
546.867	13588.46
547.231	13578.74
547.595	13543.03
547.959	13462.36
548.324	13395.02
548.688	13424.84
549.052	13410.16
549.416	13352.3
549.779	13377.61
550.143	13375.35
550.507	13310.27
550.871	13321.12
551.235	13287.9
551.599	13307.33
551.962	13324.96
552.326	13299.88
552.689	13302.81
553.053	13094.46
553.417	13110.5
553.78	13245.19
554.143	13007.68
554.507	13043.16
554.87	13178.52
555.234	13130.39
555.597	13110.5
555.96	13052.2
556.323	13075.93
556.686	13067.79
557.05	13116.15
557.413	13032.09
557.776	13001.35
558.139	13115.93
558.502	12985.31
558.865	13015.59
559.228	13131.97
559.59	13120.67
559.953	13045.65
560.316	13170.39
560.679	13040.45
561.041	13114.57
561.404	13138.52
561.767	13177.62
562.129	12971.75
562.492	13145.3
562.854	13075.48
563.217	13094.91
563.579	13120.9
563.941	13137.39
564.304	13076.83
564.666	13211.07
565.028	13133.78
565.39	13141.69
565.753	13227.56
566.115	13168.58
566.477	13244.06
566.839	13259.88
567.201	13278.41
567.563	13296.03
567.925	13333.55
568.287	13242.93
568.648	13258.07
569.01	13319.08
569.372	13416.26
569.734	13303.72
570.095	13453.54
570.457	13386.2
570.819	13345.07
571.18	13429.82
571.542	13515.01
571.903	13426.43
572.265	13511.4
572.626	13474.11
572.987	13424.17
573.349	13503.94
573.71	13523.83
574.071	13563.37
574.432	13539.64
574.794	13654.44
575.155	13608.57
575.516	13466.65
575.877	13649.7
576.238	13653.99
576.599	13649.7
576.96	13598.17
577.32	13599.76
577.681	13680.43
578.042	13654.44
578.403	13597.04
578.763	13592.07
579.124	13639.98
579.485	13708.91
579.845	13688.57
580.206	13607.44
580.566	13656.25
580.927	13703.48
581.287	13730.37
581.648	13687.66
582.008	13664.61
582.368	13659.19
582.728	13665.97
583.089	13696.25
583.449	13672.97
583.809	13700.54
584.169	13714.55
584.529	13586.42
584.889	13626.2
585.249	13617.61
585.609	13513.2
585.969	13644.5
586.329	13481.11
586.688	13632.75
587.048	13573.77
587.408	13494.45
587.768	13565.41
588.127	13514.56
588.487	13485.86
588.846	13626.2
589.206	13445.41
589.565	13588.91
589.925	13534.9
590.284	13483.6
590.643	13524.5
591.003	13618.51
591.362	13478.18
591.721	13496.26
592.08	13505.75
592.44	13508.46
592.799	13475.92
593.158	13373.32
593.517	13476.14
593.876	13407.22
594.235	13458.06
594.593	13453.32
594.952	13474.56
595.311	13358.41
595.67	13467.56
596.029	13555.24
596.387	13454.9
596.746	13428.91
597.104	13427.33
597.463	13433.66
597.822	13483.37
598.18	13360.21
598.538	13358.41
598.897	13422.36
599.255	13332.87
599.613	13502.58
599.972	13390.04
600.33	13369.03
600.688	13371.74
601.046	13420.1
601.404	13443.83
601.762	13378.52
602.12	13446.09
602.478	13412.19
602.836	13432.75
603.194	13343.49
603.552	13435.69
603.91	13412.64
604.268	13410.83
604.625	13387.33
604.983	13369.03
605.341	13340.55
605.698	13397.27
606.056	13428.46
606.413	13495.35
606.771	13402.02
607.128	13454.22
607.485	13411.06
607.843	13427.56
608.2	13517.27
608.557	13512.07
608.914	13477.27
609.272	13531.06
609.629	13595.01
609.986	13567.67
610.343	13575.12
610.7	13614.44
611.057	13584.61
611.414	13564.28
611.771	13592.98
612.127	13647.44
612.484	13651.96
612.841	13651.28
613.198	13621.9
613.554	13578.74
613.911	13695.57
614.267	13649.92
614.624	13590.26
614.98	13625.74
615.337	13781.45
615.693	13606.08
616.05	13637.27
616.406	13748
616.762	13715.68
617.118	13760.2
617.475	13766.98
617.831	13785.74
618.187	13704.16
618.543	13784.38
618.899	13798.17
619.255	13772.18
619.611	13740.32
619.967	13924.04
620.323	13824.61
620.678	13782.58
621.034	13896.24
621.39	13815.12
621.746	13805.63
622.101	13890.6
622.457	13773.31
622.812	13757.94
623.168	13891.95
623.523	13846.3
623.879	13785.97
624.234	13763.59
624.589	13772.86
624.945	13813.31
625.3	13871.16
625.655	13786.64
626.01	13858.96
626.365	13846.08
626.72	13882.23
627.075	13791.39
627.43	13817.6
627.785	13839.75
628.14	13773.54
628.495	13729.92
628.85	13794.55
629.205	13733.31
629.559	13831.39
629.914	13693.76
630.269	13769.24
630.623	13688.79
630.978	13732.86
631.332	13739.86
631.687	13759.98
632.041	13710.71
632.396	13711.39
632.75	13714.55
633.104	13698.51
633.459	13604.73
633.813	13626.2
634.167	13632.75
634.521	13528.8
634.875	13646.76
635.229	13534.9
635.583	13544.84
635.937	13538.74
636.291	13555.69
636.645	13512.75
636.999	13452.19
637.352	13498.52
637.706	13472.08
638.06	13480.89
638.413	13462.81
638.767	13432.98
639.121	13463.49
639.474	13357.95
639.828	13378.07
640.181	13429.14
640.534	13354.79
640.888	13366.77
641.241	13280.44
641.594	13362.93
641.947	13358.86
642.301	13352.76
642.654	13334.9
643.007	13328.12
643.36	13268.92
643.713	13252.42
644.066	13180.11
644.419	13180.56
644.771	13114.8
645.124	13031.63
645.477	13039.09
645.83	12915.93
646.182	12864.18
646.535	12818.31
646.888	12873.45
647.24	12788.7
647.593	12814.24
647.945	12840.23
648.298	12786.44
648.65	12776.95
649.002	12713.68
649.355	12764.75
649.707	12838.19
650.059	12869.61
650.411	13011.07
650.763	12921.58
651.115	13202.03
651.467	13137.85
651.819	13094.01
652.171	13052.88
652.523	13078.19
652.875	13018.53
653.227	13063.95
653.578	13118.64
653.93	13065.98
654.282	13101.24
654.633	13049.94
654.985	13005.19
655.337	13014.69
655.688	12994.12
656.039	13162.93
656.391	12999.55
656.742	12966.33
657.094	13058.98
657.445	13066.89
657.796	13100.56
658.147	12969.94
658.498	13044.74
658.849	13082.71
659.2	13045.19
659.551	13015.36
659.902	13064.85
660.253	13059.43
660.604	13184.17
660.955	13051.07
661.306	13121.12
661.656	13091.52
662.007	13176.72
662.358	13155.25
662.708	13147.79
663.059	13070.96
663.409	12988.25
663.76	13122.71
664.11	13127.45
664.461	13138.3
664.811	13129.49
665.161	13218.52
665.511	13084.74
665.862	13164.29
666.212	13134.91
666.562	13139.65
666.912	13107.56
667.262	13107.34
667.612	13072.76
667.962	13084.97
668.312	13176.26
668.662	13185.75
669.011	13136.49
669.361	13040.45
669.711	13112.31
670.06	13129.26
670.41	13097.17
670.76	13062.59
671.109	13057.4
671.459	12973.78
671.808	13014.69
672.157	13154.34
672.507	12995.25
672.856	12939.43
673.205	13016.72
673.554	12976.27
673.904	13012.88
674.253	13068.7
674.602	13010.39
674.951	12834.8
675.3	12731.3
675.649	12965.87
675.998	12948.93
676.346	12843.84
676.695	12900.34
677.044	12853.11
677.393	12897.4
677.741	12903.95
678.09	12778.99
678.438	12818.53
678.787	12885.88
679.135	12772.43
679.484	12796.84
679.832	12826.89
680.181	12689.5
680.529	12705.77
680.877	12676.84
681.225	12662.15
681.573	12734.69
681.922	12631.87
682.27	12652.89
682.618	12641.36
682.966	12578.77
683.314	12619.89
683.661	12585.09
684.009	12572.21
684.357	12503.97
684.705	12403.18
685.053	12487.92
685.4	12525.21
685.748	12323.18
686.095	12351.43
686.443	12277.53
686.79	12334.7
687.138	12368.38
687.485	12357.75
687.832	12298.55
688.18	12269.17
688.527	12200.7
688.874	12088.38
689.221	12141.04
689.568	12091.55
689.915	12024.2
690.262	12066.69
690.609	11925.22
690.956	12003.19
691.303	11974.49
691.65	11880.48
691.997	11894.49
692.344	11757.09
692.69	11743.08
693.037	11657.89
693.383	11588.73
693.73	11696.3
694.077	11666.47
694.423	11607.49
694.769	11524.78
695.116	11488.62
695.462	11488.85
695.808	11426.25
696.155	11464.22
696.501	11344.22
696.847	11327.72
697.193	11282.98
697.539	11272.36
697.885	11226.48
698.231	11135.41
698.577	11195.3
698.923	11128.63
699.269	11106.49
699.614	11014.51
699.96	10987.62
700.306	10945.59
700.651	10853.16
700.997	10814.74
701.342	10861.3
701.688	10843.9
702.033	10758.7
702.379	10738.81
702.724	10812.94
703.069	10662.43
703.415	10603.45
703.76	10587.63
704.105	10622.43
704.45	10525.26
704.795	10541.53
705.14	10516.22
705.485	10442.1
705.83	10418.82
706.175	10468.09
706.52	10429.22
706.865	10343.57
707.209	10333.17
707.554	10234.19
707.899	10253.63
708.243	10170.47
708.588	10201.88
708.932	10059.06
709.277	10048.66
709.621	10096.8
709.966	10013.18
710.31	9997.14
710.654	9975.22
710.998	9929.8
711.342	9917.14
711.687	9985.39
712.031	9921.89
712.375	9792.62
712.719	9864.49
713.063	9850.93
713.407	9872.4
713.75	9783.36
714.094	9782.45
714.438	9813.64
714.782	9850.25
715.125	9710.59
715.469	9733.42
715.812	9714.43
716.156	9712.4
716.499	9651.38
716.843	9697.94
717.186	9568.67
717.53	9713.3
717.873	9672.4
718.216	9639.86
718.559	9604.83
718.902	9520.09
719.246	9597.15
719.589	9532.52
719.932	9472.86
720.275	9458.4
720.617	9534.55
720.96	9480.99
721.303	9460.66
721.646	9474.21
721.989	9366.42
722.331	9404.84
722.674	9378.17
723.016	9417.27
723.359	9444.84
723.701	9349.25
724.044	9315.12
724.386	9292.07
724.729	9299.53
725.071	9301.34
725.413	9322.81
725.755	9357.61
726.097	9302.69
726.439	9249.81
726.782	9251.4
727.124	9311.28
727.465	9275.35
727.807	9287.78
728.149	9210.27
728.491	9184.28
728.833	9227.67
729.175	9167.33
729.516	9177.27
729.858	9115.81
730.199	9226.99
730.541	9247.33
730.882	9171.4
731.224	9221.79
731.565	9106.09
731.906	9130.95
732.248	9149.48
732.589	9133.43
732.93	9083.04
733.271	9147.9
733.612	9151.28
733.953	9170.04
734.294	9103.83
734.635	9120.1
734.976	9179.08
735.317	9093.21
735.658	9183.6
735.999	9153.32
736.339	9122.36
736.68	9168.46
737.021	9160.1
737.361	9151.06
737.702	9221.34
738.042	9156.26
738.383	9140.89
738.723	9261.34
739.063	9163.26
739.404	9180.89
739.744	9175.69
740.084	9137.5
740.424	9177.95
740.764	9208.91
741.104	9186.31
741.444	9270.83
741.784	9237.38
742.124	9261.56
742.464	9296.37
742.804	9286.2
743.143	9333.2
743.483	9362.8
743.823	9317.38
744.162	9355.35
744.502	9408.45
744.841	9393.76
745.181	9439.64
745.52	9435.35
745.86	9494.55
746.199	9492.74
746.538	9594.89
746.877	9690.25
747.216	9692.97
747.556	9742.91
747.895	9756.24
748.234	9796.01
748.573	9897.48
748.911	9841.21
749.25	9996.01
749.589	9981.77
749.928	10089.34
750.267	10118.49
750.605	10194.65
750.944	10270.8
751.283	10232.84
751.621	10402.78
751.96	10476.9
752.298	10507.63
752.636	10640.29
752.975	10742.43
753.313	10821.3
753.651	10967.96
753.989	11011.57
754.327	11151.68
754.666	11216.32
755.004	11421.28
755.342	11399.81
755.679	11583.76
756.017	11684.1
756.355	11858.56
756.693	11938.78
757.031	12087.03
757.368	12233.24
757.706	12342.16
758.044	12476.85
758.381	12677.75
758.719	12752.09
759.056	13004.52
759.394	13080.22
759.731	13135.36
760.068	13301.46
760.405	13536.48
760.743	13667.32
761.08	13780.77
761.417	13902.57
761.754	14060.99
762.091	14288.1
762.428	14425.04
762.765	14557.7
763.102	14702.33
763.438	14818.25
763.775	15119.04
764.112	15204.68
764.449	15442.87
764.785	15476.54
765.122	15633.15
765.458	15693.71
765.795	15869.98
766.131	16032.46
766.467	16106.81
766.804	16206.24
767.14	16357.87
767.476	16558.55
767.812	16639.68
768.148	16753.34
768.485	16878.31
768.821	16964.41
769.157	17056.61
769.492	17256.16
769.828	17338.19
770.164	17338.19
770.5	17500.67
770.836	17535.7
771.171	17738.63
771.507	17660.67
771.842	17826.76
772.178	17957.38
772.513	18000.32
772.849	18124.16
773.184	18111.28
773.519	18255
773.855	18280.54
774.19	18306.3
774.525	18451.83
774.86	18542.45
775.195	18580.64
775.53	18575.67
775.865	18615.67
776.2	18542
776.535	18619.06
776.87	18662
777.205	18652.5
777.539	18741.54
777.874	18836.91
778.209	18746.06
778.543	18823.35
778.878	18840.52
779.212	18897.47
779.547	18756.46
779.881	18979.95
780.215	18891.14
780.55	18953.29
780.884	18900.41
781.218	18880.29
781.552	18956.45
781.886	18901.31
782.22	18822.22
782.554	18840.07
782.888	18719.39
783.222	18730.69
783.556	18779.73
783.889	18719.85
784.223	18608.44
784.557	18637.36
784.89	18785.38
785.224	18668.77
785.557	18658.83
785.891	18558.95
786.224	18656.12
786.558	18670.58
786.891	18460.87
787.224	18484.6
787.557	18426.97
787.891	18564.14
788.224	18516.91
788.557	18506.07
788.89	18493.41
789.223	18467.65
789.556	18284.38
789.888	18415.45
790.221	18322.8
790.554	18198.96
790.887	18243.7
791.219	18248.45
791.552	18160.54
791.884	18131.84
792.217	18072.63
792.549	18087.77
792.882	17885.29
793.214	17937.49
793.546	17963.26
793.879	17864.28
794.211	17810.49
794.543	17920.09
794.875	17843.03
795.207	17939.53
795.539	17766.88
795.871	17737.27
796.203	17626.77
796.535	17541.12
796.867	17518.3
797.198	17526.88
797.53	17463.61
797.862	17438.07
798.193	17433.55
798.525	17405.31
798.856	17340
799.188	17133.67
799.519	17255.93
799.85	17114.92
800.182	17111.98
800.513	17137.52
800.844	17088.93
801.175	17078.99
801.506	17002.38
801.837	16981.36
802.168	16969.38
802.499	16869.27
802.83	16769.16
803.161	16743.4
803.491	16817.52
803.822	16740.92
804.153	16730.97
804.483	16559.45
804.814	16655.04
805.145	16507.7
805.475	16505.44
805.805	16444.2
806.136	16393.13
806.466	16427.25
806.796	16396.07
807.126	16370.53
807.457	16277.88
807.787	16266.58
808.117	16227.93
808.447	16175.73
808.777	16193.81
809.107	16133.7
809.436	16056.19
809.766	16123.53
810.096	15939.13
810.426	15972.35
810.755	16012.35
811.085	15904.78
811.414	15976.64
811.744	15810.54
812.073	15790.21
812.403	15756.31
812.732	15728.96
813.061	15672.92
813.39	15620.95
813.719	15643.77
814.049	15698.68
814.378	15563.32
814.707	15544.56
815.036	15577.56
815.365	15451.01
815.693	15314.74
816.022	15409.65
816.351	15278.36
816.68	15232.71
817.008	15241.29
817.337	15262.99
817.665	15132.37
817.994	15145.7
818.322	15180.05
818.651	15105.7
818.979	15073.16
819.307	15077.68
819.636	15082.2
819.964	14919.04
820.292	15062.77
820.62	15104.35
820.948	14971.92
821.276	15036.33
821.604	14994.97
821.932	15009.44
822.259	14952.26
822.587	14919.49
822.915	14863.45
823.243	14952.04
823.57	14926.5
823.898	14972.83
824.225	14837.24
824.553	14946.39
824.88	14953.17
825.207	14968.76
825.535	14946.16
825.862	15036.78
826.189	14961.08
826.516	14962.43
826.843	14991.13
827.17	14982.54
827.497	14968.53
827.824	14996.55
828.151	15034.97
828.478	14984.13
828.805	15151.58
829.131	15013.73
829.458	14954.52
829.785	14913.39
830.111	14926.95
830.438	15085.37
830.764	15011.24
831.09	15075.65
831.417	14946.39
831.743	15012.37
832.069	14924.92
832.395	14864.13
832.722	14995.88
833.048	14935.09
833.374	14911.13
833.7	14790.46
834.026	14937.35
834.351	14900.51
834.677	14849.89
835.003	14877.24
835.329	14815.77
835.654	14781.65
835.98	14716.34
836.306	14746.17
836.631	14651.93
836.956	14797.24
837.282	14771.02
837.607	14709.33
837.932	14674.98
838.258	14681.08
838.583	14661.87
838.908	14565.15
839.233	14629.78
839.558	14525.61
839.883	14503.23
840.208	14442.67
840.533	14462.78
840.858	14419.62
841.182	14446.96
841.507	14441.77
841.832	14337.82
842.156	14313.18
842.481	14324.71
842.805	14272.05
843.13	14226.86
843.454	14216.91
843.778	14163.13
844.103	14181.21
844.427	14046.98
844.751	14140.98
845.075	14120.42
845.399	14050.59
845.723	13969.24
846.047	14007.65
846.371	13851.05
846.695	13882.69
847.019	13779.86
847.343	13735.57
847.666	13613.99
847.99	13550.72
848.313	13549.59
848.637	13489.93
848.96	13517.72
849.284	13459.42
849.607	13406.54
849.931	13319.08
850.254	13244.28
850.577	13186.66
850.9	13053.56
851.223	13058.53
851.546	12939.21
851.869	12897.63
852.192	12952.99
852.515	12837.97
852.838	12858.31
853.161	12799.78
853.483	12753.22
853.806	12689.04
854.129	12566.34
854.451	12564.75
854.774	12527.24
855.096	12500.35
855.419	12503.29
855.741	12421.93
856.063	12439.79
856.385	12379.45
856.708	12289.06
857.03	12269.17
857.352	12319.11
857.674	12245.67
857.996	12173.8
858.318	12111.21
858.64	12077.54
858.961	12024.43
859.283	12009.29
859.605	11957.54
859.926	11964.77
860.248	11933.58
860.57	11866.92
860.891	11899.91
861.212	11816.3
861.534	11772.68
861.855	11760.03
862.176	11834.15
862.498	11738.79
862.819	11751.89
863.14	11736.98
863.461	11782.63
863.782	11686.36
864.103	11699.24
864.424	11603.42
864.745	11600.03
865.065	11562.52
865.386	11470.77
865.707	11445.46
866.027	11468.29
866.348	11493.6
866.668	11518.45
866.989	11503.31
867.309	11344.9
867.63	11391.45
867.95	11409.53
868.27	11285.69
868.59	11341.74
868.91	11278.01
869.23	11276.65
869.55	11224.9
869.87	11327.95
870.19	11248.86
870.51	11259.7
870.83	11256.09
871.15	11205.69
871.469	11113.49
871.789	11167.05
872.109	11134.28
872.428	11050.22
872.748	11159.37
873.067	11080.95
873.386	11105.81
873.706	11060.16
874.025	11023.55
874.344	10959.6
874.663	11072.59
874.982	11006.38
875.301	11019.26
875.62	10985.81
875.939	10993.04
876.258	10939.71
876.577	10887.06
876.896	10847.74
877.214	10855.42
877.533	10831.24
877.852	10890.9
878.17	10848.19
878.489	10803.9
878.807	10838.02
879.125	10823.56
879.444	10760.73
879.762	10711.02
880.08	10778.36
880.398	10715.09
880.716	10737.91
881.034	10708.76
881.352	10680.51
881.67	10616.78
881.988	10588.08
882.306	10565.94
882.624	10528.42
882.941	10439.16
883.259	10439.84
883.577	10470.35
883.894	10420.18
884.212	10437.8
884.529	10380.41
884.846	10377.24
885.164	10392.38
885.481	10312.61
885.798	10333.17
886.115	10214.99
886.432	10277.36
886.75	10212.95
887.067	10193.52
887.383	10221.99
887.7	10135.89
888.017	10079.62
888.334	10139.96
888.651	10081.88
888.967	10063.35
889.284	9893.64
889.6	9899.51
889.917	9934.32
890.233	9915.56
890.55	9824.94
890.866	9899.74
891.182	9801.89
891.498	9803.02
891.815	9759.18
892.131	9728.22
892.447	9703.13
892.763	9761.66
893.079	9691.16
893.395	9588.34
893.71	9667.43
894.026	9615.68
894.342	9602.12
894.657	9535.23
894.973	9503.82
895.289	9510.37
895.604	9497.26
895.92	9344.73
896.235	9402.13
896.55	9286.2
896.865	9313.77
897.181	9242.36
897.496	9252.53
897.811	9256.37
898.126	9181.34
898.441	9113.55
898.756	9133.66
899.071	9095.24
899.386	9077.61
899.7	9022.25
900.015	8962.36
900.33	8895.92
900.644	8923.27
900.959	8895.47
901.273	8860.44
901.588	8776.38
901.902	8796.72
902.216	8772.54
902.531	8709.26
902.845	8709.26
903.159	8630.85
903.473	8558.76
903.787	8642.6
904.101	8545.43
904.415	8551.75
904.729	8489.61
905.042	8459.33
905.356	8394.02
905.67	8399.44
905.984	8382.27
906.297	8291.42
906.611	8293.23
906.924	8303.85
907.237	8222.5
907.551	8240.57
907.864	8131.65
908.177	8147.7
908.491	8106.79
908.804	8084.42
909.117	8084.87
909.43	7973.69
909.743	7944.76
910.056	7936.63
910.368	7923.75
910.681	7882.39
910.994	7860.92
911.307	7825.9
911.619	7723.75
911.932	7738.21
912.244	7737.54
912.557	7726.01
912.869	7618.44
913.181	7594.26
913.494	7550.42
913.806	7483.31
914.118	7544.32
914.43	7471.1
914.742	7447.83
915.054	7451.67
915.366	7427.04
915.678	7375.29
915.99	7327.6
916.302	7286.7
916.613	7245.8
916.925	7289.64
917.236	7201.73
917.548	7170.77
917.859	7179.59
918.171	7133.94
918.482	7026.14
918.794	7040.38
919.105	7034.05
919.416	6985.92
919.727	6952.92
920.038	6966.48
920.349	6928.74
920.66	6901.85
920.971	6883.1
921.282	6790.89
921.593	6813.95
921.903	6778.01
922.214	6763.32
922.525	6774.17
922.835	6720.84
923.146	6700.05
923.456	6616.44
923.767	6616.21
924.077	6641.52
924.387	6558.81
924.697	6507.06
925.008	6510.9
925.318	6448.98
925.628	6467.51
925.938	6479.72
926.248	6362.21
926.558	6377.8
926.867	6378.7
927.177	6327.18
927.487	6338.25
927.796	6262.1
928.106	6244.69
928.416	6213.73
928.725	6219.61
929.034	6201.31
929.344	6134.41
929.653	6135.54
929.962	6097.35
930.271	6060.29
930.581	6007.19
930.89	6005.38
931.199	5999.05
931.508	6023.46
931.817	5965.38
932.125	6025.94
932.434	5914.53
932.743	5855.1
933.051	5840.19
933.36	5830.47
933.669	5816.91
933.977	5807.87
934.286	5760.41
934.594	5733.07
934.902	5649.23
935.21	5648.33
935.519	5662.56
935.827	5686.97
936.135	5592.73
936.443	5617.82
936.751	5617.37
937.059	5544.15
937.367	5568.55
937.674	5558.84
937.982	5450.37
938.29	5455.11
938.597	5416.92
938.905	5378.5
939.213	5365.17
939.52	5364.27
939.827	5374.66
940.135	5335.34
940.442	5294.44
940.749	5250.14
941.056	5283.82
941.363	5258.28
941.67	5188.45
941.977	5233.65
942.284	5156.36
942.591	5097.83
942.898	5131.96
943.205	5124.72
943.511	5084.5
943.818	5076.59
944.125	5066.87
944.431	5030.49
944.738	5010.6
945.044	4990.49
945.35	4959.76
945.657	4870.27
945.963	4913.66
946.269	4863.71
946.575	4858.74
946.881	4865.75
947.187	4844.73
947.493	4783.26
947.799	4769.93
948.105	4797.95
948.41	4718.63
948.716	4730.16
949.022	4701.01
949.327	4647.67
949.633	4619.88
949.938	4609.48
950.244	4610.61
950.549	4613.33
950.854	4554.8
951.16	4586.66
951.465	4519.99
951.77	4539.88
952.075	4501.69
952.38	4480
952.685	4449.49
952.99	4456.04
953.294	4403.61
953.599	4400.68
953.904	4384.4
954.209	4357.74
954.513	4352.77
954.818	4315.03
955.122	4276.38
955.426	4272.77
955.731	4286.1
956.035	4233.45
956.339	4209.04
956.643	4250.4
956.948	4225.31
957.252	4184.41
957.556	4159.78
957.86	4176.5
958.163	4144.64
958.467	4118.2
958.771	4039.55
959.075	4076.84
959.378	4034.13
959.682	4001.59
959.985	4023.28
960.289	3972.21
960.592	3950.74
960.896	4010.85
961.199	4001.14
961.502	3945.32
961.805	3939.22
962.108	3851.99
962.411	3897.64
962.714	3883.63
963.017	3819.45
963.32	3825.78
963.623	3813.12
963.926	3879.78
964.228	3796.17
964.531	3765.21
964.833	3764.31
965.136	3734.03
965.438	3762.5
965.741	3706
966.043	3733.57
966.345	3671.65
966.648	3657.87
966.95	3613.8
967.252	3597.76
967.554	3640.24
967.856	3633.24
968.158	3581.71
968.46	3574.71
968.761	3547.36
969.063	3544.88
969.365	3513.92
969.666	3511.66
969.968	3467.37
970.269	3450.19
970.571	3435.95
970.872	3381.27
971.174	3423.98
971.475	3435.5
971.776	3384.88
972.077	3382.85
972.378	3398.67
972.679	3319.57
972.98	3321.38
973.281	3347.37
973.582	3326.35
973.883	3303.53
974.183	3271.67
974.484	3265.79
974.785	3252
975.085	3270.31
975.386	3228.28
975.686	3220.37
975.986	3209.97
976.287	3168.17
976.587	3144.44
976.887	3163.65
977.187	3167.04
977.487	3123.65
977.787	3121.16
978.087	3061.95
978.387	3103.53
978.687	3057.43
978.987	3043.2
979.286	3042.74
979.586	3029.41
979.885	3017.43
980.185	3015.85
980.484	2988.96
980.784	2965.91
981.083	2961.17
981.382	2933.14
981.682	2952.58
981.981	2943.99
982.28	2908.29
982.579	2875.97
982.878	2920.04
983.177	2873.03
983.475	2863.77
983.774	2840.72
984.073	2825.12
984.372	2805.24
984.67	2805.46
984.969	2825.35
985.267	2770.44
985.566	2798.68
985.864	2758.46
986.162	2733.37
986.461	2719.82
986.759	2692.02
987.057	2699.25
987.355	2710.78
987.653	2675.97
987.951	2681.62
988.249	2636.43
988.547	2656.09
988.844	2623.09
989.142	2600.72
989.44	2618.12
989.737	2585.13
990.035	2605.02
990.332	2559.59
990.63	2567.5
990.927	2570.44
991.224	2532.7
991.521	2522.98
991.819	2549.42
992.116	2520.95
992.413	2485.25
992.71	2505.58
993.006	2472.36
993.303	2437.79
993.6	2438.92
993.897	2441.86
994.193	2445.7
994.49	2435.08
994.787	2376.1
995.083	2357.34
995.379	2370.22
995.676	2382.65
995.972	2355.08
996.268	2361.86
996.565	2338.13
996.861	2357.11
997.157	2317.11
997.453	2297
997.749	2304.69
998.044	2279.83
998.34	2247.74
998.636	2213.61
998.932	2232.37
999.227	2205.03
999.523	2239.15
999.818	2216.78
1000.114	2203.9
1000.409	2176.78
1000.704	2162.77
1001	2148.76
1001.295	2147.4
1001.59	2111.7
1001.885	2145.14
1002.18	2083.67
1002.475	2107.4
1002.77	2080.51
1003.065	2080.51
1003.359	2096.78
1003.654	2064.92
1003.949	2068.08
1004.243	2040.06
1004.538	2046.16
1004.832	2047.74
1005.127	1991.93
1005.421	1983.11
1005.715	1983.79
1006.009	1979.72
1006.304	1971.13
1006.598	1958.93
1006.892	1954.64
1007.186	1934.53
1007.48	1937.01
1007.773	1888.65
1008.067	1905.37
1008.361	1904.02
1008.655	1857.47
1008.948	1857.24
1009.242	1848.43
1009.535	1825.83
1009.829	1814.75
1010.122	1795.32
1010.415	1824.7
1010.708	1820.18
1011.001	1817.01
1011.295	1775.66
1011.588	1735.21
1011.881	1757.81
1012.173	1706.73
1012.466	1731.37
1012.759	1743.34
1013.052	1725.94
1013.344	1730.24
1013.637	1695.21
1013.93	1691.37
1014.222	1660.41
1014.514	1668.32
1014.807	1665.38
1015.099	1637.81
1015.391	1607.3
1015.683	1638.71
1015.976	1616.57
1016.268	1598.49
1016.56	1572.05
1016.851	1572.95
1017.143	1568.66
1017.435	1566.85
1017.727	1547.19
1018.018	1582.67
1018.31	1542.45
1018.602	1534.08
1018.893	1514.65
1019.185	1497.7
1019.476	1490.24
1019.767	1486.18
1020.058	1486.63
1020.35	1509.68
1020.641	1474.42
1020.932	1460.87
1021.223	1464.48
1021.514	1443.46
1021.804	1420.87
1022.095	1429.91
1022.386	1397.36
1022.677	1383.13
1022.967	1390.36
1023.258	1363.24
1023.548	1372.51
1023.839	1332.96
1024.129	1350.81
1024.419	1345.39
1024.709	1309.23
1025	1320.08
1025.29	1293.64
1025.58	1296.12
1025.87	1287.99
1026.16	1286.63
1026.449	1284.15
1026.739	1311.04
1027.029	1261.77
1027.319	1246.86
1027.608	1277.14
1027.898	1267.42
1028.187	1229.01
1028.477	1212.74
1028.766	1226.07
1029.055	1215.45
1029.344	1176.58
1029.634	1206.86
1029.923	1173.87
1030.212	1170.93
1030.501	1172.51
1030.79	1159.18
1031.078	1142.23
1031.367	1128.44
1031.656	1152.17
1031.945	1111.72
1032.233	1109.46
1032.522	1113.76
1032.81	1114.66
1033.099	1076.47
1033.387	1108.56
1033.675	1093.87
1033.963	1094.55
1034.251	1089.35
1034.54	1082.12
1034.828	1042.35
1035.116	1073.98
1035.403	1045.28
1035.691	1061.55
1035.979	1027.43
1036.267	1035.34
1036.554	998.5
1036.842	994.21
1037.129	1008
1037.417	1012.97
1037.704	998.96
1037.992	993.08
1038.279	990.82
1038.566	972.06
1038.853	972.06
1039.14	972.06
