Data from hue_28_FLMS001491_00088.txt Node
Date: Tue Feb 07 17:17:56 GMT 2017
User: dcchb
Spectrometer: FLMS00149
Trigger mode: 0
Integration Time (sec): 2.000000E-2
Scans to average: 10
Electric dark correction enabled: true
Nonlinearity correction enabled: false
Boxcar width: 0
XAxis mode: Wavelengths
Number of Pixels in Spectrum: 2048
>>>>>Begin Spectral Data<<<<<
341.393	-23.39
341.776	-23.39
342.16	-23.39
342.543	-84.63
342.927	-63.84
343.31	-57.51
343.693	-64.74
344.077	-59.09
344.46	-89.6
344.843	-46.67
345.226	-40.34
345.61	-39.21
345.993	-15.03
346.376	-8.93
346.759	8.93
347.142	25.42
347.525	41.69
347.908	65.2
348.291	70.62
348.674	88.25
349.057	121.01
349.44	135.25
349.823	115.36
350.206	145.42
350.588	176.83
350.971	195.36
351.354	224.74
351.737	256.38
352.119	242.14
352.502	246.89
352.884	284.17
353.267	276.04
353.65	290.73
354.032	296.6
354.414	296.38
354.797	309.71
355.179	311.97
355.562	314.68
355.944	313.55
356.326	326.43
356.709	326.66
357.091	338.86
357.473	349.48
357.855	327.56
358.238	335.25
358.62	328.01
359.002	352.42
359.384	347
359.766	343.61
360.148	330.73
360.53	350.84
360.912	315.81
361.294	336.83
361.676	328.01
362.057	341.57
362.439	338.64
362.821	319.43
363.203	330.73
363.584	341.12
363.966	318.75
364.348	316.04
364.729	311.29
365.111	322.82
365.493	332.99
365.874	311.74
366.256	331.18
366.637	305.87
367.019	330.95
367.4	318.07
367.781	328.47
368.163	316.94
368.544	304.51
368.925	313.33
369.306	329.6
369.688	314.68
370.069	288.02
370.45	316.71
370.831	318.52
371.212	317.17
371.593	307.22
371.974	306.55
372.355	325.98
372.736	293.44
373.117	324.4
373.498	318.52
373.879	317.39
374.26	315.36
374.641	306.55
375.021	299.99
375.402	324.17
375.783	332.99
376.163	323.95
376.544	315.36
376.925	314.91
377.305	318.3
377.686	313.55
378.066	332.31
378.447	318.52
378.827	322.82
379.208	323.72
379.588	309.71
379.968	347
380.349	324.62
380.729	332.76
381.109	329.14
381.489	311.97
381.87	317.39
382.25	332.08
382.63	336.6
383.01	332.76
383.39	357.62
383.77	351.74
384.15	358.97
384.53	328.92
384.91	336.83
385.29	344.74
385.67	348.58
386.049	357.39
386.429	344.06
386.809	362.14
387.189	357.62
387.568	332.08
387.948	342.7
388.328	339.99
388.707	346.09
389.087	369.59
389.466	355.81
389.846	366.88
390.225	366.88
390.605	364.4
390.984	351.29
391.363	350.16
391.743	361.69
392.122	385.64
392.501	366.88
392.881	379.31
393.26	360.1
393.639	379.76
394.018	363.95
394.397	372.53
394.776	391.52
395.155	375.47
395.534	382.93
395.913	395.13
396.292	391.74
396.671	401.23
397.05	375.92
397.429	387.45
397.808	382.7
398.186	377.28
398.565	421.12
398.944	398.97
399.323	382.93
399.701	396.26
400.08	394.9
400.458	412.53
400.837	400.33
401.215	409.82
401.594	398.29
401.972	386.54
402.351	391.29
402.729	406.43
403.107	388.13
403.486	405.53
403.864	394.9
404.242	399.88
404.62	427.45
404.999	429.93
405.377	424.96
405.755	418.63
406.133	427.45
406.511	426.09
406.889	437.62
407.267	435.13
407.645	428.12
408.023	426.09
408.401	408.92
408.779	441.68
409.156	445.98
409.534	460.89
409.912	454.34
410.29	464.73
410.667	474.45
411.045	478.07
411.422	446.2
411.8	456.15
412.178	444.85
412.555	469.48
412.933	475.58
413.31	451.63
413.687	482.36
414.065	473.32
414.442	473.77
414.819	478.29
415.197	470.84
415.574	485.3
415.951	496.37
416.328	476.48
416.705	495.69
417.082	508.8
417.46	502.02
417.837	506.54
418.214	514.22
418.591	526.65
418.967	510.16
419.344	490.04
419.721	516.94
420.098	496.37
420.475	506.77
420.852	504.96
421.228	519.2
421.605	545.41
421.982	527.56
422.358	537.73
422.735	568.46
423.111	565.75
423.488	553.77
423.864	550.16
424.241	533.66
424.617	547.44
424.994	544.51
425.37	556.48
425.746	557.39
426.123	548.57
426.499	569.36
426.875	536.14
427.251	570.27
427.627	594.9
428.003	578.18
428.379	604.39
428.756	584.28
429.132	591.74
429.507	596.71
429.883	611.17
430.259	614.11
430.635	613.2
431.011	632.64
431.387	625.63
431.763	626.54
432.138	631.06
432.514	644.39
432.89	670.15
433.265	653.2
433.641	651.4
434.016	671.51
434.392	686.87
434.767	697.5
435.143	684.16
435.518	661.56
435.894	691.62
436.269	689.59
436.644	696.14
437.02	681.68
437.395	703.6
437.77	735.69
438.145	707.44
438.52	726.42
438.895	744.05
439.271	735.46
439.646	749.02
440.021	747.21
440.395	752.64
440.77	748.57
441.145	756.25
441.52	747.89
441.895	740.43
442.27	772.3
442.645	768.91
443.019	793.09
443.394	778.17
443.769	788.11
444.143	802.58
444.518	815.23
444.892	800.09
445.267	794.89
445.641	830.15
446.016	805.97
446.39	821.56
446.764	817.72
447.139	814.55
447.513	830.6
447.887	844.16
448.262	815.23
448.636	853.65
449.01	855.91
449.384	872.63
449.758	861.11
450.132	868.56
450.506	880.54
450.88	872.41
451.254	866.53
451.628	871.73
452.002	879.19
452.376	876.25
452.75	894.33
453.123	916.25
453.497	915.57
453.871	906.98
454.244	949.47
454.618	924.61
454.992	974.1
455.365	958.05
455.739	982.46
456.112	975.91
456.486	998.96
456.859	1000.09
457.232	984.27
457.606	1001.89
457.979	1030.14
458.352	1018.17
458.725	1022.46
459.099	1047.54
459.472	1083.93
459.845	1078.95
460.218	1069.24
460.591	1092.06
460.964	1130.7
461.337	1108.56
461.71	1112.17
462.083	1161.89
462.456	1158.5
462.829	1197.6
463.201	1170.7
463.574	1175.9
463.947	1188.56
464.32	1199.4
464.692	1235.33
465.065	1216.58
465.438	1252.96
465.81	1268.33
466.183	1298.61
466.555	1301.55
466.928	1304.49
467.3	1304.03
467.672	1328.44
468.045	1324.6
468.417	1361.21
468.789	1399.17
469.161	1376.35
469.534	1414.54
469.906	1455.89
470.278	1468.32
470.65	1433.75
471.022	1524.82
471.394	1503.8
471.766	1537.7
472.138	1562.78
472.51	1587.87
472.882	1602.33
473.253	1629.22
473.625	1670.13
473.997	1678.49
474.369	1686.85
474.74	1710.8
475.112	1771.59
475.484	1795.55
475.855	1811.59
476.227	1808.88
476.598	1881.19
476.97	1897.92
477.341	1947.18
477.713	1990.34
478.084	2001.87
478.455	2071.02
478.827	2066.95
479.198	2131.13
479.569	2136.1
479.94	2187.85
480.311	2249.77
480.682	2299.49
481.053	2354.63
481.424	2378.58
481.795	2383.55
482.166	2491.35
482.537	2476.43
482.908	2542.19
483.279	2588.29
483.65	2673.04
484.021	2711.68
484.391	2737.22
484.762	2777.89
485.133	2831.9
485.503	2901.05
485.874	2926.14
486.244	2977.44
486.615	3055.17
486.985	3063.08
487.356	3133.36
487.726	3198
488.097	3269.63
488.467	3265.56
488.837	3353.25
489.207	3428.05
489.578	3467.37
489.948	3556.4
490.318	3541.26
490.688	3611.77
491.058	3662.62
491.428	3736.06
491.798	3742.16
492.168	3879.56
492.538	3897.86
492.908	3911.65
493.278	4003.85
493.648	4006.34
494.017	4083.85
494.387	4180.57
494.757	4162.49
495.126	4240.23
495.496	4261.92
495.866	4308.47
496.235	4308.47
496.605	4400.9
496.974	4491.75
497.344	4492.2
497.713	4518.41
498.082	4571.29
498.452	4583.04
498.821	4672.98
499.19	4694
499.559	4741.01
499.928	4778.29
500.298	4783.04
500.667	4842.7
501.036	4863.04
501.405	4887.44
501.774	4948.01
502.143	4962.02
502.512	4981.45
502.88	5044.5
503.249	5028.46
503.618	5084.05
503.987	5131.5
504.356	5127.89
504.724	5152.52
505.093	5169.24
505.462	5245.62
505.83	5270.71
506.199	5284.27
506.567	5365.17
506.936	5412.17
507.304	5421.44
507.672	5450.82
508.041	5432.96
508.409	5505.73
508.777	5519.74
509.145	5519.97
509.514	5559.97
509.882	5616.46
510.25	5649.46
510.618	5687.87
510.986	5691.26
511.354	5727.19
511.722	5786.4
512.09	5759.51
512.458	5837.02
512.826	5849.9
513.193	5871.15
513.561	5925.83
513.929	5970.58
514.297	6030.24
514.664	6020.75
515.032	6019.62
515.4	6041.54
515.767	6072.72
516.135	6106.39
516.502	6103.91
516.869	6220.06
517.237	6214.19
517.604	6194.53
517.972	6254.19
518.339	6280.17
518.706	6270
519.073	6297.35
519.44	6328.31
519.808	6389.32
520.175	6366.27
520.542	6474.75
520.909	6484.46
521.276	6469.32
521.643	6524.69
522.009	6567.85
522.376	6577.79
522.743	6626.61
523.11	6673.38
523.477	6722.87
523.843	6721.07
524.21	6798.35
524.577	6820.05
524.943	6846.71
525.31	6898.46
525.676	6949.53
526.043	6927.39
526.409	7004.9
526.776	7049.19
527.142	7059.36
527.508	7068.4
527.874	7187.49
528.241	7197.66
528.607	7256.65
528.973	7286.25
529.339	7300.94
529.705	7327.38
530.071	7432.23
530.437	7539.12
530.803	7523.53
531.169	7569.18
531.535	7456.41
531.901	7590.65
532.267	7555.17
532.632	7601.5
532.998	7681.94
533.364	7721.04
533.73	7744.99
534.095	7792.45
534.461	7826.8
534.826	7824.09
535.192	7850.08
535.557	7927.14
535.923	7928.72
536.288	7954.93
536.653	8045.55
537.019	7995.83
537.384	8023.86
537.749	8072.67
538.114	8110.86
538.479	8177.3
538.845	8156.96
539.21	8208.94
539.575	8256.39
539.94	8284.19
540.305	8348.14
540.67	8325.09
541.034	8382.04
541.399	8392.43
541.764	8431.53
542.129	8407.58
542.494	8486.9
542.858	8552.88
543.223	8588.36
543.587	8610.28
543.952	8621.81
544.316	8646.89
544.681	8623.84
545.045	8707.68
545.41	8729.37
545.774	8845.76
546.138	8827.45
546.503	8782.25
546.867	8844.63
547.231	8931.18
547.595	8904.06
547.959	9010.5
548.324	8949.26
548.688	8977.73
549.052	9076.48
549.416	9053.21
549.779	9034.9
550.143	9169.59
550.507	9188.8
550.871	9256.82
551.235	9242.58
551.599	9284.61
551.962	9402.35
552.326	9359.41
552.689	9364.16
553.053	9393.99
553.417	9424.95
553.78	9548.56
554.143	9433.31
554.507	9500.65
554.87	9575.91
555.234	9657.71
555.597	9589.01
555.96	9656.13
556.323	9629.46
556.686	9665.62
557.05	9721.67
557.413	9717.15
557.776	9784.71
558.139	9815.22
558.502	9922.34
558.865	9871.27
559.228	9954.65
559.59	9974.77
559.953	9981.09
560.316	10119.62
560.679	10096.8
561.041	10099.73
561.404	10128.43
561.767	10253.63
562.129	10236.45
562.492	10276.45
562.854	10331.14
563.217	10296.79
563.579	10380.41
563.941	10435.09
564.304	10509.22
564.666	10521.87
565.028	10449.33
565.39	10529.78
565.753	10628.08
566.115	10656.78
566.477	10691.58
566.839	10640.74
567.201	10724.35
567.563	10714.18
567.925	10831.69
568.287	10877.79
568.648	10875.08
569.01	10961.63
569.372	10991.01
569.734	11049.09
570.095	11145.13
570.457	11201.63
570.819	11080.95
571.18	11172.7
571.542	11292.25
571.903	11237.11
572.265	11375.41
572.626	11460.38
572.987	11464.67
573.349	11529.75
573.71	11527.27
574.071	11600.49
574.432	11675.96
574.794	11845.45
575.155	11861.5
575.516	11825.11
575.877	11925.68
576.238	11995.28
576.599	12099
576.96	12101.04
577.32	12218.1
577.681	12358.43
578.042	12493.57
578.403	12453.8
578.763	12631.65
579.124	12756.16
579.485	12782.6
579.845	12910.51
580.206	13029.37
580.566	13197.73
580.927	13331.29
581.287	13423.49
581.648	13501
582.008	13770.15
582.368	13833.87
582.728	14017.15
583.089	14188.67
583.449	14270.7
583.809	14491.03
584.169	14663
584.529	14794.98
584.889	15066.16
585.249	15219.83
585.609	15341.4
585.969	15591.57
586.329	15827.95
586.688	16086.47
587.048	16281.94
587.408	16393.35
587.768	16636.74
588.127	16999.44
588.487	17165.76
588.846	17464.29
589.206	17548.8
589.565	17989.92
589.925	18251.16
590.284	18453.19
590.643	18772.27
591.003	19099.95
591.362	19301.3
591.721	19555.31
592.08	19838.24
592.44	20213.14
592.799	20413.14
593.158	20799.79
593.517	20969.73
593.876	21278.65
594.235	21535.37
594.593	21813.78
594.952	22277.95
595.311	22365.85
595.67	22813.07
596.029	23195.89
596.387	23512.04
596.746	23734.4
597.104	23975.98
597.463	24213.71
597.822	24688.96
598.18	24875.17
598.538	25017.99
598.897	25517.86
599.255	25513.57
599.613	26170.27
599.972	26386.31
600.33	26655.23
600.688	26896.81
601.046	27254.54
601.404	27704.02
601.762	27811.59
602.12	28101.52
602.478	28518.23
602.836	28776.53
603.194	28769.53
603.552	29220.81
603.91	29311.21
604.268	29805.66
604.625	29964.07
604.983	30325.87
605.341	30474.34
605.698	30860.54
606.056	31089.01
606.413	31207.43
606.771	31609
607.128	31818.94
607.485	31996.11
607.843	32125.37
608.2	32586.6
608.557	32855.29
608.914	32889.87
609.272	33314.49
609.629	33436.3
609.986	33851.65
610.343	33879.9
610.7	34287.35
611.057	34441.92
611.414	34625.19
611.771	34804.85
612.127	35069.47
612.484	35187.44
612.841	35466.07
613.198	35478.95
613.554	35626.75
613.911	35953.07
614.267	36201.42
614.624	36248.43
614.98	36547.17
615.337	36834.62
615.693	36863.78
616.05	37176.08
616.406	37387.38
616.762	37283.65
617.118	37528.62
617.475	37702.62
617.831	37884.54
618.187	38068.94
618.543	38221.25
618.899	38516.84
619.255	38530.4
619.611	38455.37
619.967	38795.03
620.323	38896.04
620.678	38865.76
621.034	38931.29
621.39	39089.93
621.746	39028.24
622.101	39662.35
622.457	39407.89
622.812	39625.29
623.168	39818.5
623.523	39826.41
623.879	39981.43
624.234	39625.96
624.589	40158.83
624.945	40050.81
625.3	40353.4
625.655	40268.43
626.01	40404.93
626.365	40463.68
626.72	40389.33
627.075	40461.65
627.43	40516.79
627.785	40555.43
628.14	40812.37
628.495	40891.02
628.85	40810.34
629.205	40723.34
629.559	41101.86
629.914	40980.73
630.269	40927.85
630.623	41000.39
630.978	40980.73
631.332	41224.11
631.687	41290.1
632.041	41077.68
632.396	41209.42
632.75	41120.84
633.104	41261.4
633.459	41010.11
633.813	41203.1
634.167	41046.49
634.521	41189.09
634.875	41298.01
635.229	41102.31
635.583	41086.49
635.937	41168.07
636.291	41102.08
636.645	41293.72
636.999	41208.3
637.352	41297.56
637.706	41027.51
638.06	41294.85
638.413	41197.22
638.767	41153.16
639.121	41295.3
639.474	41006.27
639.828	41082.87
640.181	41189.09
640.534	41204
640.888	41056.21
641.241	40864.8
641.594	41011.24
641.947	41029.09
642.301	41060.5
642.654	41113.38
643.007	41026.83
643.36	41097.11
643.713	40959.04
644.066	41164.68
644.419	40944.12
644.771	40721.08
645.124	40441.99
645.477	40331.03
645.83	40073.64
646.182	39883.13
646.535	39948.67
646.888	39928.33
647.24	39771.27
647.593	40061.43
647.945	39888.56
648.298	39780.76
648.65	39763.36
649.002	39714.32
649.355	39792.06
649.707	39737.6
650.059	40041.77
650.411	40471.59
650.763	40500.97
651.115	40757.69
651.467	40751.13
651.819	40834.97
652.171	40545.04
652.523	40601.53
652.875	40590.46
653.227	40392.72
653.578	40760.62
653.93	40613.73
654.282	40441.31
654.633	40265.72
654.985	40381.88
655.337	40431.14
655.688	40426.39
656.039	40576
656.391	40365.61
656.742	40374.64
657.094	40430.91
657.445	40528.99
657.796	40305.49
658.147	40259.85
658.498	40249.68
658.849	40424.59
659.2	40324.02
659.551	40188.66
659.902	40452.38
660.253	40307.08
660.604	40378.49
660.955	40195.89
661.306	40474.75
661.656	40234.08
662.007	40350.24
662.358	40458.03
662.708	40284.03
663.059	40376
663.409	40079.96
663.76	40412.61
664.11	40426.85
664.461	40399.95
664.811	40404.7
665.161	40310.92
665.511	40263.24
665.862	40177.14
666.212	40265.04
666.562	40248.09
666.912	40246.06
667.262	40138.04
667.612	40183.46
667.962	40444.25
668.312	40214.87
668.662	40259.85
669.011	40186.85
669.361	40180.75
669.711	40093.97
670.06	40212.16
670.41	39933.53
670.76	39947.76
671.109	40229.56
671.459	40032.51
671.808	39967.88
672.157	39983.47
672.507	39748.67
672.856	39870.7
673.205	39925.84
673.554	39939.85
673.904	39968.33
674.253	40164.48
674.602	39916.35
674.951	39332.19
675.3	39249.48
675.649	39943.92
675.998	39730.37
676.346	39819.4
676.695	39877.48
677.044	39700.31
677.393	39809.01
677.741	39804.49
678.09	39647.66
678.438	39573.76
678.787	39623.93
679.135	39615.12
679.484	39440.88
679.832	39666.41
680.181	39330.38
680.529	39472.75
680.877	39354.56
681.225	39311.4
681.573	39579.41
681.922	39321.79
682.27	39192.98
682.618	39096.94
682.966	39052.19
683.314	39117.05
683.661	39202.92
684.009	38872.09
684.357	38875.7
684.705	38763.39
685.053	38988.24
685.4	38821.24
685.748	38512.55
686.095	38544.18
686.443	38377.86
686.79	38311.2
687.138	38406.56
687.485	38480.23
687.832	38255.15
688.18	38286.56
688.527	38224.42
688.874	38188.26
689.221	38003.41
689.568	37823.3
689.915	37812.68
690.262	37824.2
690.609	37765
690.956	37670.31
691.303	37537.66
691.65	37443.2
691.997	37486.36
692.344	37153.49
692.69	37094.05
693.037	37183.77
693.383	36933.61
693.73	37066.26
694.077	36821.97
694.423	36875.53
694.769	36758.47
695.116	36701.97
695.462	36655.19
695.808	36452.04
696.155	36581.07
696.501	36318.93
696.847	36297.92
697.193	35993.74
697.539	36060.86
697.885	35791.26
698.231	35783.8
698.577	35933.41
698.923	35771.15
699.269	35573.19
699.614	35491.38
699.96	35373.87
700.306	35437.37
700.651	35235.34
700.997	35077.16
701.342	35117.83
701.688	35078.51
702.033	34863.38
702.379	34789.48
702.724	34814.56
703.069	34881.46
703.415	34546.78
703.76	34645.08
704.105	34502.93
704.45	34456.83
704.795	34241.02
705.14	34036.05
705.485	34122.38
705.83	33954.93
706.175	33985.43
706.52	33969.39
706.865	33793.35
707.209	33791.54
707.554	33659.57
707.899	33659.79
708.243	33545.9
708.588	33458.67
708.932	33309.75
709.277	33345
709.621	33295.28
709.966	33084.44
710.31	33040.37
710.654	32781.85
710.998	32926.93
711.342	32876.31
711.687	32871.57
712.031	32633.15
712.375	32454.17
712.719	32619.14
713.063	32601.52
713.407	32539.14
713.75	32426.61
714.094	32373.95
714.438	32274.52
714.782	32275.2
715.125	32132.15
715.469	32190.45
715.812	31994.3
716.156	31725.83
716.499	31893.06
716.843	31958.59
717.186	31700.52
717.53	31851.03
717.873	31764.02
718.216	31819.16
718.559	31608.32
718.902	31392.06
719.246	31608.32
719.589	31368.1
719.932	31280.42
720.275	31208.33
720.617	31212.63
720.96	31169.24
721.303	31209.01
721.646	31075.45
721.989	30949.81
722.331	31000.2
722.674	30894.44
723.016	30976.7
723.359	30874.33
723.701	30978.51
724.044	30672.53
724.386	30501.68
724.729	30712.3
725.071	30610.61
725.413	30570.16
725.755	30599.99
726.097	30564.51
726.439	30294.23
726.782	30390.73
727.124	30444.96
727.465	30286.55
727.807	30197.96
728.149	30239.54
728.491	30110.73
728.833	30242.93
729.175	30089.72
729.516	29988.03
729.858	29969.27
730.199	30049.04
730.541	29958.2
730.882	29885.88
731.224	29920.91
731.565	29785.32
731.906	29701.48
732.248	29750.52
732.589	29652.44
732.93	29602.05
733.271	29606.11
733.612	29602.72
733.953	29589.39
734.294	29442.28
734.635	29524.31
734.976	29491.99
735.317	29282.05
735.658	29353.92
735.999	29319.34
736.339	29271.21
736.68	29180.36
737.021	29144.21
737.361	29056.07
737.702	29146.69
738.042	29104.66
738.383	29050.2
738.723	28979.24
739.063	28869.41
739.404	28908.96
739.744	28983.98
740.084	28769.3
740.424	28819.47
740.764	28772.69
741.104	28842.07
741.444	28649.98
741.784	28631.22
742.124	28587.84
742.464	28539.48
742.804	28492.92
743.143	28522.07
743.483	28484.56
743.823	28325.02
744.162	28352.14
744.502	28274.17
744.841	28377.45
745.181	28409.31
745.52	28132.71
745.86	28288.86
746.199	28169.77
746.538	28258.35
746.877	28145.36
747.216	28165.7
747.556	28003.9
747.895	28069.66
748.234	28052.26
748.573	27959.38
748.911	27854.97
749.25	27926.84
749.589	27710.12
749.928	27882.32
750.267	27744.24
750.605	27771.59
750.944	27709.21
751.283	27479.16
751.621	27716.67
751.96	27414.99
752.298	27478.49
752.636	27662.21
752.975	27409.34
753.313	27343.35
753.651	27453.63
753.989	27311.71
754.327	27199.4
754.666	27056.8
755.004	27135.44
755.342	27143.35
755.679	27216.35
756.017	27028.1
756.355	27120.53
756.693	26957.14
757.031	26978.39
757.368	26838.73
757.706	26893.64
758.044	26683.03
758.381	26667.66
758.719	26615.01
759.056	26612.75
759.394	26503.6
759.731	26232.64
760.068	26413.43
760.405	26312.19
760.743	26233.32
761.08	26222.7
761.417	25991.07
761.754	25989.49
762.091	25881.69
762.428	26001.92
762.765	25838.76
763.102	25793.11
763.438	25716.5
763.775	25538.88
764.112	25639.21
764.449	25470.86
764.785	25484.19
765.122	25295.27
765.458	25215.72
765.795	25237.87
766.131	25121.71
766.467	25123.97
766.804	24970.08
767.14	24847.14
767.476	24829.06
767.812	24826.58
768.148	24741.16
768.485	24613.93
768.821	24502.52
769.157	24474.05
769.492	24366.03
769.828	24458.45
770.164	24100.27
770.5	24052.14
770.836	24102.53
771.171	23926.72
771.507	23878.36
771.842	23733.73
772.178	23730.34
772.513	23676.1
772.849	23581.41
773.184	23430.23
773.519	23471.81
773.855	23383.23
774.19	23194.98
774.525	23190.92
774.86	23145.72
775.195	23104.59
775.53	23073.86
775.865	22834.09
776.2	22829.12
776.535	22656.92
776.87	22577.6
777.205	22563.14
777.539	22383.48
777.874	22432.52
778.209	22198.85
778.543	22181.45
778.878	22090.38
779.212	22138.06
779.547	21988.24
779.881	21965.64
780.215	21879.54
780.55	21949.14
780.884	21718.64
781.218	21713.44
781.552	21571.07
781.886	21513.22
782.22	21386.22
782.554	21296.95
782.888	21162.72
783.222	21006.57
783.556	21013.35
783.889	20879.11
784.223	20785.56
784.557	20744.88
784.89	20788.94
785.224	20571.55
785.557	20513.7
785.891	20394.38
786.224	20460.37
786.558	20380.14
786.891	20124.33
787.224	20169.3
787.557	20052.24
787.891	20058.79
788.224	20127.49
788.557	20037.55
788.89	19931.34
789.223	19933.6
789.556	19769.31
789.888	19736.54
790.221	19562.54
790.554	19562.31
790.887	19534.06
791.219	19447.74
791.552	19384.69
791.884	19304.69
792.217	19291.36
792.549	19121.87
792.882	19077.58
793.214	18993.74
793.546	18962.55
793.879	18849.33
794.211	18753.52
794.543	18831.48
794.875	18734.08
795.207	18721.65
795.539	18612.96
795.871	18585.84
796.203	18481.21
796.535	18374.09
796.867	18369.35
797.198	18319.41
797.53	18232.18
797.862	18181.56
798.193	18145.85
798.525	18033.76
798.856	18173.42
799.188	17855.91
799.519	17817.72
799.85	17737.95
800.182	17784.96
800.513	17716.71
800.844	17643.04
801.175	17672.64
801.506	17649.82
801.837	17513.1
802.168	17455.25
802.499	17428.36
802.83	17267
803.161	17315.59
803.491	17307.91
803.822	17315.82
804.153	17262.26
804.483	17030.4
804.814	17038.08
805.145	17011.19
805.475	17037.63
805.805	16900.69
806.136	16875.83
806.466	16887.8
806.796	16799.9
807.126	16719.67
807.457	16705.89
807.787	16683.97
808.117	16555.38
808.447	16522.62
808.777	16514.71
809.107	16489.17
809.436	16313.13
809.766	16262.51
810.096	16257.31
810.426	16274.26
810.755	16231.1
811.085	16151.78
811.414	16135.51
811.744	16021.16
812.073	15953.59
812.403	16035.4
812.732	15807.83
813.061	15949.3
813.39	15865.91
813.719	15798.12
814.049	15832.69
814.378	15650.32
814.707	15718.12
815.036	15676.08
815.365	15580.27
815.693	15463.66
816.022	15421.63
816.351	15472.7
816.68	15367.84
817.008	15485.58
817.337	15279.49
817.665	15282.2
817.994	15249.43
818.322	15234.51
818.651	15166.04
818.979	15080.85
819.307	15126.95
819.636	15129.66
819.964	14996.1
820.292	15119.72
820.62	15065.71
820.948	15055.99
821.276	15016.44
821.604	14921.53
821.932	14941.87
822.259	15015.76
822.587	15029.1
822.915	14943.22
823.243	15011.02
823.57	14880.4
823.898	14961.75
824.225	14878.82
824.553	14865.71
824.88	14996.78
825.207	14975.99
825.535	14947.52
825.862	14952.71
826.189	14822.55
826.516	14930.12
826.843	14925.82
827.17	14971.02
827.497	14923.79
827.824	14938.93
828.151	15049.66
828.478	14888.31
828.805	14988.87
829.131	14867.52
829.458	14850.34
829.785	14717.69
830.111	14854.19
830.438	14854.41
830.764	14873.17
831.09	14785.03
831.417	14721.99
831.743	14885.6
832.069	14801.53
832.395	14712.72
832.722	14752.04
833.048	14726.05
833.374	14740.97
833.7	14707.07
834.026	14793.85
834.351	14756.79
834.677	14660.29
835.003	14702.78
835.329	14648.99
835.654	14700.74
835.98	14601.31
836.306	14639.95
836.631	14633.17
836.956	14587.98
837.282	14620.75
837.607	14521.54
837.932	14430.69
838.258	14488.09
838.583	14478.6
838.908	14349.11
839.233	14388.44
839.558	14332.84
839.883	14364.03
840.208	14250.36
840.533	14273.18
840.858	14285.39
841.182	14274.77
841.507	14256.69
841.832	14116.35
842.156	14142.11
842.481	14210.81
842.805	14113.19
843.13	14100.53
843.454	14025.73
843.778	13987.54
844.103	13987.99
844.427	13930.59
844.751	13919.97
845.075	13928.56
845.399	13854.21
845.723	13743.25
846.047	13758.4
846.371	13668.45
846.695	13636.36
847.019	13506.88
847.343	13544.62
847.666	13336.49
847.99	13359.54
848.313	13312.53
848.637	13260.78
848.96	13268.69
849.284	13227.79
849.607	13079.09
849.931	13047.23
850.254	13028.7
850.577	12888.81
850.9	12912.54
851.223	12835.26
851.546	12753.22
851.869	12698.54
852.192	12776.27
852.515	12618.76
852.838	12606.11
853.161	12621.7
853.483	12497.64
853.806	12540.35
854.129	12491.08
854.451	12386.45
854.774	12371.31
855.096	12340.81
855.419	12350.97
855.741	12189.17
856.063	12211.54
856.385	12237.98
856.708	12145.56
857.03	12046.12
857.352	12174.71
857.674	12077.76
857.996	11918.67
858.318	11882.51
858.64	11921.83
858.961	11855.62
859.283	11827.6
859.605	11723.65
859.926	11740.82
860.248	11714.83
860.57	11707.15
860.891	11715.06
861.212	11680.48
861.534	11637.55
861.855	11574.27
862.176	11579.47
862.498	11562.29
862.819	11578.79
863.14	11486.59
863.461	11498.34
863.782	11415.41
864.103	11454.95
864.424	11404.78
864.745	11392.58
865.065	11349.65
865.386	11232.81
865.707	11264.68
866.027	11269.42
866.348	11310.1
866.668	11277.1
866.989	11222.64
867.309	11143.32
867.63	11182.64
867.95	11160.27
868.27	11139.48
868.59	11141.74
868.91	11118.01
869.23	11044.34
869.55	10989.65
869.87	11095.19
870.19	11078.69
870.51	11028.07
870.83	11027.62
871.15	10927.51
871.469	10990.33
871.789	11045.25
872.109	10929.32
872.428	10848.19
872.748	10932.48
873.067	10919.6
873.386	10902.65
873.706	10841.41
874.025	10871.24
874.344	10726.38
874.663	10769.32
874.982	10833.5
875.301	10786.27
875.62	10702.66
875.939	10706.72
876.258	10677.35
876.577	10682.77
876.896	10609.55
877.214	10659.95
877.533	10652.71
877.852	10599.16
878.17	10683.22
878.489	10627.18
878.807	10576.78
879.125	10519.38
879.444	10523.68
879.762	10552.6
880.08	10536.33
880.398	10453.17
880.716	10483.45
881.034	10451.14
881.352	10424.47
881.67	10421.99
881.988	10460.4
882.306	10334.76
882.624	10359.16
882.941	10327.07
883.259	10229.67
883.577	10300.18
883.894	10146.96
884.212	10208.21
884.529	10200.52
884.846	10171.37
885.164	10146.29
885.481	10068.1
885.798	10108.77
886.115	10079.85
886.432	10023.13
886.75	9940.19
887.067	9996.69
887.383	9900.64
887.7	9975.67
888.017	9920.3
888.334	9992.17
888.651	9875.33
888.967	9852.06
889.284	9819.52
889.6	9774.09
889.917	9790.36
890.233	9732.29
890.55	9664.94
890.866	9683.02
891.182	9706.98
891.498	9600.76
891.815	9601.89
892.131	9532.74
892.447	9615.91
892.763	9494.1
893.079	9469.02
893.395	9442.12
893.71	9446.87
894.026	9409.81
894.342	9384.5
894.657	9285.29
894.973	9246.2
895.289	9263.6
895.604	9247.55
895.92	9194.67
896.235	9182.47
896.55	9137.27
896.865	9119.42
897.181	9079.42
897.496	9137.05
897.811	9020.44
898.126	9061.8
898.441	9036.03
898.756	8979.76
899.071	8930.95
899.386	8980.67
899.7	8790.39
900.015	8800.11
900.33	8743.39
900.644	8676.95
900.959	8789.26
901.273	8725.31
901.588	8647.57
901.902	8573.67
902.216	8631.75
902.531	8557.18
902.845	8495.03
903.159	8461.36
903.473	8489.16
903.787	8422.49
904.101	8380.68
904.415	8388.59
904.729	8359.44
905.042	8239.67
905.356	8303.17
905.67	8304.75
905.984	8242.16
906.297	8194.7
906.611	8195.38
906.924	8140.92
907.237	8107.7
907.551	8112.22
907.864	8004.65
908.177	7993.35
908.491	7948.6
908.804	8012.78
909.117	7913.35
909.43	7928.27
909.743	7905.22
910.056	7811.21
910.368	7733.69
910.681	7727.37
910.994	7754.94
911.307	7741.38
911.619	7641.04
911.932	7620.03
912.244	7608.27
912.557	7547.71
912.869	7521.72
913.181	7558.56
913.494	7507.49
913.806	7483.98
914.118	7400.14
914.43	7380.03
914.742	7397.88
915.054	7319.47
915.366	7253.03
915.678	7261.17
915.99	7263.42
916.302	7211
916.613	7130.55
916.925	7105.69
917.236	7145.24
917.548	7077.89
917.859	7081.51
918.171	7045.13
918.482	6959.7
918.794	6957.22
919.105	6987.5
919.416	6870.89
919.727	6926.48
920.038	6858.01
920.349	6804.23
920.66	6829.31
920.971	6726.26
921.282	6744.57
921.593	6695.08
921.903	6653.5
922.214	6662.76
922.525	6615.98
922.835	6629.32
923.146	6497.8
923.456	6507.29
923.767	6517.68
924.077	6562.65
924.387	6444.24
924.697	6493.05
925.008	6451.47
925.318	6376.89
925.628	6352.71
925.938	6333.05
926.248	6225.49
926.558	6236.56
926.867	6229.1
927.177	6220.51
927.487	6191.36
927.796	6134.64
928.106	6098.26
928.416	6110.01
928.725	6105.04
929.034	6051.25
929.344	6048.09
929.653	5997.24
929.962	5964.48
930.271	5894.2
930.581	5957.7
930.89	5872.05
931.199	5839.51
931.508	5860.3
931.817	5813.97
932.125	5808.1
932.434	5738.72
932.743	5787.31
933.051	5744.37
933.36	5717.7
933.669	5641.32
933.977	5628.67
934.286	5672.96
934.594	5620.98
934.902	5549.8
935.21	5538.27
935.519	5609.91
935.827	5564.49
936.135	5492.17
936.443	5470.25
936.751	5434.32
937.059	5437.71
937.367	5385.28
937.674	5382.12
937.982	5379.63
938.29	5295.79
938.597	5365.85
938.905	5230.71
939.213	5294.21
939.52	5233.2
939.827	5214.21
940.135	5205.85
940.442	5173.99
940.749	5168.11
941.056	5144.16
941.363	5083.14
941.67	5065.29
941.977	5024.39
942.284	5008.34
942.591	4986.2
942.898	5004.05
943.205	4947.55
943.511	4942.58
943.818	4964.05
944.125	4892.87
944.431	4893.09
944.738	4882.24
945.044	4846.31
945.35	4827.78
945.657	4742.14
945.963	4776.94
946.269	4787.78
946.575	4804.05
946.881	4753.89
947.187	4680.89
947.493	4685.41
947.799	4656.71
948.105	4692.64
948.41	4589.37
948.716	4532.2
949.022	4581.24
949.327	4546.21
949.633	4482.48
949.938	4515.7
950.244	4519.32
950.549	4473.67
950.854	4437.74
951.16	4446.1
951.465	4365.42
951.77	4414.69
952.075	4367.46
952.38	4308.47
952.685	4353.9
952.99	4343.5
953.294	4276.84
953.599	4257.4
953.904	4254.01
954.209	4221.02
954.513	4220.79
954.818	4213.56
955.122	4194.35
955.426	4167.69
955.731	4159.1
956.035	4145.09
956.339	4112.32
956.643	4169.72
956.948	4086.33
957.252	4066.9
957.556	4062.83
957.86	4035.49
958.163	4007.69
958.467	4022.83
958.771	4009.73
959.075	3951.87
959.378	3896.96
959.682	3926.11
959.985	3899.45
960.289	3901.48
960.592	3875.49
960.896	3819.22
961.199	3862.84
961.502	3833.68
961.805	3819.45
962.108	3753.69
962.411	3789.39
962.714	3743.97
963.017	3746.91
963.32	3745.55
963.623	3713.69
963.926	3732.44
964.228	3648.38
964.531	3679.11
964.833	3651.32
965.136	3614.93
965.438	3583.07
965.741	3608.61
966.043	3606.8
966.345	3568.15
966.648	3588.04
966.95	3548.27
967.252	3568.61
967.554	3460.36
967.856	3521.83
968.158	3450.42
968.46	3499.23
968.761	3483.41
969.063	3445.22
969.365	3420.36
969.666	3350.76
969.968	3406.8
970.269	3376.07
970.571	3387.37
970.872	3370.65
971.174	3310.31
971.475	3301.72
971.776	3286.58
972.077	3264.66
972.378	3268.73
972.679	3277.09
972.98	3219.24
973.281	3213.59
973.582	3217.66
973.883	3238.67
974.183	3186.47
974.484	3166.13
974.785	3148.96
975.085	3168.62
975.386	3155.96
975.686	3117.32
975.986	3096.53
976.287	3088.39
976.587	3087.26
976.887	3060.6
977.187	3081.84
977.487	3083.2
977.787	3022.41
978.087	2996.19
978.387	3027.6
978.687	3005.46
978.987	3009.98
979.286	2933.14
979.586	2955.97
979.885	2928.17
980.185	2907.16
980.484	2903.31
980.784	2904.67
981.083	2882.07
981.382	2848.85
981.682	2855.63
981.981	2834.39
982.28	2867.16
982.579	2838.46
982.878	2828.51
983.177	2812.24
983.475	2774.73
983.774	2725.47
984.073	2785.8
984.372	2776.54
984.67	2723.66
984.969	2714.84
985.267	2699.25
985.566	2688.86
985.864	2702.64
986.162	2657.22
986.461	2641.17
986.759	2641.85
987.057	2620.16
987.355	2628.07
987.653	2605.69
987.951	2612.47
988.249	2601.63
988.547	2603.43
988.844	2597.11
989.142	2564.79
989.44	2560.27
989.737	2533.83
990.035	2484.79
990.332	2514.62
990.63	2510.78
990.927	2501.97
991.224	2463.55
991.521	2433.72
991.819	2445.47
992.116	2442.76
992.413	2410.22
992.71	2398.47
993.006	2387.85
993.303	2404.12
993.6	2369.54
993.897	2407.51
994.193	2359.6
994.49	2317.11
994.787	2348.07
995.083	2317.57
995.379	2318.02
995.676	2294.29
995.972	2306.49
996.268	2277.79
996.565	2265.14
996.861	2272.37
997.157	2256.1
997.453	2204.12
997.749	2223.11
998.044	2189.43
998.34	2198.25
998.636	2211.81
998.932	2175.2
999.227	2166.16
999.523	2156.44
999.818	2160.51
1000.114	2171.13
1000.409	2143.33
1000.704	2136.1
1001	2091.58
1001.295	2107.63
1001.59	2083.45
1001.885	2049.1
1002.18	2060.85
1002.475	2033.96
1002.77	2044.13
1003.065	2014.98
1003.359	2027.18
1003.654	2025.6
1003.949	1993.96
1004.243	2002.55
1004.538	1973.85
1004.832	1960.97
1005.127	1930.68
1005.421	1933.17
1005.715	1887.3
1006.009	1927.75
1006.304	1914.19
1006.598	1913.51
1006.892	1882.32
1007.186	1899.5
1007.48	1871.02
1007.773	1879.61
1008.067	1850.46
1008.361	1856.11
1008.655	1835.09
1008.948	1808.88
1009.242	1805.94
1009.535	1813.85
1009.829	1762.1
1010.122	1773.4
1010.415	1746.51
1010.708	1741.08
1011.001	1720.75
1011.295	1721.88
1011.588	1737.69
1011.881	1692.05
1012.173	1715.1
1012.466	1724.81
1012.759	1684.36
1013.052	1709.67
1013.344	1658.83
1013.637	1661.09
1013.93	1646.85
1014.222	1621.54
1014.514	1622.22
1014.807	1640.97
1015.099	1613.18
1015.391	1567.76
1015.683	1607.08
1015.976	1584.48
1016.268	1565.72
1016.56	1577.7
1016.851	1537.93
1017.143	1546.74
1017.435	1522.78
1017.727	1529.11
1018.018	1503.35
1018.31	1511.49
1018.602	1494.09
1018.893	1490.7
1019.185	1482.79
1019.476	1469.68
1019.767	1467.42
1020.058	1434.65
1020.35	1432.17
1020.641	1440.53
1020.932	1427.19
1021.223	1393.75
1021.514	1412.05
1021.804	1408.89
1022.095	1398.72
1022.386	1367.76
1022.677	1346.07
1022.967	1366.18
1023.258	1353.07
1023.548	1312.85
1023.839	1334.77
1024.129	1333.86
1024.419	1306.07
1024.709	1298.38
1025	1313.52
1025.29	1301.55
1025.58	1279.18
1025.87	1249.57
1026.16	1241.21
1026.449	1253.87
1026.739	1235.11
1027.029	1213.19
1027.319	1231.72
1027.608	1254.09
1027.898	1213.87
1028.187	1202.79
1028.477	1195.34
1028.766	1197.14
1029.055	1156.47
1029.344	1207.09
1029.634	1164.83
1029.923	1171.16
1030.212	1164.38
1030.501	1137.71
1030.79	1159.63
1031.078	1115.11
1031.367	1136.58
1031.656	1121.21
1031.945	1111.95
1032.233	1087.99
1032.522	1107.43
1032.81	1084.15
1033.099	1073.31
1033.387	1061.55
1033.675	1071.05
1033.963	1050.25
1034.251	1047.77
1034.54	1079.63
1034.828	1054.32
1035.116	1042.12
1035.403	1035.57
1035.691	1019.52
1035.979	1021.56
1036.267	1019.3
1036.554	1008.45
1036.842	1001.89
1037.129	995.79
1037.417	989.24
1037.704	952.86
1037.992	966.19
1038.279	938.17
1038.566	960.09
1038.853	960.09
1039.14	960.09
