Data from hue_130_FLMS001491_00081.txt Node
Date: Tue Feb 07 16:58:12 GMT 2017
User: dcchb
Spectrometer: FLMS00149
Trigger mode: 0
Integration Time (sec): 2.000000E-2
Scans to average: 10
Electric dark correction enabled: true
Nonlinearity correction enabled: false
Boxcar width: 0
XAxis mode: Wavelengths
Number of Pixels in Spectrum: 2048
>>>>>Begin Spectral Data<<<<<
341.393	-12.06
341.776	-12.06
342.16	-12.06
342.543	-43.93
342.927	-64.26
343.31	-63.59
343.693	-73.3
344.077	-66.98
344.46	-54.77
344.843	-50.93
345.226	-36.92
345.61	-37.37
345.993	-44.15
346.376	-1.89
346.759	7.82
347.142	38.56
347.525	22.06
347.908	78.78
348.291	82.85
348.674	93.25
349.057	106.58
349.44	110.42
349.823	141.83
350.206	173.7
350.588	187.25
350.971	208.72
351.354	221.6
351.737	251.21
352.119	242.39
352.502	259.12
352.884	277.87
353.267	289.17
353.65	294.14
354.032	306.35
354.414	295.27
354.797	307.7
355.179	340.92
355.562	317.42
355.944	303.86
356.326	333.69
356.709	340.92
357.091	343.86
357.473	360.13
357.855	333.69
358.238	337.53
358.62	349.28
359.002	345.89
359.384	350.41
359.766	352.22
360.148	349.28
360.53	325.33
360.912	324.65
361.294	338.21
361.676	326.23
362.057	331.66
362.439	337.76
362.821	315.84
363.203	331.88
363.584	325.78
363.966	346.8
364.348	323.07
364.729	336.4
365.111	302.51
365.493	332.56
365.874	344.76
366.256	320.13
366.637	307.48
367.019	308.83
367.4	326.01
367.781	310.87
368.163	313.58
368.544	305.9
368.925	315.84
369.306	323.75
369.688	324.88
370.069	345.44
370.45	346.57
370.831	321.94
371.212	315.61
371.593	310.87
371.974	301.83
372.355	314.03
372.736	313.58
373.117	330.3
373.498	329.62
373.879	316.52
374.26	308.61
374.641	321.04
375.021	319
375.402	323.97
375.783	322.84
376.163	326.69
376.544	332.11
376.925	331.21
377.305	326.01
377.686	326.23
378.066	332.34
378.447	344.31
378.827	344.31
379.208	313.58
379.588	330.08
379.968	314.71
380.349	322.62
380.729	325.78
381.109	344.09
381.489	344.09
381.87	336.63
382.25	329.85
382.63	357.19
383.01	323.75
383.39	342.51
383.77	356.74
384.15	344.99
384.53	323.75
384.91	352.67
385.29	352.45
385.67	372.79
386.049	357.19
386.429	354.26
386.809	353.8
387.189	359.91
387.568	349.74
387.948	352.9
388.328	365.1
388.707	363.07
389.087	390.41
389.466	372.56
389.846	352
390.225	379.79
390.605	377.31
390.984	381.15
391.363	369.62
391.743	364.43
392.122	366.23
392.501	349.51
392.881	376.4
393.26	384.31
393.639	382.28
394.018	375.95
394.397	409.17
394.776	374.82
395.155	401.49
395.534	391.09
395.913	388.38
396.292	385.22
396.671	399
397.05	394.03
397.429	397.42
397.808	396.29
398.186	390.87
398.565	399
398.944	398.55
399.323	402.16
399.701	400.81
400.08	421.15
400.458	414.14
400.837	408.49
401.215	397.19
401.594	404.65
401.972	398.1
402.351	421.37
402.729	420.47
403.107	415.27
403.486	426.57
403.864	434.48
404.242	422.28
404.62	440.81
404.999	407.59
405.377	435.16
405.755	423.18
406.133	422.28
406.511	435.84
406.889	444.2
407.267	443.97
407.645	467.47
408.023	442.62
408.401	454.82
408.779	449.62
409.156	447.59
409.534	453.01
409.912	467.02
410.29	461.6
410.667	450.98
411.045	492.33
411.422	475.61
411.8	474.48
412.178	467.02
412.555	487.13
412.933	478.09
413.31	501.6
413.687	489.85
414.065	489.17
414.442	493.91
414.819	486.68
415.197	507.02
415.574	496.4
415.951	504.53
416.328	503.4
416.705	525.33
417.082	525.55
417.46	514.48
417.837	540.69
418.214	527.36
418.591	529.84
418.967	530.52
419.344	517.19
419.721	542.05
420.098	541.14
420.475	546.57
420.852	535.04
421.228	532.56
421.605	546.79
421.982	577.75
422.358	544.53
422.735	597.64
423.111	562.84
423.488	555.83
423.864	571.2
424.241	563.52
424.617	595.83
424.994	598.54
425.37	589.28
425.746	589.73
426.123	589.05
426.499	596.74
426.875	589.96
427.251	597.41
427.627	587.02
428.003	641.48
428.379	632.67
428.756	616.62
429.132	631.31
429.507	654.14
429.883	631.76
430.259	637.64
430.635	634.02
431.011	661.59
431.387	654.14
431.763	678.54
432.138	659.33
432.514	695.49
432.89	695.49
433.265	697.75
433.641	696.62
434.016	711.76
434.392	688.48
434.767	720.35
435.143	738.88
435.518	730.74
435.894	753.34
436.269	759.44
436.644	741.36
437.02	746.11
437.395	767.35
437.77	762.38
438.145	764.64
438.52	779.78
438.895	799.44
439.271	808.26
439.646	790.4
440.021	823.85
440.395	810.06
440.77	807.58
441.145	853.23
441.52	824.07
441.895	813
442.27	817.75
442.645	802.15
443.019	853.23
443.394	829.5
443.769	864.07
444.143	836.73
444.518	876.28
444.892	883.96
445.267	867.92
445.641	891.64
446.016	898.42
446.39	884.64
446.764	888.48
447.139	884.19
447.513	892.55
447.887	897.52
448.262	924.86
448.636	910.4
449.01	932.55
449.384	928.03
449.758	943.39
450.132	938.42
450.506	968.48
450.88	968.93
451.254	959.21
451.628	965.54
452.002	991.75
452.376	1013.22
452.75	963.51
453.123	1010.28
453.497	1016.61
453.871	1006.67
454.244	1054.58
454.618	1031.07
454.992	1077.63
455.365	1052.09
455.739	1081.02
456.112	1096.61
456.486	1109.72
456.859	1115.37
457.232	1135.7
457.606	1148.13
457.979	1139.09
458.352	1170.28
458.725	1185.42
459.099	1194.91
459.472	1224.97
459.845	1193.1
460.218	1236.04
460.591	1264.06
460.964	1254.57
461.337	1297.28
461.71	1317.39
462.083	1339.99
462.456	1322.59
462.829	1341.57
463.201	1391.29
463.574	1377.51
463.947	1401.91
464.32	1445.07
464.692	1436.71
465.065	1436.94
465.438	1486.88
465.81	1459.99
466.183	1507.22
466.555	1508.58
466.928	1551.06
467.3	1566.88
467.672	1600.1
468.045	1606.88
468.417	1610.04
468.789	1657.27
469.161	1710.38
469.534	1724.16
469.906	1740.66
470.278	1753.32
470.65	1789.02
471.022	1824.5
471.394	1845.29
471.766	1916.25
472.138	1977.26
472.51	1971.16
472.882	2010.48
473.253	2064.95
473.625	2084.38
473.997	2178.84
474.369	2220.42
474.74	2214.77
475.112	2310.81
475.484	2350.81
475.855	2393.07
476.227	2412.06
476.598	2506.06
476.97	2582.9
477.341	2623.35
477.713	2710.35
478.084	2738.37
478.455	2811.37
478.827	2885.26
479.198	2996.9
479.569	3033.51
479.94	3149.66
480.311	3197.8
480.682	3300.17
481.053	3401.41
481.424	3555.3
481.795	3566.38
482.166	3663.55
482.537	3738.35
482.908	3883.65
483.279	3987.83
483.65	4085.23
484.021	4191.9
484.391	4273.02
484.762	4377.65
485.133	4492.68
485.503	4560.7
485.874	4753.01
486.244	4845.21
486.615	5003.85
486.985	5061.7
487.356	5260.57
487.726	5313.67
488.097	5573.78
488.467	5604.74
488.837	5772.19
489.207	5945.3
489.578	6128.79
489.948	6122.01
490.318	6307.32
490.688	6433.87
491.058	6563.13
491.428	6691.26
491.798	6809.23
492.168	7079.28
492.538	7088.32
492.908	7243.34
493.278	7440.62
493.648	7544.12
494.017	7693.72
494.387	7848.52
494.757	7967.62
495.126	8131.9
495.496	8234.5
495.866	8339.13
496.235	8491.22
496.605	8624.77
496.974	8718.33
497.344	8851.89
497.713	9032.45
498.082	9078.32
498.452	9273.57
498.821	9263.17
499.19	9418.65
499.559	9574.35
499.928	9664.75
500.298	9779.77
500.667	9884.85
501.036	9906.1
501.405	10035.81
501.774	10134.79
502.143	10246.43
502.512	10330.49
502.88	10504.27
503.249	10500.43
503.618	10567.55
503.987	10710.82
504.356	10789.01
504.724	10896.8
505.093	10873.08
505.462	10984.26
505.83	11073.75
506.199	11165.72
506.567	11289.79
506.936	11331.14
507.304	11471.93
507.672	11489.78
508.041	11631.7
508.409	11736.78
508.777	11786.05
509.145	11810.9
509.514	11882.99
509.882	11966.38
510.25	12007.96
510.618	12040.5
510.986	12049.32
511.354	12263.77
511.722	12263.1
512.09	12449.08
512.458	12386.93
512.826	12489.53
513.193	12521.85
513.561	12567.04
513.929	12628.74
514.297	12659.02
514.664	12779.01
515.032	12785.57
515.4	12883.19
515.767	12898.56
516.135	12982.85
516.502	12879.8
516.869	13072.57
517.237	13073.02
517.604	12995.28
517.972	13231.43
518.339	13131.55
518.706	13192.79
519.073	13186.46
519.44	13196.63
519.808	13294.48
520.175	13264.2
520.542	13388.49
520.909	13476.85
521.276	13386.46
521.643	13506.9
522.009	13556.85
522.376	13620.8
522.743	13621.93
523.11	13749.38
523.477	13888.59
523.843	13861.25
524.21	13938.98
524.577	13967.91
524.943	13956.84
525.31	14043.39
525.676	14004.52
526.043	14127
526.409	14050.62
526.776	14145.31
527.142	14117.06
527.508	14143.5
527.874	14271.86
528.241	14222.14
528.607	14239.09
528.973	14292.42
529.339	14224.63
529.705	14273.21
530.071	14349.59
530.437	14370.61
530.803	14319.09
531.169	14330.61
531.535	14329.03
531.901	14323.61
532.267	14332.19
532.632	14316.37
532.998	14268.01
533.364	14368.58
533.73	14358.18
534.095	14373.77
534.461	14319.31
534.826	14349.82
535.192	14278.64
535.557	14420.78
535.923	14300.33
536.288	14238.18
536.653	14315.47
537.019	14273.89
537.384	14223.27
537.749	14163.61
538.114	14231.41
538.479	14120.9
538.845	14130.62
539.21	14074.8
539.575	14025.99
539.94	14161.12
540.305	14146.44
540.67	14046.33
541.034	13993.45
541.399	14015.82
541.764	14028.47
542.129	13967.68
542.494	13928.81
542.858	13925.42
543.223	13827.8
543.587	13851.75
543.952	13813.34
544.316	13807.46
544.681	13749.84
545.045	13738.31
545.41	13827.12
545.774	13727.24
546.138	13690.18
546.503	13669.61
546.867	13669.84
547.231	13658.31
547.595	13624.64
547.959	13580.12
548.324	13503.29
548.688	13447.02
549.052	13441.14
549.416	13433.01
549.779	13411.09
550.143	13409.51
550.507	13304.88
550.871	13309.62
551.235	13328.38
551.599	13360.92
551.962	13249.96
552.326	13241.37
552.689	13228.49
553.053	13139.68
553.417	13170.19
553.78	13182.17
554.143	13134.49
554.507	13169.74
554.87	13073.7
555.234	13204.09
555.597	13143.52
555.96	13030.53
556.323	13065.11
556.686	12989.18
557.05	13117.76
557.413	13042.28
557.776	13049.52
558.139	13112.56
558.502	13063.53
558.865	13015.17
559.228	13016.97
559.59	13027.6
559.953	13021.27
560.316	13134.03
560.679	13080.93
561.041	13071.44
561.404	13114.6
561.767	13108.27
562.129	13108.27
562.492	13113.02
562.854	13122.51
563.217	13096.29
563.579	13066.46
563.941	13199.57
564.304	13212.22
564.666	13212.68
565.028	13142.39
565.39	13210.42
565.753	13207.7
566.115	13176.52
566.477	13244.99
566.839	13257.19
567.201	13304.42
567.563	13282.73
567.925	13312.11
568.287	13268.94
568.648	13384.2
569.01	13367.47
569.372	13425.78
569.734	13271.88
570.095	13428.26
570.457	13493.35
570.819	13462.61
571.18	13400.69
571.542	13492.22
571.903	13423.74
572.265	13543.06
572.626	13447.7
572.987	13494.25
573.349	13489.96
573.71	13579.45
574.071	13503.29
574.432	13589.61
574.794	13597.75
575.155	13564.08
575.516	13516.4
575.877	13568.37
576.238	13539.45
576.599	13603.63
576.96	13651.99
577.32	13548.26
577.681	13605.89
578.042	13647.47
578.403	13578.32
578.763	13675.71
579.124	13654.47
579.485	13746.9
579.845	13603.4
580.206	13622.38
580.566	13637.97
580.927	13634.13
581.287	13704.41
581.648	13617.18
582.008	13727.69
582.368	13698.99
582.728	13633
583.089	13639.33
583.449	13607.47
583.809	13579.45
584.169	13652.89
584.529	13549.16
584.889	13655.83
585.249	13569.73
585.609	13578.99
585.969	13633.68
586.329	13620.8
586.688	13563.4
587.048	13572.44
587.408	13528.83
587.768	13502.16
588.127	13419.9
588.487	13466.45
588.846	13512.55
589.206	13473.91
589.565	13510.29
589.925	13478.66
590.284	13446.12
590.643	13498.09
591.003	13504.19
591.362	13544.87
591.721	13459.45
592.08	13443.86
592.44	13470.97
592.799	13466.91
593.158	13453.35
593.517	13451.99
593.876	13420.35
594.235	13405.89
594.593	13411.99
594.952	13400.24
595.311	13350.07
595.67	13310.75
596.029	13416.96
596.387	13429.84
596.746	13456.51
597.104	13387.59
597.463	13339
597.822	13368.83
598.18	13360.02
598.538	13345.33
598.897	13345.1
599.255	13266.46
599.613	13521.82
599.972	13301.26
600.33	13444.53
600.688	13315.27
601.046	13336.29
601.404	13410.86
601.762	13336.74
602.12	13493.57
602.478	13420.13
602.836	13353.69
603.194	13314.37
603.552	13330.41
603.91	13329.51
604.268	13416.96
604.625	13361.82
604.983	13340.81
605.341	13253.13
605.698	13315.5
606.056	13413.12
606.413	13302.39
606.771	13383.07
607.128	13382.84
607.485	13317.08
607.843	13334.03
608.2	13495.38
608.557	13458.32
608.914	13374.93
609.272	13426.91
609.629	13438.66
609.986	13561.37
610.343	13383.07
610.7	13557.52
611.057	13497.41
611.414	13448.15
611.771	13488.37
612.127	13588.94
612.484	13560.24
612.841	13572.21
613.198	13571.54
613.554	13494.25
613.911	13561.37
614.267	13603.85
614.624	13540.8
614.98	13569.95
615.337	13588.71
615.693	13643.4
616.05	13581.25
616.406	13676.39
616.762	13604.08
617.118	13651.08
617.475	13624.87
617.831	13724.75
618.187	13686.11
618.543	13759.33
618.899	13835.03
619.255	13783.28
619.611	13729.5
619.967	13755.49
620.323	13770.17
620.678	13774.92
621.034	13786.67
621.39	13723.62
621.746	13695.6
622.101	13838.65
622.457	13785.99
622.812	13762.04
623.168	13878.42
623.523	13833
623.879	13858.76
624.234	13727.69
624.589	13829.83
624.945	13757.29
625.3	13791.87
625.655	13789.16
626.01	13842.26
626.365	13752.32
626.72	13768.82
627.075	13758.42
627.43	13809.04
627.785	13644.08
628.14	13742.15
628.495	13735.6
628.85	13768.82
629.205	13704.19
629.559	13775.82
629.914	13663.06
630.269	13738.54
630.623	13571.76
630.978	13707.35
631.332	13616.05
631.687	13660.8
632.041	13637.97
632.396	13667.13
632.75	13645.66
633.104	13710.97
633.459	13566.79
633.813	13576.73
634.167	13506
634.521	13532.44
634.875	13595.49
635.229	13533.57
635.583	13425.32
635.937	13540.58
636.291	13462.16
636.645	13530.63
636.999	13418.55
637.352	13374.25
637.706	13327.7
638.06	13409.96
638.413	13375.83
638.767	13304.65
639.121	13392.33
639.474	13254.93
639.828	13243.86
640.181	13261.26
640.534	13261.04
640.888	13217.19
641.241	13217.87
641.594	13224.88
641.947	13209.06
642.301	13218.32
642.654	13213.58
643.007	13202.05
643.36	13167.25
643.713	13223.97
644.066	13177.2
644.419	13125.22
644.771	13054.71
645.124	12982.62
645.477	12912.8
645.83	12895.17
646.182	12811.78
646.535	12828.73
646.888	12801.61
647.24	12669.86
647.593	12817.21
647.945	12755.06
648.298	12703.76
648.65	12704.44
649.002	12642.52
649.355	12685.01
649.707	12675.97
650.059	12834.61
650.411	12926.36
650.763	12991.66
651.115	13089.97
651.467	12960.7
651.819	13014.04
652.171	13024.88
652.523	13002.06
652.875	13025.56
653.227	12872.12
653.578	13019.01
653.93	12959.35
654.282	12970.65
654.633	12980.14
654.985	12951.21
655.337	12932
655.688	13010.87
656.039	13024.43
656.391	12920.25
656.742	12993.7
657.094	12968.61
657.445	12967.94
657.796	13003.19
658.147	12896.07
658.498	13051.32
658.849	13092.23
659.2	13038.44
659.551	12979.46
659.902	12971.1
660.253	12951.44
660.604	13002.06
660.955	12981.04
661.306	12981.72
661.656	13050.42
662.007	13054.26
662.358	12994.6
662.708	12994.15
663.059	13067.59
663.409	12901.95
663.76	13098.55
664.11	13012.23
664.461	13025.34
664.811	13046.8
665.161	12990.76
665.511	12984.21
665.862	13019.69
666.212	13038.67
666.562	13091.32
666.912	13057.88
667.262	13010.42
667.612	13086.8
667.962	13040.93
668.312	12996.41
668.662	13027.14
669.011	13020.82
669.361	12967.48
669.711	12944.89
670.06	13004.77
670.41	12990.31
670.76	13026.47
671.109	12994.15
671.459	12859.46
671.808	12964.09
672.157	12978.33
672.507	12842.52
672.856	12899.46
673.205	12909.18
673.554	12853.59
673.904	12911.44
674.253	13016.75
674.602	12939.24
674.951	12734.5
675.3	12613.59
675.649	12884.55
675.998	12880.71
676.346	12917.32
676.695	12793.7
677.044	12797.09
677.393	12773.14
677.741	12888.62
678.09	12788.28
678.438	12776.98
678.787	12790.99
679.135	12757.09
679.484	12769.52
679.832	12685.91
680.181	12655.4
680.529	12651.56
680.877	12649.3
681.225	12657.66
681.573	12671.67
681.922	12565.69
682.27	12512.13
682.618	12519.81
682.966	12581.96
683.314	12561.17
683.661	12514.39
684.009	12465.35
684.357	12332.02
684.705	12415.18
685.053	12372.7
685.4	12346.03
685.748	12283.43
686.095	12280.27
686.443	12311.68
686.79	12174.74
687.138	12211.12
687.485	12232.81
687.832	12125.47
688.18	12110.11
688.527	12106.04
688.874	12119.14
689.221	11989.2
689.568	12057.68
689.915	11961.41
690.262	11942.88
690.609	11976.78
690.956	11906.04
691.303	11843.9
691.65	11811.81
691.997	11782.43
692.344	11739.72
692.69	11743.11
693.037	11645.94
693.383	11550.35
693.73	11563
694.077	11483.68
694.423	11474.87
694.769	11447.52
695.116	11436.45
695.462	11377.47
695.808	11376.79
696.155	11337.92
696.501	11296.57
696.847	11287.75
697.193	11214.76
697.539	11160.98
697.885	11114.65
698.231	11123.46
698.577	11023.35
698.923	11067.87
699.269	11047.99
699.614	10877.82
699.96	10869.23
700.306	10918.72
700.651	10785.39
700.997	10816.13
701.342	10663.14
701.688	10757.82
702.033	10676.92
702.379	10686.19
702.724	10703.36
703.069	10609.35
703.415	10495.46
703.76	10594.66
704.105	10443.26
704.45	10503.82
704.795	10398.29
705.14	10392.18
705.485	10299.53
705.83	10291.85
706.175	10322.81
706.52	10194.9
706.865	10241.23
707.209	10182.02
707.554	10133.89
707.899	10199.2
708.243	10101.8
708.588	10190.38
708.932	10070.16
709.277	9990.39
709.621	9997.62
709.966	10002.59
710.31	9998.3
710.654	9878.53
710.998	9897.73
711.342	9915.13
711.687	9815.25
712.031	9739.77
712.375	9808.92
712.719	9733.67
713.063	9783.39
713.407	9773.22
713.75	9765.53
714.094	9708.13
714.438	9650.06
714.782	9649.83
715.125	9675.82
715.469	9682.6
715.812	9626.33
716.156	9499.55
716.499	9557.63
716.843	9582.94
717.186	9518.76
717.53	9478.99
717.873	9504.3
718.216	9459.1
718.559	9475.6
718.902	9369.39
719.246	9485.54
719.589	9373.23
719.932	9397.41
720.275	9390.85
720.617	9328.48
720.96	9391.08
721.303	9314.47
721.646	9416.62
721.989	9358.77
722.331	9367.13
722.674	9302.72
723.016	9342.27
723.359	9310.18
723.701	9381.59
724.044	9303.17
724.386	9232.89
724.729	9285.55
725.071	9207.13
725.413	9205.32
725.755	9213.91
726.097	9129.62
726.439	9190.63
726.782	9196.96
727.124	9241.71
727.465	9141.6
727.807	9130.07
728.149	9137.98
728.491	9115.83
728.833	9128.94
729.175	9146.12
729.516	9117.87
729.858	9165.78
730.199	9157.41
730.541	9077.19
730.882	9082.84
731.224	9135.04
731.565	9081.71
731.906	9113.57
732.248	9089.39
732.589	9124.65
732.93	9081.03
733.271	9131.88
733.612	9122.84
733.953	9101.6
734.294	9141.37
734.635	9070.19
734.976	9108.83
735.317	9087.81
735.658	9046.91
735.999	9025.44
736.339	9105.21
736.68	9170.52
737.021	9092.56
737.361	9031.99
737.702	9142.95
738.042	9114.93
738.383	9098.89
738.723	9098.43
739.063	9032.22
739.404	9200.8
739.744	9191.76
740.084	9114.03
740.424	9133.91
740.764	9166.45
741.104	9199
741.444	9225.44
741.784	9163.74
742.124	9194.25
742.464	9151.99
742.804	9251.65
743.143	9316.28
743.483	9328.94
743.823	9302.72
744.162	9304.98
744.502	9351.53
744.841	9357.18
745.181	9419.55
745.52	9435.15
745.86	9479.67
746.199	9422.49
746.538	9535.26
746.877	9574.35
747.216	9682.37
747.556	9651.86
747.895	9632.43
748.234	9768.47
748.573	9772.54
748.911	9845.98
749.25	9873.33
749.589	9945.87
749.928	10027.67
750.267	10184.96
750.605	10182.47
750.944	10205.75
751.283	10287.33
751.621	10356.03
751.96	10495.68
752.298	10528
752.636	10754.43
752.975	10735.68
753.313	10790.82
753.651	10994.88
753.989	10964.15
754.327	11152.62
754.666	11257.25
755.004	11357.13
755.342	11532.72
755.679	11613.62
756.017	11706.95
756.355	11921.41
756.693	11954.63
757.031	12129.31
757.368	12251.57
757.706	12390.1
758.044	12567.27
758.381	12698.11
758.719	12754.38
759.056	13060.59
759.394	13166.57
759.731	13299.9
760.068	13397.53
760.405	13503.06
760.743	13668.26
761.08	13835.71
761.417	14096.72
761.754	14190.28
762.091	14368.35
762.428	14419.88
762.765	14644.28
763.102	14772.86
763.438	14993.19
763.775	15172.17
764.112	15279.97
764.449	15501.43
764.785	15480.19
765.122	15623.46
765.458	15733.06
765.795	15972.6
766.131	16107.74
766.467	16264.8
766.804	16369.65
767.14	16471.12
767.476	16634.96
767.812	16733.03
768.148	16881.96
768.485	17073.36
768.821	17088.73
769.157	17162.63
769.492	17387.48
769.828	17500.25
770.164	17503.18
770.5	17615.5
770.836	17707.47
771.171	17764.19
771.507	17829.73
771.842	17909.5
772.178	17951.99
772.513	18043.51
772.849	18095.26
773.184	18249.83
773.519	18370.96
773.855	18313.56
774.19	18454.57
774.525	18523.5
774.86	18582.7
775.195	18656.83
775.53	18627
775.865	18645.98
776.2	18666.32
776.535	18614.79
776.87	18708.8
777.205	18776.37
777.539	18767.78
777.874	18771.4
778.209	18796.26
778.543	18789.03
778.878	18719.65
779.212	18898.63
779.547	18772.3
779.881	19083.03
780.215	18869.7
780.55	18917.16
780.884	18847.78
781.218	18946.08
781.552	18926.2
781.886	18894.79
782.22	18893.88
782.554	18896.59
782.888	18794.68
783.222	18794.68
783.556	18772.08
783.889	18737.73
784.223	18705.64
784.557	18714.9
784.89	18818.4
785.224	18747.44
785.557	18618.86
785.891	18599.88
786.224	18697.28
786.558	18648.46
786.891	18503.61
787.224	18471.07
787.557	18558.3
787.891	18598.3
788.224	18509.71
788.557	18511.74
788.89	18425.42
789.223	18433.1
789.556	18329.83
789.888	18336.61
790.221	18286.89
790.554	18165.31
790.887	18266.55
791.219	18167.35
791.552	18168.7
791.884	18159.44
792.217	18019.78
792.549	18135.94
792.882	17990.4
793.214	17998.99
793.546	17895.26
793.879	18001.7
794.211	17755.61
794.543	17937.07
794.875	17811.42
795.207	17897.3
795.539	17763.97
795.871	17638.55
796.203	17603.97
796.535	17579.11
796.867	17594.03
797.198	17525.33
797.53	17520.81
797.862	17435.61
798.193	17459.12
798.525	17321.95
798.856	17392.45
799.188	17227.71
799.519	17218.9
799.85	17128.05
800.182	17029.3
800.513	17194.72
800.844	16999.69
801.175	17109.3
801.506	16985.68
801.837	16931
802.168	16924.44
802.499	16897.55
802.83	16808.29
803.161	16741.17
803.491	16793.37
803.822	16747.27
804.153	16714.5
804.483	16615.3
804.814	16503.66
805.145	16526.03
805.475	16475.87
805.805	16455.75
806.136	16434.74
806.466	16460.73
806.796	16350.9
807.126	16350.45
807.457	16279.49
807.787	16266.61
808.117	16241.52
808.447	16180.96
808.777	16210.56
809.107	16163.33
809.436	16110.9
809.766	16001.08
810.096	15997.23
810.426	15928.54
810.755	15999.49
811.085	15930.57
811.414	15880.85
811.744	15848.31
812.073	15727.64
812.403	15760.18
812.732	15593.18
813.061	15813.51
813.39	15663.91
813.719	15491.03
814.049	15671.14
814.378	15641.99
814.707	15547.3
815.036	15523.12
815.365	15467.31
815.693	15279.74
816.022	15312.73
816.351	15371.94
816.68	15299.63
817.008	15299.4
817.337	15209.01
817.665	15164.26
817.994	15253.3
818.322	15055.34
818.651	15138.05
818.979	14965.85
819.307	15150.93
819.636	15037.03
819.964	15018.73
820.292	15067.32
820.62	15065.96
820.948	14945.74
821.276	15038.84
821.604	14956.81
821.932	15008.33
822.259	14981.22
822.587	14982.12
822.915	14967.43
823.243	15004.27
823.57	14856.7
823.898	15004.94
824.225	14934.21
824.553	14865.97
824.88	14940.99
825.207	14937.6
825.535	14860.77
825.862	15027.99
826.189	14896.47
826.516	15082.46
826.843	15025.96
827.17	15021.22
827.497	14977.37
827.824	15023.93
828.151	15001.1
828.478	14992.29
828.805	15043.14
829.131	14948.67
829.458	14967.21
829.785	14822.35
830.111	14943.25
830.438	14995
830.764	14957.26
831.09	14872.52
831.417	14874.78
831.743	14925.62
832.069	14941.44
832.395	14835.68
832.722	14953.19
833.048	14805.85
833.374	14931.27
833.7	14784.61
834.026	14847.89
834.351	14897.38
834.677	14823.93
835.003	14841.11
835.329	14776.48
835.654	14835.46
835.98	14663.48
836.306	14768.11
836.631	14736.25
836.956	14775.12
837.282	14743.71
837.607	14609.7
837.932	14610.15
838.258	14672.07
838.583	14562.02
838.908	14565.63
839.233	14591.62
839.558	14454.68
839.883	14451.74
840.208	14477.5
840.533	14438.41
840.858	14383.49
841.182	14433.21
841.507	14395.69
841.832	14401.57
842.156	14270.05
842.481	14318.18
842.805	14303.27
843.13	14227.11
843.454	14227.34
843.778	14205.19
844.103	14090.17
844.427	14093.33
844.751	14071.18
845.075	14052.2
845.399	14003.16
845.723	13943.05
846.047	13933.56
846.371	13869.61
846.695	13837.29
847.019	13741.25
847.343	13642.95
847.666	13612.89
847.99	13577.64
848.313	13496.28
848.637	13463.52
848.96	13382.39
849.284	13361.15
849.607	13298.1
849.931	13280.92
850.254	13169.96
850.577	13107.14
850.9	13035.73
851.223	13042.96
851.546	12951.44
851.869	12858.33
852.192	12958.9
852.515	12834.83
852.838	12720.03
853.161	12748.96
853.483	12727.26
853.806	12634.39
854.129	12611.56
854.451	12447.95
854.774	12547.38
855.096	12473.49
855.419	12410.89
855.741	12523.88
856.063	12349.65
856.385	12312.13
856.708	12353.26
857.03	12275.3
857.352	12257.9
857.674	12113.95
857.996	12192.59
858.318	12081.18
858.64	12136.55
858.961	12031.24
859.283	11971.35
859.605	11948.3
859.926	12003.44
860.248	11930.9
860.57	11891.81
860.891	11860.85
861.212	11803.22
861.534	11702.88
861.855	11770
862.176	11771.81
862.498	11763.9
862.819	11766.61
863.14	11652.72
863.461	11689.55
863.782	11659.72
864.103	11603.68
864.424	11577.24
864.745	11650.23
865.065	11525.26
865.386	11496.34
865.707	11437.58
866.027	11524.81
866.348	11399.16
866.668	11446.39
866.989	11476.68
867.309	11316.23
867.63	11448.43
867.95	11351.03
868.27	11275.55
868.59	11363.91
868.91	11276.23
869.23	11305.38
869.55	11179.51
869.87	11285.49
870.19	11191.49
870.51	11199.17
870.83	11266.96
871.15	11172.5
871.469	11229
871.789	11147.42
872.109	11154.42
872.428	11020.42
872.748	11083.92
873.067	11089.57
873.386	11119.4
873.706	11051.38
874.025	10990.81
874.344	10981.77
874.663	11045.95
874.982	10969.34
875.301	10914.2
875.62	10942.23
875.939	10934.32
876.258	10958.05
876.577	10860.42
876.896	10854.77
877.214	10793.08
877.533	10853.42
877.852	10800.31
878.17	10851.83
878.489	10752.85
878.807	10808.22
879.125	10779.07
879.444	10671.27
879.762	10698.84
880.08	10713.31
880.398	10613.65
880.716	10600.09
881.034	10626.98
881.352	10665.85
881.67	10562.58
881.988	10582.24
882.306	10519.86
882.624	10492.29
882.941	10474.22
883.259	10361.45
883.577	10414.78
883.894	10363.71
884.212	10320.32
884.529	10388.34
884.846	10362.58
885.164	10318.51
885.481	10268.57
885.798	10262.24
886.115	10219.53
886.432	10211.62
886.75	10177.05
887.067	10197.61
887.383	10127.11
887.7	10224.28
888.017	10103.83
888.334	10159.2
888.651	10042.36
888.967	10076.26
889.284	9908.13
889.6	10024.51
889.917	9903.16
890.233	9955.81
890.55	9836.94
890.866	9884.4
891.182	9795.59
891.498	9798.08
891.815	9746.1
892.131	9699.32
892.447	9692.99
892.763	9670.85
893.079	9594.47
893.395	9611.64
893.71	9572.09
894.026	9543.62
894.342	9509.04
894.657	9480.8
894.973	9460.46
895.289	9475.6
895.604	9472.66
895.92	9353.57
896.235	9329.84
896.55	9333.91
896.865	9316.96
897.181	9218.2
897.496	9176.85
897.811	9222.72
898.126	9155.38
898.441	9122.61
898.756	9055.27
899.071	8992.45
899.386	9056.85
899.7	8962.84
900.015	8907.03
900.33	8837.87
900.644	8896.86
900.959	8911.32
901.273	8813.02
901.588	8835.16
901.902	8695.96
902.216	8756.97
902.531	8701.83
902.845	8668.61
903.159	8591.78
903.473	8556.3
903.787	8580.25
904.101	8495.74
904.415	8550.65
904.729	8408.28
905.042	8437.89
905.356	8432.46
905.67	8365.8
905.984	8334.16
906.297	8325.57
906.611	8244.67
906.924	8253.94
907.237	8231.56
907.551	8172.58
907.864	8142.98
908.177	8161.28
908.491	8136.2
908.804	8058.01
909.117	8032.47
909.43	7964.68
909.743	7907.5
910.056	7953.15
910.368	7876.09
910.681	7810.33
910.994	7850.1
911.307	7821.63
911.619	7738.47
911.932	7788.86
912.244	7737.11
912.557	7615.31
912.869	7597.46
913.181	7577.57
913.494	7608.08
913.806	7526.95
914.118	7527.63
914.43	7433.39
914.742	7417.12
915.054	7408.99
915.366	7324.47
915.678	7346.84
915.99	7283.57
916.302	7283.34
916.613	7251.93
916.925	7247.63
917.236	7226.17
917.548	7148.43
917.859	7210.8
918.171	7122.44
918.482	7100.97
918.794	7037.02
919.105	7012.39
919.416	6924.03
919.727	6998.6
920.038	6931.94
920.349	6882.67
920.66	6899.85
920.971	6867.08
921.282	6874.31
921.593	6773.75
921.903	6774.88
922.214	6734.43
922.525	6741.43
922.835	6651.94
923.146	6635.45
923.456	6630.02
923.767	6598.16
924.077	6599.06
924.387	6547.77
924.697	6521.33
925.008	6476.13
925.318	6434.32
925.628	6445.4
925.938	6427.32
926.248	6375.79
926.558	6374.21
926.867	6278.85
927.177	6324.27
927.487	6293.08
927.796	6216.7
928.106	6277.26
928.416	6225.51
928.725	6252.18
929.034	6170.6
929.344	6144.39
929.653	6131.05
929.962	6084.05
930.271	6091.05
930.581	6018.06
930.89	5974.9
931.199	6002.24
931.508	5946.65
931.817	5994.11
932.125	5926.77
932.434	5915.92
932.743	5820.1
933.051	5848.35
933.36	5783.27
933.669	5745.75
933.977	5749.59
934.286	5737.62
934.594	5719.54
934.902	5708.47
935.21	5671.63
935.519	5646.77
935.827	5599.09
936.135	5569.03
936.443	5542.14
936.751	5536.49
937.059	5522.26
937.367	5504.18
937.674	5487.68
937.982	5441.58
938.29	5451.75
938.597	5422.6
938.905	5420.11
939.213	5307.12
939.52	5327.01
939.827	5333.11
940.135	5291.53
940.442	5256.27
940.749	5240
941.056	5304.86
941.363	5203.62
941.67	5188.71
941.977	5180.57
942.284	5105.54
942.591	5158.88
942.898	5069.39
943.205	5066.9
943.511	5032.55
943.818	5040.23
944.125	4983.06
944.431	4973.57
944.738	4950.75
945.044	4963.63
945.35	4947.36
945.657	4875.72
945.963	4894.02
946.269	4859.45
946.575	4865.32
946.881	4833.23
947.187	4814.7
947.493	4760.24
947.799	4801.6
948.105	4728.83
948.41	4732.9
948.716	4712.33
949.022	4684.76
949.327	4681.6
949.633	4627.82
949.938	4638.44
950.244	4642.96
950.549	4584.65
950.854	4582.39
951.16	4571.09
951.465	4516.18
951.77	4536.52
952.075	4489.06
952.38	4464.66
952.685	4467.82
952.99	4460.81
953.294	4421.72
953.599	4416.52
953.904	4315.06
954.209	4331.55
954.513	4333.13
954.818	4344.89
955.122	4311.21
955.426	4270.54
955.731	4241.61
956.035	4240.26
956.339	4247.26
956.643	4226.24
956.948	4176.53
957.252	4162.97
957.556	4153.25
957.86	4056.98
958.163	4158.45
958.467	4099.24
958.771	4069.41
959.075	4091.33
959.378	4049.3
959.682	3995.29
959.985	4035.74
960.289	3983.54
960.592	3960.04
960.896	3947.38
961.199	3955.52
961.502	3894.73
961.805	3940.83
962.108	3877.78
962.411	3908.97
962.714	3820.15
963.017	3862.41
963.32	3814.73
963.623	3772.25
963.926	3797.78
964.228	3760.72
964.531	3750.78
964.833	3745.58
965.136	3706.94
965.438	3667.62
965.741	3744.9
966.043	3675.75
966.345	3656.99
966.648	3666.03
966.95	3639.59
967.252	3620.84
967.554	3600.27
967.856	3592.36
968.158	3554.17
968.46	3568.63
968.761	3540.39
969.063	3533.83
969.365	3501.52
969.666	3481.18
969.968	3438.02
970.269	3438.69
970.571	3441.86
970.872	3443.89
971.174	3400.5
971.475	3410.9
971.776	3368.64
972.077	3371.35
972.378	3351.69
972.679	3326.16
972.98	3357.57
973.281	3332.26
973.582	3296.33
973.883	3314.4
974.183	3279.38
974.484	3247.29
974.785	3232.37
975.085	3218.14
975.386	3237.57
975.686	3200.51
975.986	3170.91
976.287	3145.37
976.587	3124.58
976.887	3154.41
977.187	3137.23
977.487	3139.49
977.787	3087.29
978.087	3090
978.387	3066.5
978.687	3059.72
978.987	3043.68
979.286	2979.05
979.586	3001.42
979.885	2997.58
980.185	3004.81
980.484	2993.28
980.784	2984.92
981.083	2981.08
981.382	2949.44
981.682	2952.15
981.981	2946.28
982.28	2907.41
982.579	2885.72
982.878	2881.42
983.177	2867.86
983.475	2872.16
983.774	2815.89
984.073	2825.38
984.372	2790.35
984.67	2793.51
984.969	2811.14
985.267	2745.83
985.566	2764.59
985.864	2737.47
986.162	2739.05
986.461	2693.86
986.759	2735.44
987.057	2717.81
987.355	2684.36
987.653	2678.26
987.951	2653.18
988.249	2660.64
988.547	2622.45
988.844	2632.84
989.142	2625.61
989.44	2590.13
989.737	2566.18
990.035	2578.15
990.332	2568.66
990.63	2526.63
990.927	2537.02
991.224	2534.99
991.521	2508.78
991.819	2515.1
992.116	2504.93
992.413	2453.86
992.71	2459.74
993.006	2446.4
993.303	2492.05
993.6	2438.5
993.897	2401.89
994.193	2400.76
994.49	2409.12
994.787	2419.29
995.083	2398.95
995.379	2377.93
995.676	2375.45
995.972	2351.49
996.268	2308.56
996.565	2326.86
996.861	2290.93
997.157	2309.91
997.453	2286.63
997.749	2304.04
998.044	2267.43
998.34	2299.97
998.636	2219.97
998.932	2229.91
999.227	2224.49
999.523	2202.8
999.818	2200.08
1000.114	2176.81
1000.409	2193.76
1000.704	2160.99
1001	2153.76
1001.295	2129.58
1001.59	2126.19
1001.885	2127.09
1002.18	2079.18
1002.475	2109.46
1002.77	2088
1003.065	2100.2
1003.359	2062.46
1003.654	2061.1
1003.949	2034.89
1004.243	2035.79
1004.538	2026.3
1004.832	2018.39
1005.127	2003.25
1005.421	1955.34
1005.715	1972.07
1006.009	1963.03
1006.304	1921.45
1006.598	1945.63
1006.892	1920.99
1007.186	1901.79
1007.48	1899.75
1007.773	1873.99
1008.067	1909.24
1008.361	1860.43
1008.655	1859.75
1008.948	1822.92
1009.242	1829.02
1009.535	1814.56
1009.829	1815.69
1010.122	1805.52
1010.415	1797.38
1010.708	1806.2
1011.001	1785.86
1011.295	1810.04
1011.588	1756.03
1011.881	1755.58
1012.173	1749.02
1012.466	1732.07
1012.759	1695.01
1013.052	1718.74
1013.344	1694.11
1013.637	1700.66
1013.93	1674
1014.222	1679.19
1014.514	1656.82
1014.807	1624.51
1015.099	1648.23
1015.391	1661.11
1015.683	1605.3
1015.976	1630.38
1016.268	1610.95
1016.56	1569.37
1016.851	1570.27
1017.143	1554.9
1017.435	1570.5
1017.727	1562.13
1018.018	1512.42
1018.31	1503.38
1018.602	1532.76
1018.893	1525.98
1019.185	1522.81
1019.476	1488.01
1019.767	1458.18
1020.058	1485.53
1020.35	1444.17
1020.641	1447.79
1020.932	1434.23
1021.223	1443.49
1021.514	1420.44
1021.804	1409.6
1022.095	1415.47
1022.386	1429.93
1022.677	1403.95
1022.967	1372.08
1023.258	1381.8
1023.548	1400.78
1023.839	1355.36
1024.129	1325.3
1024.419	1337.06
1024.709	1303.84
1025	1314
1025.29	1314
1025.58	1294.57
1025.87	1292.31
1026.16	1268.81
1026.449	1286.21
1026.739	1257.06
1027.029	1253.44
1027.319	1257.28
1027.608	1241.01
1027.898	1253.67
1028.187	1240.11
1028.477	1207.34
1028.766	1209.6
1029.055	1189.49
1029.344	1209.15
1029.634	1211.63
1029.923	1203.73
1030.212	1196.49
1030.501	1183.39
1030.79	1143.16
1031.078	1163.5
1031.367	1140.45
1031.656	1119.66
1031.945	1123.5
1032.233	1134.12
1032.522	1122.37
1032.81	1109.49
1033.099	1121.02
1033.387	1099.32
1033.675	1078.98
1033.963	1064.75
1034.251	1071.98
1034.54	1063.62
1034.828	1044.41
1035.116	1042.6
1035.403	1037.4
1035.691	1019.78
1035.979	1039.89
1036.267	1019.55
1036.554	1007.12
1036.842	1009.15
1037.129	996.27
1037.417	987.23
1037.704	998.99
1037.992	970.96
1038.279	969.38
1038.566	975.03
1038.853	975.03
1039.14	975.03
