Data from hue_140_FLMS001491_00077.txt Node
Date: Tue Feb 07 16:56:24 GMT 2017
User: dcchb
Spectrometer: FLMS00149
Trigger mode: 0
Integration Time (sec): 2.000000E-2
Scans to average: 10
Electric dark correction enabled: true
Nonlinearity correction enabled: false
Boxcar width: 0
XAxis mode: Wavelengths
Number of Pixels in Spectrum: 2048
>>>>>Begin Spectral Data<<<<<
341.393	-22.88
341.776	-22.88
342.16	-22.88
342.543	-56.78
342.927	-62.88
343.31	-55.87
343.693	-83.67
344.077	-58.13
344.46	-83.22
344.843	-51.58
345.226	-39.15
345.61	-45.03
345.993	-9.77
346.376	2.66
346.759	-8.19
347.142	11.92
347.525	50.11
347.908	47.63
348.291	76.33
348.674	114.29
349.057	131.69
349.44	125.14
349.823	134.18
350.206	174.63
350.588	184.57
350.971	192.25
351.354	236.32
351.737	229.54
352.119	232.25
352.502	267.06
352.884	268.41
353.267	272.25
353.65	283.55
354.032	316.77
354.414	310.44
354.797	305.92
355.179	319.03
355.562	313.83
355.944	323.78
356.326	328.97
356.709	342.99
357.091	329.65
357.473	349.54
357.855	354.06
358.238	345.02
358.62	332.82
359.002	355.64
359.384	335.75
359.766	341.18
360.148	330.78
360.53	331.23
360.912	327.84
361.294	321.97
361.676	328.07
362.057	314.51
362.439	342.76
362.821	332.14
363.203	320.39
363.584	358.13
363.966	316.77
364.348	321.74
364.729	311.57
365.111	324
365.493	317
365.874	304.12
366.256	304.57
366.637	309.77
367.019	315.19
367.4	301.4
367.781	304.57
368.163	300.05
368.544	310.22
368.925	315.64
369.306	319.94
369.688	308.64
370.069	316.09
370.45	306.38
370.831	308.41
371.212	298.01
371.593	301.63
371.974	312.48
372.355	321.52
372.736	314.29
373.117	304.34
373.498	327.84
373.879	318.58
374.26	319.94
374.641	299.37
375.021	328.3
375.402	314.51
375.783	325.13
376.163	333.49
376.544	339.82
376.925	330.78
377.305	322.65
377.686	318.81
378.066	328.52
378.447	334.62
378.827	337.79
379.208	341.18
379.588	344.12
379.968	341.18
380.349	329.65
380.729	343.66
381.109	334.17
381.489	350.89
381.87	331.01
382.25	336.21
382.63	345.25
383.01	340.95
383.39	364.23
383.77	330.56
384.15	328.3
384.53	327.62
384.91	361.29
385.29	336.66
385.67	356.32
386.049	353.83
386.429	324.68
386.809	347.05
387.189	351.8
387.568	345.92
387.948	349.54
388.328	365.58
388.707	352.93
389.087	357.22
389.466	387.73
389.846	361.29
390.225	362.65
390.605	365.13
390.984	352.93
391.363	378.46
391.743	372.59
392.122	383.21
392.501	371.69
392.881	375.75
393.26	380.27
393.639	358.8
394.018	371.01
394.397	367.84
394.776	395.41
395.155	399.48
395.534	396.77
395.913	369.88
396.292	387.28
396.671	406.71
397.05	389.99
397.429	387.96
397.808	395.19
398.186	395.87
398.565	410.1
398.944	419.59
399.323	386.83
399.701	392.02
400.08	377.33
400.458	393.83
400.837	403.77
401.215	409.65
401.594	399.93
401.972	399.48
402.351	412.59
402.729	429.76
403.107	435.41
403.486	412.36
403.864	430.44
404.242	399.03
404.62	424.57
404.999	435.86
405.377	441.97
405.755	413.04
406.133	442.87
406.511	455.3
406.889	453.04
407.267	438.58
407.645	435.41
408.023	435.41
408.401	454.17
408.779	457.78
409.156	451.23
409.534	454.17
409.912	457.33
410.29	452.36
410.667	471.34
411.045	480.61
411.422	488.52
411.8	478.12
412.178	465.02
412.555	465.47
412.933	489.65
413.31	504.11
413.687	503.21
414.065	492.59
414.442	501.63
414.819	490.78
415.197	495.3
415.574	503.89
415.951	524
416.328	497.78
416.705	507.5
417.082	509.76
417.46	533.04
417.837	544.34
418.214	552.47
418.591	520.61
418.967	517.22
419.344	514.73
419.721	545.69
420.098	526.71
420.475	550.89
420.852	559.7
421.228	554.51
421.605	564
421.982	550.44
422.358	547.73
422.735	573.49
423.111	560.38
423.488	593.15
423.864	571.91
424.241	576.65
424.617	587.05
424.994	589.98
425.37	596.99
425.746	613.94
426.123	600.61
426.499	610.55
426.875	598.8
427.251	613.03
427.627	592.47
428.003	636.31
428.379	634.28
428.756	621.17
429.132	630.66
429.507	642.19
429.883	651
430.259	664.33
430.635	656.88
431.011	643.77
431.387	659.14
431.763	672.02
432.138	665.69
432.514	686.25
432.89	672.92
433.265	703.88
433.641	716.08
434.016	718.12
434.392	711.79
434.767	726.93
435.143	745.23
435.518	747.95
435.894	735.97
436.269	759.47
436.644	772.58
437.02	750.66
437.395	728.06
437.77	758.79
438.145	777.1
438.52	784.1
438.895	803.54
439.271	801.05
439.646	809.87
440.021	801.73
440.395	815.74
440.77	802.41
441.145	821.39
441.52	845.57
441.895	827.72
442.27	853.03
442.645	852.35
443.019	852.58
443.394	851.67
443.769	873.37
444.143	867.94
444.518	867.27
444.892	865.91
445.267	883.54
445.641	870.88
446.016	883.08
446.39	888.96
446.764	902.29
447.139	905
447.513	924.44
447.887	906.81
448.262	898.68
448.636	930.09
449.01	952.69
449.384	933.25
449.758	944.33
450.132	944.33
450.506	980.93
450.88	958.34
451.254	978.67
451.628	980.93
452.002	1015.51
452.376	1004.89
452.75	1016.87
453.123	1024.1
453.497	1015.06
453.871	1060.03
454.244	1040.59
454.618	1090.76
454.992	1065.23
455.365	1057.09
455.739	1096.86
456.112	1097.99
456.486	1103.42
456.859	1123.98
457.232	1163.75
457.606	1130.31
457.979	1149.29
458.352	1155.62
458.725	1184.09
459.099	1197.43
459.472	1227.26
459.845	1228.61
460.218	1246.92
460.591	1253.47
460.964	1261.83
461.337	1275.62
461.71	1311.55
462.083	1309.29
462.456	1325.56
462.829	1346.35
463.201	1365.78
463.574	1386.12
463.947	1399.23
464.32	1431.77
464.692	1436.29
465.065	1463.63
465.438	1476.06
465.81	1494.59
466.183	1524.2
466.555	1559.45
466.928	1566.68
467.3	1539.34
467.672	1631.99
468.045	1639.67
468.417	1664.98
468.789	1663.4
469.161	1704.76
469.534	1728.71
469.906	1740.91
470.278	1786.79
470.65	1832.21
471.022	1860.01
471.394	1868.59
471.766	1913.34
472.138	1918.31
472.51	1964.86
472.882	2039.44
473.253	2064.97
473.625	2096.84
473.997	2161.92
474.369	2194.01
474.74	2250.28
475.112	2278.3
475.484	2310.84
475.855	2417.96
476.227	2431.52
476.598	2537.96
476.97	2590.61
477.341	2652.3
477.713	2683.04
478.084	2729.36
478.455	2817.5
478.827	2861.11
479.198	2988.34
479.569	3051.84
479.94	3141.1
480.311	3220.88
480.682	3323.02
481.053	3388.55
481.424	3488.21
481.795	3569.79
482.166	3672.84
482.537	3723.69
482.908	3841.65
483.279	3932.95
483.65	4043.23
484.021	4171.81
484.391	4263.56
484.762	4345.14
485.133	4479.6
485.503	4563.44
485.874	4714.17
486.244	4829.42
486.615	4925.46
486.985	5052.24
487.356	5196.87
487.726	5274.38
488.097	5531.55
488.467	5555.96
488.837	5751.43
489.207	5808.15
489.578	5916.17
489.948	6101.7
490.318	6299.66
490.688	6334.47
491.058	6467.12
491.428	6675.47
491.798	6781.46
492.168	6946.2
492.538	7011.28
492.908	7210.83
493.278	7320.65
493.648	7422.12
494.017	7674.77
494.387	7750.02
494.757	7851.71
495.126	7993.63
495.496	8118.83
495.866	8226.39
496.235	8393.85
496.605	8489.66
496.974	8644.69
497.344	8760.17
497.713	8836.55
498.082	8988.86
498.452	9149.08
498.821	9222.75
499.19	9356.99
499.559	9423.42
499.928	9558.34
500.298	9628.84
500.667	9724.21
501.036	9822.28
501.405	9935.05
501.774	9956.97
502.143	10103.63
502.512	10228.15
502.88	10287.58
503.249	10395.15
503.618	10520.12
503.987	10634.47
504.356	10720.57
504.724	10720.57
505.093	10846.66
505.462	10846.21
505.83	10942.48
506.199	11068.13
506.567	11257.05
506.936	11234
507.304	11399.42
507.672	11388.8
508.041	11505.18
508.409	11569.81
508.777	11643.93
509.145	11768.45
509.514	11740.65
509.882	11797.83
510.25	11796.24
510.618	11885.28
510.986	11982
511.354	12000.31
511.722	12190.58
512.09	12245.05
512.458	12222.67
512.826	12332.27
513.193	12303.35
513.561	12408.88
513.929	12527.75
514.297	12641.65
514.664	12686.39
515.032	12697.69
515.4	12732.49
515.767	12756.67
516.135	12832.37
516.502	12817.01
516.869	12918.02
517.237	13089.77
517.604	12839.61
517.972	13051.35
518.339	13031.47
518.706	13124.8
519.073	13116.43
519.44	13110.11
519.808	13246.15
520.175	13108.07
520.542	13306.03
520.909	13289.09
521.276	13331.34
521.643	13477.78
522.009	13386.26
522.376	13431
522.743	13523.88
523.11	13604.33
523.477	13617.44
523.843	13695.85
524.21	13722.75
524.577	13753.03
524.943	13748.96
525.31	13787.15
525.676	13885.91
526.043	13946.92
526.409	13940.14
526.776	14047.26
527.142	13914.83
527.508	14011.1
527.874	14080.93
528.241	14088.61
528.607	14036.64
528.973	14102.85
529.339	14077.09
529.705	14137.65
530.071	14232.11
530.437	14212.9
530.803	14116.86
531.169	14206.58
531.535	14103.53
531.901	14197.54
532.267	14160.7
532.632	14169.74
532.998	14203.86
533.364	14137.42
533.73	14190.98
534.095	14258.78
534.461	14235.5
534.826	14217.65
535.192	14106.92
535.557	14259.68
535.923	14075.51
536.288	14195.28
536.653	14183.98
537.019	14126.58
537.384	14102.62
537.749	14032.12
538.114	14067.14
538.479	13970.2
538.845	13913.02
539.21	13916.87
539.575	13901.27
539.94	13854.49
540.305	13930.88
540.67	13852.69
541.034	13868.73
541.399	13838.68
541.764	13846.13
542.129	13823.31
542.494	13802.74
542.858	13710.09
543.223	13695.63
543.587	13717.55
543.952	13567.95
544.316	13663.77
544.681	13595.97
545.045	13581.73
545.41	13696.08
545.774	13471
546.138	13519.59
546.503	13517.55
546.867	13442.3
547.231	13429.19
547.595	13379.03
547.959	13417.44
548.324	13315.53
548.688	13244.79
549.052	13261.06
549.416	13297
549.779	13274.17
550.143	13282.31
550.507	13242.08
550.871	13202.99
551.235	13202.76
551.599	13173.83
551.962	13082.54
552.326	13085.7
552.689	13138.81
553.053	13109.2
553.417	13053.61
553.78	13105.14
554.143	12915.31
554.507	12949.89
554.87	12911.69
555.234	13044.8
555.597	12966.83
555.96	12880.28
556.323	12955.99
556.686	12876.22
557.05	12898.81
557.413	12946.72
557.776	12947.17
558.139	12991.92
558.502	12960.51
558.865	12914.86
559.228	12941.3
559.59	12973.84
559.953	12889.55
560.316	12928.19
560.679	12896.33
561.041	13016.78
561.404	12949.89
561.767	13022.43
562.129	12983.33
562.492	12936.55
562.854	12954.86
563.217	12911.69
563.579	13022.43
563.941	12906.27
564.304	12985.82
564.666	13077.11
565.028	13066.94
565.39	13037.34
565.753	13079.15
566.115	13128.86
566.477	13087.96
566.839	13066.27
567.201	13182.2
567.563	13136.32
567.925	13163.67
568.287	13258.13
568.648	13124.57
569.01	13259.26
569.372	13231.01
569.734	13205.7
570.095	13252.25
570.457	13263.78
570.819	13301.74
571.18	13210.44
571.542	13347.16
571.903	13339.71
572.265	13363.43
572.626	13388.29
572.987	13312.14
573.349	13452.47
573.71	13487.95
574.071	13429.87
574.432	13471.91
574.794	13527.72
575.155	13436.65
575.516	13479.14
575.877	13496.99
576.238	13459.25
576.599	13461.51
576.96	13472.58
577.32	13478.23
577.681	13553.94
578.042	13519.14
578.403	13539.47
578.763	13492.47
579.124	13480.27
579.485	13538.57
579.845	13628.74
580.206	13526.82
580.566	13536.08
580.927	13612.47
581.287	13594.84
581.648	13502.41
582.008	13548.97
582.368	13575.86
582.728	13494.96
583.089	13503.09
583.449	13525.69
583.809	13487.72
584.169	13522.98
584.529	13534.73
584.889	13601.62
585.249	13490.44
585.609	13451.79
585.969	13551.9
586.329	13487.5
586.688	13446.14
587.048	13472.36
587.408	13417.67
587.768	13419.7
588.127	13408.18
588.487	13410.66
588.846	13425.81
589.206	13371.8
589.565	13331.12
589.925	13433.26
590.284	13362.08
590.643	13462.64
591.003	13362.3
591.362	13354.39
591.721	13374.73
592.08	13399.59
592.44	13338.12
592.799	13472.36
593.158	13372.02
593.517	13317.11
593.876	13391
594.235	13348.29
594.593	13323.89
594.952	13270.33
595.311	13261.52
595.67	13284.57
596.029	13340.38
596.387	13382.64
596.746	13345.13
597.104	13289.54
597.463	13263.55
597.822	13306.26
598.18	13237.56
598.538	13185.81
598.897	13325.02
599.255	13207.05
599.613	13363.21
599.972	13302.64
600.33	13386.03
600.688	13276.2
601.046	13409.08
601.404	13365.92
601.762	13292.02
602.12	13345.58
602.478	13367.95
602.836	13358.91
603.194	13277.11
603.552	13320.95
603.91	13282.08
604.268	13332.25
604.625	13318.69
604.983	13297.67
605.341	13230.78
605.698	13361.63
606.056	13326.37
606.413	13280.72
606.771	13313.94
607.128	13333.38
607.485	13317.56
607.843	13246.6
608.2	13358.91
608.557	13381.29
608.914	13300.38
609.272	13455.41
609.629	13464.67
609.986	13393.94
610.343	13348.29
610.7	13540.15
611.057	13444.56
611.414	13443.88
611.771	13406.82
612.127	13472.81
612.484	13455.63
612.841	13537.21
613.198	13520.04
613.554	13508.06
613.911	13619.02
614.267	13533.6
614.624	13597.33
614.98	13613.14
615.337	13635.74
615.693	13617.89
616.05	13569.3
616.406	13655.4
616.762	13617.44
617.118	13588.29
617.475	13629.42
617.831	13639.58
618.187	13628.29
618.543	13671.22
618.899	13694.27
619.255	13713.03
619.611	13645.91
619.967	13724.33
620.323	13765.23
620.678	13671
621.034	13628.06
621.39	13632.81
621.746	13668.51
622.101	13875.51
622.457	13666.48
622.812	13725.46
623.168	13660.83
623.523	13789.41
623.879	13791.45
624.234	13757.32
624.589	13691.56
624.945	13686.14
625.3	13724.78
625.655	13678.45
626.01	13658.34
626.365	13681.39
626.72	13691.11
627.075	13657.44
627.43	13635.52
627.785	13642.52
628.14	13754.61
628.495	13744.21
628.85	13653.6
629.205	13689.75
629.559	13743.76
629.914	13703.54
630.269	13755.97
630.623	13674.39
630.978	13592.13
631.332	13649.08
631.687	13635.97
632.041	13604.56
632.396	13584.67
632.75	13524.79
633.104	13530.66
633.459	13491.34
633.813	13502.87
634.167	13511.23
634.521	13434.39
634.875	13517.55
635.229	13425.58
635.583	13308.07
635.937	13341.74
636.291	13306.71
636.645	13396.2
636.999	13382.64
637.352	13355.75
637.706	13276.88
638.06	13406.6
638.413	13304
638.767	13221.74
639.121	13266.94
639.474	13203.44
639.828	13202.31
640.181	13224.91
640.534	13194.4
640.888	13184.23
641.241	13151.24
641.594	13197.79
641.947	13201.63
642.301	13107.17
642.654	13151.24
643.007	13160.28
643.36	13170.67
643.713	13146.49
644.066	13161.86
644.419	13167.28
644.771	13023.78
645.124	12912.15
645.477	12872.6
645.83	12832.37
646.182	12809.55
646.535	12737.01
646.888	12646.16
647.24	12703.79
647.593	12727.52
647.945	12720.29
648.298	12599.16
648.65	12662.44
649.002	12589.22
649.355	12726.39
649.707	12677.58
650.059	12725.48
650.411	12937.23
650.763	12899.04
651.115	12941.52
651.467	12944.69
651.819	12946.95
652.171	12939.72
652.523	12930.22
652.875	12965.03
653.227	12906.95
653.578	13025.59
653.93	12949.43
654.282	12899.72
654.633	12839.15
654.985	12919.6
655.337	12929.1
655.688	12940.39
656.039	12950.11
656.391	12823.79
656.742	12931.35
657.094	12946.04
657.445	12975.42
657.796	12907.63
658.147	12875.09
658.498	12918.7
658.849	13042.09
659.2	12922.99
659.551	12884.35
659.902	12952.15
660.253	12930.9
660.604	12948.98
660.955	12858.81
661.306	12984.23
661.656	12913.05
662.007	12909.21
662.358	12920.28
662.708	12984.23
663.059	12935.87
663.409	12883.45
663.76	12941.52
664.11	12944.46
664.461	12997.79
664.811	13036.66
665.161	12922.54
665.511	12892.26
665.862	13009.54
666.212	12990.34
666.562	13039.6
666.912	13071.92
667.262	12971.13
667.612	13038.02
667.962	13031.01
668.312	12870.79
668.662	12993.5
669.011	12933.16
669.361	12984.91
669.711	12937.46
670.06	12879.6
670.41	12918.93
670.76	12922.77
671.109	12926.16
671.459	12886.84
671.808	12834.18
672.157	12903.79
672.507	12755.77
672.856	12901.3
673.205	12843
673.554	12944.46
673.904	12827.4
674.253	12863.56
674.602	12881.19
674.951	12687.07
675.3	12603.91
675.649	12797.35
675.998	12717.58
676.346	12772.94
676.695	12783.34
677.044	12712.38
677.393	12753.28
677.741	12698.37
678.09	12733.85
678.438	12651.81
678.787	12745.15
679.135	12786.27
679.484	12616.79
679.832	12577.24
680.181	12570.69
680.529	12588.99
680.877	12555.55
681.225	12612.95
681.573	12669.89
681.922	12530.69
682.27	12477.13
682.618	12468.77
682.966	12432.61
683.314	12468.32
683.661	12376.12
684.009	12313.97
684.357	12306.74
684.705	12284.37
685.053	12324.14
685.4	12290.02
685.748	12140.64
686.095	12191.26
686.443	12104.03
686.79	12142.22
687.138	12073.75
687.485	12119.4
687.832	12163.01
688.18	12091.38
688.527	12011.15
688.874	11983.36
689.221	11950.14
689.568	11971.83
689.915	11857.26
690.262	11850.71
690.609	11904.49
690.956	11832.85
691.303	11779.29
691.65	11772.74
691.997	11759.63
692.344	11661.78
692.69	11618.17
693.037	11633.31
693.383	11532.52
693.73	11564.61
694.077	11518.28
694.423	11500.66
694.769	11466.99
695.116	11357.16
695.462	11395.58
695.808	11361.68
696.155	11356.03
696.501	11262.47
696.847	11259.76
697.193	11130.72
697.539	11218.86
697.885	11068.81
698.231	11053.89
698.577	11031.29
698.923	11067.45
699.269	10981.8
699.614	10904.29
699.96	10810.28
700.306	10888.92
700.651	10824.07
700.997	10761.02
701.342	10790.17
701.688	10754.01
702.033	10659.55
702.379	10668.36
702.724	10554.69
703.069	10605.31
703.415	10516.05
703.76	10486.9
704.105	10515.83
704.45	10429.5
704.795	10377.98
705.14	10364.42
705.485	10238.32
705.83	10308.15
706.175	10347.47
706.52	10184.31
706.865	10207.13
707.209	10115.16
707.554	10153.57
707.899	10171.88
708.243	10062.5
708.588	10046.91
708.932	10056.63
709.277	9982.73
709.621	10061.15
709.966	9921.04
710.31	9956.52
710.654	9818.22
710.998	9948.83
711.342	9898.21
711.687	9879.23
712.031	9712.23
712.375	9801.95
712.719	9792.45
713.063	9790.19
713.407	9805.79
713.75	9735.73
714.094	9760.14
714.438	9646.7
714.782	9693.02
715.125	9598.56
715.469	9615.74
715.812	9542.29
716.156	9476.98
716.499	9504.1
716.843	9598.79
717.186	9473.14
717.53	9568.73
717.873	9560.14
718.216	9499.35
718.559	9444.67
718.902	9385.23
719.246	9413.71
719.589	9463.2
719.932	9367.15
720.275	9358.12
720.617	9391.33
720.96	9313.6
721.303	9380.94
721.646	9332.58
721.989	9338.68
722.331	9372.35
722.674	9382.75
723.016	9311.34
723.359	9286.48
723.701	9216.65
724.044	9267.27
724.386	9182.75
724.729	9251.23
725.071	9194.5
725.413	9161.28
725.755	9213.94
726.097	9157.22
726.439	9176.88
726.782	9114.73
727.124	9210.32
727.465	9138.46
727.807	9134.84
728.149	9098.24
728.491	9080.83
728.833	9131.45
729.175	9108.18
729.516	9040.61
729.858	9163.77
730.199	9089.65
730.541	9076.32
730.882	9068.86
731.224	9137.78
731.565	9041.06
731.906	9092.13
732.248	9069.99
732.589	8968.97
732.93	9042.87
733.271	9031.57
733.612	9055.07
733.953	9039.25
734.294	9045.58
734.635	9043.77
734.976	9036.32
735.317	9016.66
735.658	8973.04
735.999	9026.15
736.339	9040.16
736.68	9026.82
737.021	9060.72
737.361	9032.93
737.702	9091.91
738.042	9061.17
738.383	9045.36
738.723	9086.71
739.063	9042.64
739.404	9091.23
739.744	9058.91
740.084	9046.49
740.424	9099.59
740.764	9133.94
741.104	9212.81
741.444	9163.32
741.784	9131.68
742.124	9164.67
742.464	9215.52
742.804	9130.32
743.143	9246.71
743.483	9253.49
743.823	9228.4
744.162	9239.7
744.502	9310.89
744.841	9285.35
745.181	9393.37
745.52	9356.76
745.86	9408.06
746.199	9487.6
746.538	9401.96
746.877	9491.22
747.216	9576.19
747.556	9539.58
747.895	9700.03
748.234	9660.48
748.573	9710.65
748.911	9759.46
749.25	9775.28
749.589	9878.55
749.928	9870.87
750.267	10064.09
750.605	10044.88
750.944	10125.55
751.283	10104.76
751.621	10288.49
751.96	10323.06
752.298	10408.48
752.636	10552.21
752.975	10616.16
753.313	10714.69
753.651	10875.14
753.989	10854.57
754.327	11097.28
754.666	11102.25
755.004	11253.88
755.342	11375.69
755.679	11512.86
756.017	11498.85
756.355	11718.96
756.693	11827.66
757.031	11958.5
757.368	12044.82
757.706	12192.84
758.044	12363.23
758.381	12504.02
758.719	12677.35
759.056	12898.81
759.394	12977
759.731	13057.91
760.068	13250.67
760.405	13333.38
760.743	13421.06
761.08	13747.38
761.417	13766.81
761.754	13899.24
762.091	14176.75
762.428	14276.63
762.765	14476.63
763.102	14621.93
763.438	14783.96
763.775	14870.96
764.112	15153.44
764.449	15264.4
764.785	15357.51
765.122	15451.51
765.458	15631.62
765.795	15788.23
766.131	15975.34
766.467	16071.61
766.804	16234.54
767.14	16278.16
767.476	16492.17
767.812	16550.47
768.148	16745.72
768.485	16765.38
768.821	16897.35
769.157	17093.51
769.492	17196.55
769.828	17324.46
770.164	17315.19
770.5	17443.33
770.836	17545.24
771.171	17546.15
771.507	17711.79
771.842	17736.65
772.178	17859.81
772.513	17952.01
772.849	18041.05
773.184	18062.97
773.519	18122.18
773.855	18290.08
774.19	18233.14
774.525	18362.17
774.86	18392.23
775.195	18481.49
775.53	18571.21
775.865	18585.67
776.2	18569.4
776.535	18602.84
776.87	18634.71
777.205	18647.36
777.539	18648.04
777.874	18749.06
778.209	18756.06
778.543	18787.92
778.878	18778.88
779.212	18781.37
779.547	18804.19
779.881	18906.11
780.215	18770.07
780.55	18872.67
780.884	18798.09
781.218	18808.71
781.552	18810.75
781.886	18813.69
782.22	18824.08
782.554	18795.83
782.888	18642.17
783.222	18710.64
783.556	18704.08
783.889	18741.37
784.223	18593.35
784.557	18712.67
784.89	18726.91
785.224	18619.79
785.557	18597.87
785.891	18610.08
786.224	18552
786.558	18595.39
786.891	18543.86
787.224	18562.17
787.557	18481.94
787.891	18494.82
788.224	18509.97
788.557	18486.24
788.89	18571.43
789.223	18550.42
789.556	18354.94
789.888	18388.39
790.221	18298.67
790.554	18181.84
790.887	18260.48
791.219	18208.73
791.552	18172.12
791.884	18138
792.217	18128.96
792.549	18122.86
792.882	17970.32
793.214	18033.82
793.546	18071.11
793.879	17922.64
794.211	17903.2
794.543	17906.37
794.875	17772.36
795.207	18000.83
795.539	17824.11
795.871	17801.96
796.203	17555.64
796.535	17591.35
796.867	17578.69
797.198	17566.26
797.53	17508.41
797.862	17437.9
798.193	17492.14
798.525	17343.44
798.856	17356.32
799.188	17135.54
799.519	17127.63
799.85	17112.49
800.182	17131.47
800.513	17108.19
800.844	16939.16
801.175	17093.28
801.506	17060.96
801.837	16916.56
802.168	16907.52
802.499	16940.29
802.83	16751.37
803.161	16828.43
803.491	16835.89
803.822	16858.48
804.153	16735.55
804.483	16623.69
804.814	16544.14
805.145	16521.54
805.475	16509.57
805.805	16441.77
806.136	16493.52
806.466	16399.29
806.796	16460.98
807.126	16296.01
807.457	16243.81
807.787	16305.73
808.117	16200.65
808.447	16150.48
808.777	16228.67
809.107	16184.15
809.436	16058.96
809.766	16092.85
810.096	16089.92
810.426	15954.55
810.755	16019.18
811.085	15952.29
811.414	15910.49
811.744	15772.64
812.073	15793.43
812.403	15794.78
812.732	15731.51
813.061	15797.95
813.39	15628.69
813.719	15631.4
814.049	15729.7
814.378	15576.71
814.707	15473.66
815.036	15495.58
815.365	15499.87
815.693	15386.21
816.022	15376.71
816.351	15388.01
816.68	15259.66
817.008	15310.73
817.337	15162.48
817.665	15172.65
817.994	15276.6
818.322	15162.48
818.651	15099.21
818.979	15126.78
819.307	15112.77
819.636	15088.59
819.964	15063.28
820.292	15092.65
820.62	15083.39
820.948	14977.63
821.276	14938.53
821.604	15044.75
821.932	14990.96
822.259	15041.58
822.587	14912.32
822.915	14936.95
823.243	15001.81
823.57	14935.6
823.898	14901.92
824.225	14881.13
824.553	14867.58
824.88	14956.39
825.207	15002.94
825.535	15016.27
825.862	14944.18
826.189	14959.55
826.516	15051.53
826.843	15034.12
827.17	15028.7
827.497	15009.27
827.824	14990.28
828.151	15074.8
828.478	15059.66
828.805	15066.67
829.131	15002.03
829.458	15049.27
829.785	14954.35
830.111	15068.93
830.438	15046.55
830.764	15028.25
831.09	15051.3
831.417	14984.18
831.743	15028.25
832.069	14992.54
832.395	14924.75
832.722	14931.3
833.048	14919.55
833.374	14894.69
833.7	14779.44
834.026	14890.17
834.351	14932.21
834.677	14911.19
835.003	14894.69
835.329	14910.06
835.654	14881.36
835.98	14813.79
836.306	14790.29
836.631	14717.97
836.956	14860.12
837.282	14784.41
837.607	14648.82
837.932	14741.7
838.258	14675.04
838.583	14613.57
838.908	14681.37
839.233	14620.35
839.558	14509.84
839.883	14442.5
840.208	14478.21
840.533	14486.79
840.858	14444.54
841.182	14478.88
841.507	14440.47
841.832	14404.99
842.156	14268.27
842.481	14371.32
842.805	14350.07
843.13	14272.79
843.454	14285.9
843.778	14269.4
844.103	14192.56
844.427	14083.87
844.751	14141.27
845.075	14083.87
845.399	14087.93
845.723	14038.22
846.047	13960.71
846.371	13904.44
846.695	13911.44
847.019	13798.45
847.343	13711.22
847.666	13660.38
847.99	13537.67
848.313	13614.5
848.637	13435.07
848.96	13507.38
849.284	13469.65
849.607	13409.99
849.931	13298.12
850.254	13288.86
850.577	13186.72
850.9	13082.54
851.223	13105.14
851.546	13073.72
851.869	12983.1
852.192	13041.41
852.515	12931.35
852.838	12773.17
853.161	12814.52
853.483	12728.87
853.806	12681.64
854.129	12716.67
854.451	12635.09
854.774	12618.82
855.096	12506.06
855.419	12503.34
855.741	12477.81
856.063	12413.4
856.385	12382.89
856.708	12308.77
857.03	12290.02
857.352	12240.75
857.674	12169.34
857.996	12204.59
858.318	12183.58
858.64	12114.65
858.961	12092.51
859.283	12026.97
859.605	12011.61
859.926	11988.33
860.248	11972.74
860.57	11954.21
860.891	11966.63
861.212	11863.13
861.534	11881.21
861.855	11850.25
862.176	11770.71
862.498	11799.41
862.819	11795.11
863.14	11768
863.461	11743.82
863.782	11720.99
864.103	11652.29
864.424	11628.11
864.745	11624.04
865.065	11529.81
865.386	11550.37
865.707	11448.46
866.027	11565.52
866.348	11506.08
866.668	11526.65
866.989	11440.55
867.309	11382.47
867.63	11448.46
867.95	11421.79
868.27	11383.15
868.59	11368.23
868.91	11334.33
869.23	11304.05
869.55	11273.09
869.87	11344.96
870.19	11271.74
870.51	11293.88
870.83	11224.28
871.15	11170.5
871.469	11198.52
871.789	11302.25
872.109	11225.64
872.428	11097.73
872.748	11172.98
873.067	11134.34
873.386	11069.26
873.706	11021.35
874.025	11027.45
874.344	11019.77
874.663	11036.72
874.982	11026.55
875.301	11000.78
875.62	10998.98
875.939	10915.36
876.258	10893.44
876.577	10899.54
876.896	10904.52
877.214	10852.09
877.533	10865.42
877.852	10812.99
878.17	10794.91
878.489	10783.61
878.807	10815.03
879.125	10846.44
879.444	10788.59
879.762	10700.91
880.08	10730.73
880.398	10662.04
880.716	10703.84
881.034	10660.91
881.352	10649.16
881.67	10664.3
881.988	10573.9
882.306	10546.78
882.624	10554.69
882.941	10394.47
883.259	10463.4
883.577	10484.41
883.894	10497.97
884.212	10479.22
884.529	10425.88
884.846	10339.11
885.164	10311.99
885.481	10385.43
885.798	10360.35
886.115	10253.46
886.432	10305.44
886.75	10267.24
887.067	10243.52
887.383	10191.09
887.7	10147.47
888.017	10138.43
888.334	10091.88
888.651	10125.78
888.967	10011.43
889.284	10000.58
889.6	10001.49
889.917	9915.84
890.233	9955.84
890.55	9916.07
890.866	9937.99
891.182	9854.83
891.498	9813.02
891.815	9791.78
892.131	9817.31
892.447	9776.41
892.763	9665.45
893.079	9695.51
893.395	9671.78
893.71	9591.33
894.026	9613.93
894.342	9575.06
894.657	9605.79
894.973	9466.81
895.289	9495.29
895.604	9469.75
895.92	9407.83
896.235	9372.13
896.55	9326.03
896.865	9312.69
897.181	9272.24
897.496	9246.48
897.811	9214.39
898.126	9222.3
898.441	9105.01
898.756	9159.02
899.071	9120.38
899.386	9115.86
899.7	9056.43
900.015	8898.24
900.33	8895.98
900.644	8951.35
900.959	8986.37
901.273	8865.93
901.588	8806.72
901.902	8770.79
902.216	8810.11
902.531	8746.61
902.845	8720.17
903.159	8585.48
903.473	8653.95
903.787	8571.92
904.101	8553.16
904.415	8564.46
904.729	8500.06
905.042	8428.2
905.356	8418.48
905.67	8399.72
905.984	8404.24
906.297	8365.15
906.611	8293.74
906.924	8314.3
907.237	8275.88
907.551	8186.85
907.864	8218.26
908.177	8177.36
908.491	8140.07
908.804	8148.2
909.117	8044.93
909.43	8009
909.743	7997.7
910.056	7980.07
910.368	7916.8
910.681	7852.62
910.994	7909.34
911.307	7845.84
911.619	7754.54
911.932	7763.81
912.244	7769
912.557	7656.47
912.869	7737.82
913.181	7653.75
913.494	7576.24
913.806	7573.3
914.118	7576.24
914.43	7549.58
914.742	7473.65
915.054	7418.28
915.366	7437.94
915.678	7385.74
915.99	7292.18
916.302	7278.62
916.613	7228
916.925	7226.87
917.236	7267.78
917.548	7179.19
917.859	7176.7
918.171	7101.9
918.482	7108.23
918.794	7096.48
919.105	7085.18
919.416	6947.33
919.727	6979.65
920.038	6973.55
920.349	6935.35
920.66	6901.68
920.971	6925.41
921.282	6877.28
921.593	6858.97
921.903	6752.76
922.214	6752.53
922.525	6776.71
922.835	6725.87
923.146	6665.53
923.456	6669.82
923.767	6640.67
924.077	6632.31
924.387	6542.37
924.697	6528.36
925.008	6486.78
925.318	6508.92
925.628	6505.99
925.938	6459.21
926.248	6380.57
926.558	6394.35
926.867	6370.17
927.177	6335.6
927.487	6282.26
927.796	6264.64
928.106	6255.15
928.416	6234.81
928.725	6207.46
929.034	6211.08
929.344	6174.02
929.653	6135.83
929.962	6146.67
930.271	6076.17
930.581	6046.34
930.89	6056.28
931.199	6022.16
931.508	5966.34
931.817	5949.39
932.125	5967.47
932.434	5911.65
932.743	5893.8
933.051	5845.44
933.36	5863.07
933.669	5748.27
933.977	5749.4
934.286	5735.16
934.594	5745.78
934.902	5681.83
935.21	5685.44
935.519	5696.06
935.827	5670.3
936.135	5612
936.443	5613.36
936.751	5575.39
937.059	5545.11
937.367	5511.89
937.674	5544.43
937.982	5491.78
938.29	5461.27
938.597	5413.59
938.905	5369.97
939.213	5373.14
939.52	5349.18
939.827	5356.41
940.135	5323.65
940.442	5336.07
940.749	5309.18
941.056	5262.86
941.363	5224.21
941.67	5225.57
941.977	5207.26
942.284	5094.27
942.591	5132.92
942.898	5126.59
943.205	5081.17
943.511	5117.32
943.818	5070.77
944.125	5017.21
944.431	5011.34
944.738	5029.64
945.044	4965.46
945.35	4954.84
945.657	4956.2
945.963	4865.58
946.269	4824.68
946.575	4865.58
946.881	4814.28
947.187	4850.21
947.493	4791.68
947.799	4788.07
948.105	4785.35
948.41	4726.37
948.716	4728.63
949.022	4731.57
949.327	4722.31
949.633	4611.8
949.938	4631.01
950.244	4650.67
950.549	4609.99
950.854	4575.19
951.16	4596.43
951.465	4489.09
951.77	4510.56
952.075	4475.98
952.38	4442.76
952.685	4465.14
952.99	4456.55
953.294	4428.3
953.599	4463.1
953.904	4382.2
954.209	4323.45
954.513	4317.8
954.818	4361.86
955.122	4316.21
955.426	4271.02
955.731	4276.22
956.035	4222.43
956.339	4241.19
956.643	4237.57
956.948	4214.07
957.252	4156.44
957.556	4141.3
957.86	4127.07
958.163	4128.2
958.467	4107.63
958.771	4092.94
959.075	4085.26
959.378	4045.03
959.682	4055.2
959.985	4051.14
960.289	4030.57
960.592	3984.92
960.896	4007.75
961.199	3960.07
961.502	3942.21
961.805	3878.94
962.108	3890.46
962.411	3902.67
962.714	3857.02
963.017	3841.88
963.32	3880.52
963.623	3850.69
963.926	3832.16
964.228	3808.88
964.531	3760.3
964.833	3819.5
965.136	3730.47
965.438	3703.8
965.741	3748.32
966.043	3673.52
966.345	3657.7
966.648	3654.54
966.95	3671.49
967.252	3615.67
967.554	3586.97
967.856	3612.73
968.158	3565.05
968.46	3531.83
968.761	3551.71
969.063	3528.44
969.365	3526.18
969.666	3502.22
969.968	3486.63
970.269	3484.82
970.571	3489.57
970.872	3463.81
971.174	3443.24
971.475	3421.1
971.776	3363.02
972.077	3384.04
972.378	3379.74
972.679	3351.04
972.98	3353.75
973.281	3325.05
973.582	3296.13
973.883	3277.37
974.183	3274.89
974.484	3294.55
974.785	3257.48
975.085	3247.99
975.386	3267.43
975.686	3239.41
975.986	3208.45
976.287	3200.76
976.587	3090.48
976.887	3165.06
977.187	3160.76
977.487	3136.13
977.787	3109.69
978.087	3126.64
978.387	3055
978.687	3089.81
978.987	3063.37
979.286	3057.49
979.586	3012.97
979.885	3024.27
980.185	3032.18
980.484	2988.57
980.784	2984.05
981.083	2959.41
981.382	2929.36
981.682	2921.9
981.981	2906.76
982.28	2893.2
982.579	2868.57
982.878	2894.33
983.177	2877.16
983.475	2843.48
983.774	2813.88
984.073	2805.07
984.372	2794.45
984.67	2787.67
984.969	2789.02
985.267	2791.06
985.566	2772.07
985.864	2741.57
986.162	2719.19
986.461	2746.54
986.759	2763.03
987.057	2703.83
987.355	2633.32
987.653	2673.09
987.951	2669.03
988.249	2653.89
988.547	2622.7
988.844	2642.36
989.142	2608.46
989.44	2616.82
989.737	2577.95
990.035	2585.19
990.332	2543.38
990.63	2559.88
990.927	2563.94
991.224	2557.84
991.521	2546.32
991.819	2491.63
992.116	2509.71
992.413	2489.6
992.71	2455.25
993.006	2528.24
993.303	2465.42
993.6	2430.84
993.897	2451.4
994.193	2429.03
994.49	2434
994.787	2398.98
995.083	2381.8
995.379	2370.28
995.676	2351.52
995.972	2335.02
996.268	2370.95
996.565	2351.52
996.861	2332.99
997.157	2298.41
997.453	2309.71
997.749	2278.08
998.044	2288.92
998.34	2255.48
998.636	2228.13
998.932	2255.25
999.227	2262.93
999.523	2210.73
999.818	2186.55
1000.114	2190.85
1000.409	2210.73
1000.704	2142.26
1001	2158.76
1001.295	2127.12
1001.59	2134.58
1001.885	2094.58
1002.18	2116.72
1002.475	2077.18
1002.77	2124.63
1003.065	2095.48
1003.359	2053.22
1003.654	2060.45
1003.949	2016.61
1004.243	2024.3
1004.538	1991.53
1004.832	2001.02
1005.127	2011.64
1005.421	1992.21
1005.715	1957.86
1006.009	1940.23
1006.304	1941.81
1006.598	1938.42
1006.892	1920.57
1007.186	1943.62
1007.48	1907.46
1007.773	1883.51
1008.067	1864.98
1008.361	1895.26
1008.655	1859.1
1008.948	1852.78
1009.242	1843.96
1009.535	1836.96
1009.829	1838.31
1010.122	1825.66
1010.415	1791.08
1010.708	1771.42
1011.001	1787.92
1011.295	1760.35
1011.588	1745.21
1011.881	1754.47
1012.173	1701.14
1012.466	1713.57
1012.759	1728.26
1013.052	1693.68
1013.344	1716.51
1013.637	1690.07
1013.93	1674.93
1014.222	1642.61
1014.514	1638.54
1014.807	1676.51
1015.099	1645.78
1015.391	1635.38
1015.683	1603.52
1015.976	1615.95
1016.268	1609.62
1016.56	1593.12
1016.851	1612.56
1017.143	1582.5
1017.435	1547.02
1017.727	1582.95
1018.018	1554.48
1018.31	1526.91
1018.602	1534.14
1018.893	1540.47
1019.185	1489.85
1019.476	1514.48
1019.767	1527.13
1020.058	1480.58
1020.35	1472.45
1020.641	1447.59
1020.932	1433.35
1021.223	1447.59
1021.514	1406.69
1021.804	1419.79
1022.095	1403.3
1022.386	1395.84
1022.677	1392.68
1022.967	1390.87
1023.258	1378.44
1023.548	1359.23
1023.839	1371.88
1024.129	1337.31
1024.419	1342.06
1024.709	1329.63
1025	1319.91
1025.29	1295.95
1025.58	1308.16
1025.87	1307.93
1026.16	1280.81
1026.449	1265.9
1026.739	1263.41
1027.029	1257.54
1027.319	1267.71
1027.608	1220.48
1027.898	1238.78
1028.187	1227.71
1028.477	1238.1
1028.766	1199.69
1029.055	1209.18
1029.344	1194.49
1029.634	1191.32
1029.923	1187.93
1030.212	1135.05
1030.501	1158.56
1030.79	1177.09
1031.078	1154.26
1031.367	1161.95
1031.656	1137.77
1031.945	1128.95
1032.233	1100.93
1032.522	1110.42
1032.81	1084.66
1033.099	1086.92
1033.387	1109.07
1033.675	1065.9
1033.963	1090.76
1034.251	1068.84
1034.54	1084.66
1034.828	1075.85
1035.116	1039.01
1035.403	1065
1035.691	1024.55
1035.979	1025
1036.267	1019.8
1036.554	997.88
1036.842	992.01
1037.129	1018
1037.417	1020.03
1037.704	975.29
1037.992	980.03
1038.279	994.04
1038.566	957.88
1038.853	957.88
1039.14	957.88
