Data from hue_290_FLMS001491_00009.txt Node
Date: Tue Feb 07 15:52:08 GMT 2017
User: dcchb
Spectrometer: FLMS00149
Trigger mode: 0
Integration Time (sec): 2.000000E-2
Scans to average: 10
Electric dark correction enabled: true
Nonlinearity correction enabled: false
Boxcar width: 0
XAxis mode: Wavelengths
Number of Pixels in Spectrum: 2048
>>>>>Begin Spectral Data<<<<<
341.393	-44.55
341.776	-44.55
342.16	-44.55
342.543	-66.24
342.927	-79.12
343.31	-77.31
343.693	-71.44
344.077	-65.79
344.46	-66.92
344.843	-49.07
345.226	-48.16
345.61	-49.74
345.993	-13.59
346.376	-9.29
346.759	24.38
347.142	36.81
347.525	44.72
347.908	72.74
348.291	68.67
348.674	93.75
349.057	110.25
349.44	97.82
349.823	129.69
350.206	144.15
350.588	181.66
350.971	218.72
351.354	219.18
351.737	225.28
352.119	222.56
352.502	240.19
352.884	249.91
353.267	279.51
353.65	273.41
354.032	283.35
354.414	308.89
354.797	297.37
355.179	327.19
355.562	318.38
355.944	329.23
356.326	333.07
356.709	330.13
357.091	322.45
357.473	328.55
357.855	345.95
358.238	344.6
358.62	347.53
359.002	340.98
359.384	333.07
359.766	334.88
360.148	324.71
360.53	324.71
360.912	321.55
361.294	336.01
361.676	330.36
362.057	336.01
362.439	333.52
362.821	288.33
363.203	318.61
363.584	328.1
363.966	304.6
364.348	302.11
364.729	341.21
365.111	312.73
365.493	300.98
365.874	312.28
366.256	309.12
366.637	322.68
367.019	306.86
367.4	334.88
367.781	320.64
368.163	320.87
368.544	296.01
368.925	304.82
369.306	315.67
369.688	312.73
370.069	302.11
370.45	293.75
370.831	306.63
371.212	291.94
371.593	291.26
371.974	286.97
372.355	314.54
372.736	289.91
373.117	305.5
373.498	308.66
373.879	311.15
374.26	304.14
374.641	297.37
375.021	286.97
375.402	301.43
375.783	305.05
376.163	322.9
376.544	323.13
376.925	314.54
377.305	303.24
377.686	338.72
378.066	319.96
378.447	335.33
378.827	321.55
379.208	313.86
379.588	318.38
379.968	333.3
380.349	327.42
380.729	337.14
381.109	331.26
381.489	357.93
381.87	326.29
382.25	335.33
382.63	350.25
383.01	332.17
383.39	339.62
383.77	326.29
384.15	323.58
384.53	326.52
384.91	337.14
385.29	351.6
385.67	352.73
386.049	345.95
386.429	333.97
386.809	338.95
387.189	357.02
387.568	360.41
387.948	368.55
388.328	360.19
388.707	343.01
389.087	366.74
389.466	360.87
389.846	370.81
390.225	352.5
390.605	376.01
390.984	376.91
391.363	361.54
391.743	382.11
392.122	366.52
392.501	343.01
392.881	391.83
393.26	390.47
393.639	386.4
394.018	384.59
394.397	381.2
394.776	378.27
395.155	390.24
395.534	374.88
395.913	383.01
396.292	387.08
396.671	401.77
397.05	403.35
397.429	391.83
397.808	394.31
398.186	400.19
398.565	388.89
398.944	369.91
399.323	416.91
399.701	424.82
400.08	414.2
400.458	411.71
400.837	425.27
401.215	411.94
401.594	430.24
401.972	420.3
402.351	434.31
402.729	425.05
403.107	430.24
403.486	420.53
403.864	440.64
404.242	442.67
404.62	457.36
404.999	420.07
405.377	447.42
405.755	455.33
406.133	457.59
406.511	442.45
406.889	475.67
407.267	490.35
407.645	493.07
408.023	492.39
408.401	489.45
408.779	505.5
409.156	493.97
409.534	509.79
409.912	502.11
410.29	533.29
410.667	527.64
411.045	522.67
411.422	525.61
411.8	561.54
412.178	566.96
412.555	562.89
412.933	559.28
413.31	580.97
413.687	580.97
414.065	585.04
414.442	594.76
414.819	613.74
415.197	588.88
415.574	637.92
415.951	627.75
416.328	610.13
416.705	642.21
417.082	627.98
417.46	653.29
417.837	660.29
418.214	670.46
418.591	681.54
418.967	682.21
419.344	691.7
419.721	707.75
420.098	686.51
420.475	717.24
420.852	713.85
421.228	743
421.605	716.34
421.982	771.02
422.358	757.47
422.735	734.64
423.111	778.03
423.488	778.03
423.864	791.59
424.241	810.35
424.617	804.02
424.994	797.92
425.37	830.46
425.746	846.28
426.123	849.21
426.499	833.85
426.875	878.37
427.251	872.04
427.627	876.78
428.003	885.82
428.379	889.67
428.756	899.16
429.132	909.1
429.507	925.15
429.883	923.79
430.259	960.62
430.635	963.11
431.011	947.07
431.387	987.74
431.763	1002.66
432.138	1009.21
432.514	1006.72
432.89	1028.42
433.265	1025.93
433.641	1049.21
434.016	1091.69
434.392	1075.88
434.767	1117.91
435.143	1132.6
435.518	1134.18
435.894	1118.59
436.269	1145.03
436.644	1192.71
437.02	1187.96
437.395	1203.78
437.77	1174.86
438.145	1189.32
438.52	1218.02
438.895	1236.1
439.271	1242.2
439.646	1266.83
440.021	1269.77
440.395	1266.61
440.77	1256.89
441.145	1276.32
441.52	1304.8
441.895	1276.77
442.27	1317.45
442.645	1325.36
443.019	1333.27
443.394	1333.5
443.769	1346.38
444.143	1368.3
444.518	1360.16
444.892	1376.88
445.267	1380.5
445.641	1386.6
446.016	1408.07
446.39	1405.58
446.764	1411.69
447.139	1396.77
447.513	1428.18
447.887	1416.43
448.262	1416.66
448.636	1422.31
449.01	1462.53
449.384	1444.23
449.758	1478.58
450.132	1496.43
450.506	1486.03
450.88	1484
451.254	1476.09
451.628	1524.23
452.002	1509.76
452.376	1493.49
452.75	1524.45
453.123	1539.14
453.497	1577.33
453.871	1559.93
454.244	1594.05
454.618	1577.56
454.992	1605.58
455.365	1600.83
455.739	1643.32
456.112	1661.62
456.486	1628.86
456.859	1656.43
457.232	1675.41
457.606	1702.53
457.979	1719.02
458.352	1716.99
458.725	1757.89
459.099	1727.38
459.472	1787.04
459.845	1798.12
460.218	1797.44
460.591	1818.91
460.964	1813.48
461.337	1858
461.71	1886.25
462.083	1886.25
462.456	1878.11
462.829	1886.25
463.201	1881.05
463.574	1885.57
463.947	1952.69
464.32	1980.48
464.692	1988.62
465.065	2003.53
465.438	2009.64
465.81	2024.78
466.183	2020.48
466.555	2062.74
466.928	2073.82
467.3	2088.73
467.672	2121.5
468.045	2156.3
468.417	2147.26
468.789	2157.43
469.161	2159.91
469.534	2217.31
469.906	2235.85
470.278	2234.04
470.65	2290.31
471.022	2310.87
471.394	2338.22
471.766	2354.94
472.138	2366.92
472.51	2359.23
472.882	2418.89
473.253	2435.84
473.625	2477.42
473.997	2513.8
474.369	2500.92
474.74	2501.83
475.112	2580.92
475.484	2568.49
475.855	2613.69
476.227	2639.22
476.598	2715.61
476.97	2715.15
477.341	2768.71
477.713	2785.89
478.084	2807.81
478.455	2853.68
478.827	2893.23
479.198	2978.42
479.569	2961.02
479.94	3002.38
480.311	3061.59
480.682	3079.89
481.053	3105.2
481.424	3152.21
481.795	3185.2
482.166	3206.67
482.537	3208.47
482.908	3282.6
483.279	3321.69
483.65	3380.45
484.021	3419.32
484.391	3392.42
484.762	3427.45
485.133	3435.59
485.503	3487.56
485.874	3578.41
486.244	3580.89
486.615	3629.25
486.985	3673.77
487.356	3731.63
487.726	3714.9
488.097	3765.07
488.467	3843.03
488.837	3832.19
489.207	3888.46
489.578	3928.68
489.948	3935.24
490.318	3989.25
490.688	3962.13
491.058	4055.68
491.428	4074.21
491.798	4110.37
492.168	4202.57
492.538	4188.56
492.908	4255.68
493.278	4271.5
493.648	4273.98
494.017	4299.97
494.387	4395.56
494.757	4367.54
495.126	4357.37
495.496	4403.7
495.866	4413.64
496.235	4417.48
496.605	4464.26
496.974	4490.93
497.344	4515.11
497.713	4538.84
498.082	4549.91
498.452	4613.64
498.821	4624.93
499.19	4631.04
499.559	4685.05
499.928	4671.94
500.298	4698.61
500.667	4741.09
501.036	4750.36
501.405	4783.8
501.774	4808.43
502.143	4824.7
502.512	4841.2
502.88	4873.97
503.249	4853.63
503.618	4847.3
503.987	4893.85
504.356	4911.48
504.724	4896.57
505.093	4911.03
505.462	4950.35
505.83	4995.55
506.199	5020.63
506.567	5061.99
506.936	5041.42
507.304	5086.62
507.672	5145.15
508.041	5088.65
508.409	5134.07
508.777	5144.7
509.145	5162.1
509.514	5209.55
509.882	5212.49
510.25	5224.47
510.618	5211.13
510.986	5241.87
511.354	5212.94
511.722	5377.68
512.09	5345.82
512.458	5353.5
512.826	5398.7
513.193	5386.04
513.561	5387.4
513.929	5410.9
514.297	5485.7
514.664	5449.77
515.032	5488.87
515.4	5465.59
515.767	5493.61
516.135	5547.62
516.502	5466.95
516.869	5599.37
517.237	5586.04
517.604	5587.17
517.972	5628.3
518.339	5687.05
518.706	5635.3
519.073	5622.87
519.44	5682.76
519.808	5686.38
520.175	5685.25
520.542	5767.05
520.909	5769.99
521.276	5685.7
521.643	5784.23
522.009	5835.75
522.376	5829.2
522.743	5874.62
523.11	5872.13
523.477	5963.43
523.843	5929.31
524.21	6007.95
524.577	5972.7
524.943	6053.15
525.31	6040.49
525.676	6099.25
526.043	6126.82
526.409	6138.34
526.776	6168.17
527.142	6210.88
527.508	6227.83
527.874	6263.31
528.241	6325.68
528.607	6291.56
528.973	6382.18
529.339	6346.92
529.705	6413.81
530.071	6439.8
530.437	6458.33
530.803	6484.77
531.169	6489.07
531.535	6471.21
531.901	6535.39
532.267	6519.8
532.632	6577.65
532.998	6587.37
533.364	6591.89
533.73	6581.04
534.095	6727.48
534.461	6679.34
534.826	6714.6
535.192	6699
535.557	6715.28
535.923	6784.65
536.288	6768.16
536.653	6852.67
537.019	6840.92
537.384	6815.61
537.749	6893.12
538.114	6885.89
538.479	6860.13
538.845	6871.66
539.21	6877.08
539.575	6951.88
539.94	6995.95
540.305	6987.81
540.67	6964.08
541.034	7004.53
541.399	7047.24
541.764	7063.06
542.129	7056.96
542.494	7125.43
542.858	7103.74
543.223	7113.01
543.587	7161.59
543.952	7160.91
544.316	7137.86
544.681	7209.27
545.045	7249.27
545.41	7305.09
545.774	7266.9
546.138	7325.2
546.503	7331.53
546.867	7325.2
547.231	7375.37
547.595	7361.59
547.959	7375.6
548.324	7369.72
548.688	7471.41
549.052	7427.12
549.416	7440.91
549.779	7498.98
550.143	7538.76
550.507	7517.97
550.871	7536.04
551.235	7514.8
551.599	7561.35
551.962	7578.3
552.326	7650.39
552.689	7595.93
553.053	7639.32
553.417	7668.92
553.78	7796.15
554.143	7675.7
554.507	7721.12
554.87	7800.9
555.234	7797.73
555.597	7800.22
555.96	7819.2
556.323	7859.88
556.686	7818.98
557.05	7861.46
557.413	7829.14
557.776	7916.15
558.139	7926.09
558.502	7939.88
558.865	7985.3
559.228	7969.48
559.59	7998.86
559.953	7977.39
560.316	8020.55
560.679	8054.22
561.041	8117.27
561.404	8128.57
561.767	8163.37
562.129	8147.33
562.492	8257.16
562.854	8242.24
563.217	8226.65
563.579	8200.43
563.941	8334.44
564.304	8338.06
564.666	8382.8
565.028	8385.97
565.39	8386.64
565.753	8366.31
566.115	8466.64
566.477	8484.72
566.839	8510.48
567.201	8569.69
567.563	8571.72
567.925	8653.53
568.287	8650.14
568.648	8675.68
569.01	8772.4
569.372	8787.54
569.734	8743.47
570.095	8797.25
570.457	8814.88
570.819	8881.77
571.18	8918.38
571.542	8917.93
571.903	8935.33
572.265	8957.25
572.626	8975.33
572.987	9016.68
573.349	9080.64
573.71	9102.78
574.071	9183.23
574.432	9244.47
574.794	9265.26
575.155	9276.11
575.516	9321.08
575.877	9387.07
576.238	9368.31
576.599	9471.81
576.96	9501.64
577.32	9455.09
577.681	9594.75
578.042	9623.67
578.403	9652.83
578.763	9703.22
579.124	9777.79
579.485	9940.05
579.845	9951.57
580.206	9979.82
580.566	10091.46
580.927	10074.74
581.287	10192.7
581.648	10252.36
582.008	10331.68
582.368	10431.56
582.728	10544.55
583.089	10597.89
583.449	10643.53
583.809	10753.36
584.169	10891.44
584.529	10936.41
584.889	11109.51
585.249	11128.27
585.609	11237.64
585.969	11327.13
586.329	11473.34
586.688	11573
587.048	11624.52
587.408	11742.71
587.768	11893.22
588.127	12031.75
588.487	12087.34
588.846	12207.79
589.206	12368.91
589.565	12541.11
589.925	12603.71
590.284	12756.02
590.643	12970.7
591.003	13022.91
591.362	13241.21
591.721	13319.4
592.08	13448.88
592.44	13653.85
592.799	13707.63
593.158	13839.16
593.517	13927.06
593.876	14151.69
594.235	14233.95
594.593	14393.72
594.952	14528.4
595.311	14628.74
595.67	14726.14
596.029	14960.03
596.387	15090.42
596.746	15200.93
597.104	15341.49
597.463	15434.14
597.822	15557.53
598.18	15663.97
598.538	15798.2
598.897	16006.1
599.255	15984.86
599.613	16338.3
599.972	16299.43
600.33	16517.96
600.688	16492.65
601.046	16716.14
601.404	16821
601.762	16956.14
602.12	17096.25
602.478	17193.42
602.836	17252.63
603.194	17286.07
603.552	17447.42
603.91	17408.78
604.268	17702.33
604.625	17670.24
604.983	17873.85
605.341	17821.2
605.698	18046.95
606.056	18136.22
606.413	18132.15
606.771	18405.59
607.128	18467.28
607.485	18452.82
607.843	18642.65
608.2	18683.55
608.557	18791.57
608.914	18811.23
609.272	18970.55
609.629	19067.27
609.986	19240.14
610.343	19222.97
610.7	19315.62
611.057	19338.22
611.414	19354.04
611.771	19532.79
612.127	19655.95
612.484	19661.83
612.841	19803.74
613.198	19774.37
613.554	19854.59
613.911	20045.32
614.267	20017.07
614.624	20096.84
614.98	20221.59
615.337	20253.22
615.693	20189.5
616.05	20264.52
616.406	20485.99
616.762	20481.69
617.118	20425.2
617.475	20569.37
617.831	20678.75
618.187	20705.64
618.543	20644.17
618.899	20828.35
619.255	20755.58
619.611	20763.04
619.967	20898.41
620.323	20889.82
620.678	20896.37
621.034	20989.25
621.39	21031.96
621.746	20951.96
622.101	21300.65
622.457	21056.14
622.812	21194.44
623.168	21200.09
623.523	21284.84
623.879	21335.46
624.234	21149.7
624.589	21288.23
624.945	21370.03
625.3	21429.69
625.655	21438.96
626.01	21398.96
626.365	21489.8
626.72	21456.13
627.075	21446.87
627.43	21367.09
627.785	21407.32
628.14	21495.9
628.495	21552.4
628.85	21490.48
629.205	21484.83
629.559	21582.23
629.914	21462.01
630.269	21572.06
630.623	21393.08
630.978	21445.51
631.332	21641.44
631.687	21580.87
632.041	21536.81
632.396	21572.06
632.75	21492.51
633.104	21475.34
633.459	21482.12
633.813	21391.05
634.167	21386.08
634.521	21451.61
634.875	21491.84
635.229	21375.45
635.583	21377.49
635.937	21341.56
636.291	21349.47
636.645	21340.43
636.999	21257.49
637.352	21342.69
637.706	21140.21
638.06	21207.1
638.413	21305.85
638.767	21236.25
639.121	21139.53
639.474	21142.24
639.828	21182.69
640.181	21279.19
640.534	21137.27
640.888	21142.92
641.241	21115.8
641.594	21160.77
641.947	21156.25
642.301	21088.91
642.654	21244.16
643.007	21108.8
643.36	21141.56
643.713	21118.74
644.066	21226.76
644.419	21098.63
644.771	20991.96
645.124	20757.84
645.477	20726.21
645.83	20602.59
646.182	20514.91
646.535	20515.82
646.888	20540.22
647.24	20387.23
647.593	20602.59
647.945	20479.43
648.298	20374.58
648.65	20371.41
649.002	20326.89
649.355	20503.84
649.707	20452.99
650.059	20529.83
650.411	20819.09
650.763	20762.36
651.115	21035.58
651.467	20998.06
651.819	20996.03
652.171	20938.18
652.523	20842.59
652.875	20942.02
653.227	20808.92
653.578	20986.76
653.93	20979.08
654.282	20829.93
654.633	20797.62
654.985	20881.91
655.337	20936.82
655.688	20905.86
656.039	21006.43
656.391	20864.28
656.742	20842.59
657.094	20838.29
657.445	20923.04
657.796	20857.28
658.147	20923.49
658.498	20837.16
658.849	20939.53
659.2	20807.56
659.551	20900.21
659.902	20931.62
660.253	20944.05
660.604	20909.93
660.955	20897.05
661.306	20962.13
661.656	20970.27
662.007	20962.36
662.358	20993.54
662.708	21015.01
663.059	20978.18
663.409	20841.23
663.76	20970.04
664.11	21133.2
664.461	20987.89
664.811	21136.14
665.161	21066.54
665.511	20972.75
665.862	20959.65
666.212	21127.1
666.562	21152.86
666.912	20996.71
667.262	20969.59
667.612	21011.17
667.962	20989.7
668.312	20953.77
668.662	21023.83
669.011	20951.74
669.361	20912.19
669.711	20952.42
670.06	20942.47
670.41	20813.89
670.76	20866.77
671.109	20900.67
671.459	20918.52
671.808	20938.18
672.157	20848.01
672.507	20738.64
672.856	20825.86
673.205	20848.92
673.554	20965.97
673.904	20883.94
674.253	20909.93
674.602	20751.52
674.951	20529.38
675.3	20440.34
675.649	20759.88
675.998	20657.51
676.346	20649.82
676.695	20761.46
677.044	20551.75
677.393	20676.49
677.741	20741.8
678.09	20604.85
678.438	20505.87
678.787	20569.6
679.135	20562.82
679.484	20441.02
679.832	20511.3
680.181	20384.97
680.529	20451.19
680.877	20399.89
681.225	20483.95
681.573	20451.19
681.922	20281.47
682.27	20366.22
682.618	20228.82
682.966	20328.48
683.314	20311.98
683.661	20224.75
684.009	20074.25
684.357	20057.52
684.705	20008.94
685.053	20039.22
685.4	20007.81
685.748	19874.03
686.095	19829.28
686.443	19892.33
686.79	19777.53
687.138	19835.16
687.485	19831.31
687.832	19786.34
688.18	19760.13
688.527	19671.54
688.874	19559.23
689.221	19506.35
689.568	19468.84
689.915	19373.7
690.262	19434.94
690.609	19313.81
690.956	19211.22
691.303	19233.82
691.65	19130.54
691.997	19244.66
692.344	19052.35
692.69	19011.68
693.037	18932.81
693.383	18828.18
693.73	18904.11
694.077	18730.55
694.423	18806.93
694.769	18670.67
695.116	18642.65
695.462	18613.95
695.808	18548.18
696.155	18578.24
696.501	18462.54
696.847	18411.47
697.193	18237.91
697.539	18315.65
697.885	18076.78
698.231	18146.84
698.577	18109.55
698.923	17978.26
699.269	17897.58
699.614	17896.45
699.96	17823.01
700.306	17776.68
700.651	17684.93
700.997	17689
701.342	17659.62
701.688	17534.2
702.033	17446.29
702.379	17424.82
702.724	17442.45
703.069	17458.5
703.415	17256.92
703.76	17276.58
704.105	17189.58
704.45	17206.98
704.795	17004.72
705.14	17077.04
705.485	16924.05
705.83	16876.59
706.175	16880.88
706.52	16882.24
706.865	16783.94
707.209	16799.3
707.554	16660.55
707.899	16720.21
708.243	16563.15
708.588	16577.39
708.932	16367.45
709.277	16414.68
709.621	16448.35
709.966	16283.16
710.31	16402.25
710.654	16202.03
710.998	16311.18
711.342	16172.2
711.687	16203.39
712.031	16144.86
712.375	16120
712.719	16086.33
713.063	16070.96
713.407	16074.8
713.75	16030.28
714.094	15941.47
714.438	15907.8
714.782	15835.71
715.125	15838.88
715.469	15896.05
715.812	15790.07
716.156	15654.25
716.499	15717.3
716.843	15708.71
717.186	15572.22
717.53	15612.44
717.873	15541.94
718.216	15595.49
718.559	15516.4
718.902	15416.06
719.246	15479.34
719.589	15371.32
719.932	15343.07
720.275	15399.79
720.617	15409.96
720.96	15349.62
721.303	15370.42
721.646	15332.68
721.989	15335.84
722.331	15269.4
722.674	15281.38
723.016	15279.12
723.359	15162.96
723.701	15271.21
724.044	15230.98
724.386	15115.96
724.729	15169.52
725.071	15101.95
725.413	15144.43
725.755	15093.59
726.097	15110.76
726.439	15005
726.782	15050.42
727.124	15117.31
727.465	15015.4
727.807	15049.07
728.149	14957.09
728.491	14979.69
728.833	14959.13
729.175	14936.08
729.516	14896.08
729.858	14902.4
730.199	14965.23
730.541	14851.78
730.882	14779.02
731.224	14943.53
731.565	14835.06
731.906	14927.94
732.248	14914.83
732.589	14854.04
732.93	14772.46
733.271	14836.64
733.612	14812.46
733.953	14873.93
734.294	14848.62
734.635	14762.3
734.976	14851.56
735.317	14758
735.658	14729.75
735.999	14719.13
736.339	14767.95
736.68	14854.5
737.021	14844.78
737.361	14688.63
737.702	14841.39
738.042	14837.55
738.383	14778.34
738.723	14786.02
739.063	14763.88
739.404	14848.62
739.744	14844.1
740.084	14780.15
740.424	14889.52
740.764	14832.12
741.104	14864.67
741.444	14768.17
741.784	14779.02
742.124	14866.93
742.464	14903.31
742.804	14919.58
743.143	14813.14
743.483	14823.08
743.823	14872.35
744.162	14892.69
744.502	14947.83
744.841	14855.85
745.181	15051.33
745.52	15001.61
745.86	15137.88
746.199	15021.72
746.538	15152.57
746.877	15247.71
747.216	15220.59
747.556	15214.94
747.895	15341.26
748.234	15255.84
748.573	15331.09
748.911	15424.88
749.25	15439.34
749.589	15567.47
749.928	15584.19
750.267	15709.39
750.605	15713.46
750.944	15810.4
751.283	15775.6
751.621	15941.7
751.96	15931.76
752.298	16124.97
752.636	16104.41
752.975	16165.87
753.313	16264.85
753.651	16356.83
753.989	16430.27
754.327	16600.21
754.666	16609.7
755.004	16776.93
755.342	16943.71
755.679	16989.81
756.017	17090.14
756.355	17162.01
756.693	17227.99
757.031	17428.21
757.368	17472.28
757.706	17581.2
758.044	17710.69
758.381	17788.2
758.719	17856
759.056	18017.58
759.394	18078.37
759.731	18090.34
760.068	18221.87
760.405	18357.46
760.743	18457.57
761.08	18633.83
761.417	18615.53
761.754	18766.94
762.091	18920.83
762.428	19055.29
762.765	18969.42
763.102	19259.58
763.438	19189.98
763.775	19227.04
764.112	19467.03
764.449	19552
764.785	19580.7
765.122	19556.75
765.458	19592.68
765.795	19674.48
766.131	19880.58
766.467	19846.23
766.804	19895.49
767.14	19856.85
767.476	19883.74
767.812	20005.1
768.148	20120.35
768.485	20102.72
768.821	20062.27
769.157	20109.05
769.492	20183.85
769.828	20202.83
770.164	20184.75
770.5	20156.96
770.836	20280.12
771.171	20278.31
771.507	20336.61
771.842	20189.27
772.178	20329.61
772.513	20343.17
772.849	20313.11
773.184	20401.92
773.519	20377.06
773.855	20250.29
774.19	20346.1
774.525	20306.1
774.86	20284.64
775.195	20363.5
775.53	20304.52
775.865	20212.55
776.2	20076.05
776.535	20092.1
776.87	20088.26
777.205	20055.04
777.539	20095.94
777.874	20107.24
778.209	19987.69
778.543	20023.85
778.878	19854.14
779.212	19909.5
779.547	19844.65
779.881	20066.56
780.215	19746.35
780.55	19953.8
780.884	19759.45
781.218	19761.71
781.552	19648.49
781.886	19580.47
782.22	19657.31
782.554	19603.75
782.888	19407.6
783.222	19520.14
783.556	19314.72
783.889	19342.74
784.223	19260.48
784.557	19254.38
784.89	19205.12
785.224	19169.19
785.557	19060.26
785.891	18961.96
786.224	19022.3
786.558	18951.34
786.891	18836.76
787.224	18833.83
787.557	18829.76
787.891	18755.86
788.224	18718.35
788.557	18733.94
788.89	18708.41
789.223	18772.36
789.556	18474.51
789.888	18456.89
790.221	18457.57
790.554	18350.45
790.887	18293.95
791.219	18306.16
791.552	18227.06
791.884	18154.75
792.217	18151.13
792.549	18114.75
792.882	17924.25
793.214	17922.21
793.546	18040.63
793.879	17857.13
794.211	17805.61
794.543	17832.27
794.875	17652.84
795.207	17816
795.539	17684.25
795.871	17645.61
796.203	17568.78
796.535	17479.96
796.867	17458.04
797.198	17408.55
797.53	17346.18
797.862	17330.82
798.193	17341.66
798.525	17161.55
798.856	17227.54
799.188	16965.85
799.519	17026.87
799.85	16905.97
800.182	16885.4
800.513	16927.21
800.844	16737.16
801.175	16840.88
801.506	16845.18
801.837	16757.05
802.168	16740.32
802.499	16663.49
802.83	16512.31
803.161	16524.28
803.491	16515.24
803.822	16468.24
804.153	16510.27
804.483	16323.84
804.814	16166.78
805.145	16178.76
805.475	16221.47
805.805	16185.53
806.136	16129.49
806.466	16157.96
806.796	16064.63
807.126	15971.76
807.457	15902.38
807.787	15994.81
808.117	15880.01
808.447	15808.14
808.777	15838.88
809.107	15892.44
809.436	15769.27
809.766	15641.59
810.096	15689.28
810.426	15678.2
810.755	15538.55
811.085	15550.07
811.414	15458.55
811.744	15380.13
812.073	15391.21
812.403	15426.23
812.732	15359.79
813.061	15392.34
813.39	15284.99
813.719	15135.17
814.049	15315.05
814.378	15214.49
814.707	15172.68
815.036	15053.36
815.365	15078.9
815.693	14948.96
816.022	14940.6
816.351	14901.5
816.68	14748.96
817.008	14844.55
817.337	14755.06
817.665	14701.28
817.994	14739.92
818.322	14715.52
818.651	14559.14
818.979	14590.1
819.307	14648.4
819.636	14561.17
819.964	14522.08
820.292	14600.94
820.62	14533.15
820.948	14481.85
821.276	14584.9
821.604	14471
821.932	14537.89
822.259	14527.95
822.587	14481.4
822.915	14507.61
823.243	14538.57
823.57	14368.18
823.898	14445.47
824.225	14398.46
824.553	14444.79
824.88	14414.73
825.207	14446.37
825.535	14436.88
825.862	14463.55
826.189	14410.21
826.516	14445.92
826.843	14489.76
827.17	14472.59
827.497	14456.09
827.824	14402.76
828.151	14448.86
828.478	14422.42
828.805	14524.56
829.131	14502.64
829.458	14386.49
829.785	14395.07
830.111	14344.91
830.438	14504.68
830.764	14387.16
831.09	14418.35
831.417	14378.35
831.743	14435.98
832.069	14397.33
832.395	14303.32
832.722	14373.61
833.048	14380.61
833.374	14324.57
833.7	14335.87
834.026	14262.65
834.351	14314.62
834.677	14299.93
835.003	14318.92
835.329	14289.99
835.654	14259.26
835.98	14180.62
836.306	14202.54
836.631	14259.26
836.956	14148.07
837.282	14153.72
837.607	14174.29
837.932	14092.48
838.258	14059.94
838.583	14088.41
838.908	14002.77
839.233	14009.32
839.558	13982.43
839.883	13904.69
840.208	13835.99
840.533	13828.76
840.858	13905.37
841.182	13955.31
841.507	13823.79
841.832	13828.99
842.156	13809.55
842.481	13807.74
842.805	13714.41
843.13	13726.16
843.454	13610.24
843.778	13597.81
844.103	13539.95
844.427	13609.56
844.751	13548.54
845.075	13455.89
845.399	13484.14
845.723	13308.55
846.047	13461.09
846.371	13244.82
846.695	13315.1
847.019	13148.1
847.343	13162.79
847.666	13064.04
847.99	13050.7
848.313	13040.98
848.637	12974.55
848.96	12814.55
849.284	12888.45
849.607	12725.29
849.931	12728.45
850.254	12655.68
850.577	12592.63
850.9	12437.16
851.223	12428.57
851.546	12455.01
851.869	12357.61
852.192	12467.44
852.515	12303.15
852.838	12251.4
853.161	12238.52
853.483	12140.44
853.806	12143.61
854.129	12088.92
854.451	12117.39
854.774	12043.27
855.096	11930.73
855.419	11935.25
855.741	11979.32
856.063	11866.55
856.385	11804.63
856.708	11753.11
857.03	11754.46
857.352	11719.44
857.674	11590.85
857.996	11634.69
858.318	11567.35
858.64	11602.6
858.961	11624.07
859.283	11530.52
859.605	11456.85
859.926	11436.51
860.248	11473.79
860.57	11393.57
860.891	11442.16
861.212	11381.82
861.534	11277.87
861.855	11286
862.176	11332.1
862.498	11324.42
862.819	11260.47
863.14	11283.74
863.461	11229.51
863.782	11157.87
864.103	11155.38
864.424	11141.15
864.745	11161.71
865.065	11140.47
865.386	11129.4
865.707	11055.5
866.027	11098.21
866.348	11008.27
866.668	10944.99
866.989	10994.03
867.309	10883.08
867.63	10977.31
867.95	10936.41
868.27	10882.62
868.59	10850.31
868.91	10835.62
869.23	10818.22
869.55	10761.72
869.87	10866.8
870.19	10788.84
870.51	10818.22
870.83	10779.35
871.15	10672.23
871.469	10682.85
871.789	10697.77
872.109	10652.35
872.428	10570.09
872.748	10648.28
873.067	10618.22
873.386	10642.86
873.706	10557.66
874.025	10568.51
874.344	10523.99
874.663	10511.11
874.982	10542.75
875.301	10538.45
875.62	10444.44
875.939	10448.51
876.258	10485.35
876.577	10386.14
876.896	10372.58
877.214	10348.17
877.533	10360.38
877.852	10376.87
878.17	10287.16
878.489	10368.74
878.807	10335.75
879.125	10265.46
879.444	10219.59
879.762	10239.48
880.08	10269.76
880.398	10241.51
880.716	10293.26
881.034	10222.98
881.352	10129.42
881.67	10166.03
881.988	10175.52
882.306	10107.73
882.624	10093.04
882.941	10030.22
883.259	9999.93
883.577	9997.9
883.894	10001.97
884.212	9916.32
884.529	9946.38
884.846	9909.09
885.164	9888.98
885.481	9862.99
885.798	9872.71
886.115	9752.03
886.432	9766.04
886.75	9730.34
887.067	9837.23
887.383	9716.1
887.7	9763.33
888.017	9727.85
888.334	9716.78
888.651	9637.46
888.967	9581.19
889.284	9517.46
889.6	9533.51
889.917	9535.31
890.233	9501.42
890.55	9444.92
890.866	9444.02
891.182	9405.83
891.498	9417.13
891.815	9345.04
892.131	9297.13
892.447	9274.53
892.763	9237.02
893.079	9253.51
893.395	9180.52
893.71	9137.81
894.026	9098.72
894.342	9163.8
894.657	9049.68
894.973	9090.35
895.289	8986.63
895.604	9044.03
895.92	9016.46
896.235	8956.57
896.55	8916.8
896.865	8928.32
897.181	8893.07
897.496	8839.97
897.811	8833.64
898.126	8779.18
898.441	8747.54
898.756	8719.29
899.071	8719.06
899.386	8568.11
899.7	8583.7
900.015	8551.84
900.33	8496.02
900.644	8508.45
900.959	8459.64
901.273	8481.1
901.588	8410.15
901.902	8365.18
902.216	8368.57
902.531	8396.81
902.845	8273.88
903.159	8268
903.473	8262.13
903.787	8173.32
904.101	8157.27
904.415	8180.55
904.729	8058.29
905.042	8065.75
905.356	8047.9
905.67	7985.3
905.984	8059.42
906.297	8041.79
906.611	7944.17
906.924	7942.81
907.237	7880.67
907.551	7861.69
907.864	7827.56
908.177	7795.02
908.491	7809.26
908.804	7770.16
909.117	7710.5
909.43	7691.75
909.743	7603.84
910.056	7649.71
910.368	7593.44
910.681	7585.08
910.994	7565.42
911.307	7558.42
911.619	7449.04
911.932	7496.95
912.244	7371.76
912.557	7356.84
912.869	7334.02
913.181	7311.64
913.494	7240.91
913.806	7217.86
914.118	7198.65
914.43	7138.09
914.742	7160.46
915.054	7107.81
915.366	7053.8
915.678	7052.44
915.99	7058.77
916.302	7004.53
916.613	6943.97
916.925	6991.2
917.236	6951.88
917.548	6915.72
917.859	6900.36
918.171	6814.93
918.482	6821.49
918.794	6747.59
919.105	6758.66
919.416	6717.08
919.727	6742.62
920.038	6685.9
920.349	6659.91
920.66	6608.16
920.971	6565.22
921.282	6539.23
921.593	6487.48
921.903	6515.51
922.214	6512.57
922.525	6450.42
922.835	6428.5
923.146	6391.67
923.456	6375.4
923.767	6279.35
924.077	6328.17
924.387	6315.06
924.697	6271.45
925.008	6254.27
925.318	6227.83
925.628	6178.79
925.938	6174.95
926.248	6122.75
926.558	6063.54
926.867	6059.47
927.177	6043.43
927.487	6016.76
927.796	5955.97
928.106	5912.13
928.416	5927.95
928.725	5936.54
929.034	5885.92
929.344	5917.56
929.653	5882.98
929.962	5824.23
930.271	5804.11
930.581	5738.58
930.89	5720.27
931.199	5695.42
931.508	5696.32
931.817	5687.28
932.125	5671.24
932.434	5631.01
932.743	5577.9
933.051	5588.75
933.36	5530.67
933.669	5548.07
933.977	5447.29
934.286	5487.96
934.594	5484.57
934.902	5461.3
935.21	5448.64
935.519	5404.58
935.827	5368.87
936.135	5334.52
936.443	5306.27
936.751	5291.36
937.059	5323.67
937.367	5281.87
937.674	5223.79
937.982	5270.12
938.29	5170.68
938.597	5151.47
938.905	5144.47
939.213	5129.1
939.52	5085.49
939.827	5076.22
940.135	5080.06
940.442	5000.97
940.749	5032.61
941.056	5021.08
941.363	4940.63
941.67	5020.86
941.977	4891.59
942.284	4897.02
942.591	4884.59
942.898	4879.62
943.205	4865.61
943.511	4797.36
943.818	4794.87
944.125	4798.94
944.431	4768.89
944.738	4781.54
945.044	4696.8
945.35	4667.42
945.657	4657.02
945.963	4633.97
946.269	4622.68
946.575	4610.47
946.881	4603.01
947.187	4569.34
947.493	4531.6
947.799	4568.21
948.105	4517.59
948.41	4492.06
948.716	4487.76
949.022	4447.54
949.327	4422.23
949.633	4431.27
949.938	4382.91
950.244	4451.83
950.549	4343.13
950.854	4344.04
951.16	4317.6
951.465	4328.67
951.77	4284.6
952.075	4255
952.38	4270.37
952.685	4200.54
952.99	4210.03
953.294	4200.09
953.599	4206.19
953.904	4172.52
954.209	4126.64
954.513	4092.07
954.818	4073.76
955.122	4063.82
955.426	4058.62
955.731	4031.96
956.035	4044.84
956.339	4013.43
956.643	4008.45
956.948	3976.59
957.252	3951.51
957.556	3912.19
957.86	3899.08
958.163	3948.34
958.467	3907.44
958.771	3862.7
959.075	3859.76
959.378	3806.88
959.682	3879.42
959.985	3830.15
960.289	3788.12
960.592	3785.63
960.896	3770.95
961.199	3751.96
961.502	3714.45
961.805	3739.53
962.108	3726.43
962.411	3669.71
962.714	3662.7
963.017	3674
963.32	3670.38
963.623	3659.54
963.926	3636.03
964.228	3587.22
964.531	3557.62
964.833	3571.86
965.136	3543.16
965.438	3527.34
965.741	3485.08
966.043	3478.52
966.345	3458.41
966.648	3488.47
966.95	3464.51
967.252	3464.97
967.554	3399.2
967.856	3427.68
968.158	3386.78
968.46	3383.16
968.761	3351.07
969.063	3314.69
969.365	3357.17
969.666	3314.23
969.968	3279.66
970.269	3279.89
970.571	3243.73
970.872	3268.13
971.174	3256.61
971.475	3242.82
971.776	3222.71
972.077	3161.47
972.378	3165.99
972.679	3176.39
972.98	3139.1
973.281	3144.97
973.582	3116.73
973.883	3121.02
974.183	3098.87
974.484	3073.11
974.785	3091.42
975.085	3061.81
975.386	3098.42
975.686	3037.41
975.986	3009.38
976.287	3006.22
976.587	2971.42
976.887	2993.79
977.187	3004.64
977.487	2951.53
977.787	2888.71
978.087	2927.35
978.387	2909.5
978.687	2904.53
978.987	2919.67
979.286	2895.49
979.586	2845.77
979.885	2816.85
980.185	2848.26
980.484	2820.69
980.784	2788.6
981.083	2803.29
981.382	2805.55
981.682	2794.47
981.981	2756.96
982.28	2748.15
982.579	2722.16
982.878	2753.35
983.177	2707.7
983.475	2704.76
983.774	2737.3
984.073	2654.37
984.372	2636.96
984.67	2657.98
984.969	2636.29
985.267	2588.83
985.566	2607.81
985.864	2629.06
986.162	2635.83
986.461	2584.99
986.759	2577.31
987.057	2549.74
987.355	2567.36
987.653	2523.52
987.951	2551.09
988.249	2497.08
988.547	2538.44
988.844	2494.37
989.142	2512
989.44	2441.49
989.737	2450.3
990.035	2418.67
990.332	2411.43
990.63	2423.41
990.927	2430.64
991.224	2389.29
991.521	2377.76
991.819	2400.13
992.116	2345.67
992.413	2355.62
992.71	2327.59
993.006	2319.68
993.303	2318.78
993.6	2318.78
993.897	2293.7
994.193	2311.32
994.49	2299.12
994.787	2293.92
995.083	2242.62
995.379	2236.98
995.676	2219.57
995.972	2225.22
996.268	2191.33
996.565	2199.46
996.861	2156.98
997.157	2190.87
997.453	2180.48
997.749	2143.19
998.044	2117.88
998.34	2123.53
998.636	2123.53
998.932	2113.36
999.227	2081.5
999.523	2068.84
999.818	2089.18
1000.114	2099.13
1000.409	2083.76
1000.704	2054.83
1001	2030.88
1001.295	2018.22
1001.59	2025.68
1001.885	2008.73
1002.18	1994.27
1002.475	1937.32
1002.77	1988.62
1003.065	1977.55
1003.359	1961.5
1003.654	1941.62
1003.949	1917.66
1004.243	1920.6
1004.538	1917.89
1004.832	1879.7
1005.127	1908.85
1005.421	1882.86
1005.715	1885.57
1006.009	1862.97
1006.304	1833.37
1006.598	1807.83
1006.892	1824.1
1007.186	1832.24
1007.48	1821.84
1007.773	1811.9
1008.067	1776.42
1008.361	1773.03
1008.655	1735.07
1008.948	1756.08
1009.242	1732.58
1009.535	1739.14
1009.829	1741.17
1010.122	1698.46
1010.415	1705.01
1010.708	1693.71
1011.001	1663.43
1011.295	1675.41
1011.588	1673.15
1011.881	1658.01
1012.173	1673.6
1012.466	1629.99
1012.759	1631.34
1013.052	1622.98
1013.344	1610.78
1013.637	1602.87
1013.93	1593.15
1014.222	1561.96
1014.514	1573.94
1014.807	1567.84
1015.099	1529.42
1015.391	1519.48
1015.683	1550.44
1015.976	1543.43
1016.268	1533.49
1016.56	1507.95
1016.851	1492.59
1017.143	1475.64
1017.435	1485.81
1017.727	1486.71
1018.018	1464.57
1018.31	1444
1018.602	1467.5
1018.893	1438.35
1019.185	1435.87
1019.476	1415.53
1019.767	1416.66
1020.058	1396.55
1020.35	1397.9
1020.641	1382.08
1020.932	1346.83
1021.223	1350.9
1021.514	1340.5
1021.804	1366.04
1022.095	1330.33
1022.386	1326.04
1022.677	1317.45
1022.967	1302.54
1023.258	1304.12
1023.548	1303.89
1023.839	1282.2
1024.129	1247.85
1024.419	1257.11
1024.709	1239.94
1025	1265.7
1025.29	1213.95
1025.58	1216.21
1025.87	1251.46
1026.16	1217.11
1026.449	1213.95
1026.739	1200.39
1027.029	1178.02
1027.319	1196.32
1027.608	1180.05
1027.898	1164.69
1028.187	1156.33
1028.477	1195.19
1028.766	1143.44
1029.055	1134.18
1029.344	1158.59
1029.634	1119.26
1029.923	1126.72
1030.212	1121.75
1030.501	1104.35
1030.79	1113.39
1031.078	1111.58
1031.367	1092.15
1031.656	1112.03
1031.945	1068.64
1032.233	1091.69
1032.522	1053.05
1032.81	1067.97
1033.099	1054.41
1033.387	1042.43
1033.675	1042.2
1033.963	1012.83
1034.251	1023
1034.54	1015.76
1034.828	995.88
1035.116	1005.14
1035.403	1017.8
1035.691	962.66
1035.979	995.88
1036.267	953.84
1036.554	984.58
1036.842	945.48
1037.129	973.28
1037.417	952.49
1037.704	968.08
1037.992	946.84
1038.279	933.28
1038.566	907.52
1038.853	907.52
1039.14	907.52
