Data from hue_160_FLMS001491_00067.txt Node
Date: Tue Feb 07 16:51:31 GMT 2017
User: dcchb
Spectrometer: FLMS00149
Trigger mode: 0
Integration Time (sec): 2.000000E-2
Scans to average: 10
Electric dark correction enabled: true
Nonlinearity correction enabled: false
Boxcar width: 0
XAxis mode: Wavelengths
Number of Pixels in Spectrum: 2048
>>>>>Begin Spectral Data<<<<<
341.393	-1.34
341.776	-1.34
342.16	-1.34
342.543	-63.49
342.927	-82.92
343.31	-56.26
343.693	-67.55
344.077	-69.59
344.46	-30.95
344.843	-66.2
345.226	-43.6
345.61	-45.63
345.993	-18.52
346.376	-9.48
346.759	11.54
347.142	19.9
347.525	49.73
347.908	42.95
348.291	83.85
348.674	92.89
349.057	106.9
349.44	127.69
349.823	148.03
350.206	187.35
350.588	183.74
350.971	204.08
351.354	209.27
351.737	223.51
352.119	239.1
352.502	263.28
352.884	265.32
353.267	301.02
353.65	275.94
354.032	285.88
354.414	307.58
354.797	330.63
355.179	293.11
355.562	336.73
355.944	327.69
356.326	326.56
356.709	353.23
357.091	324.3
357.473	342.83
357.855	324.98
358.238	346.67
358.62	334.92
359.002	345.77
359.384	324.53
359.766	322.04
360.148	339.89
360.53	353.23
360.912	333.34
361.294	345.99
361.676	331.3
362.057	310.51
362.439	295.37
362.821	331.53
363.203	310.06
363.584	318.65
363.966	312.1
364.348	318.42
364.729	299.22
365.111	313.9
365.493	341.02
365.874	327.69
366.256	318.42
366.637	331.53
367.019	288.14
367.4	330.85
367.781	322.27
368.163	317.97
368.544	305.09
368.925	297.63
369.306	311.87
369.688	294.02
370.069	320.68
370.45	312.55
370.831	296.05
371.212	316.62
371.593	321.36
371.974	322.49
372.355	311.42
372.736	305.32
373.117	303.73
373.498	308.71
373.879	327.24
374.26	305.99
374.641	310.06
375.021	339.89
375.402	340.12
375.783	320.68
376.163	321.14
376.544	320.46
376.925	312.77
377.305	327.01
377.686	320.23
378.066	328.37
378.447	333.11
378.827	316.62
379.208	331.98
379.588	341.7
379.968	324.3
380.349	321.14
380.729	342.83
381.109	359.55
381.489	342.83
381.87	346.22
382.25	331.53
382.63	353.45
383.01	317.29
383.39	338.54
383.77	327.46
384.15	355.49
384.53	332.89
384.91	340.57
385.29	320.68
385.67	342.6
386.049	347.8
386.429	339.21
386.809	331.08
387.189	382.83
387.568	352.55
387.948	366.11
388.328	334.02
388.707	361.59
389.087	349.16
389.466	345.77
389.846	362.49
390.225	362.72
390.605	365.65
390.984	375.82
391.363	389.16
391.743	360.46
392.122	362.72
392.501	358.2
392.881	379.44
393.26	386.44
393.639	380.57
394.018	366.33
394.397	357.07
394.776	384.64
395.155	390.29
395.534	388.03
395.913	380.8
396.292	382.6
396.671	387.8
397.05	407.69
397.429	407.01
397.808	399.1
398.186	398.2
398.565	381.92
398.944	411.75
399.323	390.29
399.701	398.87
400.08	399.33
400.458	380.57
400.837	396.61
401.215	416.73
401.594	414.24
401.972	408.82
402.351	396.84
402.729	418.08
403.107	425.31
403.486	417.18
403.864	426.9
404.242	424.64
404.62	416.27
404.999	407.01
405.377	421.92
405.755	423.96
406.133	425.31
406.511	419.89
406.889	439.1
407.267	440.68
407.645	452.66
408.023	443.17
408.401	440
408.779	436.39
409.156	465.54
409.534	473
409.912	466.22
410.29	464.18
410.667	434.35
411.045	443.62
411.422	463.96
411.8	485.88
412.178	466.67
412.555	487.46
412.933	488.14
413.31	514.35
413.687	484.97
414.065	490.85
414.442	470.28
414.819	511.41
415.197	504.63
415.574	510.74
415.951	515.93
416.328	511.19
416.705	500.11
417.082	525.2
417.46	532.2
417.837	532.88
418.214	553.22
418.591	532.43
418.967	550.73
419.344	540.56
419.721	564.75
420.098	529.27
420.475	537.85
420.852	552.77
421.228	519.32
421.605	556.61
421.982	563.39
422.358	548.7
422.735	583.73
423.111	560.23
423.488	585.54
423.864	583.73
424.241	588.02
424.617	572.88
424.994	621.69
425.37	614.91
425.746	616.72
426.123	597.74
426.499	609.72
426.875	628.02
427.251	599.55
427.627	629.15
428.003	629.38
428.379	641.58
428.756	641.81
429.132	637.96
429.507	623.27
429.883	667.34
430.259	668.25
430.635	695.59
431.011	662.6
431.387	677.51
431.763	694.46
432.138	690.62
432.514	692.65
432.89	732.2
433.265	686.1
433.641	731.52
434.016	736.27
434.392	714.57
434.767	739.2
435.143	736.27
435.518	767.45
435.894	757.06
436.269	742.59
436.644	771.07
437.02	783.72
437.395	763.38
437.77	808.35
438.145	795.25
438.52	831.18
438.895	841.57
439.271	799.77
439.646	858.07
440.021	849.48
440.395	858.75
440.77	856.26
441.145	855.36
441.52	861.01
441.895	870.5
442.27	891.29
442.645	876.83
443.019	885.41
443.394	901.69
443.769	907.56
444.143	902.82
444.518	925.19
444.892	906.2
445.267	924.28
445.641	917.5
446.016	947.56
446.39	915.92
446.764	967.67
447.139	948.46
447.513	988.01
447.887	981.01
448.262	947.56
448.636	994.11
449.01	962.25
449.384	981.68
449.758	1001.57
450.132	1001.8
450.506	982.81
450.88	1010.16
451.254	1054
451.628	1025.98
452.002	1037.73
452.376	1073.66
452.75	1072.08
453.123	1095.13
453.497	1086.31
453.871	1104.17
454.244	1118.85
454.618	1120.66
454.992	1136.71
455.365	1153.88
455.739	1160.89
456.112	1173.09
456.486	1183.71
456.859	1179.87
457.232	1216.03
457.606	1206.08
457.979	1244.05
458.352	1266.65
458.725	1257.16
459.099	1289.02
459.472	1305.52
459.845	1309.13
460.218	1343.26
460.591	1335.8
460.964	1373.99
461.337	1389.36
461.71	1397.94
462.083	1424.16
462.456	1395.91
462.829	1455.8
463.201	1471.61
463.574	1471.39
463.947	1500.99
464.32	1540.09
464.692	1538.96
465.065	1559.75
465.438	1589.58
465.81	1616.02
466.183	1640.65
466.555	1679.07
466.928	1699.4
467.3	1716.35
467.672	1729.69
468.045	1778.95
468.417	1741.89
468.789	1772.17
469.161	1820.31
469.534	1831.38
469.906	1931.04
470.278	1919.51
470.65	1947.76
471.022	1991.83
471.394	2048.77
471.766	2048.32
472.138	2130.13
472.51	2166.51
472.882	2203.57
473.253	2229.11
473.625	2271.37
473.997	2334.64
474.369	2376.45
474.74	2441.08
475.112	2493.28
475.484	2543
475.855	2587.06
476.227	2620.06
476.598	2751.35
476.97	2760.62
477.341	2833.61
477.713	2962.2
478.084	2955.19
478.455	3030.67
478.827	3093.49
479.198	3232.25
479.569	3259.14
479.94	3375.97
480.311	3403.31
480.682	3557.21
481.053	3670.65
481.424	3758.56
481.795	3807.82
482.166	3927.14
482.537	4016.63
482.908	4131.66
483.279	4217.76
483.65	4292.56
484.021	4409.84
484.391	4518.99
484.762	4568.93
485.133	4675.6
485.503	4794.24
485.874	4975.93
486.244	5043.72
486.615	5202.59
486.985	5285.98
487.356	5438.06
487.726	5544.5
488.097	5708.79
488.467	5798.05
488.837	5954.89
489.207	6071.27
489.578	6191.04
489.948	6297.93
490.318	6495.89
490.688	6523.23
491.058	6682.55
491.428	6845.48
491.798	6928.42
492.168	7115.08
492.538	7190.56
492.908	7370.89
493.278	7513.94
493.648	7603.43
494.017	7705.35
494.387	7848.62
494.757	7953.48
495.126	8134.94
495.496	8213.81
495.866	8299.23
496.235	8412.67
496.605	8567.25
496.974	8688.15
497.344	8798.88
497.713	8823.51
498.082	8923.62
498.452	9108.25
498.821	9145.54
499.19	9261.69
499.559	9408.81
499.928	9517.73
500.298	9584.39
500.667	9677.73
501.036	9701.91
501.405	9835.46
501.774	9818.29
502.143	9999.75
502.512	10082.69
502.88	10139.63
503.249	10120.65
503.618	10267.77
503.987	10340.08
504.356	10497.59
504.724	10560.19
505.093	10525.16
505.462	10666.17
505.83	10770.35
506.199	10826.4
506.567	10920.18
506.936	10965.83
507.304	11125.6
507.672	11065.03
508.041	11119.5
508.409	11178.93
508.777	11322.65
509.145	11320.17
509.514	11344.57
509.882	11400.39
510.25	11438.36
510.618	11520.62
510.986	11513.38
511.354	11667.28
511.722	11746.82
512.09	11815.97
512.458	11762.42
512.826	11826.6
513.193	11879.7
513.561	11855.52
513.929	12009.19
514.297	12075.85
514.664	12090.54
515.032	12206.02
515.4	12209.86
515.767	12248.05
516.135	12273.14
516.502	12151.11
516.869	12327.37
517.237	12351.33
517.604	12294.61
517.972	12362.17
518.339	12466.8
518.706	12442.4
519.073	12556.97
519.44	12556.75
519.808	12598.78
520.175	12610.98
520.542	12713.13
520.909	12754.71
521.276	12702.96
521.643	12735.95
522.009	12800.13
522.376	12741.83
522.743	12876.06
523.11	12937.75
523.477	12991.08
523.843	12963.97
524.21	13067.92
524.577	13111.53
524.943	13059.33
525.31	13034.25
525.676	13178.2
526.043	13175.71
526.409	13243.28
526.776	13264.75
527.142	13220.91
527.508	13273.34
527.874	13289.61
528.241	13338.19
528.607	13251.19
528.973	13397.18
529.339	13317.4
529.705	13375.71
530.071	13376.61
530.437	13337.97
530.803	13420.23
531.169	13481.02
531.535	13311.53
531.901	13321.47
532.267	13323.96
532.632	13250.06
532.998	13282.38
533.364	13351.75
533.73	13314.24
534.095	13403.73
534.461	13382.49
534.826	13261.36
535.192	13335.26
535.557	13413.67
535.923	13319.44
536.288	13245.54
536.653	13232.21
537.019	13227.69
537.384	13142.72
537.749	13156.96
538.114	13133
538.479	13144.75
538.845	13092.33
539.21	13073.12
539.575	13096.84
539.94	12994.7
540.305	12986.11
540.67	12926.68
541.034	12946.34
541.399	12926
541.764	12935.72
542.129	12901.14
542.494	12843.97
542.858	12875.16
543.223	12776.4
543.587	12787.02
543.952	12708.61
544.316	12754.26
544.681	12691.43
545.045	12675.84
545.41	12748.83
545.774	12623.64
546.138	12511.55
546.503	12551.77
546.867	12443.98
547.231	12507.48
547.595	12478.33
547.959	12453.02
548.324	12330.31
548.688	12395.39
549.052	12384.77
549.416	12349.52
549.779	12225.68
550.143	12258.67
550.507	12288.28
550.871	12253.7
551.235	12154.27
551.599	12174.16
551.962	12178.9
552.326	12126.7
552.689	12220.48
553.053	12032.92
553.417	12095.97
553.78	12078.79
554.143	11982.3
554.507	12084.22
554.87	12009.87
555.234	12027.72
555.597	12056.87
555.96	11963.99
556.323	11943.65
556.686	11972.35
557.05	12049.41
557.413	11966.93
557.776	11934.84
558.139	11936.88
558.502	11903.2
558.865	11894.39
559.228	11877.22
559.59	11995.4
559.953	11815.07
560.316	11908.85
560.679	11891.45
561.041	11926.48
561.404	11923.32
561.767	12015.29
562.129	11913.37
562.492	11974.84
562.854	11896.42
563.217	11946.14
563.579	11919.93
563.941	12028.85
564.304	12055.29
564.666	12076.08
565.028	12025.46
565.39	12038.34
565.753	12025.46
566.115	12067.95
566.477	12176.42
566.839	12073.14
567.201	12170.99
567.563	12125.35
567.925	12225
568.287	12112.69
568.648	12181.84
569.01	12223.65
569.372	12272.69
569.734	12100.03
570.095	12222.52
570.457	12281.73
570.819	12279.47
571.18	12210.99
571.542	12289.18
571.903	12281.73
572.265	12243.53
572.626	12315.4
572.987	12317.66
573.349	12388.16
573.71	12338.22
574.071	12428.61
574.432	12271.1
574.794	12477.2
575.155	12425
575.516	12408.28
575.877	12340.93
576.238	12341.38
576.599	12434.94
576.96	12430.42
577.32	12377.54
577.681	12406.47
578.042	12467.26
578.403	12462.51
578.763	12443.08
579.124	12432.46
579.485	12444.21
579.845	12461.16
580.206	12476.07
580.566	12470.19
580.927	12394.49
581.287	12481.49
581.648	12408.5
582.008	12435.17
582.368	12420.93
582.728	12476.75
583.089	12425
583.449	12390.87
583.809	12407.15
584.169	12368.05
584.529	12402.85
584.889	12464.32
585.249	12432.68
585.609	12345.45
585.969	12403.53
586.329	12362.63
586.688	12345
587.048	12343.19
587.408	12243.53
587.768	12365.79
588.127	12280.14
588.487	12291.89
588.846	12389.52
589.206	12275.4
589.565	12259.35
589.925	12335.51
590.284	12237.43
590.643	12303.87
591.003	12267.49
591.362	12342.51
591.721	12328.28
592.08	12271.33
592.44	12327.6
592.799	12207.83
593.158	12287.15
593.517	12284.89
593.876	12260.71
594.235	12285.79
594.593	12246.47
594.952	12288.73
595.311	12238.56
595.67	12242.86
596.029	12220.03
596.387	12317.88
596.746	12201.5
597.104	12161.73
597.463	12236.98
597.822	12225
598.18	12178.68
598.538	12189.75
598.897	12179.81
599.255	12085.8
599.613	12266.36
599.972	12201.5
600.33	12140.26
600.688	12173.93
601.046	12227.49
601.404	12267.04
601.762	12223.42
602.12	12213.93
602.478	12270.43
602.836	12189.52
603.194	12210.09
603.552	12179.13
603.91	12077.44
604.268	12254.38
604.625	12213.25
604.983	12194.5
605.341	12146.59
605.698	12214.38
606.056	12298.22
606.413	12224.1
606.771	12245.57
607.128	12281.95
607.485	12194.72
607.843	12289.41
608.2	12324.89
608.557	12281.95
608.914	12223.2
609.272	12337.54
609.629	12330.31
609.986	12409.63
610.343	12334.38
610.7	12352.23
611.057	12378.67
611.414	12309.29
611.771	12396.52
612.127	12353.59
612.484	12375.96
612.841	12448.5
613.198	12353.81
613.554	12396.75
613.911	12421.61
614.267	12381.38
614.624	12383.87
614.98	12377.54
615.337	12404.21
615.693	12455.28
616.05	12447.14
616.406	12612.11
616.762	12467.71
617.118	12431.78
617.475	12493.7
617.831	12535.96
618.187	12474.26
618.543	12504.32
618.899	12611.43
619.255	12592.9
619.611	12554.71
619.967	12548.16
620.323	12652.56
620.678	12579.12
621.034	12563.07
621.39	12542.51
621.746	12540.48
622.101	12663.64
622.457	12604.65
622.812	12554.03
623.168	12619.12
623.523	12597.65
623.879	12607.14
624.234	12585.9
624.589	12635.84
624.945	12654.14
625.3	12622.51
625.655	12594.49
626.01	12585.45
626.365	12581.15
626.72	12579.57
627.075	12563.98
627.43	12500.25
627.785	12582.73
628.14	12673.13
628.495	12547.48
628.85	12562.4
629.205	12563.98
629.559	12553.58
629.914	12542.28
630.269	12582.96
630.623	12545.22
630.978	12436.52
631.332	12498.89
631.687	12540.02
632.041	12478.1
632.396	12476.75
632.75	12404.21
633.104	12513.58
633.459	12397.65
633.813	12377.99
634.167	12388.16
634.521	12390.2
634.875	12328.96
635.229	12387.94
635.583	12326.47
635.937	12332.57
636.291	12275.17
636.645	12250.99
636.999	12221.39
637.352	12302.74
637.706	12235.4
638.06	12250.09
638.413	12228.62
638.767	12212.57
639.121	12144.78
639.474	12199.24
639.828	12191.78
640.181	12188.62
640.534	12195.63
640.888	12098.91
641.241	12066.59
641.594	12038.12
641.947	12074.05
642.301	12040.15
642.654	12041.96
643.007	12073.59
643.36	12083.31
643.713	12084.67
644.066	12130.09
644.419	12006.48
644.771	11967.16
645.124	11898.46
645.477	11764.9
645.83	11714.28
646.182	11749.31
646.535	11673.61
646.888	11647.17
647.24	11587.05
647.593	11690.1
647.945	11673.83
648.298	11599.26
648.65	11593.16
649.002	11506.15
649.355	11591.35
649.707	11597.45
650.059	11761.74
650.411	11800.61
650.763	11785.47
651.115	11866.59
651.467	11856.2
651.819	11840.61
652.171	11809.42
652.523	11797.67
652.875	11859.36
653.227	11778.01
653.578	11889.19
653.93	11842.41
654.282	11755.64
654.633	11702.98
654.985	11846.93
655.337	11880.15
655.688	11822.08
656.039	11896.65
656.391	11800.61
656.742	11812.13
657.094	11819.14
657.445	11845.35
657.796	11935.75
658.147	11808.52
658.498	11849.19
658.849	11899.81
659.2	11873.6
659.551	11891.23
659.902	11863.88
660.253	11896.88
660.604	11873.83
660.955	11877.44
661.306	11869.76
661.656	11832.7
662.007	11855.3
662.358	11905.69
662.708	11864.11
663.059	11883.32
663.409	11749.99
663.76	11914.28
664.11	11836.99
664.461	11914.73
664.811	11886.03
665.161	11905.69
665.511	11854.39
665.862	11923.09
666.212	11955.63
666.562	11870.21
666.912	11888.06
667.262	11904.33
667.612	11870.21
667.962	11943.88
668.312	11855.75
668.662	11878.57
669.011	11931
669.361	11864.11
669.711	11846.03
670.06	11800.61
670.41	11837.67
670.76	11755.64
671.109	11888.74
671.459	11817.56
671.808	11837.67
672.157	11852.13
672.507	11678.58
672.856	11806.71
673.205	11714.73
673.554	11742.53
673.904	11759.93
674.253	11808.07
674.602	11825.92
674.951	11613.49
675.3	11576.66
675.649	11733.26
675.998	11704.34
676.346	11693.49
676.695	11759.48
677.044	11602.65
677.393	11754.28
677.741	11656.43
678.09	11643.32
678.438	11627.73
678.787	11629.99
679.135	11657.79
679.484	11538.02
679.832	11591.12
680.181	11487.85
680.529	11523.55
680.877	11554.96
681.225	11518.13
681.573	11504.12
681.922	11454.85
682.27	11386.16
682.618	11423.89
682.966	11394.52
683.314	11427.51
683.661	11361.52
684.009	11351.35
684.357	11286.5
684.705	11337.12
685.053	11307.97
685.4	11250.79
685.748	11181.19
686.095	11129.21
686.443	11119.5
686.79	11122.43
687.138	11229.78
687.485	11170.34
687.832	11106.61
688.18	11116.56
688.527	11093.06
688.874	11000.85
689.221	10971.03
689.568	10907.07
689.915	10938.03
690.262	10856.45
690.609	10887.64
690.956	10828.88
691.303	10833.18
691.65	10683.35
691.997	10757.7
692.344	10692.61
692.69	10644.71
693.037	10620.3
693.383	10540.3
693.73	10572.62
694.077	10582.56
694.423	10508.66
694.769	10461.89
695.116	10420.76
695.462	10322.91
695.808	10404.49
696.155	10338.73
696.501	10265.51
696.847	10323.81
697.193	10153.65
697.539	10256.47
697.885	10166.3
698.231	10078.85
698.577	10157.71
698.923	10070.03
699.269	10051.73
699.614	10014.89
699.96	9882.24
700.306	9970.6
700.651	9851.51
700.997	9863.26
701.342	9822.35
701.688	9902.35
702.033	9753.88
702.379	9811.73
702.724	9747.55
703.069	9775.58
703.415	9606.99
703.76	9592.76
704.105	9619.65
704.45	9635.69
704.795	9499.2
705.14	9468.24
705.485	9463.49
705.83	9440.44
706.175	9458.07
706.52	9372.42
706.865	9417.62
707.209	9331.75
707.554	9293.1
707.899	9227.57
708.243	9247.45
708.588	9212.43
708.932	9199.77
709.277	9196.83
709.621	9169.04
709.966	9013.34
710.31	9129.49
710.654	9001.36
710.998	9073.22
711.342	9037.29
711.687	9025.31
712.031	8952.77
712.375	8999.1
712.719	8940.34
713.063	8929.04
713.407	8950.74
713.75	8913
714.094	8887.69
714.438	8846.11
714.782	8843.4
715.125	8854.24
715.469	8800.91
715.812	8804.08
716.156	8770.63
716.499	8756.17
716.843	8831.42
717.186	8652.89
717.53	8715.94
717.873	8731.08
718.216	8667.81
718.559	8683.85
718.902	8655.15
719.246	8683.18
719.589	8643.18
719.932	8601.14
720.275	8627.13
720.617	8558.66
720.96	8563.86
721.303	8539.22
721.646	8652.22
721.989	8515.72
722.331	8574.7
722.674	8529.96
723.016	8489.28
723.359	8539
723.701	8501.49
724.044	8507.36
724.386	8426.69
724.729	8448.83
725.071	8466.68
725.413	8471.66
725.755	8455.84
726.097	8412
726.439	8421.94
726.782	8403.86
727.124	8506.46
727.465	8420.36
727.807	8421.94
728.149	8391.21
728.491	8338.55
728.833	8407.25
729.175	8371.32
729.516	8376.07
729.858	8397.31
730.199	8390.98
730.541	8420.81
730.882	8366.35
731.224	8401.6
731.565	8367.7
731.906	8337.2
732.248	8317.31
732.589	8349.63
732.93	8364.31
733.271	8279.34
733.612	8356.86
733.953	8339.23
734.294	8216.3
734.635	8375.39
734.976	8263.98
735.317	8339.23
735.658	8318.89
735.999	8275.5
736.339	8334.94
736.68	8343.3
737.021	8327.03
737.361	8291.77
737.702	8320.93
738.042	8400.7
738.383	8322.28
738.723	8344.43
739.063	8376.07
739.404	8395.5
739.744	8403.18
740.084	8377.65
740.424	8390.75
740.764	8325.67
741.104	8503.29
741.444	8449.74
741.784	8417.19
742.124	8400.25
742.464	8442.5
742.804	8454.03
743.143	8487.93
743.483	8448.38
743.823	8468.72
744.162	8562.95
744.502	8515.95
744.841	8526.57
745.181	8610.18
745.52	8604.53
745.86	8636.85
746.199	8636.17
746.538	8626.91
746.877	8753.68
747.216	8790.74
747.556	8817.18
747.895	8887.69
748.234	8865.09
748.573	8901.47
748.911	8955.03
749.25	9034.58
749.589	9037.97
749.928	9149.6
750.267	9209.94
750.605	9338.98
750.944	9309.15
751.283	9395.25
751.621	9515.7
751.96	9569.71
752.298	9644.05
752.636	9823.26
752.975	9844.28
753.313	9856.48
753.651	10038.39
753.989	10061.44
754.327	10173.98
754.666	10255.11
755.004	10379.85
755.342	10544.6
755.679	10628.21
756.017	10705.5
756.355	10856.68
756.693	10976
757.031	11182.54
757.368	11270.45
757.706	11356.1
758.044	11473.61
758.381	11635.87
758.719	11746.15
759.056	12059.36
759.394	12015.74
759.731	12210.54
760.068	12319.01
760.405	12515.62
760.743	12559.23
761.08	12782.05
761.417	12947.7
761.754	13072.44
762.091	13251.42
762.428	13326.9
762.765	13413.9
763.102	13755.81
763.438	13839.88
763.775	14028.35
764.112	14189.25
764.449	14241.67
764.785	14347.89
765.122	14517.6
765.458	14642.79
765.795	14766.86
766.131	15029.22
766.467	15092.5
766.804	15179.05
767.14	15360.74
767.476	15527.97
767.812	15588.3
768.148	15840.28
768.485	15848.41
768.821	15995.07
769.157	16097.44
769.492	16211.79
769.828	16328.17
770.164	16351.45
770.5	16506.25
770.836	16672.12
771.171	16742.4
771.507	16768.84
771.842	16854.26
772.178	16946.46
772.513	17030.75
772.849	17091.77
773.184	17157.08
773.519	17383.06
773.855	17349.61
774.19	17351.87
774.525	17399.1
774.86	17587.12
775.195	17578.99
775.53	17742.82
775.865	17730.17
776.2	17649.27
776.535	17605.43
776.87	17763.16
777.205	17722.49
777.539	17764.52
777.874	18009.71
778.209	17874.35
778.543	17974.23
778.878	17883.39
779.212	17977.85
779.547	17869.6
779.881	18086.09
780.215	17973.1
780.55	18137.39
780.884	17895.81
781.218	17974.91
781.552	18120.67
781.886	18063.04
782.22	18041.8
782.554	18023.72
782.888	17982.59
783.222	17990.28
783.556	17908.02
783.889	17964.74
784.223	17861.24
784.557	17896.04
784.89	17936.72
785.224	17903.05
785.557	17813.78
785.891	17830.05
786.224	17853.33
786.558	17908.7
786.891	17679.32
787.224	17755.71
787.557	17664.41
787.891	17775.14
788.224	17740.11
788.557	17716.16
788.89	17751.41
789.223	17686.78
789.556	17586.9
789.888	17615.14
790.221	17598.65
790.554	17488.37
790.887	17511.87
791.219	17475.03
791.552	17458.76
791.884	17355.72
792.217	17441.82
792.549	17341.71
792.882	17312.55
793.214	17212.67
793.546	17299.9
793.879	17233.91
794.211	17111.2
794.543	17173.35
794.875	17084.99
795.207	17247.02
795.539	17069.17
795.871	17167.7
796.203	16952.11
796.535	16936.07
796.867	16879.12
797.198	16855.84
797.53	16870.08
797.862	16773.81
798.193	16873.92
798.525	16757.77
798.856	16777.2
799.188	16533.14
799.519	16510.99
799.85	16491.33
800.182	16396.65
800.513	16549.18
800.844	16342.86
801.175	16488.17
801.506	16496.53
801.837	16347.15
802.168	16310.77
802.499	16308.51
802.83	16202.3
803.161	16132.92
803.491	16134.51
803.822	16061.29
804.153	16144
804.483	16033.49
804.814	15896.55
805.145	15890.67
805.475	16006.82
805.805	15871.01
806.136	15826.72
806.466	15930.44
806.796	15803.44
807.126	15690.22
807.457	15690.45
807.787	15657.68
808.117	15612.48
808.447	15589.89
808.777	15583.56
809.107	15609.32
809.436	15487.29
809.766	15446.84
810.096	15367.52
810.426	15353.06
810.755	15384.92
811.085	15417.91
811.414	15382.89
811.744	15287.52
812.073	15171.37
812.403	15250.91
812.732	15207.3
813.061	15213.85
813.39	15089.56
813.719	15078.94
814.049	15118.03
814.378	15061.31
814.707	15079.39
815.036	15007.76
815.365	14932.05
815.693	14787.65
816.022	14827.19
816.351	14816.8
816.68	14716.46
817.008	14813.41
817.337	14639.63
817.665	14635.56
817.994	14671.27
818.322	14645.28
818.651	14624.71
818.979	14559.86
819.307	14600.08
819.636	14661.32
819.964	14476.24
820.292	14522.57
820.62	14552.4
820.948	14491.84
821.276	14551.95
821.604	14469.46
821.932	14526.64
822.259	14547.43
822.587	14493.19
822.915	14487.99
823.243	14492.51
823.57	14463.36
823.898	14408.45
824.225	14435.11
824.553	14441.22
824.88	14508.11
825.207	14465.4
825.535	14480.31
825.862	14494.1
826.189	14423.36
826.516	14465.62
826.843	14556.92
827.17	14503.59
827.497	14552.17
827.824	14547.43
828.151	14586.07
828.478	14461.1
828.805	14591.49
829.131	14465.62
829.458	14464.27
829.785	14440.99
830.111	14524.15
830.438	14534.1
830.764	14468.33
831.09	14518.5
831.417	14484.61
831.743	14499.97
832.069	14493.87
832.395	14418.17
832.722	14483.02
833.048	14351.73
833.374	14428.11
833.7	14412.97
834.026	14401.44
834.351	14374.1
834.677	14428.79
835.003	14381.56
835.329	14297.72
835.654	14328.9
835.98	14261.11
836.306	14233.54
836.631	14262.69
836.956	14371.16
837.282	14295.01
837.607	14257.94
837.932	14183.82
838.258	14187.89
838.583	14163.48
838.908	14053.88
839.233	14130.04
839.558	14099.08
839.883	14060.44
840.208	13944.73
840.533	13924.62
840.858	13945.86
841.182	14026.31
841.507	13908.12
841.832	13937.73
842.156	13905.19
842.481	13907.45
842.805	13959.87
843.13	13884.62
843.454	13845.53
843.778	13731.4
844.103	13696.6
844.427	13699.99
844.751	13658.19
845.075	13630.62
845.399	13615.48
845.723	13474.01
846.047	13527.57
846.371	13400.79
846.695	13479.66
847.019	13340.45
847.343	13198.31
847.666	13238.08
847.99	13147.92
848.313	13182.27
848.637	13067.47
848.96	13129.16
849.284	12915.38
849.607	12818.43
849.931	12845.33
850.254	12745.67
850.577	12780.7
850.9	12601.94
851.223	12657.76
851.546	12592.68
851.869	12559.68
852.192	12524.88
852.515	12432.23
852.838	12370.08
853.161	12345.9
853.483	12261.39
853.806	12294.15
854.129	12265
854.451	12210.77
854.774	12155.4
855.096	12121.28
855.419	12028.85
855.741	12081.73
856.063	11961.06
856.385	11953.37
856.708	11940.49
857.03	11814.84
857.352	11985.01
857.674	11846.71
857.996	11804.68
858.318	11711.12
858.64	11702.31
858.961	11699.37
859.283	11629.99
859.605	11568.98
859.926	11625.7
860.248	11540.95
860.57	11494.4
860.891	11518.36
861.212	11450.56
861.534	11455.08
861.855	11323.11
862.176	11420.28
862.498	11410.11
862.819	11320.85
863.14	11286.72
863.461	11263.9
863.782	11315.65
864.103	11332.82
864.424	11230.45
864.745	11193.17
865.065	11210.34
865.386	11126.05
865.707	11173.28
866.027	11100.29
866.348	11119.95
866.668	11132.83
866.989	11111.59
867.309	11057.35
867.63	11100.74
867.95	11076.11
868.27	10978.26
868.59	11000.4
868.91	10944.36
869.23	11024.36
869.55	10896.22
869.87	10885.15
870.19	10874.08
870.51	10902.55
870.83	11006.05
871.15	10839.5
871.469	10790.24
871.789	10876.11
872.109	10859.84
872.428	10780.3
872.748	10837.24
873.067	10771.93
873.386	10713.18
873.706	10723.12
874.025	10689
874.344	10636.8
874.663	10695.33
874.982	10672.05
875.301	10636.57
875.62	10573.3
875.939	10524.71
876.258	10567.42
876.577	10596.12
876.896	10557.02
877.214	10481.77
877.533	10622.11
877.852	10427.99
878.17	10520.19
878.489	10470.02
878.807	10437.48
879.125	10484.26
879.444	10502.79
879.762	10458.95
880.08	10412.62
880.398	10322.68
880.716	10360.65
881.034	10350.7
881.352	10298.95
881.67	10286.98
881.988	10261.21
882.306	10243.13
882.624	10195
882.941	10140.31
883.259	10075.23
883.577	10062.35
883.894	10113.42
884.212	10091.27
884.529	10124.27
884.846	10065.06
885.164	10002.01
885.481	10006.76
885.798	9994.78
886.115	9933.09
886.432	9907.78
886.75	9917.72
887.067	9933.99
887.383	9782.13
887.7	9853.54
888.017	9794.56
888.334	9764.05
888.651	9748.46
888.967	9726.76
889.284	9740.1
889.6	9625.3
889.917	9680.89
890.233	9602.25
890.55	9593.66
890.866	9638.86
891.182	9534
891.498	9527.45
891.815	9476.38
892.131	9500.1
892.447	9440.67
892.763	9413.78
893.079	9403.83
893.395	9312.31
893.71	9264.18
894.026	9306.89
894.342	9292.43
894.657	9200.68
894.973	9200.9
895.289	9190.28
895.604	9228.92
895.92	9058.31
896.235	9000.46
896.55	9100.57
896.865	9010.17
897.181	9017.18
897.496	9022.15
897.811	8959.78
898.126	8875.26
898.441	8823.51
898.756	8873.68
899.071	8769.95
899.386	8747.35
899.7	8747.13
900.015	8679.56
900.33	8594.14
900.644	8599.11
900.959	8588.04
901.273	8589.62
901.588	8546.46
901.902	8448.38
902.216	8459.9
902.531	8457.87
902.845	8414.48
903.159	8393.47
903.473	8374.48
903.787	8302.85
904.101	8214.94
904.415	8239.12
904.729	8264.43
905.042	8210.87
905.356	8108.05
905.67	8143.3
905.984	8165.68
906.297	8072.8
906.611	8073.47
906.924	8032.8
907.237	7960.48
907.551	7911.9
907.864	7913.25
908.177	7887.26
908.491	7830.99
908.804	7802.29
909.117	7815.85
909.43	7719.59
909.743	7699.25
910.056	7696.53
910.368	7629.87
910.681	7551.45
910.994	7562.3
911.307	7583.77
911.619	7436.2
911.932	7547.39
912.244	7471
912.557	7442.98
912.869	7374.74
913.181	7364.34
913.494	7355.53
913.806	7300.61
914.118	7274.63
914.43	7224.46
914.742	7275.53
915.054	7223.78
915.366	7109.88
915.678	7090.22
915.99	7118.92
916.302	7031.47
916.613	6989.66
916.925	6986.5
917.236	6959.15
917.548	6946.72
917.859	6963.45
918.171	6848.2
918.482	6862.66
918.794	6854.52
919.105	6818.14
919.416	6768.2
919.727	6758.71
920.038	6765.03
920.349	6668.09
920.66	6677.8
920.971	6675.77
921.282	6633.51
921.593	6604.81
921.903	6542.44
922.214	6528.43
922.525	6550.8
922.835	6505.15
923.146	6407.3
923.456	6451.14
923.767	6403.46
924.077	6367.3
924.387	6363.24
924.697	6339.73
925.008	6330.47
925.318	6273.75
925.628	6285.95
925.938	6276.23
926.248	6159.4
926.558	6197.82
926.867	6187.2
927.177	6127.54
927.487	6157.14
927.796	6059.29
928.106	6066.07
928.416	5987.43
928.725	6020.19
929.034	5988.33
929.344	5940.87
929.653	5961.21
929.962	5918.95
930.271	5883.02
930.581	5851.61
930.89	5843.25
931.199	5784.49
931.508	5789.24
931.817	5767.32
932.125	5808.22
932.434	5704.72
932.743	5660.88
933.051	5636.48
933.36	5705.63
933.669	5611.62
933.977	5604.16
934.286	5618.85
934.594	5548.79
934.902	5487.78
935.21	5464.96
935.519	5440.1
935.827	5474.67
936.135	5418.63
936.443	5396.71
936.751	5380.89
937.059	5387.9
937.367	5335.24
937.674	5299.99
937.982	5330.95
938.29	5270.84
938.597	5277.62
938.905	5239.42
939.213	5244.17
939.52	5212.31
939.827	5173.21
940.135	5154.23
940.442	5156.94
940.749	5063.61
941.056	5155.13
941.363	5043.05
941.67	5062.71
941.977	5046.89
942.284	4988.58
942.591	4972.54
942.898	4949.71
943.205	4960.34
943.511	4926.66
943.818	4933.22
944.125	4887.12
944.431	4874.46
944.738	4869.49
945.044	4852.54
945.35	4815.03
945.657	4805.99
945.963	4755.6
946.269	4725.09
946.575	4695.26
946.881	4710.85
947.187	4728.7
947.493	4637.86
947.799	4643.06
948.105	4591.53
948.41	4628.14
948.716	4624.75
949.022	4578.2
949.327	4581.81
949.633	4513.34
949.938	4549.73
950.244	4497.3
950.549	4455.26
950.854	4442.84
951.16	4447.58
951.465	4397.19
951.77	4379.79
952.075	4348.15
952.38	4346.79
952.685	4336.4
952.99	4309.05
953.294	4310.41
953.599	4289.17
953.904	4229.96
954.209	4216.85
954.513	4261.6
954.818	4213.01
955.122	4178.21
955.426	4152.9
955.731	4134.82
956.035	4141.15
956.339	4118.55
956.643	4104.76
956.948	4047.37
957.252	4062.96
957.556	4030.42
957.86	4037.42
958.163	4024.54
958.467	3984.77
958.771	3952
959.075	3981.6
959.378	3948.84
959.682	3946.8
959.985	3902.06
960.289	3856.86
960.592	3858.44
960.896	3856.64
961.199	3822.74
961.502	3830.65
961.805	3819.35
962.108	3797.65
962.411	3814.6
962.714	3772.12
963.017	3708.84
963.32	3716.3
963.623	3738.9
963.926	3731.44
964.228	3679.24
964.531	3665
964.833	3635.17
965.136	3635.62
965.438	3606.25
965.741	3584.1
966.043	3598.79
966.345	3558.56
966.648	3582.29
966.95	3522.41
967.252	3517.89
967.554	3498.91
967.856	3446.48
968.158	3473.6
968.46	3473.6
968.761	3440.15
969.063	3413.48
969.365	3438.79
969.666	3427.04
969.968	3374.16
970.269	3371
970.571	3334.62
970.872	3365.8
971.174	3341.17
971.475	3295.29
971.776	3289.65
972.077	3295.75
972.378	3273.15
972.679	3237.67
972.98	3266.14
973.281	3185.92
973.582	3207.16
973.883	3183.66
974.183	3226.82
974.484	3178.24
974.785	3147.05
975.085	3156.09
975.386	3122.64
975.686	3108.18
975.986	3110.44
976.287	3079.71
976.587	3075.19
976.887	3075.19
977.187	3053.72
977.487	3016.66
977.787	3040.39
978.087	3012.36
978.387	2962.42
978.687	2987.73
978.987	2969.43
979.286	2945.02
979.586	2955.19
979.885	2944.12
980.185	2948.41
980.484	2889.2
980.784	2877.45
981.083	2891.69
981.382	2877.68
981.682	2851.24
981.981	2876.32
982.28	2851.01
982.579	2797.23
982.878	2771.47
983.177	2796.32
983.475	2797.68
983.774	2765.37
984.073	2726.95
984.372	2720.85
984.67	2720.17
984.969	2774.18
985.267	2726.5
985.566	2690.56
985.864	2677.23
986.162	2645.82
986.461	2646.27
986.759	2621.64
987.057	2612.83
987.355	2610.34
987.653	2631.13
987.951	2582.77
988.249	2602.43
988.547	2571.25
988.844	2568.99
989.142	2547.52
989.44	2517.91
989.737	2555.88
990.035	2514.3
990.332	2522.66
990.63	2513.17
990.927	2474.07
991.224	2481.76
991.521	2462.1
991.819	2460.74
992.116	2443.11
992.413	2446.28
992.71	2436.33
993.006	2418.48
993.303	2399.05
993.6	2385.04
993.897	2355.43
994.193	2370.57
994.49	2339.61
994.787	2342.33
995.083	2305.26
995.379	2328.31
995.676	2281.31
995.972	2294.64
996.268	2281.08
996.565	2271.37
996.861	2235.66
997.157	2235.66
997.453	2192.5
997.749	2209.9
998.044	2206.51
998.34	2151.14
998.636	2194.08
998.932	2164.48
999.227	2158.6
999.523	2133.07
999.818	2171.48
1000.114	2127.19
1000.409	2121.77
1000.704	2087.19
1001	2097.36
1001.295	2061.43
1001.59	2083.8
1001.885	2065.04
1002.18	2051.94
1002.475	2050.36
1002.77	2041.77
1003.065	2021.66
1003.359	1971.26
1003.654	2004.71
1003.949	1979.4
1004.243	1964.26
1004.538	1968.1
1004.832	1947.31
1005.127	1954.31
1005.421	1944.82
1005.715	1916.57
1006.009	1902.34
1006.304	1905.73
1006.598	1914.77
1006.892	1856.24
1007.186	1850.13
1007.48	1865.73
1007.773	1860.98
1008.067	1827.54
1008.361	1842
1008.655	1826.86
1008.948	1803.36
1009.242	1832.06
1009.535	1788.89
1009.829	1804.26
1010.122	1755.9
1010.415	1747.09
1010.708	1760.19
1011.001	1745.5
1011.295	1745.5
1011.588	1728.33
1011.881	1691.95
1012.173	1677.26
1012.466	1682.68
1012.759	1681.1
1013.052	1679.97
1013.344	1669.57
1013.637	1655.56
1013.93	1603.36
1014.222	1646.3
1014.514	1612.63
1014.807	1594.77
1015.099	1588.45
1015.391	1601.55
1015.683	1583.7
1015.976	1600.88
1016.268	1584.15
1016.56	1569.46
1016.851	1557.26
1017.143	1533.31
1017.435	1521.78
1017.727	1485.4
1018.018	1521.56
1018.31	1482.24
1018.602	1510.93
1018.893	1462.57
1019.185	1480.2
1019.476	1472.07
1019.767	1475.68
1020.058	1435.68
1020.35	1385.97
1020.641	1418.06
1020.932	1439.52
1021.223	1402.01
1021.514	1383.03
1021.804	1354.33
1022.095	1362.01
1022.386	1362.46
1022.677	1379.64
1022.967	1356.59
1023.258	1315.46
1023.548	1313.2
1023.839	1296.93
1024.129	1341.45
1024.419	1312.97
1024.709	1269.81
1025	1307.78
1025.29	1299.19
1025.58	1281.56
1025.87	1285.4
1026.16	1234.33
1026.449	1245.41
1026.739	1238.63
1027.029	1227.78
1027.319	1246.76
1027.608	1194.33
1027.898	1216.48
1028.187	1218.29
1028.477	1183.03
1028.766	1177.16
1029.055	1184.16
1029.344	1158.85
1029.634	1171.51
1029.923	1128.57
1030.212	1148.46
1030.501	1179.42
1030.79	1141.45
1031.078	1143.03
1031.367	1100.32
1031.656	1122.02
1031.945	1105.97
1032.233	1120.21
1032.522	1103.94
1032.81	1093.32
1033.099	1088.57
1033.387	1092.19
1033.675	1064.39
1033.963	1051.29
1034.251	1050.38
1034.54	1036.82
1034.828	1016.94
1035.116	1025.98
1035.403	1039.76
1035.691	1012.64
1035.979	1019.42
1036.267	1005.19
1036.554	997.5
1036.842	1019.87
1037.129	973.32
1037.417	989.82
1037.704	975.36
1037.992	950.95
1038.279	985.3
1038.566	937.84
1038.853	937.84
1039.14	937.84
