Data from hue_180_FLMS001491_00059.txt Node
Date: Tue Feb 07 16:47:11 GMT 2017
User: dcchb
Spectrometer: FLMS00149
Trigger mode: 0
Integration Time (sec): 2.000000E-2
Scans to average: 10
Electric dark correction enabled: true
Nonlinearity correction enabled: false
Boxcar width: 0
XAxis mode: Wavelengths
Number of Pixels in Spectrum: 2048
>>>>>Begin Spectral Data<<<<<
341.393	-20.8
341.776	-20.8
342.16	-20.8
342.543	-72.33
342.927	-78.88
343.31	-52.44
343.693	-72.78
344.077	-61.03
344.46	-45.89
344.843	-39.79
345.226	-58.54
345.61	-59.9
345.993	-8.83
346.376	9.7
346.759	15.35
347.142	33.43
347.525	43.15
347.908	42.7
348.291	62.58
348.674	94.67
349.057	97.61
349.44	117.27
349.823	116.82
350.206	147.78
350.588	196.14
350.971	204.73
351.354	222.35
351.737	222.58
352.119	242.69
352.502	262.8
352.884	243.82
353.267	299.19
353.65	285.4
354.032	294.67
354.414	283.14
354.797	312.29
355.179	313.42
355.562	310.26
355.944	321.79
356.326	324.27
356.709	335.12
357.091	324.5
357.473	335.57
357.855	333.54
358.238	322.24
358.62	324.05
359.002	334.67
359.384	330.6
359.766	322.69
360.148	338.73
360.53	322.69
360.912	343.71
361.294	329.92
361.676	319.07
362.057	324.5
362.439	327.89
362.821	322.92
363.203	339.64
363.584	322.01
363.966	315.01
364.348	301.45
364.729	302.35
365.111	300.09
365.493	315.01
365.874	329.47
366.256	321.56
366.637	305.06
367.019	323.82
367.4	304.84
367.781	310.71
368.163	301.45
368.544	315.01
368.925	297.61
369.306	305.74
369.688	297.61
370.069	285.18
370.45	281.33
370.831	321.11
371.212	288.57
371.593	292.18
371.974	298.28
372.355	302.12
372.736	312.97
373.117	323.37
373.498	297.83
373.879	308.23
374.26	298.28
374.641	298.51
375.021	306.42
375.402	279.07
375.783	305.06
376.163	321.11
376.544	301.22
376.925	329.24
377.305	336.25
377.686	313.88
378.066	312.52
378.447	348.68
378.827	320.43
379.208	309.58
379.588	317.04
379.968	314.55
380.349	324.72
380.729	320.88
381.109	323.59
381.489	334.67
381.87	332.41
382.25	322.46
382.63	324.27
383.01	326.53
383.39	333.99
383.77	334.21
384.15	319.3
384.53	313.88
384.91	348
385.29	345.51
385.67	340.54
386.049	331.73
386.429	339.86
386.809	341.45
387.189	336.47
387.568	343.71
387.948	347.1
388.328	331.73
388.707	328.34
389.087	349.13
389.466	340.77
389.846	360.65
390.225	356.36
390.605	350.49
390.984	363.37
391.363	357.94
391.743	362.24
392.122	371.95
392.501	365.63
392.881	357.26
393.26	361.78
393.639	372.41
394.018	369.69
394.397	350.26
394.776	363.14
395.155	381.44
395.534	372.18
395.913	339.19
396.292	370.82
396.671	382.12
397.05	366.08
397.429	379.41
397.808	385.96
398.186	384.83
398.565	377.38
398.944	376.25
399.323	397.26
399.701	375.8
400.08	392.74
400.458	379.64
400.837	405.4
401.215	399.07
401.594	385.29
401.972	388.22
402.351	417.38
402.729	408.79
403.107	409.69
403.486	440.2
403.864	417.38
404.242	414.44
404.62	413.31
404.999	429.81
405.377	409.24
405.755	434.78
406.133	451.73
406.511	458.5
406.889	446.3
407.267	437.71
407.645	453.99
408.023	463.48
408.401	465.28
408.779	471.39
409.156	461.22
409.534	473.65
409.912	477.04
410.29	495.79
410.667	524.04
411.045	503.48
411.422	512.74
411.8	495.11
412.178	524.72
412.555	557.49
412.933	539.41
413.31	547.99
413.687	555.68
414.065	573.76
414.442	561.55
414.819	550.03
415.197	592.74
415.574	600.65
415.951	590.25
416.328	599.74
416.705	582.57
417.082	613.53
417.46	616.92
417.837	614.88
418.214	653.3
418.591	647.43
418.967	638.84
419.344	653.3
419.721	653.3
420.098	666.64
420.475	696.01
420.852	703.24
421.228	685.62
421.605	721.1
421.982	712.74
422.358	705.5
422.735	752.06
423.111	727.42
423.488	743.92
423.864	785.28
424.241	764.26
424.617	777.14
424.994	783.24
425.37	797.03
425.746	795.9
426.123	802.45
426.499	812.62
426.875	842.22
427.251	851.94
427.627	865.05
428.003	869.12
428.379	900.53
428.756	890.58
429.132	906.4
429.507	922
429.883	944.82
430.259	936.46
430.635	945.05
431.011	944.82
431.387	975.55
431.763	953.63
432.138	989.56
432.514	1031.6
432.89	1024.82
433.265	1049.68
433.641	1032.95
434.016	1068.66
434.392	1075.89
434.767	1107.08
435.143	1101.65
435.518	1128.77
435.894	1155.66
436.269	1176.23
436.644	1201.08
437.02	1205.6
437.395	1193.85
437.77	1241.31
438.145	1221.65
438.52	1294.19
438.895	1272.72
439.271	1290.8
439.646	1308.2
440.021	1339.61
440.395	1327.41
440.77	1346.84
441.145	1355.66
441.52	1406.5
441.895	1411.93
442.27	1434.98
442.645	1417.8
443.019	1461.19
443.394	1481.98
443.769	1476.56
444.143	1484.92
444.518	1496.9
444.892	1504.58
445.267	1515.65
445.641	1526.73
446.016	1535.76
446.39	1559.04
446.764	1563.79
447.139	1571.24
447.513	1592.26
447.887	1584.13
448.262	1611.69
448.636	1638.36
449.01	1648.53
449.384	1667.51
449.758	1696.66
450.132	1700.28
450.506	1700.51
450.88	1750.45
451.254	1732.37
451.628	1747.28
452.002	1797.9
452.376	1794.97
452.75	1821.41
453.123	1805.14
453.497	1869.32
453.871	1855.76
454.244	1935.75
454.618	1961.06
454.992	1956.54
455.365	1944.57
455.739	2006.49
456.112	2042.87
456.486	2011.91
456.859	2052.36
457.232	2083.77
457.606	2097.33
457.979	2122.87
458.352	2161.06
458.725	2201.51
459.099	2194.73
459.472	2219.14
459.845	2287.16
460.218	2288.74
460.591	2301.62
460.964	2314.5
461.337	2394.95
461.71	2430.43
462.083	2442.86
462.456	2439.24
462.829	2468.62
463.201	2526.02
463.574	2563.31
463.947	2567.38
464.32	2636.3
464.692	2648.05
465.065	2669.07
465.438	2728.73
465.81	2760.14
466.183	2785.9
466.555	2838.78
466.928	2906.35
467.3	2867.71
467.672	2945.22
468.045	3039.23
468.417	3005.56
468.789	3057.76
469.161	3115.61
469.534	3122.62
469.906	3243.74
470.278	3272.22
470.65	3298.88
471.022	3366.9
471.394	3458.43
471.766	3490.74
472.138	3493
472.51	3553.34
472.882	3667.91
473.253	3686.67
473.625	3824.29
473.997	3888.25
474.369	3898.41
474.74	3924.18
475.112	4015.02
475.484	4091.63
475.855	4149.26
476.227	4213.21
476.598	4384.05
476.97	4404.39
477.341	4505.18
477.713	4543.14
478.084	4584.5
478.455	4733.65
478.827	4803.93
479.198	4949.23
479.569	5021.77
479.94	5120.53
480.311	5175.89
480.682	5303.35
481.053	5460.18
481.424	5533.17
481.795	5578.82
482.166	5688.65
482.537	5755.09
482.908	5900.4
483.279	5990.56
483.65	6067.4
484.021	6251.57
484.391	6307.39
484.762	6350.55
485.133	6494.96
485.503	6555.29
485.874	6716.19
486.244	6832.12
486.615	6940.59
486.985	7033.02
487.356	7199.8
487.726	7290.87
488.097	7383.52
488.467	7469.39
488.837	7598.88
489.207	7645.21
489.578	7797.52
489.948	7911.42
490.318	8015.82
490.688	8096.95
491.058	8225.08
491.428	8350.95
491.798	8413.32
492.168	8599.99
492.538	8710.72
492.908	8745.74
493.278	8913.42
493.648	8891.28
494.017	9041.1
494.387	9070.93
494.757	9143.02
495.126	9282.45
495.496	9305.73
495.866	9286.07
496.235	9482.9
496.605	9537.14
496.974	9604.48
497.344	9761.09
497.713	9736.68
498.082	9859.84
498.452	9881.31
498.821	9921.76
499.19	10027.29
499.559	10086.27
499.928	10153.39
500.298	10215.54
500.667	10282.65
501.036	10256.21
501.405	10346.61
501.774	10345.7
502.143	10415.31
502.512	10501.18
502.88	10564.68
503.249	10573.27
503.618	10632.7
503.987	10638.12
504.356	10676.54
504.724	10817.78
505.093	10773.26
505.462	10800.38
505.83	10772.81
506.199	10918.57
506.567	10988.62
506.936	10932.35
507.304	11133.93
507.672	11096.42
508.041	11196.3
508.409	11181.84
508.777	11206.24
509.145	11287.15
509.514	11220.03
509.882	11340.03
510.25	11283.76
510.618	11301.84
510.986	11337.77
511.354	11458.44
511.722	11530.08
512.09	11547.03
512.458	11488.72
512.826	11635.61
513.193	11636.29
513.561	11575.27
513.929	11697.53
514.297	11669.06
514.664	11705.67
515.032	11702.73
515.4	11815.95
515.767	11849.84
516.135	11772.33
516.502	11661.15
516.869	11901.59
517.237	11851.88
517.604	11834.93
517.972	11910.63
518.339	11858.43
518.706	11951.76
519.073	11897.53
519.44	11967.81
519.808	12012.78
520.175	11988.82
520.542	12012.78
520.909	12068.6
521.276	12017.97
521.643	12209.16
522.009	12172.77
522.376	12149.5
522.743	12177.97
523.11	12193.34
523.477	12322.37
523.843	12351.3
524.21	12356.72
524.577	12323.05
524.943	12375.93
525.31	12302.04
525.676	12394.46
526.043	12424.52
526.409	12401.69
526.776	12470.84
527.142	12396.95
527.508	12455.7
527.874	12435.82
528.241	12530.73
528.607	12369.15
528.973	12471.3
529.339	12380.9
529.705	12484.86
530.071	12498.87
530.437	12413.67
530.803	12457.51
531.169	12449.6
531.535	12354.69
531.901	12362.37
532.267	12319.89
532.632	12369.6
532.998	12380
533.364	12376.16
533.73	12359.89
534.095	12231.3
534.461	12231.75
534.826	12347.23
535.192	12273.56
535.557	12275.14
535.923	12230.4
536.288	12150.17
536.653	12074.02
537.019	12082.15
537.384	12050.97
537.749	12031.31
538.114	11985.66
538.479	11835.38
538.845	11943.85
539.21	11820.24
539.575	11813.69
539.94	11740.47
540.305	11797.19
540.67	11751.09
541.034	11731.65
541.399	11591.32
541.764	11652.79
542.129	11642.62
542.494	11589.96
542.858	11560.81
543.223	11455.28
543.587	11474.94
543.952	11385.68
544.316	11381.83
544.681	11319.46
545.045	11324.43
545.41	11276.3
545.774	11286.24
546.138	11190.88
546.503	11123.76
546.867	11081.05
547.231	11062.75
547.595	10999.92
547.959	11040.15
548.324	11005.35
548.688	10891.22
549.052	10928.74
549.416	10914.73
549.779	10842.86
550.143	10810.1
550.507	10792.47
550.871	10777.78
551.235	10669.31
551.599	10747.95
551.962	10644
552.326	10564
552.689	10585.92
553.053	10498.47
553.417	10446.94
553.78	10598.35
554.143	10408.07
554.507	10440.16
554.87	10444.91
555.234	10467.28
555.597	10352.71
555.96	10374.18
556.323	10260.51
556.686	10286.95
557.05	10340.28
557.413	10319.94
557.776	10179.61
558.139	10234.52
558.502	10210.11
558.865	10157.01
559.228	10177.57
559.59	10154.52
559.953	10171.92
560.316	10202.2
560.679	10191.13
561.041	10197.68
561.404	10183.67
561.767	10187.97
562.129	10095.54
562.492	10115.88
562.854	10190.68
563.217	10092.83
563.579	10104.8
563.941	10178.93
564.304	10104.35
564.666	10106.61
565.028	10122.21
565.39	10089.44
565.753	10159.04
566.115	10123.11
566.477	10102.32
566.839	10099.16
567.201	10149.78
567.563	10070.68
567.925	10193.62
568.287	10164.01
568.648	10145.26
569.01	10225.25
569.372	10267.74
569.734	10159.72
570.095	10214.86
570.457	10191.36
570.819	10208.98
571.18	10178.25
571.542	10192.03
571.903	10170.11
572.265	10221.41
572.626	10147.97
572.987	10161.3
573.349	10204.01
573.71	10129.89
574.071	10160.62
574.432	10214.18
574.794	10268.87
575.155	10209.43
575.516	10219.83
575.877	10197.23
576.238	10214.63
576.599	10241.98
576.96	10209.89
577.32	10279.72
577.681	10173.73
578.042	10285.37
578.403	10228.87
578.763	10206.27
579.124	10282.2
579.485	10265.25
579.845	10301.18
580.206	10179.83
580.566	10179.83
580.927	10240.85
581.287	10179.38
581.648	10218.02
582.008	10249.43
582.368	10233.62
582.728	10219.15
583.089	10164.24
583.449	10180.28
583.809	10173.5
584.169	10161.3
584.529	10149.32
584.889	10249.21
585.249	10090.12
585.609	10106.84
585.969	10163.33
586.329	10105.71
586.688	10106.84
587.048	10043.11
587.408	10025.71
587.768	10077.91
588.127	10014.41
588.487	10084.24
588.846	10063.68
589.206	9951.81
589.565	9990.91
589.925	10037.69
590.284	9991.14
590.643	10002.21
591.003	10044.24
591.362	10030.46
591.721	9979.84
592.08	9965.15
592.44	9979.16
592.799	10002.66
593.158	9912.27
593.517	9930.12
593.876	9906.17
594.235	9922.66
594.593	9891.7
594.952	9981.64
595.311	9947.75
595.67	9976.67
596.029	9919.05
596.387	9876.11
596.746	9967.86
597.104	9845.83
597.463	9864.36
597.822	9876.11
598.18	9867.75
598.538	9895.77
598.897	9922.21
599.255	9766.51
599.613	9927.18
599.972	9860.52
600.33	9908.65
600.688	9844.02
601.046	9920.63
601.404	9926.73
601.762	9887.41
602.12	9901.19
602.478	9858.26
602.836	9893.06
603.194	9851.25
603.552	9810.8
603.91	9830.01
604.268	9836.79
604.625	9811.03
604.983	9834.76
605.341	9816.68
605.698	9848.31
606.056	9886.05
606.413	9858.03
606.771	9833.4
607.128	9810.8
607.485	9742.33
607.843	9837.69
608.2	9897.35
608.557	9857.81
608.914	9813.51
609.272	9815.32
609.629	9856.9
609.986	9866.85
610.343	9913.62
610.7	9994.07
611.057	9878.37
611.414	9864.59
611.771	9957.46
612.127	9926.05
612.484	9929.44
612.841	9934.87
613.198	9889.22
613.554	9909.1
613.911	9938.48
614.267	9961.53
614.624	9884.47
614.98	9919.5
615.337	9988.88
615.693	9957.01
616.05	9971.48
616.406	10025.26
616.762	9993.17
617.118	9971.02
617.475	10021.42
617.831	9990.68
618.187	10029.33
618.543	10026.16
618.899	10018.03
619.255	10100.74
619.611	10016.9
619.967	10032.49
620.323	10013.06
620.678	10058.93
621.034	10073.62
621.39	10010.57
621.746	10006.5
622.101	10110
622.457	10060.51
622.812	10090.12
623.168	10083.11
623.523	10043.79
623.879	10109.1
624.234	10028.42
624.589	10105.03
624.945	10001.98
625.3	10120.62
625.655	10004.47
626.01	10011.02
626.365	10023.45
626.72	10040.63
627.075	9983
627.43	10088.99
627.785	9983.9
628.14	10028.65
628.495	10014.19
628.85	9977.58
629.205	10058.7
629.559	10006.5
629.914	9973.73
630.269	10003.11
630.623	9909.33
630.978	9932.61
631.332	9963.57
631.687	9992.04
632.041	9937.8
632.396	9959.72
632.75	9867.75
633.104	9913.85
633.459	9805.6
633.813	9835.66
634.167	9742.1
634.521	9824.36
634.875	9838.82
635.229	9870.46
635.583	9865.72
635.937	9791.82
636.291	9829.56
636.645	9848.77
636.999	9741.88
637.352	9776.9
637.706	9699.39
638.06	9750.69
638.413	9738.94
638.767	9756.57
639.121	9702.1
639.474	9645.38
639.828	9656
640.181	9704.36
640.534	9651.71
640.888	9680.18
641.241	9564.93
641.594	9644.03
641.947	9626.4
642.301	9589.11
642.654	9589.79
643.007	9600.64
643.36	9642.44
643.713	9579.85
644.066	9586.4
644.419	9437.7
644.771	9529.45
645.124	9415.56
645.477	9410.59
645.83	9364.94
646.182	9346.18
646.535	9288.1
646.888	9302.57
647.24	9255.34
647.593	9244.26
647.945	9219.18
648.298	9233.64
648.65	9227.54
649.002	9178.28
649.355	9207.43
649.707	9201.1
650.059	9291.72
650.411	9378.72
650.763	9392.28
651.115	9485.84
651.467	9484.48
651.819	9450.81
652.171	9402.22
652.523	9338.27
652.875	9419.4
653.227	9424.82
653.578	9393.19
653.93	9434.09
654.282	9381.43
654.633	9420.3
654.985	9431.6
655.337	9480.87
655.688	9436.35
656.039	9466.86
656.391	9429.79
656.742	9467.99
657.094	9445.61
657.445	9466.18
657.796	9375.11
658.147	9474.54
658.498	9485.84
658.849	9512.28
659.2	9464.14
659.551	9411.94
659.902	9498.04
660.253	9461.66
660.604	9434.54
660.955	9463.24
661.306	9549.79
661.656	9494.65
662.007	9461.43
662.358	9533.75
662.708	9425.05
663.059	9436.12
663.409	9354.54
663.76	9489.91
664.11	9474.54
664.461	9478.61
664.811	9447.87
665.161	9458.95
665.511	9424.6
665.862	9481.77
666.212	9510.47
666.562	9547.08
666.912	9463.69
667.262	9453.52
667.612	9475.67
667.962	9462.11
668.312	9509.79
668.662	9599.28
669.011	9527.87
669.361	9485.39
669.711	9502.11
670.06	9423.24
670.41	9489
670.76	9478.61
671.109	9511.83
671.459	9477.02
671.808	9432.51
672.157	9473.86
672.507	9406.29
672.856	9458.49
673.205	9399.74
673.554	9466.4
673.904	9418.95
674.253	9418.95
674.602	9368.78
674.951	9227.77
675.3	9204.72
675.649	9363.58
675.998	9348.67
676.346	9385.28
676.695	9387.54
677.044	9360.19
677.393	9264.83
677.741	9345.5
678.09	9347.08
678.438	9300.98
678.787	9288.33
679.135	9279.52
679.484	9244.49
679.832	9251.72
680.181	9124.49
680.529	9272.28
680.877	9276.13
681.225	9198.84
681.573	9216.24
681.922	9080.2
682.27	9135.11
682.618	9088.56
682.966	9108.45
683.314	9123.59
683.661	9063.48
684.009	9038.62
684.357	8948.45
684.705	8994.33
685.053	8972.18
685.4	9048.79
685.748	8839.08
686.095	8882.46
686.443	8906.19
686.79	8893.99
687.138	8829.13
687.485	8890.15
687.832	8853.99
688.18	8840.21
688.527	8723.82
688.874	8753.88
689.221	8747.78
689.568	8691.06
689.915	8693.99
690.262	8655.8
690.609	8663.03
690.956	8613.32
691.303	8580.78
691.65	8574.9
691.997	8607.44
692.344	8475.24
692.69	8481.12
693.037	8505.98
693.383	8380.56
693.73	8412.19
694.077	8390.95
694.423	8321.8
694.769	8299.43
695.116	8298.3
695.462	8249.49
695.808	8232.31
696.155	8253.78
696.501	8185.31
696.847	8096.27
697.193	8075.03
697.539	8140.11
697.885	8037.51
698.231	8038.19
698.577	8047.91
698.923	7994.8
699.269	7914.81
699.614	7912.55
699.96	7883.85
700.306	7926.33
700.651	7833.68
700.997	7828.71
701.342	7835.49
701.688	7738.31
702.033	7733.57
702.379	7658.77
702.724	7673.91
703.069	7669.39
703.415	7567.02
703.76	7538.09
704.105	7534.25
704.45	7553.69
704.795	7467.59
705.14	7441.15
705.485	7464.65
705.83	7411.99
706.175	7401.83
706.52	7401.15
706.865	7319.12
707.209	7346.01
707.554	7316.18
707.899	7295.39
708.243	7244.32
708.588	7232.79
708.932	7232.34
709.277	7216.52
709.621	7205.45
709.966	7165.9
710.31	7143.53
710.654	7102.17
710.998	7169.06
711.342	7118.22
711.687	7075.96
712.031	7073.47
712.375	7075.96
712.719	7031.21
713.063	7039.8
713.407	7005.45
713.75	6958
714.094	6961.84
714.438	6988.5
714.782	6888.62
715.125	6928.62
715.469	6925.23
715.812	6883.87
716.156	6845.23
716.499	6899.01
716.843	6928.84
717.186	6866.47
717.53	6798.45
717.873	6795.06
718.216	6863.76
718.559	6812.46
718.902	6776.76
719.246	6806.59
719.589	6793.71
719.932	6697.44
720.275	6814.27
720.617	6721.84
720.96	6769.98
721.303	6747.38
721.646	6792.35
721.989	6739.47
722.331	6748.96
722.674	6711.9
723.016	6676.87
723.359	6706.93
723.701	6711
724.044	6674.16
724.386	6664.44
724.729	6647.04
725.071	6661.73
725.413	6656.53
725.755	6636.65
726.097	6613.6
726.439	6611.11
726.782	6642.75
727.124	6597.55
727.465	6580.83
727.807	6565.24
728.149	6560.27
728.491	6629.64
728.833	6592.35
729.175	6578.8
729.516	6607.04
729.858	6508.52
730.199	6624.44
730.541	6598.46
730.882	6554.84
731.224	6579.7
731.565	6530.89
731.906	6584.22
732.248	6577.67
732.589	6520.72
732.93	6515.75
733.271	6548.51
733.612	6516.65
733.953	6583.99
734.294	6585.35
734.635	6550.1
734.976	6620.38
735.317	6521.17
735.658	6565.01
735.999	6577.89
736.339	6628.06
736.68	6545.8
737.021	6595.52
737.361	6604.33
737.702	6598.23
738.042	6584.22
738.383	6617.89
738.723	6568.4
739.063	6653.14
739.404	6613.15
739.744	6619.7
740.084	6613.82
740.424	6672.58
740.764	6611.11
741.104	6652.01
741.444	6741.5
741.784	6699.7
742.124	6798.9
742.464	6739.02
742.804	6800.71
743.143	6755.06
743.483	6848.17
743.823	6828.51
744.162	6801.39
744.502	6861.73
744.841	6864.66
745.181	6951.22
745.52	6890.2
745.86	6957.54
746.199	6981.5
746.538	7038.67
746.877	7104.66
747.216	7157.09
747.556	7122.96
747.895	7257.87
748.234	7255.84
748.573	7294.94
748.911	7313.47
749.25	7391.88
749.589	7415.84
749.928	7492.9
750.267	7603.18
750.605	7650.41
750.944	7716.62
751.283	7784.41
751.621	7874.36
751.96	7862.83
752.298	8009.27
752.636	8072.77
752.975	8158.87
753.313	8220.56
753.651	8388.47
753.989	8423.95
754.327	8512.98
754.666	8649.48
755.004	8800.88
755.342	8890.15
755.679	9008.79
756.017	9073.87
756.355	9278.39
756.693	9391.38
757.031	9505.05
757.368	9558.15
757.706	9815.1
758.044	9977.58
758.381	10050.34
758.719	10166.5
759.056	10390.45
759.394	10526.49
759.731	10581.18
760.068	10749.08
760.405	10934.39
760.743	11037.66
761.08	11273.14
761.417	11351.33
761.754	11537.31
762.091	11711.54
762.428	11832.44
762.765	11989.95
763.102	12164.64
763.438	12313.79
763.775	12484.18
764.112	12768.69
764.449	12903.15
764.785	12974.56
765.122	13108.57
765.458	13271.28
765.795	13417.03
766.131	13589.46
766.467	13655.9
766.804	13786.06
767.14	14002.56
767.476	14087.53
767.812	14214.53
768.148	14373.39
768.485	14484.8
768.821	14575.2
769.157	14677.34
769.492	14841.18
769.828	15000.95
770.164	15027.61
770.5	15108.52
770.836	15331.11
771.171	15342.63
771.507	15517.09
771.842	15509.63
772.178	15656.52
772.513	15707.6
772.849	15836.63
773.184	15929.06
773.519	15966.57
773.855	16094.93
774.19	16098.77
774.525	16220.58
774.86	16301.93
775.195	16401.36
775.53	16444.07
775.865	16498.54
776.2	16392.78
776.535	16469.38
776.87	16570.62
777.205	16574.01
777.539	16564.07
777.874	16698.98
778.209	16646.1
778.543	16654.01
778.878	16803.61
779.212	16842.48
779.547	16797.06
779.881	16922.25
780.215	16895.13
780.55	16969.48
780.884	16843.84
781.218	16924.06
781.552	16978.75
781.886	17000.67
782.22	16946.88
782.554	16913.21
782.888	16887
783.222	16902.59
783.556	16865.08
783.889	16916.15
784.223	16817.4
784.557	16854.23
784.89	16863.05
785.224	16821.24
785.557	16791.63
785.891	16861.92
786.224	16827.79
786.558	16904.63
786.891	16788.47
787.224	16737.85
787.557	16756.38
787.891	16738.75
788.224	16748.7
788.557	16796.83
788.89	16730.62
789.223	16754.8
789.556	16637.97
789.888	16639.1
790.221	16619.89
790.554	16535.14
790.887	16556.61
791.219	16435.94
791.552	16545.31
791.884	16503.96
792.217	16477.97
792.549	16424.19
792.882	16424.64
793.214	16360.46
793.546	16427.35
793.879	16305.09
794.211	16208.15
794.543	16371.53
794.875	16155.49
795.207	16349.39
795.539	16164.98
795.871	16161.59
796.203	16092.22
796.535	16064.87
796.867	16040.02
797.198	16051.77
797.53	16118.21
797.862	15859.23
798.193	15922.05
798.525	15866.24
798.856	15900.81
799.188	15772.9
799.519	15689.06
799.85	15648.39
800.182	15735.84
800.513	15642.51
800.844	15558.9
801.175	15562.74
801.506	15574.27
801.837	15574.04
802.168	15507.37
802.499	15506.24
802.83	15449.52
803.161	15396.87
803.491	15419.69
803.822	15296.08
804.153	15358.68
804.483	15209.76
804.814	15207.72
805.145	15172.92
805.475	15121.85
805.805	15071.91
806.136	15106.48
806.466	15091.57
806.796	15106.48
807.126	14958.01
807.457	14928.86
807.787	14877.79
808.117	14862.42
808.447	14842.08
808.777	14869.65
809.107	14851.35
809.436	14684.57
809.766	14766.83
810.096	14703.1
810.426	14628.98
810.755	14736.55
811.085	14681.86
811.414	14628.98
811.744	14533.16
812.073	14568.87
812.403	14459.27
812.732	14467.63
813.061	14534.52
813.39	14320.06
813.719	14348.08
814.049	14465.37
814.378	14371.36
814.707	14285.26
815.036	14233.74
815.365	14115.09
815.693	14113.51
816.022	14146.05
816.351	14159.84
816.68	14016.11
817.008	14108.32
817.337	13964.82
817.665	13961.65
817.994	14004.14
818.322	13999.62
818.651	13855.89
818.979	13898.38
819.307	13951.26
819.636	13912.16
819.964	13773.64
820.292	13988.77
820.62	13943.12
820.948	13950.58
821.276	13919.62
821.604	13726.86
821.932	13794.88
822.259	13790.13
822.587	13803.92
822.915	13762.34
823.243	13868.55
823.57	13790.36
823.898	13828.55
824.225	13771.15
824.553	13764.37
824.88	13810.92
825.207	13836.68
825.535	13768.21
825.862	13805.27
826.189	13821.54
826.516	13813.86
826.843	13918.49
827.17	13904.25
827.497	13823.8
827.824	13854.31
828.151	13852.05
828.478	13827.42
828.805	14074.42
829.131	13876.46
829.458	13777.48
829.785	13798.72
830.111	13803.92
830.438	13939.28
830.764	13930.47
831.09	13893.18
831.417	13797.82
831.743	13751.71
832.069	13908.32
832.395	13724.82
832.722	13845.27
833.048	13780.64
833.374	13786.52
833.7	13728.44
834.026	13740.42
834.351	13820.19
834.677	13713.98
835.003	13761.88
835.329	13695.67
835.654	13667.88
835.98	13664.71
836.306	13635.79
836.631	13682.56
836.956	13694.09
837.282	13677.59
837.607	13671.04
837.932	13555.56
838.258	13585.84
838.583	13571.15
838.908	13433.53
839.233	13428.56
839.558	13490.03
839.883	13525.05
840.208	13416.81
840.533	13308.34
840.858	13354.44
841.182	13357.83
841.507	13299.3
841.832	13336.13
842.156	13288
842.481	13258.17
842.805	13241.22
843.13	13250.71
843.454	13203.48
843.778	13151.5
844.103	13088
844.427	12986.09
844.751	13100.43
845.075	13100.43
845.399	13078.96
845.723	12970.04
846.047	12895.92
846.371	12838.97
846.695	12824.28
847.019	12721.23
847.343	12641.01
847.666	12637.39
847.99	12607.34
848.313	12618.64
848.637	12491.41
848.96	12458.64
849.284	12440.56
849.607	12345.88
849.931	12281.24
850.254	12206.44
850.577	12136.16
850.9	12080.8
851.223	12114.02
851.546	11938.66
851.869	11999.22
852.192	12011.65
852.515	11876.51
852.838	11831.77
853.161	11834.93
853.483	11778.66
853.806	11798.32
854.129	11705.67
854.451	11699.57
854.774	11584.99
855.096	11541.38
855.419	11562.39
855.741	11496.63
856.063	11458.22
856.385	11468.16
856.708	11380.48
857.03	11426.8
857.352	11401.27
857.674	11395.39
857.996	11284.43
858.318	11186.81
858.64	11257.54
858.961	11184.1
859.283	11146.13
859.605	11140.71
859.926	11157.88
860.248	11065.46
860.57	11116.3
860.891	10995.4
861.212	11004.89
861.534	10989.98
861.855	10907.27
862.176	10923.77
862.498	10909.3
862.819	10937.78
863.14	10826.37
863.461	10799.93
863.782	10786.59
864.103	10804.45
864.424	10742.75
864.745	10814.16
865.065	10733.26
865.386	10665.69
865.707	10668.63
866.027	10731
866.348	10686.26
866.668	10689.2
866.989	10586.37
867.309	10575.3
867.63	10516.77
867.95	10585.24
868.27	10616.2
868.59	10516.09
868.91	10489.2
869.23	10458.69
869.55	10465.93
869.87	10423.89
870.19	10403.1
870.51	10427.28
870.83	10436.1
871.15	10427.51
871.469	10367.85
871.789	10367.17
872.109	10375.53
872.428	10296.89
872.748	10328.75
873.067	10288.08
873.386	10217.8
873.706	10255.76
874.025	10187.74
874.344	10188.87
874.663	10193.84
874.982	10185.71
875.301	10158.59
875.62	10123.79
875.939	10135.99
876.258	10177.57
876.577	10125.82
876.896	10098.48
877.214	10057.12
877.533	10135.09
877.852	10124.01
878.17	9976.67
878.489	10044.69
878.807	10097.57
879.125	9948.65
879.444	9957.69
879.762	10010.12
880.08	9928.99
880.398	9917.47
880.716	9933.51
881.034	9806.73
881.352	9863.23
881.67	9823.91
881.988	9858.48
882.306	9764.25
882.624	9764.25
882.941	9661.65
883.259	9689.22
883.577	9668.21
883.894	9746.17
884.212	9682.67
884.529	9629.34
884.846	9596.8
885.164	9643.12
885.481	9578.04
885.798	9563.8
886.115	9391.83
886.432	9515.89
886.75	9509.57
887.067	9476.57
887.383	9401.32
887.7	9431.38
888.017	9364.94
888.334	9463.69
888.651	9381.21
888.967	9259.63
889.284	9289.23
889.6	9292.4
889.917	9191.83
890.233	9269.8
890.55	9140.76
890.866	9140.54
891.182	9133.53
891.498	9137.82
891.815	9066.64
892.131	8978.96
892.447	9048.56
892.763	8948.45
893.079	9054.66
893.395	8908.9
893.71	8908.23
894.026	8904.38
894.342	8840.66
894.657	8832.75
894.973	8779.87
895.289	8841.79
895.604	8738.74
895.92	8645.18
896.235	8645.63
896.55	8649.02
896.865	8633.88
897.181	8612.64
897.496	8705.97
897.811	8514.79
898.126	8540.1
898.441	8474.11
898.756	8498.97
899.071	8401.57
899.386	8396.38
899.7	8362.93
900.015	8314.12
900.33	8244.74
900.644	8270.5
900.959	8284.74
901.273	8153.9
901.588	8268.7
901.902	8148.7
902.216	8158.64
902.531	8144.86
902.845	8020.57
903.159	8045.42
903.473	7965.65
903.787	7987.12
904.101	7948.7
904.415	7920.23
904.729	7904.18
905.042	7824.19
905.356	7805.43
905.67	7802.72
905.984	7816.5
906.297	7721.82
906.611	7663.06
906.924	7667.35
907.237	7679.56
907.551	7668.26
907.864	7582.16
908.177	7542.39
908.491	7549.62
908.804	7505.33
909.117	7418.32
909.43	7397.31
909.743	7339.68
910.056	7330.19
910.368	7309.85
910.681	7277.53
910.994	7313.69
911.307	7253.35
911.619	7183.3
911.932	7164.32
912.244	7104.43
912.557	7106.01
912.869	7038.9
913.181	7058.78
913.494	7059.69
913.806	6986.02
914.118	6985.34
914.43	6882.29
914.742	6877.32
915.054	6948.28
915.366	6851.11
915.678	6830.99
915.99	6777.43
916.302	6801.16
916.613	6723.2
916.925	6719.36
917.236	6690.66
917.548	6689.75
917.859	6646.36
918.171	6585.58
918.482	6553.26
918.794	6585.35
919.105	6537.89
919.416	6482.08
919.727	6495.41
920.038	6463.09
920.349	6402.76
920.66	6420.61
920.971	6458.8
921.282	6376.99
921.593	6337.67
921.903	6291.35
922.214	6273.27
922.525	6249.99
922.835	6209.54
923.146	6197.11
923.456	6132.48
923.767	6163.67
924.077	6102.65
924.387	6035.53
924.697	6011.81
925.008	6086.38
925.318	6048.19
925.628	6019.71
925.938	5962.54
926.248	5906.95
926.558	5955.54
926.867	5894.75
927.177	5902.88
927.487	5877.57
927.796	5849.1
928.106	5790.57
928.416	5768.2
928.725	5780.4
929.034	5759.16
929.344	5768.87
929.653	5704.24
929.962	5665.15
930.271	5658.59
930.581	5634.87
930.89	5614.3
931.199	5533.17
931.508	5513.06
931.817	5579.05
932.125	5524.81
932.434	5527.75
932.743	5505.38
933.051	5431.93
933.36	5411.37
933.669	5450.24
933.977	5372.95
934.286	5344.7
934.594	5337.25
934.902	5321.65
935.21	5323.24
935.519	5330.92
935.827	5274.2
936.135	5224.48
936.443	5206.4
936.751	5153.3
937.059	5172.28
937.367	5162.56
937.674	5103.35
937.982	5089.34
938.29	5077.14
938.597	5037.14
938.905	4975
939.213	4990.82
939.52	4932.74
939.827	4956.92
940.135	4912.63
940.442	4926.86
940.749	4903.59
941.056	4937.48
941.363	4873.98
941.67	4821.78
941.977	4798.28
942.284	4770.93
942.591	4785.4
942.898	4761.22
943.205	4744.04
943.511	4750.82
943.818	4714.66
944.125	4702.69
944.431	4660.88
944.738	4666.76
945.044	4647.1
945.35	4607.55
945.657	4539.98
945.963	4609.58
946.269	4521.9
946.575	4544.05
946.881	4489.81
947.187	4459.53
947.493	4473.09
947.799	4443.26
948.105	4426.99
948.41	4402.13
948.716	4425.63
949.022	4378.63
949.327	4344.5
949.633	4329.82
949.938	4346.76
950.244	4292.53
950.549	4260.21
950.854	4255.02
951.16	4232.64
951.465	4212.3
951.77	4219.08
952.075	4228.58
952.38	4146.54
952.685	4173.44
952.99	4133.44
953.294	4107.9
953.599	4077.62
953.904	4077.17
954.209	4099.31
954.513	4042.82
954.818	4012.08
955.122	3999.43
955.426	4019.32
955.731	3984.06
956.035	3979.32
956.339	3918.07
956.643	3894.8
956.948	3908.13
957.252	3927.57
957.556	3866.55
957.86	3855.48
958.163	3861.58
958.467	3871.75
958.771	3815.93
959.075	3756.95
959.378	3782.03
959.682	3743.39
959.985	3716.72
960.289	3723.28
960.592	3706.78
960.896	3684.41
961.199	3693
961.502	3705.65
961.805	3657.29
962.108	3624.3
962.411	3623.39
962.714	3571.64
963.017	3599.89
963.32	3620.91
963.623	3563.96
963.926	3565.54
964.228	3529.16
964.531	3518.31
964.833	3528.48
965.136	3457.3
965.438	3479.89
965.741	3442.38
966.043	3439.67
966.345	3468.6
966.648	3408.26
966.95	3382.95
967.252	3391.08
967.554	3337.53
967.856	3361.71
968.158	3345.66
968.46	3316.06
968.761	3339.56
969.063	3272.67
969.365	3284.65
969.666	3250.97
969.968	3265.21
970.269	3216.17
970.571	3203.97
970.872	3261.37
971.174	3177.3
971.475	3182.73
971.776	3172.78
972.077	3170.52
972.378	3143.18
972.679	3132.56
972.98	3151.99
973.281	3051.88
973.582	3093.46
973.883	3085.78
974.183	3060.47
974.484	3039.91
974.785	3025.22
975.085	3036.52
975.386	3004.2
975.686	2991.32
975.986	2972.34
976.287	2962.62
976.587	2967.82
976.887	2922.17
977.187	2956.74
977.487	2929.4
977.787	2916.52
978.087	2868.16
978.387	2884.43
978.687	2888.05
978.987	2885.11
979.286	2822.51
979.586	2853.7
979.885	2813.92
980.185	2799.23
980.484	2787.48
980.784	2800.82
981.083	2730.08
981.382	2736.19
981.682	2743.87
981.981	2748.84
982.28	2715.85
982.579	2712.68
982.878	2682.85
983.177	2668.84
983.475	2667.94
983.774	2657.54
984.073	2624.1
984.372	2633.36
984.67	2592.91
984.969	2644.21
985.267	2645.34
985.566	2562.4
985.864	2568.96
986.162	2546.36
986.461	2552.01
986.759	2530.31
987.057	2495.06
987.355	2501.62
987.653	2490.32
987.951	2465.23
988.249	2493.48
988.547	2505.91
988.844	2442.86
989.142	2450.99
989.44	2430.66
989.737	2386.82
990.035	2423.88
990.332	2427.94
990.63	2391.79
990.927	2365.35
991.224	2352.92
991.521	2367.61
991.819	2361.73
992.116	2334.61
992.413	2312.47
992.71	2286.48
993.006	2315.41
993.303	2291.23
993.6	2282.64
993.897	2258.68
994.193	2279.02
994.49	2253.94
994.787	2246.71
995.083	2237.89
995.379	2216.2
995.676	2223.66
995.972	2182.3
996.268	2196.09
996.565	2198.8
996.861	2159.03
997.157	2165.35
997.453	2157.44
997.749	2155.86
998.044	2128.97
998.34	2109.76
998.636	2091.91
998.932	2086.26
999.227	2068.86
999.523	2115.41
999.818	2089.42
1000.114	2034.96
1000.409	2012.36
1000.704	2040.61
1001	2067.5
1001.295	2009.65
1001.59	1979.59
1001.885	1999.71
1002.18	1971.46
1002.475	1957.45
1002.77	1945.02
1003.065	1939.82
1003.359	1935.53
1003.654	1886.04
1003.949	1892.59
1004.243	1886.04
1004.538	1854.17
1004.832	1874.51
1005.127	1859.6
1005.421	1900.27
1005.715	1859.6
1006.009	1840.39
1006.304	1800.62
1006.598	1834.51
1006.892	1801.52
1007.186	1790.67
1007.48	1797.45
1007.773	1764.46
1008.067	1769.88
1008.361	1715.2
1008.655	1711.81
1008.948	1716.55
1009.242	1746.38
1009.535	1727.85
1009.829	1736.21
1010.122	1721.3
1010.415	1692.82
1010.708	1702.31
1011.001	1679.72
1011.295	1645.14
1011.588	1629.1
1011.881	1625.25
1012.173	1647.85
1012.466	1595.2
1012.759	1613.28
1013.052	1619.15
1013.344	1627.06
1013.637	1597.68
1013.93	1590
1014.222	1550.68
1014.514	1561.53
1014.807	1545.71
1015.099	1555.88
1015.391	1566.5
1015.683	1514.52
1015.976	1521.98
1016.268	1488.08
1016.56	1500.74
1016.851	1465.48
1017.143	1469.78
1017.435	1453.51
1017.727	1457.8
1018.018	1476.11
1018.31	1443.79
1018.602	1453.96
1018.893	1413.28
1019.185	1422.1
1019.476	1401.3
1019.767	1375.99
1020.058	1385.94
1020.35	1376.45
1020.641	1381.19
1020.932	1331.93
1021.223	1358.59
1021.514	1363.34
1021.804	1323.79
1022.095	1319.73
1022.386	1313.4
1022.677	1300.97
1022.967	1309.1
1023.258	1256.9
1023.548	1289.22
1023.839	1271.14
1024.129	1265.49
1024.419	1263.23
1024.709	1253.96
1025	1244.92
1025.29	1233.85
1025.58	1233.4
1025.87	1211.93
1026.16	1206.96
1026.449	1218.48
1026.739	1184.59
1027.029	1162.67
1027.319	1200.18
1027.608	1153.63
1027.898	1145.49
1028.187	1171.48
1028.477	1150.69
1028.766	1130.58
1029.055	1142.33
1029.344	1142.78
1029.634	1129.45
1029.923	1106.85
1030.212	1108.66
1030.501	1101.43
1030.79	1102.1
1031.078	1076.57
1031.367	1087.64
1031.656	1069.79
1031.945	1046.96
1032.233	1058.94
1032.522	1042.44
1032.81	1024.59
1033.099	1044.7
1033.387	1039.05
1033.675	1034.76
1033.963	1018.04
1034.251	1018.72
1034.54	1015.78
1034.828	1016.68
1035.116	983.01
1035.403	986.4
1035.691	975.1
1035.979	965.16
1036.267	966.06
1036.554	961.54
1036.842	947.31
1037.129	957.93
1037.417	966.74
1037.704	951.15
1037.992	931.71
1038.279	932.62
1038.566	902.79
1038.853	902.79
1039.14	902.79
