Data from hue_250_FLMS001491_00006.txt Node
Date: Tue Feb 07 16:00:28 GMT 2017
User: dcchb
Spectrometer: FLMS00149
Trigger mode: 0
Integration Time (sec): 2.000000E-2
Scans to average: 10
Electric dark correction enabled: true
Nonlinearity correction enabled: false
Boxcar width: 0
XAxis mode: Wavelengths
Number of Pixels in Spectrum: 2048
>>>>>Begin Spectral Data<<<<<
341.393	-12.47
341.776	-12.47
342.16	-12.47
342.543	-79.59
342.927	-53.37
343.31	-98.57
343.693	-82.53
344.077	-54.28
344.46	-58.12
344.843	-46.14
345.226	-42.75
345.61	-46.14
345.993	-28.29
346.376	-6.37
346.759	34.76
347.142	29.79
347.525	68.43
347.908	56.91
348.291	74.76
348.674	83.35
349.057	115.21
349.44	120.63
349.823	127.86
350.206	151.37
350.588	176.45
350.971	215.77
351.354	215.09
351.737	208.99
352.119	247.86
352.502	244.02
352.884	257.8
353.267	282.21
353.65	284.47
354.032	298.48
354.414	319.27
354.797	283.57
355.179	306.84
355.562	315.2
355.944	312.04
356.326	322.66
356.709	313.4
357.091	329.89
357.473	322.21
357.855	317.92
358.238	370.8
358.62	339.38
359.002	345.03
359.384	325.15
359.766	321.31
360.148	322.21
360.53	334.41
360.912	338.03
361.294	307.29
361.676	343
362.057	303.9
362.439	326.73
362.821	333.51
363.203	308.65
363.584	311.14
363.966	312.72
364.348	313.17
364.729	328.54
365.111	303.68
365.493	312.49
365.874	296
366.256	325.82
366.637	317.46
367.019	284.7
367.4	311.81
367.781	309.1
368.163	303.68
368.544	303
368.925	299.38
369.306	315.88
369.688	293.74
370.069	306.84
370.45	311.59
370.831	284.24
371.212	307.29
371.593	303.45
371.974	313.85
372.355	309.1
372.736	295.54
373.117	297.12
373.498	303.68
373.879	279.05
374.26	314.98
374.641	319.95
375.021	304.58
375.402	310.91
375.783	300.06
376.163	304.36
376.544	302.77
376.925	325.15
377.305	296.67
377.686	312.27
378.066	333.28
378.447	341.87
378.827	327.41
379.208	318.14
379.588	308.65
379.968	324.47
380.349	331.93
380.729	322.66
381.109	323.34
381.489	343
381.87	318.59
382.25	307.97
382.63	319.27
383.01	319.95
383.39	348.2
383.77	321.31
384.15	329.44
384.53	347.29
384.91	334.41
385.29	350.91
385.67	338.48
386.049	334.41
386.429	322.66
386.809	345.71
387.189	348.65
387.568	335.54
387.948	341.87
388.328	355.43
388.707	376.67
389.087	363.34
389.466	342.77
389.846	350.91
390.225	361.08
390.605	347.97
390.984	361.3
391.363	352.94
391.743	351.59
392.122	353.62
392.501	364.24
392.881	372.83
393.26	391.81
393.639	393.85
394.018	347.75
394.397	385.48
394.776	373.96
395.155	380.51
395.534	385.26
395.913	378.03
396.292	374.41
396.671	380.51
397.05	374.19
397.429	386.61
397.808	375.09
398.186	370.57
398.565	372.83
398.944	379.83
399.323	391.36
399.701	398.14
400.08	405.82
400.458	391.81
400.837	399.5
401.215	399.95
401.594	407.86
401.972	408.76
402.351	401.08
402.729	412.6
403.107	411.7
403.486	423.68
403.864	416.9
404.242	416.67
404.62	417.8
404.999	427.74
405.377	441.3
405.755	429.78
406.133	426.61
406.511	418.03
406.889	434.52
407.267	438.14
407.645	448.76
408.023	465.03
408.401	458.02
408.779	430.68
409.156	482.2
409.534	443.34
409.912	469.32
410.29	493.73
410.667	508.19
411.045	505.93
411.422	497.35
411.8	509.77
412.178	509.1
412.555	517.91
412.933	504.35
413.31	522.43
413.687	528.08
414.065	527.63
414.442	546.61
414.819	557.01
415.197	576.44
415.574	561.07
415.951	579.83
416.328	564.24
416.705	603.78
417.082	582.99
417.46	609.21
417.837	608.08
418.214	601.75
418.591	580.96
418.967	641.52
419.344	618.7
419.721	640.84
420.098	642.43
420.475	648.08
420.852	638.36
421.228	651.24
421.605	672.26
421.982	663.22
422.358	690.79
422.735	679.94
423.111	695.08
423.488	705.93
423.864	728.07
424.241	773.95
424.617	753.38
424.994	743.21
425.37	751.12
425.746	738.24
426.123	761.75
426.499	788.86
426.875	797.45
427.251	802.65
427.627	788.41
428.003	819.15
428.379	817.56
428.756	832.03
429.132	824.12
429.507	854.85
429.883	881.97
430.259	889.43
430.635	905.02
431.011	899.37
431.387	899.14
431.763	920.39
432.138	931.68
432.514	934.85
432.89	953.15
433.265	996.77
433.641	984.56
434.016	999.03
434.392	1001.06
434.767	1049.2
435.143	1006.03
435.518	1061.85
435.894	1083.77
436.269	1096.43
436.644	1109.53
437.02	1120.15
437.395	1112.7
437.77	1124.67
438.145	1172.13
438.52	1179.36
438.895	1158.35
439.271	1188.4
439.646	1203.77
440.021	1232.92
440.395	1209.64
440.77	1236.54
441.145	1255.74
441.52	1298.91
441.895	1291.22
442.27	1290.09
442.645	1303.2
443.019	1312.47
443.394	1313.14
443.769	1339.81
444.143	1337.55
444.518	1371.67
444.892	1362.86
445.267	1373.71
445.641	1368.06
446.016	1375.97
446.39	1413.25
446.764	1416.19
447.139	1432.01
447.513	1441.73
447.887	1432.24
448.262	1430.88
448.636	1458
449.01	1461.84
449.384	1488.51
449.758	1482.18
450.132	1528.05
450.506	1501.84
450.88	1537.32
451.254	1542.97
451.628	1542.52
452.002	1586.81
452.376	1582.06
452.75	1560.82
453.123	1622.51
453.497	1605.79
453.871	1614.83
454.244	1665
454.618	1683.3
454.992	1695.96
455.365	1697.99
455.739	1738.22
456.112	1733.47
456.486	1759.23
456.859	1775.73
457.232	1783.19
457.606	1789.06
457.979	1814.37
458.352	1862.73
458.725	1842.4
459.099	1873.35
459.472	1874.26
459.845	1911.32
460.218	1947.25
460.591	1971.21
460.964	1941.38
461.337	2005.78
461.71	2015.5
462.083	2057.98
462.456	2027.93
462.829	2091.88
463.201	2099.11
463.574	2096.63
463.947	2135.27
464.32	2169.84
464.692	2165.55
465.065	2204.19
465.438	2192.89
465.81	2260.24
466.183	2250.07
466.555	2336.62
466.928	2298.2
467.3	2356.28
467.672	2332.78
468.045	2409.61
468.417	2404.19
468.789	2442.15
469.161	2452.1
469.534	2488.25
469.906	2562.6
470.278	2553.11
470.65	2540.46
471.022	2587.91
471.394	2664.29
471.766	2685.54
472.138	2710.85
472.51	2782.48
472.882	2783.39
473.253	2807.34
473.625	2848.24
473.997	2900.9
474.369	2939.32
474.74	2951.74
475.112	2984.29
475.484	3039.88
475.855	3075.36
476.227	3123.72
476.598	3136.6
476.97	3178.18
477.341	3273.09
477.713	3274.9
478.084	3318.06
478.455	3401.68
478.827	3394.9
479.198	3444.39
479.569	3490.94
479.94	3589.92
480.311	3585.4
480.682	3643.03
481.053	3723.93
481.424	3779.07
481.795	3848.67
482.166	3876.92
482.537	3910.36
482.908	3945.62
483.279	3996.46
483.65	4060.64
484.021	4152.39
484.391	4145.61
484.762	4200.07
485.133	4231.94
485.503	4245.5
485.874	4349.22
486.244	4405.94
486.615	4410.92
486.985	4464.25
487.356	4539.73
487.726	4574.98
488.097	4656.33
488.467	4677.8
488.837	4737.23
489.207	4778.36
489.578	4860.17
489.948	4929.09
490.318	4959.6
490.688	4956.89
491.058	5019.71
491.428	5075.76
491.798	5065.36
492.168	5201.85
492.538	5218.8
492.908	5277.78
493.278	5347.16
493.648	5339.03
494.017	5374.73
494.387	5366.14
494.757	5440.27
495.126	5547.61
495.496	5499.93
495.866	5564.11
496.235	5630.09
496.605	5613.6
496.974	5651.33
497.344	5669.41
497.713	5666.48
498.082	5727.49
498.452	5779.69
498.821	5841.61
499.19	5807.49
499.559	5883.64
499.928	5903.53
500.298	5916.19
500.667	5965.22
501.036	5944.66
501.405	6005.9
501.774	6016.07
502.143	6061.49
502.512	6040.02
502.88	6080.25
503.249	6035.28
503.618	6111.44
503.987	6140.36
504.356	6163.64
504.724	6204.31
505.093	6217.2
505.462	6167.93
505.83	6285.44
506.199	6319.57
506.567	6318.44
506.936	6296.06
507.304	6376.74
507.672	6323.86
508.041	6379
508.409	6436.17
508.777	6414.93
509.145	6470.75
509.514	6499
509.882	6531.54
510.25	6479.11
510.618	6521.59
510.986	6523.63
511.354	6608.15
511.722	6588.26
512.09	6668.71
512.458	6695.83
512.826	6710.06
513.193	6722.94
513.561	6663.96
513.929	6724.98
514.297	6792.32
514.664	6778.54
515.032	6769.27
515.4	6764.3
515.767	6792.55
516.135	6827.12
516.502	6762.94
516.869	6885.88
517.237	6842.26
517.604	6852.21
517.972	6924.97
518.339	6923.39
518.706	6934.92
519.073	6894.01
519.44	6941.02
519.808	6931.07
520.175	6957.97
520.542	6968.36
520.909	7016.04
521.276	7028.02
521.643	7054.91
522.009	7018.53
522.376	7113.67
522.743	7055.37
523.11	7065.99
523.477	7138.75
523.843	7126.1
524.21	7163.61
524.577	7233.67
524.943	7205.87
525.31	7206.77
525.676	7289.94
526.043	7294.91
526.409	7322.48
526.776	7343.95
527.142	7308.92
527.508	7352.08
527.874	7388.46
528.241	7425.07
528.607	7416.94
528.973	7484.05
529.339	7469.59
529.705	7445.86
530.071	7503.26
530.437	7460.78
530.803	7459.2
531.169	7524.73
531.535	7527.67
531.901	7505.97
532.267	7515.69
532.632	7542.36
532.998	7520.89
533.364	7515.47
533.73	7527.22
534.095	7587.1
534.461	7559.98
534.826	7528.12
535.192	7508.91
535.557	7536.71
535.923	7503.26
536.288	7503.49
536.653	7504.17
537.019	7508.69
537.384	7513.21
537.749	7550.04
538.114	7478.41
538.479	7512.3
538.845	7523.6
539.21	7489.7
539.575	7526.99
539.94	7502.81
540.305	7535.58
540.67	7483.83
541.034	7478.18
541.399	7525.86
541.764	7519.08
542.129	7489.7
542.494	7468.91
542.858	7481.79
543.223	7453.77
543.587	7479.31
543.952	7441.57
544.316	7440.67
544.681	7456.48
545.045	7448.8
545.41	7465.3
545.774	7426.43
546.138	7460.1
546.503	7401.8
546.867	7413.77
547.231	7454.22
547.595	7457.16
547.959	7420.33
548.324	7355.47
548.688	7398.41
549.052	7456.71
549.416	7352.31
549.779	7379.2
550.143	7399.31
550.507	7412.64
550.871	7369.93
551.235	7347.79
551.599	7430.27
551.962	7395.02
552.326	7366.09
552.689	7405.19
553.053	7357.96
553.417	7330.61
553.78	7414.23
554.143	7392.31
554.507	7379.42
554.87	7366.54
555.234	7416.71
555.597	7393.89
555.96	7376.71
556.323	7385.3
556.686	7351.18
557.05	7440.44
557.413	7425.3
557.776	7405.64
558.139	7436.15
558.502	7422.36
558.865	7370.39
559.228	7448.8
559.59	7497.16
559.953	7453.55
560.316	7560.21
560.679	7457.61
561.041	7492.64
561.404	7515.01
561.767	7541.91
562.129	7574.9
562.492	7629.59
562.854	7581.45
563.217	7558.63
563.579	7586.2
563.941	7636.59
564.304	7651.06
564.666	7658.29
565.028	7691.96
565.39	7660.1
565.753	7723.82
566.115	7730.15
566.477	7703.48
566.839	7828.45
567.201	7757.04
567.563	7812.86
567.925	7820.77
568.287	7842.24
568.648	7881.56
569.01	7843.59
569.372	7816.25
569.734	7880.65
570.095	7944.16
570.457	7979.18
570.819	7956.58
571.18	7937.83
571.542	7945.51
571.903	7944.16
572.265	8044.72
572.626	8046.53
572.987	8012.18
573.349	8051.72
573.71	8096.47
574.071	8155
574.432	8122.23
574.794	8205.62
575.155	8089.91
575.516	8164.26
575.877	8255.11
576.238	8219.63
576.599	8245.16
576.96	8237.26
577.32	8222.79
577.681	8304.82
578.042	8296.01
578.403	8313.64
578.763	8347.31
579.124	8336.46
579.485	8289.23
579.845	8428.89
580.206	8347.08
580.566	8366.52
580.927	8405.84
581.287	8458.27
581.648	8459.62
582.008	8505.95
582.368	8483.35
582.728	8498.49
583.089	8524.03
583.449	8501.88
583.809	8512.95
584.169	8530.35
584.529	8486.06
584.889	8660.75
585.249	8587.3
585.609	8565.16
585.969	8654.65
586.329	8600.86
586.688	8612.61
587.048	8635.89
587.408	8594.08
587.768	8620.52
588.127	8615.1
588.487	8630.24
588.846	8672.27
589.206	8716.56
589.565	8693.06
589.925	8726.73
590.284	8714.08
590.643	8744.13
591.003	8686.73
591.362	8791.14
591.721	8785.72
592.08	8765.83
592.44	8818.26
592.799	8765.38
593.158	8731.48
593.517	8822.78
593.876	8825.26
594.235	8929.44
594.593	8809.22
594.952	8878.14
595.311	8900.06
595.67	8866.39
596.029	8894.19
596.387	8878.37
596.746	8892.15
597.104	8887.63
597.463	8881.53
597.822	8953.62
598.18	8926.05
598.538	8939.38
598.897	8994.75
599.255	8922.43
599.613	8948.87
599.972	8931.25
600.33	8998.14
600.688	8959.72
601.046	8977.8
601.404	9029.78
601.762	8945.03
602.12	9062.32
602.478	9023.9
602.836	9028.87
603.194	8984.58
603.552	9044.47
603.91	9047.18
604.268	9106.61
604.625	8973.73
604.983	8981.64
605.341	9025.26
605.698	9053.28
606.056	9075.43
606.413	9122.88
606.771	9037.46
607.128	9129.66
607.485	9070.45
607.843	9119.04
608.2	9144.35
608.557	9130.11
608.914	9123.33
609.272	9154.97
609.629	9174.18
609.986	9237.23
610.343	9153.16
610.7	9244.69
611.057	9280.17
611.414	9189.55
611.771	9154.75
612.127	9233.61
612.484	9187.29
612.841	9263.89
613.198	9283.33
613.554	9256.66
613.911	9301.18
614.267	9257.12
614.624	9261.64
614.98	9300.05
615.337	9272.48
615.693	9277.23
616.05	9338.24
616.406	9349.32
616.762	9333.27
617.118	9313.84
617.475	9345.93
617.831	9380.5
618.187	9342.99
618.543	9371.91
618.899	9418.02
619.255	9373.5
619.611	9385.93
619.967	9374.63
620.323	9402.65
620.678	9319.71
621.034	9338.02
621.39	9382.54
621.746	9364.91
622.101	9461.4
622.457	9352.03
622.812	9426.38
623.168	9504.34
623.523	9441.29
623.879	9464.79
624.234	9340.28
624.589	9417.56
624.945	9327.17
625.3	9416.43
625.655	9373.95
626.01	9433.16
626.365	9369.43
626.72	9366.49
627.075	9395.19
627.43	9422.53
627.785	9361.07
628.14	9392.93
628.495	9312.03
628.85	9357
629.205	9316.55
629.559	9324.01
629.914	9353.38
630.269	9328.75
630.623	9263.44
630.978	9297.79
631.332	9362.2
631.687	9226.38
632.041	9210.11
632.396	9318.81
632.75	9301.63
633.104	9250.56
633.459	9138.47
633.813	9178.7
634.167	9215.08
634.521	9129.89
634.875	9177.57
635.229	9154.75
635.583	9147.74
635.937	9181.64
636.291	9146.61
636.645	9148.64
636.999	9114.75
637.352	9127.63
637.706	9086.27
638.06	9065.48
638.413	9080.4
638.767	9101.19
639.121	8996.78
639.474	9059.15
639.828	9027.06
640.181	9054.63
640.534	9036.33
640.888	8981.19
641.241	8929.89
641.594	8976.9
641.947	8942.77
642.301	9005.37
642.654	9061.64
643.007	9001.08
643.36	8926.95
643.713	8970.12
644.066	8975.54
644.419	8948.42
644.771	8870.68
645.124	8761.31
645.477	8746.39
645.83	8740.52
646.182	8699.62
646.535	8660.52
646.888	8668.66
647.24	8628.88
647.593	8623.91
647.945	8576.46
648.298	8576.23
648.65	8590.24
649.002	8571.94
649.355	8659.84
649.707	8573.29
650.059	8703.46
650.411	8797.24
650.763	8752.27
651.115	8812.61
651.467	8807.64
651.819	8707.75
652.171	8882.66
652.523	8776.68
652.875	8800.63
653.227	8762.67
653.578	8781.65
653.93	8715.89
654.282	8730.12
654.633	8655.55
654.985	8700.52
655.337	8786.62
655.688	8753.17
656.039	8783.68
656.391	8739.39
656.742	8703.01
657.094	8732.38
657.445	8779.16
657.796	8741.87
658.147	8762.67
658.498	8726.06
658.849	8788.2
659.2	8725.6
659.551	8719.95
659.902	8819.16
660.253	8781.42
660.604	8726.73
660.955	8703.23
661.306	8771.25
661.656	8694.64
662.007	8727.86
662.358	8748.65
662.708	8721.99
663.059	8772.61
663.409	8633.4
663.76	8797.47
664.11	8783.68
664.461	8707.98
664.811	8736.68
665.161	8816.45
665.511	8778.03
665.862	8750.91
666.212	8793.17
666.562	8740.29
666.912	8709.33
667.262	8750.24
667.612	8780.97
667.962	8712.27
668.312	8745.94
668.662	8797.24
669.011	8704.59
669.361	8718.37
669.711	8752.95
670.06	8689.9
670.41	8739.39
670.76	8644.25
671.109	8762.21
671.459	8750.01
671.808	8731.71
672.157	8705.27
672.507	8596.12
672.856	8624.59
673.205	8632.05
673.554	8688.32
673.904	8629.11
674.253	8658.49
674.602	8618.04
674.951	8477.93
675.3	8465.27
675.649	8571.26
675.998	8545.95
676.346	8579.17
676.695	8577.81
677.044	8576
677.393	8555.21
677.741	8515.21
678.09	8554.08
678.438	8526.97
678.787	8552.5
679.135	8607.87
679.484	8498.94
679.832	8527.64
680.181	8509.79
680.529	8499.17
680.877	8445.39
681.225	8520.86
681.573	8471.15
681.922	8421.66
682.27	8348.89
682.618	8362.45
682.966	8409.91
683.314	8376.46
683.661	8396.8
684.009	8326.97
684.357	8293.3
684.705	8278.84
685.053	8277.71
685.4	8285.16
685.748	8252.62
686.095	8255.33
686.443	8179.4
686.79	8173.3
687.138	8185.96
687.485	8235.67
687.832	8165.17
688.18	8148.67
688.527	8099.18
688.874	8083.13
689.221	8022.8
689.568	8009.92
689.915	7983.7
690.262	7983.25
690.609	7982.57
690.956	7965.85
691.303	7884.5
691.65	7875.23
691.997	7909.35
692.344	7844.27
692.69	7901.22
693.037	7819.41
693.383	7803.14
693.73	7788.91
694.077	7708.68
694.423	7764.05
694.769	7710.26
695.116	7683.15
695.462	7747.1
695.808	7593.66
696.155	7728.12
696.501	7620.32
696.847	7602.7
697.193	7557.5
697.539	7571.28
697.885	7515.92
698.231	7507.33
698.577	7481.12
698.923	7429.59
699.269	7388.92
699.614	7375.58
699.96	7389.14
700.306	7373.1
700.651	7307.79
700.997	7285.64
701.342	7221.24
701.688	7261.69
702.033	7233.44
702.379	7253.1
702.724	7084.74
703.069	7190.5
703.415	7085.42
703.76	7079.77
704.105	7088.36
704.45	7075.93
704.795	7018.76
705.14	6997.97
705.485	7020.79
705.83	6958.87
706.175	6979.89
706.52	6918.65
706.865	6900.57
707.209	6882.71
707.554	6827.57
707.899	6874.81
708.243	6873
708.588	6832.77
708.932	6744.19
709.277	6787.12
709.621	6787.35
709.966	6716.84
710.31	6793.23
710.654	6668.26
710.998	6710.74
711.342	6700.35
711.687	6633
712.031	6589.61
712.375	6622.16
712.719	6635.72
713.063	6634.36
713.407	6637.75
713.75	6579.22
714.094	6581.48
714.438	6629.39
714.782	6501.48
715.125	6525.21
715.469	6544.87
715.812	6527.92
716.156	6475.95
716.499	6494.7
716.843	6539.9
717.186	6420.81
717.53	6479.56
717.873	6481.82
718.216	6451.99
718.559	6435.72
718.902	6350.75
719.246	6429.62
719.589	6392.11
719.932	6379.9
720.275	6409.73
720.617	6343.75
720.96	6356.63
721.303	6345.1
721.646	6370.86
721.989	6270.75
722.331	6318.44
722.674	6329.51
723.016	6366.34
723.359	6310.98
723.701	6275.5
724.044	6260.58
724.386	6226.91
724.729	6284.54
725.071	6265.33
725.413	6290.19
725.755	6260.58
726.097	6211.32
726.439	6231.21
726.782	6227.36
727.124	6260.36
727.465	6237.76
727.807	6237.53
728.149	6247.48
728.491	6183.07
728.833	6216.29
729.175	6181.04
729.516	6211.32
729.858	6209.51
730.199	6188.5
730.541	6157.31
730.882	6169.06
731.224	6181.26
731.565	6131.77
731.906	6147.14
732.248	6110.98
732.589	6146.91
732.93	6172.9
733.271	6124.09
733.612	6150.98
733.953	6108.95
734.294	6129.29
734.635	6177.2
734.976	6155.05
735.317	6135.62
735.658	6122.96
735.999	6158.89
736.339	6152.56
736.68	6149.85
737.021	6138.78
737.361	6111.89
737.702	6150.53
738.042	6132.9
738.383	6148.27
738.723	6210.42
739.063	6186.24
739.404	6182.17
739.744	6189.4
740.084	6174.48
740.424	6177.87
740.764	6190.08
741.104	6247.03
741.444	6207.48
741.784	6241.83
742.124	6181.94
742.464	6217.2
742.804	6228.49
743.143	6191.89
743.483	6231.43
743.823	6196.18
744.162	6223.75
744.502	6269.4
744.841	6276.85
745.181	6287.48
745.52	6246.57
745.86	6407.7
746.199	6385.55
746.538	6358.21
746.877	6429.17
747.216	6407.7
747.556	6452.22
747.895	6435.72
748.234	6502.61
748.573	6551.42
748.911	6587.58
749.25	6651.31
749.589	6677.75
749.928	6709.16
750.267	6766.11
750.605	6852.21
750.944	6859.66
751.283	6786.45
751.621	6961.36
751.96	6995.48
752.298	6964.97
752.636	7067.34
752.975	7143.5
753.313	7164.29
753.651	7254.46
753.989	7303.72
754.327	7365.87
754.666	7420.33
755.004	7529.25
755.342	7618.97
755.679	7700.09
756.017	7768.57
756.355	7920.2
756.693	7890.82
757.031	8026.64
757.368	8119.07
757.706	8182.79
758.044	8362.68
758.381	8442.22
758.719	8536.68
759.056	8621.43
759.394	8696
759.731	8756.34
760.068	8866.84
760.405	8950.91
760.743	9071.36
761.08	9221.86
761.417	9307.51
761.754	9360.16
762.091	9507.96
762.428	9640.83
762.765	9722.64
763.102	9799.02
763.438	9868.4
763.775	9960.6
764.112	10108.17
764.449	10242.4
764.785	10269.97
765.122	10307.48
765.458	10470.87
765.795	10555.16
766.131	10603.07
766.467	10747.47
766.804	10739.79
767.14	10828.6
767.476	10922.16
767.812	10951.53
768.148	11121.93
768.485	11162.83
768.821	11242.15
769.157	11290.51
769.492	11420.67
769.828	11497.73
770.164	11450.5
770.5	11532.76
770.836	11648.24
771.171	11699.76
771.507	11702.25
771.842	11717.39
772.178	11892.75
772.513	11910.6
772.849	11995.8
773.184	11958.97
773.519	12078.74
773.855	12007.33
774.19	12122.35
774.525	12135.23
774.86	12205.96
775.195	12183.82
775.53	12158.73
775.865	12335.68
776.2	12288
776.535	12179.52
776.87	12318.96
777.205	12240.31
777.539	12257.71
777.874	12284.38
778.209	12259.97
778.543	12237.15
778.878	12293.42
779.212	12320.54
779.547	12349.46
779.881	12323.25
780.215	12355.79
780.55	12431.04
780.884	12378.84
781.218	12358.73
781.552	12389.46
781.886	12397.37
782.22	12300.88
782.554	12301.1
782.888	12292.06
783.222	12256.36
783.556	12274.66
783.889	12296.13
784.223	12091.39
784.557	12191.5
784.89	12253.19
785.224	12205.06
785.557	12146.3
785.891	12211.39
786.224	12124.84
786.558	12196.25
786.891	12087.55
787.224	12027.66
787.557	12005.07
787.891	12023.82
788.224	12038.51
788.557	12016.14
788.89	12029.47
789.223	12058.85
789.556	11957.61
789.888	11968.68
790.221	12024.05
790.554	11852.53
790.887	11839.87
791.219	11879.42
791.552	11814.34
791.884	11711.29
792.217	11751.51
792.549	11764.85
792.882	11690.05
793.214	11696.15
793.546	11720.55
793.879	11648.24
794.211	11571.63
794.543	11663.83
794.875	11569.82
795.207	11637.62
795.539	11475.81
795.871	11566.89
796.203	11457.96
796.535	11422.48
796.867	11399.21
797.198	11388.81
797.53	11445.08
797.862	11309.26
798.193	11312.2
798.525	11299.1
798.856	11317.4
799.188	11248.7
799.519	11084.86
799.85	11126.67
800.182	11158.08
800.513	11066.56
800.844	11055.94
801.175	11170.96
801.506	11106.33
801.837	11063.4
802.168	11054.81
802.499	11013.91
802.83	10945.66
803.161	10905.66
803.491	10924.19
803.822	10920.35
804.153	10822.72
804.483	10752.67
804.814	10774.36
805.145	10816.4
805.475	10749.28
805.805	10685.78
806.136	10722.39
806.466	10639.9
806.796	10713.8
807.126	10650.07
807.457	10557.19
807.787	10572.11
808.117	10512.9
808.447	10451.43
808.777	10528.04
809.107	10506.12
809.436	10488.27
809.766	10478.55
810.096	10414.37
810.426	10428.61
810.755	10408.95
811.085	10389.74
811.414	10306.35
811.744	10260.7
812.073	10256.41
812.403	10217.09
812.732	10240.37
813.061	10207.6
813.39	10240.59
813.719	10213.02
814.049	10237.88
814.378	10177.32
814.707	10119.01
815.036	10139.58
815.365	10057.77
815.693	9977.55
816.022	10022.97
816.351	10020.94
816.68	9899.13
817.008	9956.53
817.337	9866.36
817.665	9856.42
817.994	9940.94
818.322	9876.08
818.651	9808.74
818.979	9800.83
819.307	9836.99
819.636	9781.17
819.964	9731.23
820.292	9808.51
820.62	9739.81
820.948	9783.43
821.276	9755.18
821.604	9714.05
821.932	9772.36
822.259	9736.88
822.587	9735.52
822.915	9717.22
823.243	9734.84
823.57	9731.45
823.898	9732.36
824.225	9702.75
824.553	9735.75
824.88	9750.44
825.207	9765.8
825.535	9740.94
825.862	9731.91
826.189	9732.58
826.516	9736.42
826.843	9757.89
827.17	9852.35
827.497	9754.73
827.824	9818.23
828.151	9787.5
828.478	9724.45
828.805	9825.69
829.131	9768.06
829.458	9744.56
829.785	9712.02
830.111	9720.83
830.438	9729.65
830.764	9766.93
831.09	9777.1
831.417	9712.24
831.743	9702.53
832.069	9679.25
832.395	9783.88
832.722	9698.01
833.048	9690.55
833.374	9716.54
833.7	9686.03
834.026	9627.5
834.351	9673.83
834.677	9690.78
835.003	9696.2
835.329	9682.19
835.654	9654.85
835.98	9622.53
836.306	9593.83
836.631	9490.1
836.956	9577.33
837.282	9585.47
837.607	9540.05
837.932	9514.06
838.258	9506.37
838.583	9564.68
838.908	9514.51
839.233	9543.89
839.558	9489.65
839.883	9445.13
840.208	9481.29
840.533	9412.14
840.858	9435.42
841.182	9382.99
841.507	9451.69
841.832	9350.45
842.156	9376.43
842.481	9334.63
842.805	9265.02
843.13	9375.08
843.454	9284.46
843.778	9253.73
844.103	9259.83
844.427	9227.06
844.751	9212.14
845.075	9135.99
845.399	9138.25
845.723	9096.89
846.047	9138.7
846.371	9045.6
846.695	9061.41
847.019	8990.23
847.343	8964.02
847.666	8878.14
847.99	8881.31
848.313	8864.58
848.637	8850.57
848.96	8770.8
849.284	8722.67
849.607	8701.2
849.931	8765.38
850.254	8597.25
850.577	8640.18
850.9	8545.27
851.223	8557.92
851.546	8520.86
851.869	8504.59
852.192	8454.42
852.515	8362
852.838	8400.64
853.161	8416.01
853.483	8330.59
853.806	8349.79
854.129	8331.72
854.451	8281.1
854.774	8235.45
855.096	8170.59
855.419	8214.88
855.741	8211.27
856.063	8146.86
856.385	8165.17
856.708	8139.18
857.03	8014.66
857.352	8077.71
857.674	8020.09
857.996	7963.59
858.318	7936.92
858.64	7874.1
858.961	7868.23
859.283	7861.9
859.605	7868
859.926	7874.55
860.248	7864.61
860.57	7806.53
860.891	7797.04
861.212	7741.9
861.534	7730.15
861.855	7702.81
862.176	7744.16
862.498	7759.53
862.819	7727.89
863.14	7661.9
863.461	7658.06
863.782	7656.03
864.103	7629.81
864.424	7663.26
864.745	7659.19
865.065	7554.11
865.386	7562.47
865.707	7631.4
866.027	7621
866.348	7551.4
866.668	7577.39
866.989	7519.31
867.309	7522.02
867.63	7477.28
867.95	7499.65
868.27	7425.07
868.59	7440.67
868.91	7451.74
869.23	7402.25
869.55	7369.26
869.87	7402.47
870.19	7389.14
870.51	7394.34
870.83	7418.52
871.15	7319.09
871.469	7368.58
871.789	7319.99
872.109	7340.56
872.428	7299.65
872.748	7290.39
873.067	7314.57
873.386	7299.43
873.706	7281.35
874.025	7229.6
874.344	7202.48
874.663	7255.59
874.982	7207.68
875.301	7269.6
875.62	7167.68
875.939	7183.95
876.258	7145.76
876.577	7190.28
876.896	7154.12
877.214	7112.99
877.533	7130.39
877.852	7161.13
878.17	7110.28
878.489	7177.17
878.807	7127
879.125	7076.16
879.444	7053.11
879.762	7076.61
880.08	7004.29
880.398	6970.4
880.716	7046.1
881.034	6953.45
881.352	7033.67
881.67	7005.88
881.988	6979.89
882.306	7000.23
882.624	6951.87
882.941	6889.04
883.259	6895.6
883.577	6905.09
883.894	6910.51
884.212	6861.92
884.529	6823.06
884.846	6781.47
885.164	6852.66
885.481	6795.03
885.798	6824.41
886.115	6740.8
886.432	6740.8
886.75	6738.09
887.067	6722.04
887.383	6703.06
887.7	6719.55
888.017	6666.67
888.334	6692.21
888.651	6652.44
888.967	6593.91
889.284	6576.06
889.6	6596.17
889.917	6576.51
890.233	6565.89
890.55	6449.73
890.866	6511.2
891.182	6463.29
891.498	6489.05
891.815	6410.41
892.131	6436.17
892.447	6425.1
892.763	6399.34
893.079	6345.33
893.395	6357.76
893.71	6309.4
894.026	6319.11
894.342	6322.73
894.657	6286.35
894.973	6227.36
895.289	6213.13
895.604	6295.61
895.92	6172.9
896.235	6183.3
896.55	6127.48
896.865	6128.84
897.181	6167.25
897.496	6174.26
897.811	6114.37
898.126	6099.23
898.441	6020.14
898.756	6026.47
899.071	5956.86
899.386	6013.13
899.7	5889.75
900.015	5936.07
900.33	5894.49
900.644	5916.19
900.959	5880.93
901.273	5901.5
901.588	5809.52
901.902	5805.45
902.216	5802.52
902.531	5778.56
902.845	5775.4
903.159	5674.84
903.473	5647.72
903.787	5661.5
904.101	5614.95
904.415	5636.65
904.729	5635.52
905.042	5601.84
905.356	5614.73
905.67	5585.12
905.984	5613.82
906.297	5534.05
906.611	5529.53
906.924	5485.92
907.237	5474.39
907.551	5439.14
907.864	5481.4
908.177	5420.15
908.491	5420.83
908.804	5343.09
909.117	5331.79
909.43	5303.1
909.743	5346.48
910.056	5314.39
910.368	5300.84
910.681	5235.53
910.994	5234.85
911.307	5234.4
911.619	5175.19
911.932	5188.97
912.244	5171.12
912.557	5140.39
912.869	5105.13
913.181	5088.41
913.494	5063.78
913.806	5061.97
914.118	5035.31
914.43	4950.34
914.742	4943.56
915.054	4961.64
915.366	4945.59
915.678	4912.37
915.99	4903.11
916.302	4899.94
916.613	4882.32
916.925	4856.55
917.236	4848.19
917.548	4838.93
917.859	4798.02
918.171	4754.63
918.482	4734.07
918.794	4735.88
919.105	4750.12
919.416	4650.68
919.727	4735.88
920.038	4670.57
920.349	4612.94
920.66	4616.56
920.971	4630.12
921.282	4651.59
921.593	4577.01
921.903	4563.45
922.214	4530.69
922.525	4479.84
922.835	4529.78
923.146	4442.33
923.456	4439.84
923.767	4392.61
924.077	4436.23
924.387	4421.99
924.697	4399.62
925.008	4369.11
925.318	4335.21
925.628	4354.42
925.938	4329.34
926.248	4285.27
926.558	4292.73
926.867	4283.23
927.177	4216.12
927.487	4287.75
927.796	4222.45
928.106	4185.84
928.416	4174.54
928.725	4198.94
929.034	4163.69
929.344	4114.2
929.653	4133.86
929.962	4061.55
930.271	4085.95
930.581	4025.84
930.89	4086.4
931.199	4053.86
931.508	4029.46
931.817	4029.46
932.125	3984.94
932.434	3998.95
932.743	3966.41
933.051	3962.57
933.36	3924.15
933.669	3914.88
933.977	3892.74
934.286	3908.1
934.594	3846.41
934.902	3845.73
935.21	3837.82
935.519	3845.73
935.827	3800.99
936.135	3772.74
936.443	3818.61
936.751	3725.06
937.059	3723.93
937.367	3711.5
937.674	3726.41
937.982	3736.36
938.29	3649.13
938.597	3672.63
938.905	3656.13
939.213	3612.29
939.52	3621.78
939.827	3632.63
940.135	3618.62
940.442	3589.92
940.749	3575.23
941.056	3540.43
941.363	3538.17
941.67	3548.34
941.977	3499.75
942.284	3483.93
942.591	3475.12
942.898	3455.69
943.205	3462.01
943.511	3450.26
943.818	3419.98
944.125	3420.88
944.431	3386.54
944.738	3413.88
945.044	3362.13
945.35	3371.17
945.657	3299.08
945.963	3332.53
946.269	3298.63
946.575	3321.9
946.881	3299.76
947.187	3271.96
947.493	3269.48
947.799	3252.75
948.105	3249.36
948.41	3204.62
948.716	3177.73
949.022	3178.63
949.327	3216.14
949.633	3158.52
949.938	3134.56
950.244	3157.84
950.549	3112.19
950.854	3109.93
951.16	3109.48
951.465	3092.98
951.77	3044.85
952.075	3071.97
952.38	3073.78
952.685	3039.2
952.99	3032.42
953.294	3024.28
953.599	2997.17
953.904	2948.58
954.209	2962.14
954.513	2983.38
954.818	2953.55
955.122	2971.4
955.426	2892.08
955.731	2924.4
956.035	2864.29
956.339	2890.96
956.643	2890.05
956.948	2860.45
957.252	2806.89
957.556	2855.7
957.86	2805.76
958.163	2826.32
958.467	2796.72
958.771	2788.58
959.075	2775.25
959.378	2738.19
959.682	2730.51
959.985	2729.6
960.289	2711.75
960.592	2707.91
960.896	2677.63
961.199	2704.75
961.502	2679.21
961.805	2686.21
962.108	2699.55
962.411	2646.44
962.714	2631.75
963.017	2626.56
963.32	2640.79
963.623	2619.32
963.926	2597.86
964.228	2599.21
964.531	2555.37
964.833	2596.05
965.136	2575.48
965.438	2558.08
965.741	2562.6
966.043	2528.93
966.345	2508.59
966.648	2505.2
966.95	2530.74
967.252	2493
967.554	2474.02
967.856	2480.12
968.158	2451.64
968.46	2431.08
968.761	2464.3
969.063	2395.6
969.365	2420.01
969.666	2394.7
969.968	2375.26
970.269	2393.79
970.571	2391.53
970.872	2370.97
971.174	2365.77
971.475	2349.27
971.776	2306.56
972.077	2336.17
972.378	2312.67
972.679	2320.35
972.98	2269.05
973.281	2308.6
973.582	2276.06
973.883	2292.1
974.183	2257.07
974.484	2283.74
974.785	2275.38
975.085	2222.27
975.386	2240.8
975.686	2206.45
975.986	2192.22
976.287	2213.23
976.587	2172.56
976.887	2166.23
977.187	2156.29
977.487	2169.17
977.787	2156.74
978.087	2114.93
978.387	2141.14
978.687	2090.52
978.987	2116.51
979.286	2088.26
979.586	2096.4
979.885	2052.79
980.185	2070.86
980.484	2039.68
980.784	2102.95
981.083	2069.51
981.382	2052.33
981.682	2031.09
981.981	2064.99
982.28	2051.66
982.579	2003.75
982.878	2004.88
983.177	2003.97
983.475	1987.93
983.774	1965.56
984.073	1973.47
984.372	1950.19
984.67	1961.26
984.969	1955.61
985.267	1953.58
985.566	1935.5
985.864	1934.82
986.162	1901.83
986.461	1878.78
986.759	1872.22
987.057	1886.24
987.355	1876.97
987.653	1869.74
987.951	1897.76
988.249	1866.12
988.547	1853.02
988.844	1833.81
989.142	1865.9
989.44	1869.74
989.737	1852.79
990.035	1795.62
990.332	1799.23
990.63	1764.66
990.927	1776.86
991.224	1791.32
991.521	1766.46
991.819	1754.26
992.116	1763.53
992.413	1769.4
992.71	1735.73
993.006	1742.96
993.303	1712.23
993.6	1741.15
993.897	1708.84
994.193	1695.96
994.49	1699.57
994.787	1687.6
995.083	1683.53
995.379	1648.5
995.676	1667.94
995.972	1649.18
996.268	1649.18
996.565	1668.84
996.861	1638.33
997.157	1612.12
997.453	1614.15
997.749	1606.02
998.044	1614.83
998.34	1603.53
998.636	1594.27
998.932	1580.26
999.227	1593.14
999.523	1553.59
999.818	1549.97
1000.114	1573.7
1000.409	1502.07
1000.704	1528.96
1001	1514.49
1001.295	1536.19
1001.59	1516.98
1001.885	1473.82
1002.18	1496.19
1002.475	1486.92
1002.77	1494.38
1003.065	1468.85
1003.359	1462.07
1003.654	1471.11
1003.949	1448.06
1004.243	1431.56
1004.538	1429.98
1004.832	1409.86
1005.127	1421.84
1005.421	1435.63
1005.715	1396.08
1006.009	1390.2
1006.304	1376.19
1006.598	1376.64
1006.892	1358.57
1007.186	1395.85
1007.48	1374.38
1007.773	1340.26
1008.067	1371.45
1008.361	1336.87
1008.655	1334.39
1008.948	1325.35
1009.242	1303.65
1009.535	1305.91
1009.829	1312.47
1010.122	1292.35
1010.415	1296.65
1010.708	1298.23
1011.001	1280.83
1011.295	1255.29
1011.588	1265.24
1011.881	1253.48
1012.173	1240.83
1012.466	1254.16
1012.759	1264.78
1013.052	1241.96
1013.344	1218.46
1013.637	1205.58
1013.93	1209.87
1014.222	1205.12
1014.514	1176.42
1014.807	1199.02
1015.099	1184.56
1015.391	1177.33
1015.683	1177.1
1015.976	1153.83
1016.268	1191.11
1016.56	1135.75
1016.851	1131
1017.143	1145.92
1017.435	1134.17
1017.727	1138.23
1018.018	1115.41
1018.31	1098.91
1018.602	1081.96
1018.893	1086.26
1019.185	1090.55
1019.476	1074.51
1019.767	1075.18
1020.058	1081.06
1020.35	1076.99
1020.641	1056.43
1020.932	1056.88
1021.223	1025.02
1021.514	1042.42
1021.804	1034.05
1022.095	1013.94
1022.386	1032.7
1022.677	1028.86
1022.967	1017.11
1023.258	1016.2
1023.548	1001.06
1023.839	995.41
1024.129	1005.58
1024.419	982.76
1024.709	989.76
1025	992.25
1025.29	942.98
1025.58	951.57
1025.87	954.28
1026.16	967.39
1026.449	946.83
1026.739	934.85
1027.029	946.15
1027.319	961.06
1027.608	921.52
1027.898	927.39
1028.187	929.88
1028.477	911.8
1028.766	918.58
1029.055	920.84
1029.344	908.41
1029.634	894.17
1029.923	893.27
1030.212	886.26
1030.501	878.8
1030.79	882.87
1031.078	851.69
1031.367	855.3
1031.656	836.55
1031.945	855.75
1032.233	845.59
1032.522	860.5
1032.81	839.94
1033.099	817.56
1033.387	827.05
1033.675	824.57
1033.963	788.86
1034.251	821.4
1034.54	806.72
1034.828	820.95
1035.116	800.16
1035.403	821.63
1035.691	786.6
1035.979	780.5
1036.267	803.1
1036.554	788.64
1036.842	784.12
1037.129	779.15
1037.417	758.13
1037.704	756.55
1037.992	755.42
1038.279	775.08
1038.566	764.46
1038.853	764.46
1039.14	764.46
