Data from hue_210_FLMS001491_00094.txt Node
Date: Tue Feb 07 16:42:00 GMT 2017
User: dcchb
Spectrometer: FLMS00149
Trigger mode: 0
Integration Time (sec): 2.000000E-2
Scans to average: 10
Electric dark correction enabled: true
Nonlinearity correction enabled: false
Boxcar width: 0
XAxis mode: Wavelengths
Number of Pixels in Spectrum: 2048
>>>>>Begin Spectral Data<<<<<
341.393	-26.55
341.776	-26.55
342.16	-26.55
342.543	-45.08
342.927	-80.79
343.31	-72.88
343.693	-66.55
344.077	-57.51
344.46	-40.79
344.843	-70.85
345.226	-17.06
345.61	-21.36
345.993	-36.95
346.376	-7.12
346.759	9.15
347.142	38.76
347.525	28.59
347.908	57.29
348.291	59.09
348.674	86.89
349.057	111.3
349.44	138.19
349.823	154.91
350.206	174.57
350.588	184.97
350.971	200.33
351.354	221.8
351.737	239.65
352.119	231.29
352.502	247.11
352.884	286.66
353.267	283.27
353.65	290.05
354.032	290.73
354.414	306.55
354.797	321.01
355.179	325.75
355.562	342.93
355.944	325.53
356.326	346.09
356.709	331.86
357.091	316.49
357.473	333.44
357.855	320.56
358.238	360.1
358.62	343.61
359.002	334.79
359.384	338.86
359.766	349.26
360.148	340.89
360.53	351.52
360.912	318.75
361.294	326.43
361.676	329.14
362.057	320.1
362.439	337.28
362.821	325.3
363.203	313.55
363.584	324.85
363.966	318.52
364.348	331.86
364.729	329.6
365.111	319.88
365.493	316.04
365.874	301.57
366.256	316.04
366.637	300.9
367.019	302.7
367.4	314
367.781	309.26
368.163	298.64
368.544	337.96
368.925	317.84
369.306	312.65
369.688	300.67
370.069	303.16
370.45	315.13
370.831	324.17
371.212	321.23
371.593	328.92
371.974	309.48
372.355	311.52
372.736	332.08
373.117	305.87
373.498	300.22
373.879	321.46
374.26	311.97
374.641	312.65
375.021	320.78
375.402	318.07
375.783	299.09
376.163	312.2
376.544	322.82
376.925	321.01
377.305	314.68
377.686	331.4
378.066	337.05
378.447	324.85
378.827	328.01
379.208	316.49
379.588	333.66
379.968	326.21
380.349	321.69
380.729	332.99
381.109	354.91
381.489	336.38
381.87	324.17
382.25	333.44
382.63	331.18
383.01	352.42
383.39	348.35
383.77	324.4
384.15	329.14
384.53	341.35
384.91	347
385.29	346.54
385.67	364.62
386.049	371.63
386.429	341.12
386.809	355.13
387.189	359.2
387.568	357.84
387.948	349.26
388.328	355.36
388.707	359.65
389.087	351.97
389.466	374.11
389.846	358.3
390.225	384.06
390.605	383.61
390.984	358.3
391.363	362.82
391.743	388.8
392.122	368.01
392.501	377.73
392.881	372.76
393.26	390.61
393.639	376.83
394.018	373.21
394.397	379.54
394.776	374.79
395.155	385.19
395.534	407.11
395.913	389.71
396.292	410.95
396.671	394
397.05	410.05
397.429	394.23
397.808	403.49
398.186	399.2
398.565	379.31
398.944	413.21
399.323	400.1
399.701	408.24
400.08	430.61
400.458	405.75
400.837	407.79
401.215	424.73
401.594	415.47
401.972	419.09
402.351	431.29
402.729	441.01
403.107	434.23
403.486	429.25
403.864	434.45
404.242	442.59
404.62	429.93
404.999	432.64
405.377	445.3
405.755	444.85
406.133	466.99
406.511	460.21
406.889	485.52
407.267	477.16
407.645	499.08
408.023	501.34
408.401	497.95
408.779	508.35
409.156	496.37
409.534	501.79
409.912	508.35
410.29	528.91
410.667	542.7
411.045	540.89
411.422	529.59
411.8	536.37
412.178	568.01
412.555	575.69
412.933	580.66
413.31	603.03
413.687	590.83
414.065	616.14
414.442	617.95
414.819	645.97
415.197	631.51
415.574	646.2
415.951	639.19
416.328	655.91
416.705	662.24
417.082	685.97
417.46	684.84
417.837	701.34
418.214	721
418.591	688
418.967	700.89
419.344	731.85
419.721	734.33
420.098	726.42
420.475	757.16
420.852	782.92
421.228	761.22
421.605	795.35
421.982	802.13
422.358	822.01
422.735	847.1
423.111	851.62
423.488	866.08
423.864	857.27
424.241	866.98
424.617	907.66
424.994	939.07
425.37	930.94
425.746	909.92
426.123	942.24
426.499	963.03
426.875	947.88
427.251	977.71
427.627	998.5
428.003	1001.89
428.379	1038.05
428.756	1040.99
429.132	1036.24
429.507	1069.01
429.883	1078.28
430.259	1092.74
430.635	1099.97
431.011	1109.46
431.387	1143.36
431.763	1154.66
432.138	1146.07
432.514	1201.44
432.89	1159.86
433.265	1231.27
433.641	1248.22
434.016	1254.77
434.392	1283.24
434.767	1307.65
435.143	1294.09
435.518	1362.11
435.894	1378.38
436.269	1398.72
436.644	1438.95
437.02	1458.15
437.395	1456.35
437.77	1479.62
438.145	1474.65
438.52	1513.75
438.895	1571.82
439.271	1591.48
439.646	1598.72
440.021	1587.87
440.395	1638.94
440.77	1656.79
441.145	1663.57
441.52	1692.05
441.895	1725.04
442.27	1766.85
442.645	1737.02
443.019	1768.43
443.394	1768.65
443.769	1789.22
444.143	1800.07
444.518	1831.25
444.892	1862.66
445.267	1838.93
445.641	1884.58
446.016	1871.25
446.39	1909.89
446.764	1929.55
447.139	1932.72
447.513	2009.33
447.887	1986.5
448.262	1967.29
448.636	1981.08
449.01	2040.96
449.384	2021.08
449.758	2052.71
450.132	2066.05
450.506	2082.54
450.88	2093.39
451.254	2103.11
451.628	2136.55
452.002	2158.47
452.376	2168.64
452.75	2192.37
453.123	2199.6
453.497	2236.44
453.871	2276.66
454.244	2328.19
454.618	2305.14
454.992	2321.63
455.365	2341.75
455.739	2401.86
456.112	2435.3
456.486	2409.77
456.859	2460.84
457.232	2510.56
457.606	2525.24
457.979	2515.98
458.352	2606.82
458.725	2622.42
459.099	2629.65
459.472	2676.2
459.845	2665.13
460.218	2746.71
460.591	2744
460.964	2758.68
461.337	2809.53
461.71	2827.61
462.083	2901.51
462.456	2909.19
462.829	2911.67
463.201	2971.11
463.574	2978.11
463.947	3027.83
464.32	3084.1
464.692	3113.48
465.065	3131.1
465.438	3175.85
465.81	3204.32
466.183	3247.49
466.555	3299.46
466.928	3310.76
467.3	3330.42
467.672	3337.2
468.045	3482.73
468.417	3481.6
468.789	3513.24
469.161	3547.14
469.534	3585.1
469.906	3673.69
470.278	3655.16
470.65	3710.07
471.022	3793.91
471.394	3841.82
471.766	3870.52
472.138	3915.94
472.51	3941.7
472.882	4055.37
473.253	4016.96
473.625	4095.37
473.997	4174.01
474.369	4222.15
474.74	4206.78
475.112	4339.21
475.484	4373.56
475.855	4471.63
476.227	4486.1
476.598	4656.49
476.97	4620.33
477.341	4771.29
477.713	4778.74
478.084	4833.43
478.455	4932.86
478.827	4972.41
479.198	5070.71
479.569	5053.99
479.94	5199.98
480.311	5309.35
480.682	5386.64
481.053	5433.19
481.424	5565.39
481.795	5587.76
482.166	5666.63
482.537	5772.62
482.908	5810.36
483.279	5828.89
483.65	5957.47
484.021	6088.54
484.391	6134.19
484.762	6177.13
485.133	6232.27
485.503	6320.85
485.874	6440.4
486.244	6495.54
486.615	6599.49
486.985	6648.75
487.356	6743.44
487.726	6766.04
488.097	6889.2
488.467	6893.94
488.837	7021.4
489.207	7130.32
489.578	7213.71
489.948	7275.4
490.318	7354.27
490.688	7397.66
491.058	7452.35
491.428	7575.51
491.798	7619.35
492.168	7733.47
492.538	7780.02
492.908	7833.13
493.278	7919.45
493.648	7929.4
494.017	7976.63
494.387	8091.43
494.757	8126.23
495.126	8169.84
495.496	8205.77
495.866	8213.46
496.235	8327.13
496.605	8376.39
496.974	8398.08
497.344	8482.38
497.713	8522.6
498.082	8548.14
498.452	8608.47
498.821	8623.62
499.19	8643.28
499.559	8678.53
499.928	8738.64
500.298	8845.08
500.667	8802.82
501.036	8819.77
501.405	8909.03
501.774	8874.23
502.143	8918.07
502.512	8991.29
502.88	9023.83
503.249	9091.63
503.618	9071.96
503.987	9181.34
504.356	9147.44
504.724	9171.17
505.093	9152.64
505.462	9252.98
505.83	9261.11
506.199	9293.43
506.567	9399.64
506.936	9379.08
507.304	9435.57
507.672	9421.79
508.041	9441.45
508.409	9478.51
508.777	9598.96
509.145	9563.03
509.514	9577.04
509.882	9554.66
510.25	9607.32
510.618	9579.07
510.986	9659.97
511.354	9651.84
511.722	9733.87
512.09	9778.16
512.458	9691.38
512.826	9788.56
513.193	9863.13
513.561	9793.53
513.929	9826.3
514.297	9837.82
514.664	9991.49
515.032	9934.32
515.4	9985.61
515.767	9950.59
516.135	9977.7
516.502	9879.63
516.869	10063.58
517.237	10021.54
517.604	9946.52
517.972	10054.99
518.339	10029.68
518.706	10094.08
519.073	10041.43
519.44	10067.87
519.808	10144.71
520.175	10051.15
520.542	10189
520.909	10143.58
521.276	10181.09
521.643	10260.63
522.009	10176.79
522.376	10253.85
522.743	10229
523.11	10289.11
523.477	10374.98
523.843	10362.1
524.21	10306.73
524.577	10382.89
524.943	10414.75
525.31	10438.26
525.676	10407.07
526.043	10501.98
526.409	10456.79
526.776	10496.33
527.142	10437.8
527.508	10391.03
527.874	10507.86
528.241	10454.3
528.607	10426.51
528.973	10563.23
529.339	10520.29
529.705	10478.26
530.071	10562.77
530.437	10549.89
530.803	10557.12
531.169	10516.22
531.535	10432.38
531.901	10463.79
532.267	10504.7
532.632	10478.26
532.998	10518.93
533.364	10435.54
533.73	10466.5
534.095	10514.64
534.461	10448.65
534.826	10413.17
535.192	10420.18
535.557	10459.27
535.923	10396.9
536.288	10427.64
536.653	10394.64
537.019	10278.49
537.384	10371.82
537.749	10323.68
538.114	10274.65
538.479	10162.78
538.845	10296.57
539.21	10166.17
539.575	10195.1
539.94	10178.6
540.305	10164.14
540.67	10064.71
541.034	10091.6
541.399	10075.78
541.764	10058.15
542.129	10080.98
542.494	9955.11
542.858	9984.94
543.223	9901.32
543.587	9952.17
543.952	9890.93
544.316	9845.96
544.681	9794.66
545.045	9821.78
545.41	9809.8
545.774	9756.24
546.138	9785.39
546.503	9734.77
546.867	9626.07
547.231	9683.47
547.595	9682.34
547.959	9632.4
548.324	9543.14
548.688	9550.82
549.052	9538.62
549.416	9542.23
549.779	9509.69
550.143	9410.71
550.507	9493.2
550.871	9480.54
551.235	9387.21
551.599	9393.54
551.962	9351.28
552.326	9351.51
552.689	9307.21
553.053	9277.16
553.417	9240.55
553.78	9366.19
554.143	9259.76
554.507	9231.06
554.87	9242.36
555.234	9237.61
555.597	9209.81
555.96	9133.43
556.323	9190.61
556.686	9162.81
557.05	9123.26
557.413	9109.03
557.776	9084.62
558.139	9102.25
558.502	9093.43
558.865	9081.23
559.228	9101.34
559.59	9074.9
559.953	9097.27
560.316	9130.27
560.679	9083.26
561.041	9067.45
561.404	9097.5
561.767	9144.51
562.129	9049.59
562.492	9116.71
562.854	9078.74
563.217	9090.95
563.579	9060.21
563.941	9072.87
564.304	9047.11
564.666	9095.02
565.028	9130.04
565.39	9041.01
565.753	9084.17
566.115	9079.87
566.477	9122.36
566.839	9106.99
567.201	9083.72
567.563	9064.73
567.925	9209.59
568.287	9222.02
568.648	9130.04
569.01	9154.67
569.372	9261.11
569.734	9214.56
570.095	9204.62
570.457	9224.05
570.819	9254.33
571.18	9204.62
571.542	9277.16
571.903	9206.65
572.265	9257.27
572.626	9256.37
572.987	9295.46
573.349	9213.2
573.71	9304.28
574.071	9291.17
574.432	9287.55
574.794	9381.79
575.155	9342.47
575.516	9307.21
575.877	9375.69
576.238	9354.9
576.599	9345.63
576.96	9464.5
577.32	9413.42
577.681	9368.91
578.042	9394.89
578.403	9405.52
578.763	9447.1
579.124	9410.94
579.485	9437.83
579.845	9484.84
580.206	9442.35
580.566	9435.8
580.927	9496.59
581.287	9561.22
581.648	9401.45
582.008	9539.07
582.368	9506.98
582.728	9491.61
583.089	9522.8
583.449	9577.04
583.809	9516.92
584.169	9562.57
584.529	9489.13
584.889	9654.77
585.249	9510.6
585.609	9517.83
585.969	9584.95
586.329	9516.92
586.688	9557.83
587.048	9517.38
587.408	9630.82
587.768	9557.15
588.127	9588.34
588.487	9539.07
588.846	9666.3
589.206	9591.27
589.565	9613.87
589.925	9617.04
590.284	9612.97
590.643	9598.28
591.003	9611.61
591.362	9633.76
591.721	9672.63
592.08	9594.44
592.44	9703.13
592.799	9640.99
593.158	9651.84
593.517	9646.19
593.876	9615
594.235	9635.57
594.593	9650.25
594.952	9676.02
595.311	9634.21
595.67	9645.28
596.029	9746.3
596.387	9655.9
596.746	9732.51
597.104	9701.78
597.463	9640.31
597.822	9668.56
598.18	9631.05
598.538	9609.13
598.897	9731.38
599.255	9569.58
599.613	9728.44
599.972	9711.5
600.33	9696.81
600.688	9618.39
601.046	9697.49
601.404	9694.32
601.762	9660.2
602.12	9764.83
602.478	9757.14
602.836	9709.69
603.194	9692.06
603.552	9726.41
603.91	9671.5
604.268	9655.9
604.625	9666.3
604.983	9732.51
605.341	9634.44
605.698	9782.23
606.056	9760.08
606.413	9711.04
606.771	9781.1
607.128	9755.34
607.485	9733.64
607.843	9754.43
608.2	9778.16
608.557	9831.04
608.914	9753.53
609.272	9784.04
609.629	9721.67
609.986	9765.28
610.343	9767.99
610.7	9831.04
611.057	9805.96
611.414	9800.53
611.771	9767.31
612.127	9876.46
612.484	9883.69
612.841	9898.61
613.198	9837.82
613.554	9817.93
613.911	9889.57
614.267	9932.73
614.624	9939.06
614.98	9851.83
615.337	9912.17
615.693	9886.41
616.05	9946.74
616.406	9926.41
616.762	9940.64
617.118	9852.96
617.475	9938.38
617.831	10037.82
618.187	9909.23
618.543	9925.73
618.899	10029.23
619.255	9997.14
619.611	10044.59
619.967	10051.83
620.323	10046.4
620.678	9991.49
621.034	9997.36
621.39	10036.23
621.746	9932.06
622.101	10100.19
622.457	9994.43
622.812	10032.62
623.168	9987.42
623.523	9977.93
623.879	10063.13
624.234	9934.99
624.589	10085.27
624.945	9921.89
625.3	9953.52
625.655	10022.45
626.01	10006.86
626.365	10069.9
626.72	9918.95
627.075	9977.48
627.43	9979.51
627.785	10006.63
628.14	10009.79
628.495	9951.26
628.85	9986.52
629.205	9937.25
629.559	10024.48
629.914	9939.51
630.269	9949.46
630.623	9870.81
630.978	9879.4
631.332	9835.56
631.687	9894.32
632.041	9858.84
632.396	9891.15
632.75	9800.31
633.104	9892.73
633.459	9830.81
633.813	9802.79
634.167	9814.77
634.521	9857.48
634.875	9839.85
635.229	9764.83
635.583	9767.09
635.937	9726.64
636.291	9685.06
636.645	9746.98
636.999	9735.68
637.352	9726.86
637.706	9652.74
638.06	9711.95
638.413	9630.14
638.767	9605.74
639.121	9622.91
639.474	9608
639.828	9592.4
640.181	9690.25
640.534	9554.21
640.888	9555.57
641.241	9534.1
641.594	9601.89
641.947	9600.99
642.301	9552.4
642.654	9522.57
643.007	9582.46
643.36	9495.46
643.713	9462.24
644.066	9523.25
644.419	9482.12
644.771	9415.91
645.124	9348.34
645.477	9373.65
645.83	9286.42
646.182	9245.97
646.535	9247.78
646.888	9176.82
647.24	9209.81
647.593	9245.75
647.945	9234.22
648.298	9146.54
648.65	9155.8
649.002	9166.65
649.355	9197.39
649.707	9149.02
650.059	9265.18
650.411	9419.3
650.763	9397.38
651.115	9431.28
651.467	9499.75
651.819	9403.26
652.171	9388.57
652.523	9350.6
652.875	9462.46
653.227	9376.14
653.578	9444.61
653.93	9361.9
654.282	9375.46
654.633	9363.71
654.985	9417.72
655.337	9386.76
655.688	9461.56
656.039	9417.72
656.391	9304.73
656.742	9347.89
657.094	9448.23
657.445	9432.63
657.796	9344.5
658.147	9365.29
658.498	9351.51
658.849	9439.64
659.2	9429.47
659.551	9381.11
659.902	9439.64
660.253	9439.86
660.604	9426.31
660.955	9403.48
661.306	9486.87
661.656	9498.39
662.007	9456.81
662.358	9463.82
662.708	9450.03
663.059	9411.84
663.409	9365.06
663.76	9549.69
664.11	9469.02
664.461	9472.63
664.811	9512.86
665.161	9534.78
665.511	9452.75
665.862	9540.88
666.212	9607.77
666.562	9544.04
666.912	9431.28
667.262	9417.04
667.612	9501.78
667.962	9534.33
668.312	9433.09
668.662	9551.05
669.011	9427.66
669.361	9459.07
669.711	9465.63
670.06	9481.9
670.41	9410.49
670.76	9421.56
671.109	9430.15
671.459	9431.5
671.808	9405.29
672.157	9417.27
672.507	9384.95
672.856	9392.18
673.205	9386.08
673.554	9312.86
673.904	9326.2
674.253	9380.21
674.602	9399.41
674.951	9250.49
675.3	9212.75
675.649	9365.29
675.998	9340.66
676.346	9329.13
676.695	9391.96
677.044	9298.17
677.393	9345.86
677.741	9300.21
678.09	9273.32
678.438	9237.16
678.787	9286.42
679.135	9309.47
679.484	9179.98
679.832	9227.67
680.181	9167.78
680.529	9195.8
680.877	9099.99
681.225	9144.96
681.573	9223.83
681.922	9145.64
682.27	9078.52
682.618	9106.54
682.966	9077.61
683.314	9073.55
683.661	9036.49
684.009	9011.63
684.357	8988.8
684.705	8968.92
685.053	8958.07
685.4	8963.95
685.748	8914.68
686.095	8890.5
686.443	8867
686.79	8839.65
687.138	8825.87
687.485	8859.99
687.832	8782.48
688.18	8824.29
688.527	8801.46
688.874	8685.31
689.221	8750.17
689.568	8610.96
689.915	8664.29
690.262	8684.4
690.609	8592.2
690.956	8629.04
691.303	8563.05
691.65	8555.82
691.997	8502.71
692.344	8441.25
692.69	8482.38
693.037	8469.49
693.383	8342.04
693.73	8363.06
694.077	8301.14
694.423	8335.71
694.769	8319.89
695.116	8263.17
695.462	8183.17
695.808	8183.17
696.155	8210.29
696.501	8156.73
696.847	8138.2
697.193	8081.93
697.539	8158.77
697.885	7983.41
698.231	8005.1
698.577	7957.42
698.923	8000.58
699.269	7910.19
699.614	7892.11
699.96	7858.66
700.306	7847.82
700.651	7822.96
700.997	7733.47
701.342	7747.25
701.688	7721.27
702.033	7695.28
702.379	7644.88
702.724	7635.62
703.069	7643.08
703.415	7517.43
703.76	7544.32
704.105	7517.43
704.45	7531.89
704.795	7450.31
705.14	7415.29
705.485	7477.66
705.83	7380.26
706.175	7353.37
706.52	7400.14
706.865	7321.5
707.209	7293.25
707.554	7324.67
707.899	7257.78
708.243	7246.93
708.588	7246.48
708.932	7203.31
709.277	7171.9
709.621	7212.35
709.966	7126.03
710.31	7188.4
710.654	7073.6
710.998	7079.25
711.342	7036.31
711.687	7041.28
712.031	6981.62
712.375	6967.61
712.719	6975.3
713.063	6977.56
713.407	6964.45
713.75	6874.96
714.094	6947.95
714.438	6924.22
714.782	6910.67
715.125	6888.52
715.469	6910.67
715.812	6866.6
716.156	6802.65
716.499	6871.12
716.843	6874.51
717.186	6815.98
717.53	6837
717.873	6810.56
718.216	6828.41
718.559	6770.33
718.902	6718.35
719.246	6745.92
719.589	6727.62
719.932	6692.37
720.275	6714.96
720.617	6691.46
720.96	6643.55
721.303	6696.43
721.646	6695.3
721.989	6656.66
722.331	6653.95
722.674	6667.28
723.016	6677.45
723.359	6664.12
723.701	6643.55
724.044	6638.36
724.386	6626.15
724.729	6598.13
725.071	6616.21
725.413	6597.68
725.755	6619.83
726.097	6536.66
726.439	6535.08
726.782	6557.45
727.124	6626.61
727.465	6573.27
727.807	6519.94
728.149	6520.62
728.491	6540.51
728.833	6572.6
729.175	6557
729.516	6573.95
729.858	6565.82
730.199	6510.22
730.541	6573.5
730.882	6523.56
731.224	6505.03
731.565	6497.8
731.906	6526.5
732.248	6548.87
732.589	6572.14
732.93	6524.69
733.271	6525.59
733.612	6513.39
733.953	6537.57
734.294	6551.35
734.635	6532.82
734.976	6538.02
735.317	6543.22
735.658	6545.25
735.999	6520.85
736.339	6523.56
736.68	6534.86
737.021	6552.71
737.361	6578.47
737.702	6567.4
738.042	6586.15
738.383	6557.91
738.723	6630.67
739.063	6607.17
739.404	6613.5
739.744	6587.96
740.084	6635.64
740.424	6573.05
740.764	6630.22
741.104	6692.37
741.444	6621.18
741.784	6646.72
742.124	6677
742.464	6693.72
742.804	6650.79
743.143	6710.22
743.483	6709.09
743.823	6751.35
744.162	6731.69
744.502	6796.54
744.841	6815.08
745.181	6839.26
745.52	6869.08
745.86	6862.53
746.199	6965.35
746.538	6977.33
746.877	7029.53
747.216	7044.22
747.556	7088.74
747.895	7176.2
748.234	7187.04
748.573	7219.13
748.911	7308.62
749.25	7375.96
749.589	7383.42
749.928	7486.7
750.267	7519.46
750.605	7597.88
750.944	7610.31
751.283	7658.89
751.621	7827.48
751.96	7854.14
752.298	7973.69
752.636	8045.55
752.975	8189.5
753.313	8225.43
753.651	8335.26
753.989	8440.34
754.327	8560.11
754.666	8598.53
755.004	8732.76
755.342	8909.48
755.679	9037.16
756.017	9154.9
756.355	9278.97
756.693	9359.41
757.031	9600.09
757.368	9653.19
757.706	9804.37
758.044	9910.59
758.381	10086.85
758.719	10150.13
759.056	10383.57
759.394	10575.88
759.731	10660.85
760.068	10800.51
760.405	10924.57
760.743	11048.86
761.08	11273.49
761.417	11429.42
761.754	11572.01
762.091	11746.47
762.428	11943.3
762.765	12074.82
763.102	12241.83
763.438	12467.58
763.775	12578.54
764.112	12689.04
764.449	12978.3
764.785	13007.68
765.122	13230.27
765.458	13377.39
765.795	13485.18
766.131	13653.99
766.467	13868.9
766.804	13957.26
767.14	14062.12
767.476	14227.76
767.812	14377.36
768.148	14494.87
768.485	14620.97
768.821	14807.86
769.157	14829.33
769.492	14981.19
769.828	15171.24
770.164	15200.39
770.5	15412.14
770.836	15481.29
771.171	15482.87
771.507	15586.82
771.842	15721.73
772.178	15817.32
772.513	15956.08
772.849	15996.53
773.184	16061.39
773.519	16202.4
773.855	16276.07
774.19	16291.44
774.525	16424.54
774.86	16427.7
775.195	16457.31
775.53	16548.15
775.865	16615.27
776.2	16607.36
776.535	16635.61
776.87	16774.36
777.205	16759.9
777.539	16768.49
777.874	16892.55
778.209	16837.64
778.543	16961.02
778.878	16862.27
779.212	17011.19
779.547	17008.03
779.881	17025.65
780.215	17023.39
780.55	17164.86
780.884	17145.88
781.218	17144.29
781.552	17149.04
781.886	17159.21
782.22	17236.95
782.554	17205.99
782.888	17072.43
783.222	17118.76
783.556	17173.45
783.889	17156.95
784.223	16984.53
784.557	17128.48
784.89	17169.38
785.224	17108.59
785.557	17112.43
785.891	17026.11
786.224	16996.73
786.558	17096.61
786.891	16961.47
787.224	16992.89
787.557	16903.62
787.891	17038.31
788.224	16993.11
788.557	17054.81
788.89	17003.96
789.223	17046.22
789.556	16881.93
789.888	16824.53
790.221	16842.61
790.554	16740.24
790.887	16803.29
791.219	16779.78
791.552	16777.07
791.884	16772.33
792.217	16645.33
792.549	16615.5
792.882	16577.08
793.214	16596.29
793.546	16588.38
793.879	16508.61
794.211	16481.49
794.543	16478.1
794.875	16494.14
795.207	16564.65
795.539	16464.09
795.871	16375.05
796.203	16295.28
796.535	16278.78
796.867	16270.19
797.198	16256.41
797.53	16336.63
797.862	16134.15
798.193	16244.66
798.525	16121.27
798.856	16124.66
799.188	16001.27
799.519	16009.41
799.85	15914.95
800.182	15891.22
800.513	15900.03
800.844	15780.49
801.175	15894.16
801.506	15898.9
801.837	15731.22
802.168	15662.53
802.499	15662.07
802.83	15658.91
803.161	15604.45
803.491	15562.19
803.822	15502.08
804.153	15512.93
804.483	15422.98
804.814	15433.38
805.145	15415.75
805.475	15393.15
805.805	15269.09
806.136	15338.47
806.466	15315.64
806.796	15263.21
807.126	15142.31
807.457	15091.92
807.787	15173.95
808.117	15065.71
808.447	15035.88
808.777	15074.74
809.107	15087.63
809.436	15012.83
809.766	14948.42
810.096	14944.8
810.426	14863.23
810.755	14926.73
811.085	14870.68
811.414	14803.57
811.744	14673.17
812.073	14829.1
812.403	14705.26
812.732	14637.92
813.061	14686.05
813.39	14543.01
813.719	14557.24
814.049	14685.83
814.378	14576.9
814.707	14529.45
815.036	14497.13
815.365	14491.71
815.693	14343.69
816.022	14338.95
816.351	14372.84
816.68	14253.75
817.008	14393.18
817.337	14273.64
817.665	14096.01
817.994	14199.06
818.322	14166.52
818.651	14067.09
818.979	14039.52
819.307	14127.2
819.636	14124.71
819.964	14070.7
820.292	14047.43
820.62	14023.25
820.948	13995.45
821.276	14043.36
821.604	14081.1
821.932	13998.61
822.259	14029.35
822.587	13993.19
822.915	13959.52
823.243	13981.67
823.57	13967.66
823.898	14035.45
824.225	13965.85
824.553	14014.43
824.88	13984.38
825.207	14061.89
825.535	14010.14
825.862	14034.09
826.189	14034.55
826.516	14067.99
826.843	14074.09
827.17	14055.79
827.497	14032.06
827.824	14072.29
828.151	14117.03
828.478	14072.96
828.805	14179.63
829.131	14006.98
829.458	14045.85
829.785	13971.95
830.111	14011.27
830.438	14173.53
830.764	14103.92
831.09	14060.76
831.417	14053.53
831.743	14043.36
832.069	14022.34
832.395	13931.72
832.722	14017.15
833.048	13946.41
833.374	14033.42
833.7	13938.28
834.026	13913.19
834.351	13922.91
834.677	13906.87
835.003	13955.9
835.329	13954.77
835.654	13980.08
835.98	13971.5
836.306	13929.92
836.631	13828
836.956	13797.94
837.282	13841.33
837.607	13827.77
837.932	13786.42
838.258	13717.04
838.583	13818.73
838.908	13636.82
839.233	13676.14
839.558	13632.52
839.883	13597.95
840.208	13644.05
840.533	13626.87
840.858	13590.94
841.182	13627.55
841.507	13553.88
841.832	13519.53
842.156	13521.79
842.481	13414.22
842.805	13413.09
843.13	13408.8
843.454	13369.25
843.778	13245.64
844.103	13281.57
844.427	13279.31
844.751	13279.09
845.075	13205.42
845.399	13249.03
845.723	13125.64
846.047	13208.81
846.371	12931.07
846.695	13024.86
847.019	12884.29
847.343	12953.9
847.666	12831.64
847.99	12785.09
848.313	12786.9
848.637	12759.78
848.96	12704.86
849.284	12651.53
849.607	12492.89
849.931	12471.88
850.254	12351.88
850.577	12378.77
850.9	12259
851.223	12290.19
851.546	12268.26
851.869	12153.47
852.192	12262.16
852.515	12108.72
852.838	12069.63
853.161	12025.79
853.483	12009.97
853.806	11849.74
854.129	11941.04
854.451	11915.05
854.774	11794.38
855.096	11779.01
855.419	11742.4
855.741	11717.77
856.063	11639.81
856.385	11665.12
856.708	11638.45
857.03	11529.53
857.352	11534.27
857.674	11525.91
857.996	11475.97
858.318	11433.26
858.64	11373.15
858.961	11304.45
859.283	11278.91
859.605	11226.94
859.926	11333.83
860.248	11196.2
860.57	11141.29
860.891	11161.63
861.212	11205.02
861.534	11094.06
861.855	11080.27
862.176	11071.23
862.498	11120.72
862.819	11078.47
863.14	11089.54
863.461	11006.38
863.782	10989.43
864.103	10970.67
864.424	10955.98
864.745	11025.81
865.065	10831.69
865.386	10822.65
865.707	10878.47
866.027	10870.56
866.348	10777
866.668	10781.52
866.989	10784.46
867.309	10688.65
867.63	10729.55
867.95	10742.88
868.27	10668.53
868.59	10698.81
868.91	10645.26
869.23	10643
869.55	10566.16
869.87	10679.15
870.19	10652.26
870.51	10624.92
870.83	10613.62
871.15	10534.53
871.469	10591.7
871.789	10606.16
872.109	10518.48
872.428	10455.43
872.748	10487.52
873.067	10525.49
873.386	10514.64
873.706	10451.59
874.025	10386.96
874.344	10344.02
874.663	10475.32
874.982	10363.23
875.301	10341.31
875.62	10351.93
875.939	10322.55
876.258	10396
876.577	10297.92
876.896	10289.11
877.214	10194.42
877.533	10221.31
877.852	10256.11
878.17	10246.4
878.489	10221.99
878.807	10225.61
879.125	10141.54
879.444	10200.3
879.762	10125.72
880.08	10188.55
880.398	10062.67
880.716	10113.52
881.034	10017.7
881.352	10010.92
881.67	10004.14
881.988	9994.65
882.306	9914.43
882.624	9924.37
882.941	9880.53
883.259	9843.02
883.577	9836.46
883.894	9820.87
884.212	9829.01
884.529	9833.75
884.846	9720.54
885.164	9708.33
885.481	9719.86
885.798	9709.46
886.115	9594.89
886.432	9665.85
886.75	9620.65
887.067	9640.99
887.383	9579.3
887.7	9602.57
888.017	9496.36
888.334	9520.54
888.651	9530.26
888.967	9506.3
889.284	9419.75
889.6	9357.38
889.917	9398.96
890.233	9404.16
890.55	9295.91
890.866	9308.79
891.182	9269.47
891.498	9220.21
891.815	9175.01
892.131	9172.3
892.447	9259.53
892.763	9099.31
893.079	9130.27
893.395	9044.62
893.71	9040.55
894.026	9018.63
894.342	8996.71
894.657	8911.07
894.973	8927.79
895.289	8905.64
895.604	8941.35
895.92	8808.92
896.235	8786.32
896.55	8811.41
896.865	8836.26
897.181	8725.53
897.496	8680.56
897.811	8692.99
898.126	8657.96
898.441	8635.14
898.756	8592.43
899.071	8490.29
899.386	8522.37
899.7	8448.03
900.015	8442.83
900.33	8381.14
900.644	8330.74
900.959	8367.8
901.273	8304.08
901.588	8310.63
901.902	8287.35
902.216	8283.96
902.531	8170.29
902.845	8169.39
903.159	8122.39
903.473	8135.72
903.787	8081.93
904.101	8057.08
904.415	8025.89
904.729	7954.71
905.042	7963.97
905.356	7902.5
905.67	7883.97
905.984	7916.29
906.297	7841.04
906.611	7773.69
906.924	7810.08
907.237	7720.81
907.551	7774.15
907.864	7749.51
908.177	7657.99
908.491	7645.79
908.804	7597.65
909.117	7559.91
909.43	7531.44
909.743	7490.09
910.056	7491.22
910.368	7408.05
910.681	7419.8
910.994	7419.35
911.307	7363.08
911.619	7353.82
911.932	7269.07
912.244	7249.19
912.557	7199.7
912.869	7184.78
913.181	7137.1
913.494	7177.78
913.806	7114.05
914.118	7034.05
914.43	7056.2
914.742	6984.79
915.054	7001.96
915.366	6995.18
915.678	6893.94
915.99	6910.21
916.302	6846.94
916.613	6782.76
916.925	6819.82
917.236	6782.31
917.548	6764.91
917.859	6738.92
918.171	6668.64
918.482	6658.92
918.794	6699.37
919.105	6646.27
919.416	6619.6
919.727	6618.02
920.038	6590.67
920.349	6478.81
920.66	6495.08
920.971	6499.38
921.282	6482.65
921.593	6451.47
921.903	6386.84
922.214	6354.3
922.525	6345.71
922.835	6320.4
923.146	6267.97
923.456	6201.08
923.767	6301.42
924.077	6206.5
924.387	6126.28
924.697	6164.92
925.008	6167.86
925.318	6130.35
925.628	6096.9
925.938	6025.94
926.248	5991.37
926.558	6074.98
926.867	6012.16
927.177	6026.85
927.487	5981.88
927.796	5920.86
928.106	5876.34
928.416	5852.39
928.725	5846.74
929.034	5827.3
929.344	5810.58
929.653	5839.96
929.962	5771.26
930.271	5696.23
930.581	5654.65
930.89	5726.52
931.199	5616.01
931.508	5658.27
931.817	5605.62
932.125	5600.87
932.434	5558.61
932.743	5537.59
933.051	5537.82
933.36	5476.35
933.669	5472.74
933.977	5468.67
934.286	5471.16
934.594	5450.37
934.902	5371.27
935.21	5316.36
935.519	5381.21
935.827	5328.56
936.135	5352.97
936.443	5274.55
936.751	5222.57
937.059	5261.9
937.367	5201.33
937.674	5170.6
937.982	5189.36
938.29	5143.93
938.597	5132.86
938.905	5137.83
939.213	5065.97
939.52	5037.49
939.827	5032.07
940.135	5004.73
940.442	4982.35
940.749	4966.31
941.056	5031.62
941.363	4886.54
941.67	4895.58
941.977	4879.76
942.284	4859.65
942.591	4868.91
942.898	4809.03
943.205	4791.4
943.511	4775.81
943.818	4780.33
944.125	4771.06
944.431	4724.06
944.738	4717.96
945.044	4659.88
945.35	4656.94
945.657	4609.71
945.963	4655.58
946.269	4592.08
946.575	4570.84
946.881	4536.72
947.187	4578.07
947.493	4515.93
947.799	4501.01
948.105	4514.34
948.41	4468.02
948.716	4433.44
949.022	4436.38
949.327	4434.35
949.633	4388.47
949.938	4389.6
950.244	4333.11
950.549	4354.12
950.854	4356.16
951.16	4272.32
951.465	4301.47
951.77	4204.75
952.075	4234.8
952.38	4247.01
952.685	4197.29
952.99	4171.08
953.294	4173.11
953.599	4155.48
953.904	4149.61
954.209	4088.82
954.513	4105.77
954.818	4085.43
955.122	4086.33
955.426	4078.42
955.731	4039.1
956.035	4027.8
956.339	4021.48
956.643	4020.57
956.948	3943.51
957.252	3951.65
957.556	3976.96
957.86	3897.19
958.163	3911.65
958.467	3904.64
958.771	3902.84
959.075	3873.68
959.378	3831.65
959.682	3816.51
959.985	3807.7
960.289	3774.25
960.592	3749.84
960.896	3759.79
961.199	3726.57
961.502	3719.79
961.805	3685.67
962.108	3649.06
962.411	3667.59
962.714	3627.81
963.017	3681.37
963.32	3653.8
963.623	3596.63
963.926	3643.18
964.228	3562.28
964.531	3555.95
964.833	3587.59
965.136	3561.6
965.438	3518.44
965.741	3527.7
966.043	3497.2
966.345	3449.97
966.648	3453.58
966.95	3479.8
967.252	3431.66
967.554	3413.81
967.856	3431.21
968.158	3352.57
968.46	3388.05
968.761	3337.65
969.063	3343.98
969.365	3324.32
969.666	3320.03
969.968	3328.16
970.269	3267.37
970.571	3282.96
970.872	3286.13
971.174	3228.5
971.475	3252
971.776	3202.06
972.077	3217.2
972.378	3210.2
972.679	3194.83
972.98	3165.91
973.281	3169.3
973.582	3147.37
973.883	3132.01
974.183	3118.68
974.484	3073.25
974.785	3099.69
975.085	3060.37
975.386	3074.83
975.686	3073.03
975.986	2990.77
976.287	3032.35
976.587	3002.07
976.887	3018.34
977.187	2983.09
977.487	2950.54
977.787	2963.65
978.087	2953.03
978.387	2896.31
978.687	2902.64
978.987	2919.13
979.286	2909.87
979.586	2890.21
979.885	2851.34
980.185	2825.8
980.484	2807.27
980.784	2832.13
981.083	2793.26
981.382	2803.88
981.682	2768.4
981.981	2758.23
982.28	2794.16
982.579	2755.29
982.878	2753.49
983.177	2707.39
983.475	2736.31
983.774	2733.15
984.073	2643.21
984.372	2633.72
984.67	2675.52
984.969	2674.84
985.267	2631.46
985.566	2632.36
985.864	2654.96
986.162	2605.02
986.461	2592.59
986.759	2569.08
987.057	2567.05
987.355	2566.6
987.653	2533.83
987.951	2522.76
988.249	2529.76
988.547	2489.77
988.844	2490.22
989.142	2505.81
989.44	2469.88
989.737	2452.48
990.035	2453.83
990.332	2446.6
990.63	2427.62
990.927	2401.41
991.224	2397.56
991.521	2413.16
991.819	2361.18
992.116	2361.41
992.413	2356.66
992.71	2346.94
993.006	2345.81
993.303	2354.4
993.6	2334.97
993.897	2284.12
994.193	2282.99
994.49	2277.12
994.787	2275.08
995.083	2262.43
995.379	2234.18
995.676	2235.08
995.972	2231.92
996.268	2212.26
996.565	2188.53
996.861	2200.96
997.157	2180.39
997.453	2178.59
997.749	2161.64
998.044	2142.43
998.34	2183.56
998.636	2134.75
998.932	2105.37
999.227	2099.72
999.523	2095.2
999.818	2067.86
1000.114	2074.86
1000.409	2070.79
1000.704	2071.92
1001	2028.08
1001.295	2037.12
1001.59	2012.04
1001.885	2031.25
1002.18	2013.39
1002.475	1983.11
1002.77	1988.99
1003.065	1977.46
1003.359	1946.05
1003.654	1973.62
1003.949	1944.92
1004.243	1944.92
1004.538	1918.71
1004.832	1925.49
1005.127	1875.54
1005.421	1897.46
1005.715	1882.78
1006.009	1885.94
1006.304	1867.18
1006.598	1852.27
1006.892	1854.98
1007.186	1847.3
1007.48	1845.71
1007.773	1813.17
1008.067	1814.08
1008.361	1787.18
1008.655	1776.56
1008.948	1769.11
1009.242	1760.29
1009.535	1732.27
1009.829	1737.02
1010.122	1728.88
1010.415	1704.47
1010.708	1709.67
1011.001	1671.71
1011.295	1670.58
1011.588	1669
1011.881	1643.46
1012.173	1647.3
1012.466	1668.32
1012.759	1638.04
1013.052	1657.7
1013.344	1648.66
1013.637	1604.14
1013.93	1574.08
1014.222	1571.82
1014.514	1587.19
1014.807	1605.27
1015.099	1563.46
1015.391	1565.95
1015.683	1549.68
1015.976	1525.5
1016.268	1519.62
1016.56	1547.42
1016.851	1495.44
1017.143	1521.2
1017.435	1509
1017.727	1473.52
1018.018	1460.87
1018.31	1454.76
1018.602	1470.58
1018.893	1460.19
1019.185	1449.11
1019.476	1416.57
1019.767	1443.01
1020.058	1412.96
1020.35	1405.27
1020.641	1374.09
1020.932	1395.56
1021.223	1384.48
1021.514	1373.41
1021.804	1332.51
1022.095	1344.71
1022.386	1343.81
1022.677	1320.08
1022.967	1312.62
1023.258	1308.33
1023.548	1310.59
1023.839	1307.65
1024.129	1283.02
1024.419	1296.12
1024.709	1267.88
1025	1243.24
1025.29	1248.22
1025.58	1274.43
1025.87	1267.65
1026.16	1244.83
1026.449	1240.31
1026.739	1219.06
1027.029	1231.04
1027.319	1213.87
1027.608	1218.61
1027.898	1177.26
1028.187	1173.19
1028.477	1174.32
1028.766	1168.67
1029.055	1143.36
1029.344	1149.91
1029.634	1126.19
1029.923	1129.57
1030.212	1133.64
1030.501	1116.02
1030.79	1101.55
1031.078	1086.64
1031.367	1120.54
1031.656	1085.28
1031.945	1098.62
1032.233	1063.59
1032.522	1091.38
1032.81	1085.06
1033.099	1052.51
1033.387	1032.18
1033.675	1047.54
1033.963	1017.04
1034.251	1054.55
1034.54	1034.21
1034.828	1016.58
1035.116	1028.79
1035.403	997.6
1035.691	1012.52
1035.979	996.7
1036.267	986.08
1036.554	979.97
1036.842	984.27
1037.129	977.26
1037.417	953.31
1037.704	933.42
1037.992	949.24
1038.279	944.04
1038.566	921.67
1038.853	921.67
1039.14	921.67
