Data from hue_120_FLMS001491_00061.txt Node
Date: Tue Feb 07 16:59:48 GMT 2017
User: dcchb
Spectrometer: FLMS00149
Trigger mode: 0
Integration Time (sec): 2.000000E-2
Scans to average: 10
Electric dark correction enabled: true
Nonlinearity correction enabled: false
Boxcar width: 0
XAxis mode: Wavelengths
Number of Pixels in Spectrum: 2048
>>>>>Begin Spectral Data<<<<<
341.393	-5.21
341.776	-5.21
342.16	-5.21
342.543	-69.84
342.927	-73.46
343.31	-84.31
343.693	-68.26
344.077	-59.67
344.46	-58.77
344.843	-89.28
345.226	-50.41
345.61	-32.56
345.993	-36.85
346.376	-7.02
346.759	34.56
347.142	23.71
347.525	66.65
347.908	58.29
348.291	100.1
348.674	105.75
349.057	98.06
349.44	116.14
349.823	143.94
350.206	136.25
350.588	206.08
350.971	219.19
351.354	235.69
351.737	254.22
352.119	275.46
352.502	258.74
352.884	272.75
353.267	262.8
353.65	288.57
354.032	310.49
354.414	308.23
354.797	303.25
355.179	298.96
355.562	329.92
355.944	345.74
356.326	331.05
356.709	338.96
357.091	324.72
357.473	350.71
357.855	346.87
358.238	341.45
358.62	335.57
359.002	333.54
359.384	362.69
359.766	345.29
360.148	357.26
360.53	349.58
360.912	351.16
361.294	336.25
361.676	329.92
362.057	326.3
362.439	337.83
362.821	317.49
363.203	330.15
363.584	329.24
363.966	329.02
364.348	327.21
364.729	310.94
365.111	315.91
365.493	335.12
365.874	308
366.256	310.71
366.637	326.76
367.019	305.74
367.4	317.49
367.781	312.29
368.163	297.15
368.544	303.48
368.925	295.12
369.306	329.02
369.688	329.69
370.069	306.19
370.45	321.33
370.831	330.6
371.212	319.75
371.593	326.53
371.974	308.68
372.355	322.92
372.736	329.69
373.117	340.54
373.498	314.1
373.879	303.03
374.26	318.85
374.641	339.64
375.021	330.15
375.402	323.59
375.783	332.63
376.163	328.56
376.544	332.18
376.925	323.59
377.305	309.58
377.686	336.02
378.066	323.59
378.447	326.53
378.827	332.63
379.208	367.43
379.588	324.05
379.968	332.41
380.349	329.24
380.729	349.36
381.109	352.52
381.489	328.34
381.87	341.9
382.25	355.68
382.63	354.78
383.01	365.85
383.39	347.55
383.77	355
384.15	359.07
384.53	350.94
384.91	357.04
385.29	366.98
385.67	349.81
386.049	373.54
386.429	366.98
386.809	373.08
387.189	371.73
387.568	371.95
387.948	368.11
388.328	379.86
388.707	364.04
389.087	383.7
389.466	391.16
389.846	375.57
390.225	360.88
390.605	376.93
390.984	383.48
391.363	385.06
391.743	381.44
392.122	371.73
392.501	391.84
392.881	391.16
393.26	397.94
393.639	402.46
394.018	381.67
394.397	404.27
394.776	393.65
395.155	410.14
395.534	406.3
395.913	390.48
396.292	410.37
396.671	407.66
397.05	392.97
397.429	403.37
397.808	399.52
398.186	402.46
398.565	420.54
398.944	406.98
399.323	414.66
399.701	438.62
400.08	404.5
400.458	423.93
400.837	430.26
401.215	428.22
401.594	430.26
401.972	421.9
402.351	434.78
402.729	424.38
403.107	456.7
403.486	425.74
403.864	434.55
404.242	421.22
404.62	435.45
404.999	438.39
405.377	450.37
405.755	448.11
406.133	437.94
406.511	473.19
406.889	459.63
407.267	462.12
407.645	461.89
408.023	452.4
408.401	471.16
408.779	465.74
409.156	489.24
409.534	506.87
409.912	483.14
410.29	504.61
410.667	505.06
411.045	495.34
411.422	492.18
411.8	516.58
412.178	493.31
412.555	514.55
412.933	524.04
413.31	529.01
413.687	543.02
414.065	522.01
414.442	531.5
414.819	533.08
415.197	539.41
415.574	545.28
415.951	555.45
416.328	548.22
416.705	542.34
417.082	543.47
417.46	542.57
417.837	557.71
418.214	555.68
418.591	554.55
418.967	570.37
419.344	582.12
419.721	597.26
420.098	584.6
420.475	559.29
420.852	585.51
421.228	590.03
421.605	604.72
421.982	611.5
422.358	613.98
422.735	606.75
423.111	628.22
423.488	599.52
423.864	634.77
424.241	624.38
424.617	623.47
424.994	622.57
425.37	637.03
425.746	614.88
426.123	642.68
426.499	632.29
426.875	663.7
427.251	639.97
427.627	653.75
428.003	673.64
428.379	677.26
428.756	675
429.132	708.67
429.507	673.87
429.883	685.39
430.259	718.84
430.635	730.36
431.011	710.7
431.387	720.87
431.763	714.09
432.138	740.31
432.514	725.62
432.89	765.62
433.265	764.26
433.641	783.69
434.016	804.48
434.392	789.8
434.767	799.74
435.143	792.73
435.518	804.48
435.894	817.82
436.269	811.26
436.644	831.83
437.02	833.41
437.395	820.53
437.77	846.74
438.145	870.92
438.52	872.51
438.895	855.1
439.271	875.44
439.646	877.93
440.021	902.11
440.395	900.53
440.77	888.32
441.145	885.84
441.52	938.27
441.895	903.69
442.27	918.38
442.645	921.32
443.019	940.3
443.394	916.57
443.769	922.67
444.143	935.55
444.518	922.45
444.892	954.76
445.267	947.98
445.641	966.06
446.016	981.65
446.39	985.27
446.764	978.94
447.139	983.69
447.513	1000.19
447.887	1002.9
448.262	1005.16
448.636	1030.24
449.01	1014.2
449.384	1027.76
449.758	1050.13
450.132	1054.42
450.506	1078.38
450.88	1074.53
451.254	1081.99
451.628	1085.16
452.002	1134.87
452.376	1115.66
452.75	1125.38
453.123	1133.97
453.497	1166.73
453.871	1137.36
454.244	1184.36
454.618	1171.25
454.992	1191.59
455.365	1179.84
455.739	1228.88
456.112	1267.75
456.486	1246.73
456.859	1235.43
457.232	1286.28
457.606	1265.04
457.979	1301.19
458.352	1306.62
458.725	1340.97
459.099	1356.79
459.472	1359.5
459.845	1373.06
460.218	1386.84
460.591	1426.16
460.964	1410.12
461.337	1449.89
461.71	1473.39
462.083	1469.55
462.456	1501.64
462.829	1529.44
463.201	1547.06
463.574	1557.01
463.947	1556.78
464.32	1584.8
464.692	1609.89
465.065	1624.12
465.438	1686.27
465.81	1676.55
466.183	1713.16
466.555	1737.79
466.928	1764.46
467.3	1778.92
467.672	1790.22
468.045	1860.28
468.417	1865.47
468.789	1862.76
469.161	1925.36
469.534	1933.27
469.906	2006.49
470.278	2015.98
470.65	2053.49
471.022	2075.41
471.394	2133.49
471.766	2180.04
472.138	2186.37
472.51	2264.11
472.882	2309.53
473.253	2344.78
473.625	2366.7
473.997	2456.64
474.369	2491.22
474.74	2558.11
475.112	2575.51
475.484	2683.08
475.855	2730.76
476.227	2768.27
476.598	2860.25
476.97	2873.36
477.341	2988.83
477.713	3079.68
478.084	3111.32
478.455	3199.68
478.827	3307.02
479.198	3363.74
479.569	3421.82
479.94	3570.51
480.311	3643.05
480.682	3745.42
481.053	3886.21
481.424	3956.72
481.795	4065.42
482.166	4192.19
482.537	4220.89
482.908	4394.22
483.279	4482.13
483.65	4609.81
484.021	4764.15
484.391	4847.99
484.762	4940.87
485.133	5037.37
485.503	5198.95
485.874	5307.64
486.244	5481.2
486.615	5639.84
486.985	5753.96
487.356	5963.9
487.726	6013.61
488.097	6203.66
488.467	6353.27
488.837	6531.79
489.207	6649.08
489.578	6754.16
489.948	6951.67
490.318	7081.38
490.688	7176.97
491.058	7379.9
491.428	7573.35
491.798	7687.69
492.168	7887.01
492.538	7974.69
492.908	8143.27
493.278	8353.44
493.648	8513.89
494.017	8651.28
494.387	8782.13
494.757	8912.52
495.126	9064.83
495.496	9199.74
495.866	9286.07
496.235	9496.69
496.605	9635.21
496.974	9722.44
497.344	9939.39
497.713	10066.16
498.082	10143
498.452	10319.49
498.821	10455.98
499.19	10457.34
499.559	10628.18
499.928	10725.58
500.298	10901.39
500.667	11020.71
501.036	11055.97
501.405	11213.25
501.774	11307.26
502.143	11391.78
502.512	11532.11
502.88	11666.12
503.249	11617.31
503.618	11866.34
503.987	11906.34
504.356	12042.38
504.724	12148.14
505.093	12195.15
505.462	12232.66
505.83	12315.37
506.199	12516.94
506.567	12708.35
506.936	12705.41
507.304	12759.65
507.672	12956.93
508.041	13040.32
508.409	13080.55
508.777	13184.5
509.145	13210.03
509.514	13326.19
509.882	13366.87
510.25	13429.24
510.618	13437.6
510.986	13446.86
511.354	13706.29
511.722	13832.62
512.09	13833.97
512.458	13843.92
512.826	13932.05
513.193	13971.14
513.561	14160.07
513.929	14182.66
514.297	14153.74
514.664	14318.93
515.032	14366.61
515.4	14490
515.767	14555.99
516.135	14542.88
516.502	14395.09
516.869	14619.94
517.237	14647.06
517.604	14598.25
517.972	14775.42
518.339	14795.08
518.706	14778.13
519.073	14863.78
519.44	14960.04
519.808	14973.6
520.175	15022.19
520.542	15156.42
520.909	15172.02
521.276	15066.93
521.643	15260.38
522.009	15376.98
522.376	15353.25
522.743	15516.19
523.11	15551.22
523.477	15574.27
523.843	15535.17
524.21	15708.5
524.577	15738.33
524.943	15790.08
525.31	15815.39
525.676	15918.44
526.043	15993.69
526.409	15979.45
526.776	16088.6
527.142	16054.03
527.508	16023.07
527.874	16153.01
528.241	16159.79
528.607	16152.1
528.973	16211.54
529.339	16221.03
529.705	16271.2
530.071	16378.54
530.437	16350.97
530.803	16365.21
531.169	16432.32
531.535	16374.24
531.901	16338.09
532.267	16377.86
532.632	16335.38
532.998	16364.3
533.364	16442.27
533.73	16408.82
534.095	16438.65
534.461	16434.81
534.826	16437.75
535.192	16403.4
535.557	16371.76
535.923	16358.65
536.288	16376.5
536.653	16313.46
537.019	16264.19
537.384	16402.94
537.749	16298.09
538.114	16310.29
538.479	16214.93
538.845	16273.46
539.21	16233.23
539.575	16238.43
539.94	16182.61
540.305	16214.47
540.67	16160.01
541.034	16087.7
541.399	16196.85
541.764	16107.81
542.129	16148.49
542.494	16054.48
542.858	15997.76
543.223	15990.98
543.587	16040.02
543.952	15986.46
544.316	15926.12
544.681	15784.43
545.045	15861.26
545.41	15908.49
545.774	15895.16
546.138	15782.17
546.503	15774.94
546.867	15707.37
547.231	15782.85
547.595	15744.66
547.959	15747.82
548.324	15622.4
548.688	15613.81
549.052	15581.5
549.416	15582.85
549.779	15545.11
550.143	15519.8
550.507	15531.33
550.871	15446.13
551.235	15508.96
551.599	15530.88
551.962	15472.57
552.326	15372.91
552.689	15437.55
553.053	15399.81
553.417	15345.12
553.78	15472.12
554.143	15365.01
554.507	15309.19
554.87	15393.71
555.234	15333.59
555.597	15250.21
555.96	15276.19
556.323	15309.41
556.686	15237.78
557.05	15176.54
557.413	15304.22
557.776	15238.46
558.139	15328.62
558.502	15231.68
558.865	15185.58
559.228	15367.27
559.59	15216.76
559.953	15315.06
560.316	15381.28
560.679	15281.62
561.041	15339.24
561.404	15327.27
561.767	15412.69
562.129	15266.48
562.492	15494.04
562.854	15334.05
563.217	15295.63
563.579	15426.25
563.941	15364.1
564.304	15463.76
564.666	15451.56
565.028	15446.59
565.39	15477.77
565.753	15532.46
566.115	15495.4
566.477	15605.23
566.839	15510.99
567.201	15657.65
567.563	15624.89
567.925	15670.76
568.287	15638.9
568.648	15606.13
569.01	15763.87
569.372	15743.53
569.734	15686.81
570.095	15761.38
570.457	15737.43
570.819	15776.75
571.18	15701.95
571.542	15749.63
571.903	15797.76
572.265	15794.37
572.626	15758.67
572.987	15924.76
573.349	15920.02
573.71	15948.49
574.071	15849.96
574.432	15940.36
574.794	16014.71
575.155	15981.03
575.516	15842.96
575.877	15896.29
576.238	15984.88
576.599	16084.31
576.96	16010.41
577.32	15912.11
577.681	15985.33
578.042	16125.44
578.403	16044.54
578.763	16072.33
579.124	16016.97
579.485	16055.16
579.845	16120.92
580.206	16111.88
580.566	16092.67
580.927	16129.73
581.287	16131.54
581.648	16003.63
582.008	16135.38
582.368	16190.75
582.728	16069.85
583.089	16027.14
583.449	16087.92
583.809	16025.33
584.169	16015.16
584.529	16003.18
584.889	16065.33
585.249	15948.04
585.609	15972
585.969	16026.01
586.329	15938.55
586.688	15997.53
587.048	15919.12
587.408	15878.66
587.768	15908.04
588.127	15945.78
588.487	15901.49
588.846	16006.57
589.206	15868.27
589.565	15935.84
589.925	15949.17
590.284	15907.36
590.643	15883.18
591.003	15855.61
591.362	15899.45
591.721	15888.61
592.08	15939.68
592.44	15800.47
592.799	15922.96
593.158	15845.22
593.517	15933.58
593.876	15792.56
594.235	15811.55
594.593	15804.09
594.952	15877.76
595.311	15755.73
595.67	15774.49
596.029	15733.81
596.387	15843.86
596.746	15844.99
597.104	15825.33
597.463	15741.49
597.822	15818.78
598.18	15779.68
598.538	15738.56
598.897	15788.05
599.255	15683.42
599.613	15864.43
599.972	15800.25
600.33	15787.14
600.688	15840.02
601.046	15865.78
601.404	15977.64
601.762	15883.18
602.12	15894.94
602.478	15936.52
602.836	15880.92
603.194	15768.84
603.552	15819.46
603.91	15805.45
604.268	15859.46
604.625	15801.15
604.983	15810.42
605.341	15795.5
605.698	15853.13
606.056	15880.25
606.413	15820.36
606.771	15846.8
607.128	15828.27
607.485	15793.69
607.843	15809.29
608.2	15911.21
608.557	15947.14
608.914	15859.46
609.272	16047.25
609.629	16006.57
609.986	16072.56
610.343	15956.18
610.7	16087.25
611.057	16015.38
611.414	15991.88
611.771	16056.51
612.127	16124.08
612.484	16045.89
612.841	16158.66
613.198	16009.73
613.554	16032.56
613.911	16108.26
614.267	16093.57
614.624	16100.35
614.98	16078.66
615.337	16110.75
615.693	16046.12
616.05	16081.14
616.406	16252.44
616.762	16127.92
617.118	16140.13
617.475	16143.97
617.831	16266.45
618.187	16251.99
618.543	16213.57
618.899	16344.64
619.255	16324.53
619.611	16264.42
619.967	16313.91
620.323	16333.79
620.678	16338.54
621.034	16226.9
621.39	16269.61
621.746	16271.42
622.101	16414.24
622.457	16282.04
622.812	16285.43
623.168	16324.53
623.523	16313.23
623.879	16364.08
624.234	16242.95
624.589	16351.65
624.945	16270.07
625.3	16368.82
625.655	16232.55
626.01	16315.72
626.365	16325.88
626.72	16346.22
627.075	16287.24
627.43	16320.69
627.785	16264.87
628.14	16307.58
628.495	16268.48
628.85	16277.3
629.205	16315.04
629.559	16278.65
629.914	16202.27
630.269	16362.72
630.623	16148.26
630.978	16190.97
631.332	16274.36
631.687	16245.89
632.041	16123.63
632.396	16212.89
632.75	16065.55
633.104	16092.9
633.459	16070.75
633.813	16121.14
634.167	16008.6
634.521	16019.68
634.875	15968.83
635.229	15970.41
635.583	15929.96
635.937	15942.62
636.291	15954.59
636.645	15919.79
636.999	15801.38
637.352	15913.01
637.706	15860.81
638.06	15922.05
638.413	15847.03
638.767	15804.77
639.121	15775.16
639.474	15717.54
639.828	15732.91
640.181	15807.03
640.534	15841.83
640.888	15694.94
641.241	15686.58
641.594	15689.97
641.947	15739.91
642.301	15666.01
642.654	15685
643.007	15715.5
643.36	15658.56
643.713	15658.78
644.066	15733.36
644.419	15604.77
644.771	15626.47
645.124	15386.7
645.477	15362.07
645.83	15172.02
646.182	15181.06
646.535	15082.08
646.888	15120.94
647.24	15020.38
647.593	15141.28
647.945	15110.77
648.298	14993.94
648.65	15073.94
649.002	14934.96
649.355	15053.15
649.707	15146.93
650.059	15151
650.411	15317.1
650.763	15262.86
651.115	15361.16
651.467	15454.95
651.819	15350.77
652.171	15452.69
652.523	15263.54
652.875	15448.17
653.227	15284.1
653.578	15425.34
653.93	15398
654.282	15340.37
654.633	15205.91
654.985	15414.04
655.337	15400.26
655.688	15414.5
656.039	15478.22
656.391	15369.07
656.742	15413.82
657.094	15335.18
657.445	15377.43
657.796	15360.49
658.147	15360.94
658.498	15386.47
658.849	15428.28
659.2	15446.81
659.551	15401.84
659.902	15451.56
660.253	15462.4
660.604	15389.19
660.955	15307.61
661.306	15395.74
661.656	15386.25
662.007	15352.58
662.358	15383.76
662.708	15382.86
663.059	15460.14
663.409	15356.19
663.76	15470.77
664.11	15385.8
664.461	15464.21
664.811	15381.95
665.161	15434.83
665.511	15370.88
665.862	15385.34
666.212	15455.4
666.562	15525.45
666.912	15406.13
667.262	15413.37
667.612	15432.12
667.962	15338.11
668.312	15341.5
668.662	15524.78
669.011	15371.11
669.361	15387.38
669.711	15465.12
670.06	15359.81
670.41	15339.92
670.76	15389.86
671.109	15363.65
671.459	15395.51
671.808	15247.27
672.157	15366.81
672.507	15226.48
672.856	15250.88
673.205	15268.51
673.554	15366.14
673.904	15234.16
674.253	15382.18
674.602	15282.3
674.951	15057.67
675.3	14904.68
675.649	15193.03
675.998	15192.35
676.346	15233.48
676.695	15228.06
677.044	15099.93
677.393	15173.37
677.741	15117.33
678.09	15160.72
678.438	15054.73
678.787	15121.62
679.135	15110.55
679.484	14942.19
679.832	14977.67
680.181	14915.3
680.529	14991.68
680.877	14798.47
681.225	14867.39
681.573	14955.98
681.922	14863.55
682.27	14879.37
682.618	14806.15
682.966	14827.39
683.314	14884.34
683.661	14786.49
684.009	14749.65
684.357	14720.28
684.705	14657.45
685.053	14706.94
685.4	14583.11
685.748	14555.76
686.095	14499.27
686.443	14535.87
686.79	14507.18
687.138	14466.5
687.485	14431.92
687.832	14410.45
688.18	14460.85
688.527	14288.65
688.874	14203
689.221	14199.39
689.568	14197.58
689.915	14140.41
690.262	14077.13
690.609	14114.87
690.956	14024.02
691.303	14003.01
691.65	13913.74
691.997	13911.94
692.344	13825.39
692.69	13775.22
693.037	13813.63
693.383	13608.67
693.73	13756.69
694.077	13687.54
694.423	13618.84
694.769	13650.93
695.116	13611.38
695.462	13490.7
695.808	13557.37
696.155	13525.96
696.501	13344.72
696.847	13330.93
697.193	13255.46
697.539	13291.16
697.885	13116.7
698.231	13156.25
698.577	13093.65
698.923	13083.94
699.269	13012.07
699.614	12975.46
699.96	12957.39
700.306	12949.93
700.651	12831.51
700.997	12804.39
701.342	12735.02
701.688	12744.06
702.033	12678.3
702.379	12645.98
702.724	12595.59
703.069	12572.99
703.415	12450.73
703.76	12457.06
704.105	12446.21
704.45	12422.71
704.795	12368.25
705.14	12271.53
705.485	12287.57
705.83	12283.73
706.175	12119.89
706.52	12106.56
706.865	12107.69
707.209	12072.66
707.554	12016.85
707.899	12038.77
708.243	12031.08
708.588	11927.13
708.932	11853.91
709.277	11825.44
709.621	11842.84
709.966	11819.79
710.31	11764.87
710.654	11726.68
710.998	11657.98
711.342	11667.25
711.687	11656.85
712.031	11581.6
712.375	11597.2
712.719	11577.76
713.063	11599.68
713.407	11623.18
713.75	11515.84
714.094	11491.44
714.438	11476.52
714.782	11465.22
715.125	11406.01
715.469	11398.78
715.812	11343.42
716.156	11401.49
716.499	11283.31
716.843	11263.42
717.186	11233.81
717.53	11299.8
717.873	11284.66
718.216	11273.81
718.559	11131.44
718.902	11142.74
719.246	11227.04
719.589	11104.78
719.932	11097.55
720.275	11118.34
720.617	11069.07
720.96	11013.71
721.303	11071.33
721.646	11100.48
721.989	11020.49
722.331	11036.98
722.674	11007.61
723.016	11033.82
723.359	10996.53
723.701	11022.52
724.044	10913.37
724.386	10948.4
724.729	10980.04
725.071	10923.31
725.413	10967.83
725.755	10917.44
726.097	10918.79
726.439	10881.06
726.782	10860.94
727.124	10840.38
727.465	10844.45
727.807	10873.15
728.149	10803.77
728.491	10794.5
728.833	10799.25
729.175	10801.74
729.516	10747.73
729.858	10754.05
730.199	10856.88
730.541	10727.61
730.882	10754.28
731.224	10759.03
731.565	10690.55
731.906	10739.36
732.248	10795.63
732.589	10689.87
732.93	10664.11
733.271	10702.3
733.612	10751.79
733.953	10702.53
734.294	10664.11
734.635	10652.14
734.976	10720.61
735.317	10663.66
735.658	10669.08
735.999	10671.57
736.339	10602.42
736.68	10712.25
737.021	10634.51
737.361	10672.7
737.702	10669.08
738.042	10656.65
738.383	10687.39
738.723	10761.96
739.063	10731.46
739.404	10721.96
739.744	10749.99
740.084	10717.67
740.424	10779.14
740.764	10748.86
741.104	10793.83
741.444	10725.58
741.784	10793.6
742.124	10807.61
742.464	10788.4
742.804	10844.45
743.143	10881.28
743.483	10908.4
743.823	10884.45
744.162	10966.25
744.502	10965.57
744.841	10924.67
745.181	11021.39
745.52	11008.96
745.86	11043.99
746.199	11138
746.538	11146.59
746.877	11223.42
747.216	11195.4
747.556	11316.98
747.895	11274.94
748.234	11350.42
748.573	11450.76
748.911	11487.37
749.25	11548.61
749.589	11596.74
749.928	11728.49
750.267	11730.98
750.605	11803.07
750.944	11869.28
751.283	11919.9
751.621	12071.98
751.96	12098.42
752.298	12181.36
752.636	12361.69
752.975	12361.24
753.313	12399.66
753.651	12608.02
753.989	12681.91
754.327	12873.77
754.666	12940.66
755.004	13101.11
755.342	13243.93
755.679	13345.62
756.017	13337.49
756.355	13651.15
756.693	13740.42
757.031	13912.84
757.368	13970.01
757.706	14148.99
758.044	14276.45
758.381	14483.9
758.719	14599.83
759.056	14766.15
759.394	14960.04
759.731	15052.02
760.068	15249.3
760.405	15352.58
760.743	15453.59
761.08	15655.62
761.417	15819.91
761.754	15975.61
762.091	16199.33
762.428	16379.44
762.765	16418.54
763.102	16754.8
763.438	16812.65
763.775	16904.4
764.112	17238.63
764.449	17376.25
764.785	17464.16
765.122	17574.67
765.458	17723.14
765.795	17859.86
766.131	18097.36
766.467	18238.38
766.804	18226.63
767.14	18396.56
767.476	18605.15
767.812	18644.69
768.148	18809.66
768.485	18890.34
768.821	18994.74
769.157	19226.15
769.492	19262.76
769.828	19423.2
770.164	19356.77
770.5	19500.49
770.836	19656.64
771.171	19636.08
771.507	19852.35
771.842	19806.47
772.178	19931.44
772.513	20059.8
772.849	20049.85
773.184	20170.53
773.519	20235.16
773.855	20215.95
774.19	20307.47
774.525	20383.63
774.86	20452.1
775.195	20550.41
775.53	20492.55
775.865	20579.33
776.2	20460.69
776.535	20471.99
776.87	20598.77
777.205	20549.5
777.539	20556.73
777.874	20690.06
778.209	20624.3
778.543	20638.99
778.878	20548.82
779.212	20580.46
779.547	20538.43
779.881	20696.39
780.215	20605.77
780.55	20768.25
780.884	20690.97
781.218	20705.66
781.552	20753.34
781.886	20718.31
782.22	20631.08
782.554	20622.49
782.888	20522.38
783.222	20571.42
783.556	20526.23
783.889	20521.25
784.223	20398.09
784.557	20365.33
784.89	20485.55
785.224	20556.28
785.557	20350.86
785.891	20381.82
786.224	20419.56
786.558	20469.5
786.891	20273.13
787.224	20208.95
787.557	20156.74
787.891	20232.45
788.224	20168.04
788.557	20173.92
788.89	20168.95
789.223	20112.23
789.556	20027.48
789.888	20056.18
790.221	19846.02
790.554	19827.26
790.887	19910.42
791.219	19823.87
791.552	19719.92
791.884	19582.3
792.217	19665.91
792.549	19650.54
792.882	19596.76
793.214	19458.68
793.546	19543.65
793.879	19524.67
794.211	19288.74
794.543	19385.69
794.875	19316.09
795.207	19458.01
795.539	19330.78
795.871	19296.65
796.203	19169.88
796.535	19123.32
796.867	19096.43
797.198	19131.46
797.53	19039.03
797.862	19029.99
798.193	18999.94
798.525	18873.16
798.856	18933.5
799.188	18816.67
799.519	18798.81
799.85	18605.37
800.182	18593.85
800.513	18710.23
800.844	18484.25
801.175	18536.22
801.506	18578.48
801.837	18452.61
802.168	18396.56
802.499	18389.33
802.83	18367.64
803.161	18249.45
803.491	18348.66
803.822	18191.15
804.153	18154.08
804.483	17984.6
804.814	17954.09
805.145	18042.9
805.475	17868.44
805.805	17911.83
806.136	17828.44
806.466	17893.98
806.796	17768.33
807.126	17759.97
807.457	17688.11
807.787	17663.7
808.117	17614.44
808.447	17498.96
808.777	17615.12
809.107	17514.1
809.436	17369.02
809.766	17446.08
810.096	17391.62
810.426	17319.08
810.755	17388
811.085	17308.68
811.414	17321.11
811.744	17144.17
812.073	17102.14
812.403	17101.46
812.732	17021.46
813.061	17114.79
813.39	16983.72
813.719	16981.46
814.049	16999.09
814.378	16985.53
814.707	16773.56
815.036	16909.6
815.365	16815.36
815.693	16717.96
816.022	16632.99
816.351	16680.23
816.68	16612.66
817.008	16508.93
817.337	16461.93
817.665	16454.47
817.994	16444.53
818.322	16491.98
818.651	16368.6
818.979	16351.87
819.307	16363.85
819.636	16366.56
819.964	16342.83
820.292	16267.13
820.62	16330.63
820.948	16256.06
821.276	16270.74
821.604	16131.99
821.932	16267.58
822.259	16177.64
822.587	16207.24
822.915	16203.4
823.243	16206.11
823.57	16093.12
823.898	16231.42
824.225	16162.95
824.553	16063.29
824.88	16194.81
825.207	16341.48
825.535	16166.11
825.862	16271.2
826.189	16222.38
826.516	16197.3
826.843	16285.43
827.17	16337.64
827.497	16256.73
827.824	16189.16
828.151	16396.84
828.478	16290.18
828.805	16288.15
829.131	16199.11
829.458	16249.05
829.785	16072.56
830.111	16216.06
830.438	16337.64
830.764	16217.64
831.09	16215.6
831.417	16156.62
831.743	16235.49
832.069	16205.21
832.395	16204.76
832.722	16237.53
833.048	16090.86
833.374	16163.4
833.7	16015.84
834.026	16049.06
834.351	16106.68
834.677	16030.98
835.003	16046.12
835.329	16104.42
835.654	16042.5
835.98	15861.26
836.306	16040.47
836.631	15992.33
836.956	15957.98
837.282	16112.33
837.607	15815.16
837.932	15846.8
838.258	15907.82
838.583	15856.52
838.908	15730.42
839.233	15838.67
839.558	15717.76
839.883	15743.53
840.208	15732
840.533	15659.46
840.858	15656.75
841.182	15642.74
841.507	15629.18
841.832	15546.02
842.156	15502.63
842.481	15444.55
842.805	15473.7
843.13	15427.83
843.454	15347.15
843.778	15377.66
844.103	15332.01
844.427	15321.16
844.751	15215.41
845.075	15234.39
845.399	15184.9
845.723	15046.14
846.047	15151.9
846.371	15067.61
846.695	15021.06
847.019	14976.77
847.343	14830.78
847.666	14749.43
847.99	14727.28
848.313	14654.74
848.637	14599.38
848.96	14579.04
849.284	14540.17
849.607	14341.98
849.931	14442.54
850.254	14285.94
850.577	14208.65
850.9	14164.81
851.223	14190.8
851.546	13977.25
851.869	13983.35
852.192	14075.55
852.515	13964.59
852.838	13915.33
853.161	13852.95
853.483	13825.84
853.806	13642.34
854.129	13638.27
854.451	13630.81
854.774	13588.33
855.096	13526.86
855.419	13485.06
855.741	13535.45
856.063	13386.3
856.385	13420.42
856.708	13372.06
857.03	13267.89
857.352	13352.63
857.674	13221.79
857.996	13155.57
858.318	13036.25
858.64	13153.99
858.961	13043.94
859.283	13057.27
859.605	12927.1
859.926	13015.91
860.248	12926.88
860.57	12878.29
860.891	12860.21
861.212	12786.54
861.534	12813.89
861.855	12754.23
862.176	12795.81
862.498	12726.2
862.819	12754.45
863.14	12670.39
863.461	12704.28
863.782	12580.22
864.103	12637.39
864.424	12635.13
864.745	12548.13
865.065	12574.8
865.386	12513.1
865.707	12415.03
866.027	12456.61
866.348	12405.31
866.668	12429.94
866.989	12321.02
867.309	12262.94
867.63	12365.31
867.95	12329.83
868.27	12304.97
868.59	12330.28
868.91	12186.56
869.23	12229.04
869.55	12142.94
869.87	12205.99
870.19	12219.1
870.51	12229.04
870.83	12254.35
871.15	12200.8
871.469	12105.43
871.789	12130.74
872.109	12186.11
872.428	12027.24
872.748	12010.29
873.067	11956.96
873.386	11983.17
873.706	12033.12
874.025	11937.3
874.344	11921.03
874.663	11923.29
874.982	11801.94
875.301	11809.84
875.62	11830.41
875.939	11824.31
876.258	11877.64
876.577	11799.22
876.896	11672.9
877.214	11730.3
877.533	11693.01
877.852	11728.04
878.17	11674.03
878.489	11733.69
878.807	11624.31
879.125	11593.58
879.444	11729.85
879.762	11600.36
880.08	11640.81
880.398	11584.54
880.716	11590.87
881.034	11464.77
881.352	11584.54
881.67	11381.83
881.988	11429.06
882.306	11400.82
882.624	11325.56
882.941	11327.82
883.259	11325.34
883.577	11253.02
883.894	11254.83
884.212	11258.45
884.529	11204.21
884.846	11195.62
885.164	11164.21
885.481	11145.46
885.798	11155.17
886.115	11065.46
886.432	11082.86
886.75	10985.01
887.067	10999.7
887.383	11048.96
887.7	10971.9
888.017	10945.46
888.334	10939.36
888.651	10904.78
888.967	10880.6
889.284	10843.77
889.6	10793.15
889.917	10674.06
890.233	10735.97
890.55	10691.46
890.866	10654.39
891.182	10597.22
891.498	10641.97
891.815	10554.28
892.131	10561.74
892.447	10548.41
892.763	10466.38
893.079	10501.63
893.395	10380.96
893.71	10468.19
894.026	10400.39
894.342	10368.07
894.657	10223.45
894.973	10299.83
895.289	10239.04
895.604	10197.01
895.92	10135.54
896.235	10084.01
896.55	10063.9
896.865	10016.9
897.181	9988.65
897.496	10001.08
897.811	9954.3
898.126	9964.47
898.441	9880.63
898.756	9858.03
899.071	9800.63
899.386	9745.72
899.7	9735.55
900.015	9707.75
900.33	9604.48
900.644	9637.25
900.959	9661.65
901.273	9632.05
901.588	9583.24
901.902	9479.74
902.216	9450.36
902.531	9450.81
902.845	9383.02
903.159	9374.2
903.473	9279.97
903.787	9235.22
904.101	9178.95
904.415	9216.92
904.729	9132.18
905.042	9097.37
905.356	9053.53
905.67	9083.59
905.984	9034.1
906.297	8924.27
906.611	9033.42
906.924	8912.52
907.237	8940.99
907.551	8892.18
907.864	8835.91
908.177	8834.56
908.491	8759.3
908.804	8683.37
909.117	8681.79
909.43	8631.62
909.743	8595.01
910.056	8582.59
910.368	8532.19
910.681	8503.27
910.994	8494.23
911.307	8531.96
911.619	8364.96
911.932	8376.04
912.244	8287
912.557	8283.38
912.869	8284.97
913.181	8231.18
913.494	8192.76
913.806	8136.27
914.118	8100.56
914.43	8065.99
914.742	8111.19
915.054	8068.7
915.366	8017.4
915.678	7919.55
915.99	7922.94
916.302	7880.23
916.613	7873.9
916.925	7845.88
917.236	7819.44
917.548	7744.42
917.859	7759.1
918.171	7718.88
918.482	7645.43
918.794	7626.23
919.105	7608.83
919.416	7568.83
919.727	7595.49
920.038	7515.49
920.349	7514.14
920.66	7473.24
920.971	7437.08
921.282	7343.3
921.593	7386.68
921.903	7351.88
922.214	7318.44
922.525	7281.15
922.835	7269.17
923.146	7199.12
923.456	7154.6
923.767	7148.05
924.077	7133.58
924.387	7123.19
924.697	7049.74
925.008	7017.43
925.318	6962.06
925.628	6989.63
925.938	6888.17
926.248	6843.42
926.558	6860.82
926.867	6887.26
927.177	6848.17
927.487	6849.75
927.796	6711.9
928.106	6755.97
928.416	6691.11
928.725	6725.91
929.034	6581.06
929.344	6666.7
929.653	6591.45
929.962	6534.5
930.271	6568.4
930.581	6491.57
930.89	6507.84
931.199	6471.91
931.508	6458.35
931.817	6453.6
932.125	6428.97
932.434	6401.63
932.743	6361.85
933.051	6310.1
933.36	6253.38
933.669	6209.09
933.977	6239.14
934.286	6225.58
934.594	6133.61
934.902	6098.36
935.21	6119.15
935.519	6117.79
935.827	6059.49
936.135	6058.13
936.443	6016.78
936.751	5993.5
937.059	5956.67
937.367	5941.98
937.674	5944.24
937.982	5956.21
938.29	5869.89
938.597	5888.64
938.905	5795.54
939.213	5788.08
939.52	5732.72
939.827	5773.39
940.135	5733.62
940.442	5714.19
940.749	5692.49
941.056	5696.79
941.363	5591.25
941.67	5598.26
941.977	5538.6
942.284	5499.95
942.591	5520.29
942.898	5504.02
943.205	5503.8
943.511	5440.75
943.818	5490.24
944.125	5385.38
944.431	5435.32
944.738	5382.9
945.044	5345.16
945.35	5341.31
945.657	5285.95
945.963	5268.55
946.269	5239.62
946.575	5197.59
946.881	5209.11
947.187	5191.26
947.493	5175.89
947.799	5140.87
948.105	5092.73
948.41	5063.13
948.716	5096.35
949.022	5049.34
949.327	5023.36
949.633	5006.63
949.938	4962.34
950.244	4973.87
950.549	5005.28
950.854	4871.72
951.16	4927.77
951.465	4865.17
951.77	4845.06
952.075	4836.02
952.38	4794.66
952.685	4819.97
952.99	4767.32
953.294	4705.62
953.599	4702.91
953.904	4718.96
954.209	4709.92
954.513	4680.09
954.818	4672.86
955.122	4651.84
955.426	4565.97
955.731	4563.93
956.035	4543.6
956.339	4562.35
956.643	4533.43
956.948	4518.06
957.252	4469.47
957.556	4523.03
957.86	4447.78
958.163	4431.06
958.467	4455.91
958.771	4411.17
959.075	4381.34
959.378	4355.8
959.682	4380.89
959.985	4361.91
960.289	4239.87
960.592	4289.14
960.896	4285.3
961.199	4229.71
961.502	4224.06
961.805	4210.72
962.108	4206.65
962.411	4216.82
962.714	4156.49
963.017	4184.73
963.32	4111.29
963.623	4121.69
963.926	4072.87
964.228	4043.72
964.531	4065.64
964.833	4051.4
965.136	4017.73
965.438	3956.49
965.741	3972.31
966.043	3937.74
966.345	3937.06
966.648	3925.76
966.95	3918.75
967.252	3892.76
967.554	3906.1
967.856	3855.03
968.158	3811.41
968.46	3826.78
968.761	3797.85
969.063	3802.37
969.365	3754.46
969.666	3780.45
969.968	3705.88
970.269	3730.06
970.571	3726.67
970.872	3700
971.174	3686.67
971.475	3674.69
971.776	3604.64
972.077	3629.04
972.378	3609.83
972.679	3591.3
972.98	3582.72
973.281	3570.97
973.582	3537.52
973.883	3544.3
974.183	3528.71
974.484	3486
974.785	3487.8
975.085	3468.14
975.386	3469.5
975.686	3410.97
975.986	3437.18
976.287	3438.31
976.587	3356.51
976.887	3380.69
977.187	3387.47
977.487	3341.82
977.787	3350.86
978.087	3319.67
978.387	3294.81
978.687	3271.54
978.987	3287.81
979.286	3256.62
979.586	3210.52
979.885	3259.11
980.185	3199.45
980.484	3176.4
980.784	3190.18
981.083	3206.68
981.382	3187.25
981.682	3142.05
981.981	3149.06
982.28	3127.14
982.579	3093.01
982.878	3116.29
983.177	3068.15
983.475	3043.97
983.774	3038.78
984.073	3006.69
984.372	3021.38
984.67	3043.97
984.969	2996.07
985.267	3018.44
985.566	2994.03
985.864	2911.77
986.162	2918.33
986.461	2904.09
986.759	2941.15
987.057	2884.2
987.355	2890.53
987.653	2874.49
987.951	2874.49
988.249	2833.13
988.547	2875.62
988.844	2825.22
989.142	2802.4
989.44	2807.82
989.737	2797.43
990.035	2774.38
990.332	2791.55
990.63	2738.9
990.927	2733.02
991.224	2714.26
991.521	2694.38
991.819	2683.98
992.116	2655.51
992.413	2659.12
992.71	2599.47
993.006	2653.48
993.303	2602.86
993.6	2614.83
993.897	2575.74
994.193	2571.44
994.49	2582.74
994.787	2550.43
995.083	2559.24
995.379	2532.8
995.676	2516.98
995.972	2521.5
996.268	2487.38
996.565	2465.01
996.861	2482.63
997.157	2465.23
997.453	2461.62
997.749	2442.86
998.044	2468.85
998.34	2393.82
998.636	2391.79
998.932	2384.1
999.227	2373.26
999.523	2371.67
999.818	2370.77
1000.114	2351.56
1000.409	2363.31
1000.704	2291.23
1001	2288.74
1001.295	2284.22
1001.59	2248.97
1001.885	2283.09
1002.18	2264.79
1002.475	2251
1002.77	2225.69
1003.065	2201.06
1003.359	2175.75
1003.654	2202.87
1003.949	2185.47
1004.243	2150.44
1004.538	2138.23
1004.832	2171.68
1005.127	2151.34
1005.421	2117.67
1005.715	2091
1006.009	2112.7
1006.304	2065.24
1006.598	2080.84
1006.892	2053.49
1007.186	2018.01
1007.48	2061.85
1007.773	1991.35
1008.067	2003.32
1008.361	1987.96
1008.655	1970.56
1008.948	1967.62
1009.242	1977.34
1009.535	1936.21
1009.829	1930.1
1010.122	1944.57
1010.415	1917.45
1010.708	1898.69
1011.001	1893.27
1011.295	1892.14
1011.588	1905.47
1011.881	1865.47
1012.173	1854.17
1012.466	1830.67
1012.759	1823.21
1013.052	1836.1
1013.344	1816.44
1013.637	1812.59
1013.93	1781.18
1014.222	1777.34
1014.514	1772.82
1014.807	1754.74
1015.099	1751.35
1015.391	1760.84
1015.683	1710
1015.976	1724.69
1016.268	1693.5
1016.56	1717.23
1016.851	1691.92
1017.143	1691.47
1017.435	1652.15
1017.727	1651.92
1018.018	1662.32
1018.31	1631.36
1018.602	1641.98
1018.893	1606.05
1019.185	1615.54
1019.476	1598.14
1019.767	1577.12
1020.058	1573.96
1020.35	1554.07
1020.641	1561.75
1020.932	1542.09
1021.223	1518.36
1021.514	1526.95
1021.804	1496.22
1022.095	1486.05
1022.386	1478.82
1022.677	1463
1022.967	1480.17
1023.258	1467.29
1023.548	1440.17
1023.839	1428.65
1024.129	1431.59
1024.419	1418.48
1024.709	1422.32
1025	1390.68
1025.29	1393.62
1025.58	1411.02
1025.87	1385.26
1026.16	1358.14
1026.449	1373.06
1026.739	1357.92
1027.029	1348.65
1027.319	1318.14
1027.608	1320.18
1027.898	1329.22
1028.187	1301.87
1028.477	1306.39
1028.766	1294.64
1029.055	1311.36
1029.344	1266.85
1029.634	1262.55
1029.923	1236.34
1030.212	1265.49
1030.501	1253.29
1030.79	1243.79
1031.078	1212.61
1031.367	1203.8
1031.656	1207.64
1031.945	1219.39
1032.233	1192.27
1032.522	1159.05
1032.81	1164.25
1033.099	1167.64
1033.387	1155.66
1033.675	1178.03
1033.963	1156.79
1034.251	1133.06
1034.54	1112.27
1034.828	1100.3
1035.116	1126.06
1035.403	1143.91
1035.691	1106.17
1035.979	1086.51
1036.267	1069.34
1036.554	1086.96
1036.842	1052.39
1037.129	1047.42
1037.417	1060.3
1037.704	1037.92
1037.992	1050.35
1038.279	1022.78
1038.566	1028.43
1038.853	1028.43
1039.14	1028.43
