Data from hue_34_FLMS001491_00094.txt Node
Date: Tue Feb 07 17:26:28 GMT 2017
User: dcchb
Spectrometer: FLMS00149
Trigger mode: 0
Integration Time (sec): 2.000000E-2
Scans to average: 10
Electric dark correction enabled: true
Nonlinearity correction enabled: false
Boxcar width: 0
XAxis mode: Wavelengths
Number of Pixels in Spectrum: 2048
>>>>>Begin Spectral Data<<<<<
341.393	-38.32
341.776	-38.32
342.16	-38.32
342.543	-62.05
342.927	-83.29
343.31	-69.05
343.693	-82.84
344.077	-64.53
344.46	-58.43
344.843	-49.17
345.226	-44.42
345.61	-34.02
345.993	-20.24
346.376	16.14
346.759	25.63
347.142	35.8
347.525	35.58
347.908	62.47
348.291	63.15
348.674	91.17
349.057	92.75
349.44	124.62
349.823	125.29
350.206	160.55
350.588	195.8
350.971	215.46
351.354	229.25
351.737	245.74
352.119	253.65
352.502	271.05
352.884	289.13
353.267	282.8
353.65	312.63
354.032	284.84
354.414	291.62
354.797	296.59
355.179	312.86
355.562	322.8
355.944	341.33
356.326	339.3
356.709	327.55
357.091	325.06
357.473	329.13
357.855	347.66
358.238	336.14
358.62	323.71
359.002	320.77
359.384	323.48
359.766	344.5
360.148	350.15
360.53	342.91
360.912	344.27
361.294	343.14
361.676	341.56
362.057	316.02
362.439	333.42
362.821	332.52
363.203	323.93
363.584	332.75
363.966	336.81
364.348	311.5
364.729	312.63
365.111	305.4
365.493	316.93
365.874	314.44
366.256	321.22
366.637	303.59
367.019	305.18
367.4	314.89
367.781	334.1
368.163	299.3
368.544	318.73
368.925	291.16
369.306	324.38
369.688	311.28
370.069	319.19
370.45	304.95
370.831	299.98
371.212	330.03
371.593	307.21
371.974	303.59
372.355	323.03
372.736	305.85
373.117	324.84
373.498	299.07
373.879	300.2
374.26	309.7
374.641	329.13
375.021	318.51
375.402	336.14
375.783	330.49
376.163	319.41
376.544	339.98
376.925	328.45
377.305	329.13
377.686	326.19
378.066	314.44
378.447	333.65
378.827	335.46
379.208	324.61
379.588	321.45
379.968	326.42
380.349	316.47
380.729	336.14
381.109	321.9
381.489	320.54
381.87	337.72
382.25	346.53
382.63	353.31
383.01	342.91
383.39	355.57
383.77	328
384.15	351.73
384.53	338.62
384.91	357.83
385.29	344.27
385.67	331.16
386.049	355.57
386.429	344.95
386.809	346.3
387.189	351.05
387.568	349.69
387.948	338.62
388.328	341.33
388.707	377.49
389.087	351.5
389.466	340.88
389.846	345.4
390.225	345.63
390.605	358.28
390.984	364.61
391.363	347.43
391.743	362.12
392.122	376.59
392.501	355.12
392.881	386.3
393.26	381.56
393.639	365.51
394.018	384.95
394.397	355.8
394.776	375.91
395.155	371.84
395.534	381.11
395.913	384.5
396.292	372.07
396.671	376.36
397.05	364.16
397.429	367.32
397.808	386.53
398.186	384.27
398.565	373.42
398.944	393.08
399.323	387.21
399.701	382.01
400.08	382.24
400.458	398.96
400.837	393.31
401.215	380.43
401.594	395.12
401.972	407.77
402.351	396.47
402.729	403.25
403.107	388.34
403.486	395.57
403.864	399.18
404.242	412.74
404.62	398.96
404.999	421.56
405.377	432.18
405.755	421.56
406.133	412.97
406.511	415.68
406.889	418.84
407.267	413.87
407.645	428.34
408.023	426.75
408.401	431.27
408.779	426.3
409.156	426.75
409.534	436.7
409.912	443.7
410.29	437.6
410.667	438.73
411.045	434.44
411.422	466.08
411.8	464.72
412.178	456.58
412.555	471.95
412.933	477.6
413.31	480.31
413.687	462.01
414.065	453.87
414.442	490.03
414.819	488.9
415.197	465.62
415.574	466.08
415.951	486.41
416.328	492.06
416.705	500.2
417.082	475.34
417.46	502.68
417.837	498.16
418.214	487.09
418.591	485.06
418.967	512.4
419.344	512.85
419.721	507.66
420.098	511.95
420.475	506.75
420.852	512.63
421.228	506.53
421.605	536.81
421.982	514.89
422.358	516.92
422.735	537.26
423.111	512.85
423.488	546.07
423.864	532.97
424.241	521.89
424.617	516.47
424.994	542.23
425.37	535
425.746	553.98
426.123	555.34
426.499	556.02
426.875	550.59
427.251	553.08
427.627	587.2
428.003	571.84
428.379	579.97
428.756	578.39
429.132	575.45
429.507	566.41
429.883	589.69
430.259	612.51
430.635	607.54
431.011	573.64
431.387	618.61
431.763	597.37
432.138	639.4
432.514	615.68
432.89	624.94
433.265	641.66
433.641	630.59
434.016	643.7
434.392	633.75
434.767	662.91
435.143	679.18
435.518	661.78
435.894	663.13
436.269	652.29
436.644	678.27
437.02	691.38
437.395	681.66
437.77	682.11
438.145	697.03
438.52	692.06
438.895	722.34
439.271	694.09
439.646	715.33
440.021	713.98
440.395	732.96
440.77	728.89
441.145	749.01
441.52	746.29
441.895	757.59
442.27	748.33
442.645	756.01
443.019	732.96
443.394	731.61
443.769	754.43
444.143	756.01
444.518	756.92
444.892	758.72
445.267	772.73
445.641	788.33
446.016	777.71
446.39	800.76
446.764	776.12
447.139	788.78
447.513	793.52
447.887	796.69
448.262	802.11
448.636	820.87
449.01	784.26
449.384	812.96
449.758	848.66
450.132	829.23
450.506	815.22
450.88	852.28
451.254	843.24
451.628	838.95
452.002	841.43
452.376	875.1
452.75	865.16
453.123	872.62
453.497	889.12
453.871	865.84
454.244	906.74
454.618	906.29
454.992	921.66
455.365	919.62
455.739	913.97
456.112	931.37
456.486	923.24
456.859	943.12
457.232	958.49
457.606	965.95
457.979	965.27
458.352	981.54
458.725	1001.2
459.099	1028.32
459.472	992.62
459.845	1032.61
460.218	1013.86
460.591	1039.39
460.964	1062.67
461.337	1079.39
461.71	1097.92
462.083	1094.53
462.456	1108.54
462.829	1094.31
463.201	1142.44
463.574	1135.66
463.947	1142.22
464.32	1156.9
464.692	1189.22
465.065	1200.75
465.438	1210.46
465.81	1187.19
466.183	1237.13
466.555	1240.74
466.928	1286.84
467.3	1296.56
467.672	1288.88
468.045	1300.18
468.417	1327.97
468.789	1343.57
469.161	1379.72
469.534	1390.8
469.906	1401.87
470.278	1443.9
470.65	1490
471.022	1483.45
471.394	1522.32
471.766	1523.22
472.138	1556.22
472.51	1550.79
472.882	1576.78
473.253	1626.5
473.625	1649.1
473.997	1691.58
474.369	1717.34
474.74	1740.62
475.112	1775.19
475.484	1810.45
475.855	1865.13
476.227	1906.26
476.598	1932.03
476.97	1959.82
477.341	2021.29
477.713	2074.17
478.084	2082.3
478.455	2170.44
478.827	2238.91
479.198	2261.06
479.569	2311.22
479.94	2384.89
480.311	2400.49
480.682	2469.19
481.053	2525.91
481.424	2572.46
481.795	2644.32
482.166	2716.86
482.537	2778.33
482.908	2819.69
483.279	2904.88
483.65	2993.01
484.021	3050.19
484.391	3142.16
484.762	3164.31
485.133	3256.74
485.503	3361.14
485.874	3422.61
486.244	3497.41
486.615	3650.62
486.985	3682.04
487.356	3760.68
487.726	3772.43
488.097	3917.28
488.467	3964.06
488.837	4105.98
489.207	4214.23
489.578	4265.52
489.948	4327.89
490.318	4411.96
490.688	4490.6
491.058	4581.22
491.428	4712.29
491.798	4766.53
492.168	4874.55
492.538	4953.19
492.908	5053.53
493.278	5101.89
493.648	5201.54
494.017	5300.98
494.387	5365.16
494.757	5436.57
495.126	5575.55
495.496	5611.02
495.866	5728.54
496.235	5793.62
496.605	5791.13
496.974	5933.5
497.344	6006.27
497.713	6052.82
498.082	6168.07
498.452	6256.43
498.821	6286.49
499.19	6331.91
499.559	6437.22
499.928	6465.24
500.298	6535.52
500.667	6654.84
501.036	6673.37
501.405	6754.27
501.774	6782.07
502.143	6874.27
502.512	6908.62
502.88	6997.43
503.249	7022.97
503.618	7115.39
503.987	7191.32
504.356	7242.62
504.724	7313.58
505.093	7352
505.462	7399.9
505.83	7504.08
506.199	7514.48
506.567	7664.76
506.936	7608.49
507.304	7722.61
507.672	7844.86
508.041	7853.23
508.409	7926.44
508.777	7939.55
509.145	8013.22
509.514	8065.88
509.882	8135.7
510.25	8192.2
510.618	8322.82
510.986	8280.33
511.354	8385.87
511.722	8395.58
512.09	8521.91
512.458	8445.07
512.826	8585.41
513.193	8622.47
513.561	8655.24
513.929	8681.23
514.297	8787.44
514.664	8852.75
515.032	8879.87
515.4	8921.22
515.767	8980.43
516.135	9033.31
516.502	8990.14
516.869	9147.65
517.237	9151.04
517.604	9104.27
517.972	9232.4
518.339	9271.72
518.706	9285.5
519.073	9370.25
519.44	9428.33
519.808	9559.62
520.175	9480.75
520.542	9596.68
520.909	9615.67
521.276	9615.44
521.643	9763.46
522.009	9816.79
522.376	9917.13
522.743	9846.62
523.11	10050.68
523.477	10071.25
523.843	10033.51
524.21	10223.33
524.577	10284.35
524.943	10327.06
525.31	10392.37
525.676	10452.48
526.043	10519.37
526.409	10522.31
526.776	10626.26
527.142	10643.43
527.508	10717.33
527.874	10824.9
528.241	10828.51
528.607	10905.35
528.973	10981.51
529.339	10961.17
529.705	11078.23
530.071	11167.71
530.437	11172.91
530.803	11324.09
531.169	11302.63
531.535	11230.54
531.901	11377.65
532.267	11400.48
532.632	11487.93
532.998	11501.04
533.364	11604.77
533.73	11642.73
534.095	11726.12
534.461	11823.29
534.826	11823.29
535.192	11904.19
535.557	11921.82
535.923	11956.17
536.288	12000.46
536.653	12068.48
537.019	12100.35
537.384	12124.75
537.749	12219.21
538.114	12254.24
538.479	12281.13
538.845	12354.58
539.21	12380.56
539.575	12389.15
539.94	12436.16
540.305	12569.03
540.67	12546.89
541.034	12615.81
541.399	12627.56
541.764	12734.45
542.129	12796.15
542.494	12809.03
542.858	12874.11
543.223	12867.11
543.587	12988.23
543.952	12950.27
544.316	13057.38
544.681	13027.78
545.045	13146.87
545.41	13287.43
545.774	13212.18
546.138	13265.51
546.503	13287.89
546.867	13296.7
547.231	13416.47
547.595	13456.92
547.959	13527.65
548.324	13516.13
548.688	13583.02
549.052	13656.91
549.416	13674.99
549.779	13731.72
550.143	13837.48
550.507	13858.94
550.871	13881.77
551.235	13836.57
551.599	14084.02
551.962	13933.97
552.326	14063.91
552.689	14225.04
553.053	14118.6
553.417	14117.69
553.78	14315.2
554.143	14268.42
554.507	14387.97
554.87	14414.64
555.234	14602.2
555.597	14446.72
555.96	14457.57
556.323	14584.35
556.686	14614.4
557.05	14670.45
557.413	14719.49
557.776	14735.98
558.139	14874.06
558.502	14819.14
558.865	14909.99
559.228	14971
559.59	14969.2
559.953	15117.67
560.316	15240.38
560.679	15243.99
561.041	15260.94
561.404	15262.97
561.767	15408.73
562.129	15422.29
562.492	15469.52
562.854	15553.14
563.217	15583.19
563.579	15621.84
563.941	15733.92
564.304	15763.98
564.666	15926.46
565.028	15890.3
565.39	15831.55
565.753	15978.44
566.115	16111.54
566.477	16105.21
566.839	16080.13
567.201	16181.59
567.563	16266.34
567.925	16388.59
568.287	16370.74
568.648	16437.63
569.01	16613.9
569.372	16607.12
569.734	16562.15
570.095	16720.56
570.457	16815.48
570.819	16772.77
571.18	16789.71
571.542	16977.28
571.903	16979.09
572.265	17137.28
572.626	17158.97
572.987	17285.52
573.349	17320.1
573.71	17428.34
574.071	17499.53
574.432	17667.66
574.794	17762.34
575.155	17802.12
575.516	17817.26
575.877	17950.59
576.238	18022.9
576.599	18221.99
576.96	18294.08
577.32	18430.35
577.681	18500.18
578.042	18677.57
578.403	18802.77
578.763	18895.42
579.124	18982.2
579.485	19198.24
579.845	19441.62
580.206	19419.7
580.566	19596.42
580.927	19646.59
581.287	20015.17
581.648	20008.61
582.008	20317.08
582.368	20389.62
582.728	20560.91
583.089	20827.8
583.449	20952.77
583.809	21101.24
584.169	21318.18
584.529	21436.6
584.889	21912.74
585.249	21949.13
585.609	22129.01
585.969	22425.5
586.329	22551.37
586.688	22854.87
587.048	23056.22
587.408	23144.8
587.768	23512.93
588.127	23585.02
588.487	23855.74
588.846	24360.36
589.206	24353.13
589.565	24505.67
589.925	24887.35
590.284	25193.33
590.643	25396.95
591.003	25668.58
591.362	26018.85
591.721	26069.24
592.08	26506.97
592.44	26753.97
592.799	27040.52
593.158	27239.16
593.517	27473.73
593.876	27770.44
594.235	27885.69
594.593	28223.09
594.952	28336.3
595.311	28664.66
595.67	29032.56
596.029	29402.72
596.387	29480
596.746	29963.6
597.104	29927.67
597.463	30245.18
597.822	30528.11
598.18	30714.32
598.538	30872.51
598.897	31229.33
599.255	31130.35
599.613	31867.96
599.972	31927.39
600.33	32157.22
600.688	32306.59
601.046	32646.02
601.404	32843.76
601.762	33057.31
602.12	33281.26
602.478	33550.4
602.836	33610.06
603.194	33720.57
603.552	34007.34
603.91	34092.54
604.268	34457.05
604.625	34398.29
604.983	34897.94
605.341	34834.89
605.698	35186.07
606.056	35417.7
606.413	35528.66
606.771	35778.82
607.128	35896.33
607.485	35947.4
607.843	36111.92
608.2	36436.2
608.557	36569.31
608.914	36710.55
609.272	37029.63
609.629	37120.48
609.986	37435.27
610.343	37233.7
610.7	37677.75
611.057	37844.53
611.414	37889.72
611.771	37875.94
612.127	38195.48
612.484	38321.35
612.841	38606.99
613.198	38495.36
613.554	38704.17
613.911	38905.29
614.267	38997.49
614.624	39117.49
614.98	39383.92
615.337	39316.81
615.693	39614.88
616.05	39511.6
616.406	40005.37
616.762	39913.4
617.118	39963.79
617.475	40180.96
617.831	40291.69
618.187	40429.54
618.543	40517.9
618.899	40731.91
619.255	40710.21
619.611	40608.52
619.967	40996.76
620.323	41112.24
620.678	40990.43
621.034	40961.96
621.39	41108.17
621.746	40993.37
622.101	41508.61
622.457	41216.42
622.812	41322.85
623.168	41540.93
623.523	41493.47
623.879	41756.97
624.234	41645.33
624.589	41739.34
624.945	41869.51
625.3	41943.63
625.655	41947.02
626.01	42002.84
626.365	42213.9
626.72	41917.64
627.075	42051.87
627.43	42016.4
627.785	42081.25
628.14	42222.94
628.495	42258.87
628.85	42188.37
629.205	42158.54
629.559	42337.74
629.914	42240.12
630.269	42120.35
630.623	42116.96
630.978	42118.54
631.332	42306.33
631.687	42356.73
632.041	42475.37
632.396	42375.93
632.75	42194.24
633.104	42314.01
633.459	42057.52
633.813	42208.25
634.167	42255.26
634.521	42380.91
634.875	42352.66
635.229	42257.07
635.583	42194.7
635.937	42212.55
636.291	42172.32
636.645	42284.18
636.999	42311.53
637.352	42457.51
637.706	42053
638.06	42259.1
638.413	42304.75
638.767	42102.95
639.121	42050.74
639.474	41888.49
639.828	42063.4
640.181	42049.16
640.534	42158.31
640.888	41924.42
641.241	41689.17
641.594	41818.66
641.947	42057.3
642.301	41907.02
642.654	41959
643.007	41951.09
643.36	41881.03
643.713	41834.93
644.066	41897.53
644.419	41655.95
644.771	41589.06
645.124	41003.77
645.477	41079.02
645.83	40935.52
646.182	40698.69
646.535	40745.02
646.888	40789.99
647.24	40524.68
647.593	40673.15
647.945	40529.43
648.298	40516.1
648.65	40450.79
649.002	40345.48
649.355	40403.78
649.707	40464.12
650.059	40711.34
650.411	40982.75
650.763	41081.5
651.115	41550.42
651.467	41239.92
651.819	41354.27
652.171	41286.24
652.523	41200.82
652.875	41161.28
653.227	40994.95
653.578	41332.35
653.93	41339.58
654.282	41204.89
654.633	41116.31
654.985	41123.09
655.337	41176.42
655.688	41214.61
656.039	41293.48
656.391	40942.3
656.742	41166.47
657.094	41154.05
657.445	41164.89
657.796	41036.08
658.147	41078.79
658.498	41060.26
658.849	41068.17
659.2	41045.35
659.551	40817.33
659.902	41096.19
660.253	40983.65
660.604	41081.96
660.955	40929.87
661.306	41043.54
661.656	40954.28
662.007	40859.36
662.358	40859.14
662.708	40820.72
663.059	40798.12
663.409	40674.96
663.76	40994.28
664.11	40778.24
664.461	40979.59
664.811	40909.08
665.161	40939.36
665.511	40745.47
665.862	40768.97
666.212	40849.42
666.562	40826.6
666.912	40825.69
667.262	40702.53
667.612	40723.55
667.962	40745.92
668.312	40715.64
668.662	40806.71
669.011	40665.47
669.361	40686.26
669.711	40724
670.06	40666.6
670.41	40618.92
670.76	40598.58
671.109	40752.7
671.459	40611.91
671.808	40611.91
672.157	40640.84
672.507	40439.04
672.856	40552.48
673.205	40587.05
673.554	40730.33
673.904	40454.18
674.253	40701.18
674.602	40484.23
674.951	39990.46
675.3	39960.18
675.649	40375.76
675.998	40322.2
676.346	40328.08
676.695	40524.23
677.044	40239.49
677.393	40268.42
677.741	40388.87
678.09	40105.26
678.438	40093.73
678.787	40255.99
679.135	40243.33
679.484	39961.76
679.832	40128.08
680.181	39998.82
680.529	40099.16
680.877	39907.3
681.225	39814.42
681.573	40043.11
681.922	39640.41
682.27	39747.98
682.618	39712.05
682.966	39491.26
683.314	39759.96
683.661	39552.96
684.009	39429.12
684.357	39273.42
684.705	39275.45
685.053	39414.66
685.4	39302.34
685.748	38979.41
686.095	39039.3
686.443	39072.07
686.79	38964.72
687.138	39026.42
687.485	38915.69
687.832	38815.8
688.18	38860.09
688.527	38644.73
688.874	38577.16
689.221	38581.68
689.568	38582.36
689.915	38354.34
690.262	38373.1
690.609	38224.63
690.956	38150.28
691.303	38169.04
691.65	37889.95
691.997	38048.59
692.344	37761.37
692.69	37709.39
693.037	37670.07
693.383	37366.35
693.73	37508.04
694.077	37335.39
694.423	37243.19
694.769	37169.07
695.116	37243.41
695.462	37160.48
695.808	37134.49
696.155	37138.33
696.501	36818.11
696.847	36903.99
697.193	36613.83
697.539	36712.81
697.885	36457.22
698.231	36433.72
698.577	36430.55
698.923	36271.46
699.269	36119.15
699.614	35951.24
699.96	35952.15
700.306	36109.66
700.651	35945.59
700.997	35786.28
701.342	35570.91
701.688	35615.21
702.033	35420.86
702.379	35403.46
702.724	35336.34
703.069	35288.21
703.415	34945.39
703.76	34972.51
704.105	35022.68
704.45	34880.09
704.795	34793.08
705.14	34677.61
705.485	34478.97
705.83	34471.73
706.175	34498.85
706.52	34387.9
706.865	34266.77
707.209	34248.92
707.554	34115.59
707.899	34184.06
708.243	33873.33
708.588	33871.75
708.932	33742.94
709.277	33641.25
709.621	33833.56
709.966	33691.19
710.31	33601.93
710.654	33260.02
710.998	33383.4
711.342	33416.62
711.687	33209.4
712.031	33069.74
712.375	32997.65
712.719	32991.1
713.063	33034.03
713.407	33099.79
713.75	32940.93
714.094	32833.36
714.438	32749.75
714.782	32709.75
715.125	32592.46
715.469	32698
715.812	32462.07
716.156	32296.42
716.499	32422.3
716.843	32423.43
717.186	32173.04
717.53	32271.11
717.873	32279.48
718.216	32293.94
718.559	32111.34
718.902	31835.65
719.246	31849.66
719.589	31913.38
719.932	31793.61
720.275	31840.17
720.617	31638.59
720.96	31624.13
721.303	31589.32
721.646	31695.08
721.989	31450.35
722.331	31508.2
722.674	31350.69
723.016	31446.28
723.359	31380.52
723.701	31416.22
724.044	31182.56
724.386	30905.73
724.729	31214.19
725.071	31171.93
725.413	31102.78
725.755	30962.67
726.097	30865.5
726.439	30785.28
726.782	30683.59
727.124	30915.9
727.465	30739.63
727.807	30745.96
728.149	30553.87
728.491	30693.53
728.833	30542.12
729.175	30558.84
729.516	30358.4
729.858	30474.1
730.199	30504.16
730.541	30346.87
730.882	30328.57
731.224	30400.2
731.565	30239.98
731.906	30126.54
732.248	30110.95
732.589	30022.59
732.93	29851.97
733.271	29809.26
733.612	29982.59
733.953	29946.66
734.294	29764.06
734.635	29797.51
734.976	29948.69
735.317	29639.09
735.658	29745.76
735.999	29556.38
736.339	29661.24
736.68	29684.29
737.021	29529.04
737.361	29461.7
737.702	29550.96
738.042	29425.54
738.383	29363.39
738.723	29502.15
739.063	29404.75
739.404	29276.17
739.744	29283.85
740.084	29107.58
740.424	29137.64
740.764	29101.48
741.104	29167.92
741.444	29021.48
741.784	28905.1
742.124	29082.05
742.464	29006.57
742.804	28944.65
743.143	28757.08
743.483	28882.5
743.823	28550.76
744.162	28584.66
744.502	28722.28
744.841	28538.33
745.181	28591.89
745.52	28450.88
745.86	28565.9
746.199	28470.31
746.538	28453.59
746.877	28510.08
747.216	28392.12
747.556	28245.91
747.895	28365.68
748.234	28144.22
748.573	28127.95
748.911	28179.7
749.25	28059.7
749.589	27869.65
749.928	28022.86
750.267	27977.89
750.605	27893.15
750.944	27765.47
751.283	27785.36
751.621	27831.46
751.96	27725.7
752.298	27616.77
752.636	27654.96
752.975	27540.84
753.313	27468.3
753.651	27606.6
753.989	27447.51
754.327	27405.71
754.666	27240.51
755.004	27271.02
755.342	27259.72
755.679	27163
756.017	27057.01
756.355	27148.09
756.693	27034.87
757.031	27017.47
757.368	26816.57
757.706	26837.81
758.044	26745.61
758.381	26720.53
758.719	26645.27
759.056	26641.43
759.394	26512.4
759.731	26339.29
760.068	26304.27
760.405	26208.22
760.743	26270.37
761.08	26299.52
761.417	26081
761.754	26000.55
762.091	25968.68
762.428	25779.53
762.765	25754
763.102	25793.54
763.438	25519.65
763.775	25489.15
764.112	25626.32
764.449	25475.81
764.785	25429.26
765.122	25319.66
765.458	25131.87
765.795	25121.92
766.131	25106.33
766.467	24994.47
766.804	24939.78
767.14	24833.8
767.476	24827.47
767.812	24601.49
768.148	24647.81
768.485	24467.03
768.821	24290.31
769.157	24317.2
769.492	24291.44
769.828	24278.33
770.164	24071.1
770.5	24001.5
770.836	24116.98
771.171	23796.54
771.507	23782.98
771.842	23652.36
772.178	23635.41
772.513	23589.31
772.849	23491.46
773.184	23368.07
773.519	23407.84
773.855	23345.02
774.19	23148.87
774.525	23064.35
774.86	23000.4
775.195	23068.19
775.53	22889.67
775.865	22824.13
776.2	22762.66
776.535	22519.51
776.87	22576.91
777.205	22371.71
777.539	22296.24
777.874	22367.19
778.209	22147.31
778.543	22190.02
778.878	22049.01
779.212	22018.95
779.547	21966.75
779.881	21809.02
780.215	21747.78
780.55	21739.87
780.884	21590.72
781.218	21527.22
781.552	21483.38
781.886	21317.05
782.22	21280.22
782.554	21216.04
782.888	21012.65
783.222	20907.12
783.556	20824.41
783.889	20893.11
784.223	20705.54
784.557	20663.96
784.89	20714.58
785.224	20542.38
785.557	20441.37
785.891	20348.94
786.224	20373.35
786.558	20404.08
786.891	20116.63
787.224	20144.2
787.557	20000.93
787.891	20015.84
788.224	19899.69
788.557	19979.23
788.89	19849.75
789.223	19732.69
789.556	19574.95
789.888	19586.7
790.221	19554.16
790.554	19358.46
790.887	19419.93
791.219	19264.45
791.552	19252.93
791.884	19203.66
792.217	19004.8
792.549	19065.81
792.882	18898.36
793.214	18810.9
793.546	18805.93
793.879	18655.2
794.211	18670.79
794.543	18674.41
794.875	18539.27
795.207	18676.22
795.539	18546.96
795.871	18480.06
796.203	18293.63
796.535	18189.23
796.867	18274.65
797.198	18163.69
797.53	18181.77
797.862	18005.95
798.193	17961.66
798.525	18000.08
798.856	17952.4
799.188	17726.86
799.519	17765.28
799.85	17643.93
800.182	17678.96
800.513	17652.06
800.844	17497.94
801.175	17561.22
801.506	17557.15
801.837	17370.94
802.168	17351.28
802.499	17305.86
802.83	17261.11
803.161	17195.58
803.491	17186.77
803.822	17174.11
804.153	17016.37
804.483	16968.92
804.814	16845.53
805.145	16890.28
805.475	16894.12
805.805	16707.91
806.136	16821.58
806.466	16675.59
806.796	16693.22
807.126	16522.83
807.457	16557.86
807.787	16677.4
808.117	16448.48
808.447	16383.62
808.777	16416.84
809.107	16287.13
809.436	16333.91
809.766	16211.2
810.096	16180.92
810.426	16146.34
810.755	16135.49
811.085	16043.29
811.414	16021.15
811.744	15959.45
812.073	15861.38
812.403	15872.22
812.732	15723.75
813.061	15740.48
813.39	15737.09
813.719	15588.16
814.049	15733.24
814.378	15677.88
814.707	15603.98
815.036	15505.23
815.365	15523.08
815.693	15411.45
816.022	15397.89
816.351	15366.93
816.68	15272.01
817.008	15342.52
817.337	15189.3
817.665	15129.64
817.994	15151.11
818.322	15140.72
818.651	15036.09
818.979	15046.26
819.307	15089.19
819.636	15039.03
819.964	14935.07
820.292	14945.47
820.62	14965.13
820.948	14868.41
821.276	14952.47
821.604	14937.11
821.932	14867.96
822.259	14888.52
822.587	14837.45
822.915	14746.38
823.243	14899.37
823.57	14819.82
823.898	14861.85
824.225	14869.99
824.553	14818.24
824.88	14793.83
825.207	14935.98
825.535	14785.02
825.862	14918.58
826.189	14807.85
826.516	14939.37
826.843	14804
827.17	14833.16
827.497	14825.92
827.824	14804
828.151	14799.94
828.478	14762.87
828.805	14837.67
829.131	14788.41
829.458	14740.73
829.785	14699.6
830.111	14750.45
830.438	14780.73
830.764	14755.87
831.09	14721.75
831.417	14735.08
831.743	14710.45
832.069	14628.19
832.395	14615.31
832.722	14730.78
833.048	14622.99
833.374	14727.17
833.7	14628.19
834.026	14540.96
834.351	14665.48
834.677	14571.02
835.003	14686.27
835.329	14651.69
835.654	14588.42
835.98	14471.36
836.306	14531.02
836.631	14472.49
836.956	14566.72
837.282	14531.69
837.607	14407.63
837.932	14344.81
838.258	14314.52
838.583	14269.55
838.908	14279.27
839.233	14311.14
839.558	14281.31
839.883	14178.71
840.208	14181.19
840.533	14231.82
840.858	14291.7
841.182	14145.49
841.507	14091.71
841.832	13960.64
842.156	14047.87
842.481	14025.72
842.805	14015.78
843.13	14015.78
843.454	13990.69
843.778	13833.63
844.103	13866.85
844.427	13848.55
844.751	13821.43
845.075	13753.86
845.399	13734.65
845.723	13630.25
846.047	13702.34
846.371	13568.78
846.695	13559.52
847.019	13441.33
847.343	13358.17
847.666	13338.73
847.99	13265.29
848.313	13338.05
848.637	13190.26
848.96	13191.39
849.284	13170.83
849.607	13122.92
849.931	13049.25
850.254	12920.44
850.577	12883.6
850.9	12858.52
851.223	12785.98
851.546	12676.6
851.869	12608.58
852.192	12664.62
852.515	12604.51
852.838	12446.33
853.161	12518.19
853.483	12417.85
853.806	12367.01
854.129	12318.65
854.451	12293.56
854.774	12262.6
855.096	12222.38
855.419	12194.81
855.741	12190.74
856.063	12079.1
856.385	12125.43
856.708	11979.44
857.03	12025.32
857.352	11910.29
857.674	11883.4
857.996	11876.4
858.318	11823.29
858.64	11828.94
858.961	11825.78
859.283	11732.9
859.605	11682.73
859.926	11666.23
860.248	11652.22
860.57	11635.05
860.891	11666.91
861.212	11580.59
861.534	11555.95
861.855	11513.92
862.176	11493.58
862.498	11477.99
862.819	11494.49
863.14	11434.37
863.461	11369.97
863.782	11364.09
864.103	11442.96
864.424	11353.47
864.745	11370.42
865.065	11268.73
865.386	11224.89
865.707	11259.24
866.027	11207.49
866.348	11184.44
866.668	11206.81
866.989	11149.18
867.309	11081.16
867.63	11109.19
867.95	11094.72
868.27	11052.69
868.59	11060.15
868.91	10997.1
869.23	10987.15
869.55	11012.92
869.87	11007.27
870.19	10948.51
870.51	11004.56
870.83	11033.26
871.15	10934.05
871.469	10906.7
871.789	10939.92
872.109	10885.91
872.428	10810.89
872.748	10845.46
873.067	10768.86
873.386	10848.4
873.706	10863.54
874.025	10682.76
874.344	10729.08
874.663	10760.49
874.982	10718.24
875.301	10739.7
875.62	10633.27
875.939	10610.89
876.258	10724.79
876.577	10562.31
876.896	10615.19
877.214	10505.36
877.533	10581.74
877.852	10538.35
878.17	10525.47
878.489	10547.84
878.807	10541.52
879.125	10422.2
879.444	10444.57
879.762	10453.16
880.08	10433.72
880.398	10448.64
880.716	10393.95
881.034	10388.3
881.352	10331.13
881.67	10293.61
881.988	10343.56
882.306	10341.75
882.624	10287.06
882.941	10218.36
883.259	10182.43
883.577	10174.75
883.894	10094.07
884.212	10086.39
884.529	10140.4
884.846	10045.94
885.164	10094.52
885.481	9962.77
885.798	10019.72
886.115	9980.63
886.432	9967.52
886.75	9922.78
887.067	9925.94
887.383	9869.22
887.7	9923
888.017	9807.52
888.334	9803.23
888.651	9738.15
888.967	9720.07
889.284	9789.45
889.6	9779.05
889.917	9662.22
890.233	9710.8
890.55	9616.8
890.866	9595.78
891.182	9563.46
891.498	9540.64
891.815	9544.48
892.131	9548.77
892.447	9461.09
892.763	9462.45
893.079	9443.92
893.395	9367.76
893.71	9328.89
894.026	9388.78
894.342	9288.22
894.657	9293.19
894.973	9292.51
895.289	9160.08
895.604	9199.86
895.92	9137.26
896.235	9147.65
896.55	9126.86
896.865	9045.28
897.181	9091.39
897.496	9026.75
897.811	8975.68
898.126	8938.17
898.441	8939.75
898.756	8871.05
899.071	8832.18
899.386	8867.21
899.7	8791.96
900.015	8767.33
900.33	8664.5
900.644	8743.15
900.959	8736.14
901.273	8648.01
901.588	8603.26
901.902	8497.05
902.216	8571.4
902.531	8490.95
902.845	8434.45
903.159	8411.4
903.473	8393.78
903.787	8370.27
904.101	8322.37
904.415	8298.41
904.729	8222.26
905.042	8224.06
905.356	8217.96
905.67	8209.37
905.984	8212.54
906.297	8174.57
906.611	8107
906.924	8032.2
907.237	8049.38
907.551	8033.33
907.864	7988.59
908.177	8036.72
908.491	7920.57
908.804	7970.96
909.117	7841.93
909.43	7819.33
909.743	7809.39
910.056	7778.43
910.368	7755.38
910.681	7730.52
910.994	7690.29
911.307	7644.64
911.619	7606
911.932	7584.31
912.244	7463.41
912.557	7488.94
912.869	7574.36
913.181	7446.68
913.494	7466.8
913.806	7372.11
914.118	7339.57
914.43	7328.72
914.742	7378.21
915.054	7301.6
915.366	7262.96
915.678	7199.46
915.99	7153.81
916.302	7155.62
916.613	7077.65
916.925	7100.7
917.236	7139.57
917.548	6995.4
917.859	7008.28
918.171	7042.63
918.482	6913.14
918.794	6938.45
919.105	6873.59
919.416	6844.21
919.727	6856.87
920.038	6789.52
920.349	6722.63
920.66	6745.46
920.971	6685.57
921.282	6732.8
921.593	6638.34
921.903	6619.13
922.214	6603.99
922.525	6542.53
922.835	6545.92
923.146	6532.13
923.456	6450.32
923.767	6450.32
924.077	6466.14
924.387	6453.71
924.697	6351.34
925.008	6337.33
925.318	6327.62
925.628	6314.74
925.938	6321.74
926.248	6235.64
926.558	6239.71
926.867	6178.92
927.177	6182.54
927.487	6145.7
927.796	6102.99
928.106	6077
928.416	6079.04
928.725	6051.92
929.034	5993.16
929.344	5985.48
929.653	6008.98
929.962	5950.22
930.271	5877.01
930.581	5882.66
930.89	5848.08
931.199	5869.55
931.508	5778.03
931.817	5775.77
932.125	5787.52
932.434	5730.12
932.743	5697.35
933.051	5688.76
933.36	5634.75
933.669	5670.91
933.977	5585.26
934.286	5623.91
934.594	5576.9
934.902	5526.96
935.21	5531.48
935.519	5485.6
935.827	5503.91
936.135	5424.14
936.443	5411.93
936.751	5401.54
937.059	5412.39
937.367	5371.94
937.674	5369.45
937.982	5355.66
938.29	5303.69
938.597	5259.62
938.905	5227.76
939.213	5189.57
939.52	5134.65
939.827	5209.68
940.135	5162.45
940.442	5110.25
940.749	5122.22
941.056	5124.03
941.363	5053.98
941.67	5077.93
941.977	4988.22
942.284	5016.46
942.591	4988.89
942.898	5004.94
943.205	4968.1
943.511	4945.73
943.818	4860.08
944.125	4834.1
944.431	4845.62
944.738	4820.09
945.044	4774.21
945.35	4760.2
945.657	4735.34
945.963	4739.64
946.269	4702.57
946.575	4708.22
946.881	4675.23
947.187	4668.9
947.493	4651.5
947.799	4622.35
948.105	4641.11
948.41	4569.02
948.716	4605.4
949.022	4531.96
949.327	4529.7
949.633	4459.64
949.938	4554.1
950.244	4481.11
950.549	4405.18
950.854	4401.57
951.16	4423.71
951.465	4364.05
951.77	4359.53
952.075	4359.31
952.38	4298.06
952.685	4297.16
952.99	4281.34
953.294	4281.57
953.599	4230.27
953.904	4240.67
954.209	4240.67
954.513	4196.6
954.818	4193.66
955.122	4176.03
955.426	4155.7
955.731	4104.17
956.035	4142.81
956.339	4131.29
956.643	4099.88
956.948	4069.37
957.252	4044.96
957.556	4007
957.86	4012.2
958.163	4022.14
958.467	4009.48
958.771	3904.85
959.075	3963.38
959.378	3932.2
959.682	3932.42
959.985	3878.64
960.289	3863.95
960.592	3833.22
960.896	3830.73
961.199	3861.47
961.502	3815.14
961.805	3814.24
962.108	3797.29
962.411	3768.59
962.714	3738.53
963.017	3739.66
963.32	3736.27
963.623	3662.6
963.926	3713.9
964.228	3662.6
964.531	3650.4
964.833	3691.08
965.136	3618.31
965.438	3588.03
965.741	3618.53
966.043	3515.03
966.345	3548.93
966.648	3529.27
966.95	3522.27
967.252	3509.84
967.554	3505.09
967.856	3531.53
968.158	3400.69
968.46	3406.34
968.761	3454.02
969.063	3393.91
969.365	3412.21
969.666	3380.12
969.968	3391.87
970.269	3340.12
970.571	3331.08
970.872	3314.81
971.174	3303.06
971.475	3290.63
971.776	3252.44
972.077	3230.75
972.378	3247.7
972.679	3264.87
972.98	3227.81
973.281	3210.64
973.582	3186.91
973.883	3183.07
974.183	3158.66
974.484	3166.8
974.785	3149.17
975.085	3133.8
975.386	3134.25
975.686	3101.49
975.986	3063.07
976.287	3111.2
976.587	3036.18
976.887	3011.32
977.187	3063.75
977.487	3038.89
977.787	3023.3
978.087	2968.83
978.387	2991.66
978.687	2950.08
978.987	2964.99
979.286	2962.51
979.586	2924.99
979.885	2921.15
980.185	2901.04
980.484	2878.67
980.784	2915.28
981.083	2868.05
981.382	2837.99
981.682	2813.58
981.981	2838.89
982.28	2768.16
982.579	2830.08
982.878	2782.85
983.177	2811.1
983.475	2790.31
983.774	2762.51
984.073	2742.17
984.372	2706.24
984.67	2701.5
984.969	2732.46
985.267	2696.53
985.566	2664.21
985.864	2685.45
986.162	2688.16
986.461	2638.67
986.759	2644.55
987.057	2611.78
987.355	2612.01
987.653	2594.83
987.951	2573.59
988.249	2555.51
988.547	2549.41
988.844	2536.76
989.142	2553.48
989.44	2545.57
989.737	2512.12
990.035	2503.54
990.332	2472.8
990.63	2473.03
990.927	2500.82
991.224	2472.35
991.521	2483.42
991.819	2426.48
992.116	2436.42
992.413	2393.71
992.71	2424.67
993.006	2397.55
993.303	2396.65
993.6	2354.84
993.897	2384.22
994.193	2355.29
994.49	2329.3
994.787	2323.65
995.083	2306.7
995.379	2296.76
995.676	2273.71
995.972	2294.5
996.268	2269.19
996.565	2285.46
996.861	2282.98
997.157	2266.03
997.453	2200.27
997.749	2191.68
998.044	2210.66
998.34	2213.6
998.636	2167.95
998.932	2135.41
999.227	2136.09
999.523	2114.85
999.818	2165.69
1000.114	2122.3
1000.409	2099.25
1000.704	2109.2
1001	2086.15
1001.295	2079.59
1001.59	2054.96
1001.885	2056.54
1002.18	2056.77
1002.475	2038.46
1002.77	2042.53
1003.065	1989.65
1003.359	1987.62
1003.654	1998.69
1003.949	1969.99
1004.243	1967.5
1004.538	1920.27
1004.832	1949.65
1005.127	1927.05
1005.421	1934.74
1005.715	1928.86
1006.009	1906.26
1006.304	1941.29
1006.598	1870.11
1006.892	1902.65
1007.186	1883.89
1007.48	1868.07
1007.773	1855.19
1008.067	1840.05
1008.361	1830.79
1008.655	1796.89
1008.948	1790.56
1009.242	1783.55
1009.535	1798.7
1009.829	1803.22
1010.122	1767.28
1010.415	1746.27
1010.708	1725.03
1011.001	1744.46
1011.295	1736.1
1011.588	1713.27
1011.881	1710.79
1012.173	1685.48
1012.466	1680.96
1012.759	1674.86
1013.052	1666.95
1013.344	1660.62
1013.637	1666.04
1013.93	1628.76
1014.222	1604.58
1014.514	1625.82
1014.807	1592.6
1015.099	1608.64
1015.391	1583.56
1015.683	1580.85
1015.976	1584.24
1016.268	1580.17
1016.56	1555.31
1016.851	1540.85
1017.143	1541.75
1017.435	1535.65
1017.727	1524.8
1018.018	1520.96
1018.31	1542.88
1018.602	1520.51
1018.893	1463.34
1019.185	1486.84
1019.476	1443.68
1019.767	1456.78
1020.058	1436.67
1020.35	1445.71
1020.641	1442.77
1020.932	1437.35
1021.223	1402.55
1021.514	1388.08
1021.804	1421.76
1022.095	1391.7
1022.386	1383.57
1022.677	1387.41
1022.967	1367.52
1023.258	1332.49
1023.548	1353.74
1023.839	1328.2
1024.129	1321.87
1024.419	1320.74
1024.709	1282.78
1025	1310.12
1025.29	1287.07
1025.58	1247.52
1025.87	1262.89
1026.16	1243.23
1026.449	1273.29
1026.739	1226.06
1027.029	1247.07
1027.319	1210.69
1027.608	1223.8
1027.898	1187.86
1028.187	1197.13
1028.477	1172.95
1028.766	1199.16
1029.055	1200.97
1029.344	1158.71
1029.634	1161.65
1029.923	1153.74
1030.212	1126.4
1030.501	1148.77
1030.79	1154.87
1031.078	1119.39
1031.367	1110.58
1031.656	1117.58
1031.945	1114.65
1032.233	1121.65
1032.522	1106.06
1032.81	1111.48
1033.099	1077.36
1033.387	1084.14
1033.675	1062.9
1033.963	1051.37
1034.251	1032.39
1034.54	1057.25
1034.828	1041.65
1035.116	1022.44
1035.403	1011.82
1035.691	1000.98
1035.979	1033.74
1036.267	982.9
1036.554	991.94
1036.842	986.06
1037.129	996.91
1037.417	970.69
1037.704	973.41
1037.992	941.32
1038.279	944.03
1038.566	946.74
1038.853	946.74
1039.14	946.74
