Data from hue_70_FLMS001491_93.txt Node
Date: Mon Feb 06 15:21:46 GMT 2017
User: dcchb
Spectrometer: FLMS00149
Trigger mode: 0
Integration Time (sec): 2.000000E-2
Scans to average: 10
Electric dark correction enabled: true
Nonlinearity correction enabled: false
Boxcar width: 0
XAxis mode: Wavelengths
Number of Pixels in Spectrum: 2048
>>>>>Begin Spectral Data<<<<<
341.393	-20.34
341.776	-20.34
342.16	-20.34
342.543	-67.34
342.927	-66.21
343.31	-80.9
343.693	-86.78
344.077	-48.59
344.46	-75.7
344.843	-58.3
345.226	-47.23
345.61	-21.24
345.993	-6.55
346.376	-6.55
346.759	18.3
347.142	26.21
347.525	34.58
347.908	62.6
348.291	70.05
348.674	106.89
349.057	113.22
349.44	112.54
349.823	139.88
350.206	165.87
350.588	199.54
350.971	211.07
351.354	213.78
351.737	214.23
352.119	249.48
352.502	255.36
352.884	278.64
353.267	287
353.65	283.38
354.032	292.2
354.414	298.07
354.797	297.85
355.179	317.51
355.562	311.63
355.944	307.34
356.326	304.17
356.709	323.61
357.091	335.81
357.473	312.76
357.855	335.81
358.238	358.41
358.62	353.66
359.002	327.45
359.384	338.75
359.766	323.61
360.148	335.13
360.53	324.06
360.912	338.07
361.294	338.3
361.676	323.16
362.057	349.37
362.439	331.29
362.821	331.97
363.203	329.93
363.584	319.99
363.966	311.4
364.348	311.86
364.729	325.19
365.111	320.67
365.493	314.57
365.874	313.66
366.256	325.42
366.637	310.5
367.019	312.08
367.4	282.7
367.781	309.82
368.163	294.46
368.544	288.35
368.925	297.17
369.306	307.34
369.688	319.99
370.069	307.79
370.45	288.81
370.831	306.66
371.212	312.53
371.593	327.68
371.974	302.36
372.355	286.77
372.736	303.72
373.117	316.15
373.498	311.18
373.879	322.7
374.26	308.92
374.641	313.89
375.021	307.34
375.402	303.49
375.783	332.87
376.163	306.21
376.544	330.39
376.925	310.73
377.305	322.25
377.686	300.78
378.066	338.07
378.447	327.9
378.827	328.13
379.208	324.74
379.588	324.29
379.968	341.23
380.349	358.63
380.729	338.07
381.109	327.67
381.489	341.91
381.87	327.22
382.25	311.86
382.63	336.26
383.01	315.92
383.39	327.68
383.77	329.93
384.15	331.74
384.53	349.6
384.91	312.53
385.29	336.71
385.67	351.86
386.049	340.1
386.429	359.54
386.809	363.15
387.189	341.91
387.568	341.91
387.948	351.18
388.328	354.34
388.707	338.07
389.087	356.83
389.466	362.02
389.846	343.95
390.225	357.5
390.605	354.34
390.984	354.11
391.363	362.02
391.743	367.45
392.122	342.14
392.501	358.41
392.881	367.67
393.26	380.33
393.639	368.8
394.018	381.01
394.397	343.04
394.776	374
395.155	363.83
395.534	345.75
395.913	372.87
396.292	375.36
396.671	383.94
397.05	365.41
397.429	362.25
397.808	365.19
398.186	352.08
398.565	392.08
398.944	381.01
399.323	376.26
399.701	388.69
400.08	370.61
400.458	385.3
400.837	359.76
401.215	371.74
401.594	377.62
401.972	402.25
402.351	374
402.729	388.46
403.107	394.34
403.486	386.43
403.864	396.37
404.242	377.62
404.62	396.6
404.999	394.34
405.377	408.8
405.755	390.95
406.133	394.79
406.511	404.74
406.889	399.09
407.267	397.28
407.645	413.77
408.023	430.5
408.401	416.26
408.779	426.2
409.156	438.41
409.534	438.18
409.912	424.85
410.29	445.19
410.667	440.21
411.045	428.92
411.422	437.73
411.8	421.91
412.178	427.33
412.555	448.8
412.933	455.81
413.31	443.15
413.687	444.73
414.065	461.23
414.442	465.52
414.819	471.85
415.197	461
415.574	471.17
415.951	472.3
416.328	456.26
416.705	484.06
417.082	482.93
417.46	476.15
417.837	479.76
418.214	488.57
418.591	489.93
418.967	471.63
419.344	492.64
419.721	499.65
420.098	498.74
420.475	508.69
420.852	491.51
421.228	494.45
421.605	484.51
421.982	512.98
422.358	508.01
422.735	505.07
423.111	549.14
423.488	505.07
423.864	526.77
424.241	520.66
424.617	545.3
424.994	545.3
425.37	532.64
425.746	531.06
426.123	519.99
426.499	560.66
426.875	541.68
427.251	563.15
427.627	554.56
428.003	533.09
428.379	562.25
428.756	576.48
429.132	578.06
429.507	578.29
429.883	577.39
430.259	599.53
430.635	594.79
431.011	578.29
431.387	592.07
431.763	591.4
432.138	602.92
432.514	584.39
432.89	628.23
433.265	598.85
433.641	633.43
434.016	613.54
434.392	633.66
434.767	624.62
435.143	638.85
435.518	639.31
435.894	650.6
436.269	656.71
436.644	650.38
437.02	661
437.395	659.64
437.77	658.29
438.145	661.68
438.52	687.67
438.895	700.77
439.271	709.13
439.646	712.07
440.021	700.32
440.395	707.1
440.77	711.39
441.145	693.99
441.52	733.09
441.895	731.05
442.27	706.65
442.645	733.99
443.019	732.86
443.394	724.05
443.769	751.39
444.143	759.53
444.518	753.65
444.892	748.23
445.267	760.66
445.641	756.36
446.016	750.94
446.39	750.94
446.764	740.32
447.139	787.78
447.513	791.84
447.887	766.99
448.262	775.57
448.636	756.82
449.01	799.75
449.384	799.08
449.758	796.14
450.132	816.48
450.506	802.24
450.88	797.72
451.254	816.25
451.628	834.1
452.002	832.29
452.376	841.56
452.75	839.98
453.123	826.64
453.497	857.15
453.871	891.28
454.244	875.46
454.618	894.67
454.992	900.09
455.365	898.73
455.739	916.81
456.112	924.72
456.486	941.9
456.859	946.19
457.232	985.06
457.606	939.18
457.979	969.01
458.352	982.12
458.725	988
459.099	975.57
459.472	995.45
459.845	1015.79
460.218	1022.57
460.591	1017.37
460.964	1052.63
461.337	1082.68
461.71	1072.74
462.083	1068.67
462.456	1081.1
462.829	1119.97
463.201	1119.74
463.574	1147.77
463.947	1134.89
464.32	1174.43
464.692	1178.5
465.065	1186.86
465.438	1193.41
465.81	1213.98
466.183	1236.35
466.555	1263.02
466.928	1270.02
467.3	1285.16
467.672	1318.16
468.045	1344.82
468.417	1351.38
468.789	1343.47
469.161	1382.34
469.534	1429.57
469.906	1441.54
470.278	1437.93
470.65	1478.15
471.022	1515.21
471.394	1574.2
471.766	1564.93
472.138	1634.76
472.51	1640.63
472.882	1659.62
473.253	1708.43
473.625	1714.31
473.997	1782.78
474.369	1776.9
474.74	1838.6
475.112	1871.59
475.484	1906.39
475.855	1955.2
476.227	1998.82
476.598	2073.84
476.97	2119.27
477.341	2182.09
477.713	2242.65
478.084	2256.21
478.455	2326.27
478.827	2377.56
479.198	2467.73
479.569	2491.91
479.94	2630.44
480.311	2650.55
480.682	2737.1
481.053	2810.55
481.424	2937.78
481.795	2970.32
482.166	3090.31
482.537	3161.72
482.908	3258.67
483.279	3330.76
483.65	3430.64
484.021	3542.51
484.391	3662.5
484.762	3713.57
485.133	3806.91
485.503	3889.39
485.874	4049.39
486.244	4150.4
486.615	4245.76
486.985	4355.82
487.356	4527.34
487.726	4598.52
488.097	4787.9
488.467	4867.89
488.837	5049.58
489.207	5145.85
489.578	5262.01
489.948	5398.28
490.318	5539.29
490.688	5645.28
491.058	5762.11
491.428	5900.41
491.798	6019.73
492.168	6246.16
492.538	6318.93
492.908	6505.14
493.278	6626.27
493.648	6751.01
494.017	6927.73
494.387	7052.02
494.757	7121.39
495.126	7343.08
495.496	7452.01
495.866	7554.83
496.235	7772.9
496.605	7917.31
496.974	7974.48
497.344	8197.3
497.713	8328.37
498.082	8490.85
498.452	8648.13
498.821	8689.94
499.19	8831.86
499.559	8999.99
499.928	9081.12
500.298	9233.2
500.667	9367.44
501.036	9472.75
501.405	9607.88
501.774	9677.03
502.143	9866.86
502.512	9940.98
502.88	10102.56
503.249	10113.63
503.618	10302.1
503.987	10424.58
504.356	10575.99
504.724	10647.63
505.093	10759.27
505.462	10865.25
505.83	10958.13
506.199	11138.46
506.567	11343.66
506.936	11306.82
507.304	11505.46
507.672	11655.96
508.041	11632.91
508.409	11789.97
508.777	11952.23
509.145	12041.94
509.514	12112.68
509.882	12255.04
510.25	12217.08
510.618	12454.36
510.986	12458.66
511.354	12640.12
511.722	12832.66
512.09	12957.17
512.458	12948.36
512.826	13075.14
513.193	13090.96
513.561	13250.27
513.929	13323.04
514.297	13532.75
514.664	13601.22
515.032	13659.53
515.4	13779.52
515.767	13901.56
516.135	13925.28
516.502	13879.64
516.869	14227.2
517.237	14262.22
517.604	14343.13
517.972	14452.5
518.339	14521.43
518.706	14501.77
519.073	14714.87
519.44	14751.25
519.808	14803.68
520.175	14909.44
520.542	15114.63
520.909	15118.47
521.276	15120.96
521.643	15197.34
522.009	15447.5
522.376	15479.14
522.743	15602.08
523.11	15702.86
523.477	15820.6
523.843	15988.96
524.21	16063.76
524.577	16158.45
524.943	16296.75
525.31	16275.05
525.676	16463.07
526.043	16515.05
526.409	16595.04
526.776	16724.08
527.142	16741.03
527.508	16870.74
527.874	16977.18
528.241	16962.49
528.607	17027.35
528.973	17150.51
529.339	17195.03
529.705	17306.66
530.071	17431.41
530.437	17460.11
530.803	17667.11
531.169	17652.42
531.535	17612.87
531.901	17698.97
532.267	17786.42
532.632	17926.99
532.998	17825.52
533.364	17859.64
533.73	18019.41
534.095	18112.97
534.461	18156.81
534.826	18152.97
535.192	18159.07
535.557	18317.26
535.923	18226.41
536.288	18315
536.653	18367.2
537.019	18410.14
537.384	18408.33
537.749	18434.77
538.114	18411.95
538.479	18475.22
538.845	18595.9
539.21	18489.91
539.575	18559.06
539.94	18597.7
540.305	18746.85
540.67	18647.19
541.034	18671.6
541.399	18765.61
541.764	18717.02
542.129	18741.65
542.494	18807.42
542.858	18749.11
543.223	18778.26
543.587	18926.06
543.952	18759.96
544.316	18892.61
544.681	18831.82
545.045	18865.27
545.41	19058.71
545.774	18886.51
546.138	18931.03
546.503	18920.18
546.867	18954.3
547.231	19116.11
547.595	19087.18
547.959	19053.06
548.324	19064.13
548.688	19105.03
549.052	19142.77
549.416	19138.25
549.779	19232.71
550.143	19209.44
550.507	19376.89
550.871	19388.87
551.235	19284.46
551.599	19402.2
551.962	19387.51
552.326	19419.15
552.689	19506.15
553.053	19358.14
553.417	19440.17
553.78	19740.05
554.143	19639.94
554.507	19663.44
554.87	19618.02
555.234	19764.68
555.597	19654.85
555.96	19681.52
556.323	19771.68
556.686	19728.97
557.05	19917.89
557.413	19793.83
557.776	19940.49
558.139	19980.27
558.502	19957.89
558.865	20015.07
559.228	20188.85
559.59	20136.42
559.953	20089.87
560.316	20349.3
560.679	20366.92
561.041	20427.94
561.404	20465.22
561.767	20516.75
562.129	20486.47
562.492	20673.81
562.854	20566.24
563.217	20617.31
563.579	20727.14
563.941	20774.37
564.304	20923.97
564.666	20967.58
565.028	20961.26
565.39	20967.58
565.753	21124.42
566.115	21108.6
566.477	21221.59
566.839	21234.7
567.201	21388.59
567.563	21298.42
567.925	21422.04
568.287	21467.01
568.648	21509.49
569.01	21680.79
569.372	21695.93
569.734	21599.66
570.095	21831.06
570.457	21866.32
570.819	21906.09
571.18	21821.12
571.542	21969.14
571.903	22042.13
572.265	22071.96
572.626	22068.57
572.987	22168.23
573.349	22159.64
573.71	22308.57
574.071	22330.71
574.432	22233.99
574.794	22434.66
575.155	22480.09
575.516	22415.68
575.877	22496.36
576.238	22395.12
576.599	22599.63
576.96	22577.26
577.32	22584.94
577.681	22663.58
578.042	22698.39
578.403	22671.04
578.763	22741.1
579.124	22700.42
579.485	22804.6
579.845	22897.03
580.206	22886.63
580.566	22853.18
580.927	22790.36
581.287	22852.28
581.648	22843.69
582.008	22875.56
582.368	22860.19
582.728	22927.76
583.089	22854.31
583.449	22899.28
583.809	22858.83
584.169	22980.19
584.529	22862.68
584.889	23058.83
585.249	22874.88
585.609	22786.97
585.969	23046.17
586.329	22890.92
586.688	22963.24
587.048	22939.74
587.408	22969.11
587.768	22760.53
588.127	22868.55
588.487	22843.02
588.846	23068.32
589.206	22839.63
589.565	22974.31
589.925	23029.22
590.284	22935.22
590.643	23004.14
591.003	22981.54
591.362	23072.61
591.721	22953.29
592.08	23040.07
592.44	23005.95
592.799	22962.33
593.158	22938.15
593.517	22925.72
593.876	23079.17
594.235	22869.23
594.593	22956.23
594.952	23001.2
595.311	22972.5
595.67	23082.56
596.029	23142.22
596.387	23035.33
596.746	23192.16
597.104	23004.14
597.463	22941.54
597.822	23052.73
598.18	22942.45
598.538	23036.23
598.897	23222.21
599.255	22949
599.613	23290.01
599.972	23136.79
600.33	23250.24
600.688	23076
601.046	23181.99
601.404	23338.82
601.762	23059.05
602.12	23251.14
602.478	23191.93
602.836	23282.33
603.194	23133.63
603.552	23143.57
603.91	23200.75
604.268	23285.72
604.625	23204.14
604.983	23307.64
605.341	23249.33
605.698	23308.54
606.056	23467.63
606.413	23476.22
606.771	23431.25
607.128	23430.12
607.485	23309.44
607.843	23458.37
608.2	23492.49
608.557	23527.29
608.914	23444.81
609.272	23620.62
609.629	23643.45
609.986	23739.49
610.343	23612.49
610.7	23814.06
611.057	23628.76
611.414	23745.36
611.771	23710.34
612.127	23808.87
612.484	23875.98
612.841	23845.02
613.198	23876.21
613.554	23881.41
613.911	24052.7
614.267	23998.92
614.624	23997.79
614.98	24081.17
615.337	24111
615.693	24089.76
616.05	24020.16
616.406	24259.7
616.762	24041.4
617.118	24178.12
617.475	24293.6
617.831	24204.11
618.187	24289.08
618.543	24307.84
618.899	24493.37
619.255	24309.87
619.611	24259.93
619.967	24292.02
620.323	24575.17
620.678	24359.13
621.034	24278.68
621.39	24355.52
621.746	24316.42
622.101	24624.21
622.457	24486.81
622.812	24496.98
623.168	24611.33
623.523	24524.78
623.879	24688.16
624.234	24509.64
624.589	24548.51
624.945	24645
625.3	24610.88
625.655	24683.64
626.01	24585.79
626.365	24603.42
626.72	24577.88
627.075	24704.44
627.43	24528.62
627.785	24527.04
628.14	24644.32
628.495	24579.92
628.85	24590.31
629.205	24532.69
629.559	24683.87
629.914	24561.84
630.269	24474.61
630.623	24541.5
630.978	24503.54
631.332	24628.96
631.687	24683.19
632.041	24452.69
632.396	24482.29
632.75	24412.69
633.104	24507.83
633.459	24369.53
633.813	24516.42
634.167	24360.72
634.521	24337.89
634.875	24386.48
635.229	24325.01
635.583	24249.98
635.937	24154.39
636.291	24261.28
636.645	24219.02
636.999	24161.17
637.352	24186.93
637.706	24059.03
638.06	24260.83
638.413	24074.4
638.767	24012.02
639.121	24162.3
639.474	23940.39
639.828	23965.25
640.181	24059.25
640.534	24027.16
640.888	23950.1
641.241	24015.87
641.594	23869.88
641.947	24074.17
642.301	23982.65
642.654	23932.7
643.007	23920.73
643.36	23920.5
643.713	23895.64
644.066	23979.93
644.419	23808.87
644.771	23588.98
645.124	23501.53
645.477	23388.31
645.83	23243.46
646.182	23184.02
646.535	23135.21
646.888	23216.56
647.24	23106.51
647.593	23158.94
647.945	23138.37
648.298	22992.39
648.65	22953.75
649.002	22878.95
649.355	23076.46
649.707	23028.77
650.059	23187.41
650.411	23375.66
650.763	23355.09
651.115	23712.6
651.467	23548.31
651.819	23620.17
652.171	23572.71
652.523	23565.71
652.875	23399.38
653.227	23471.25
653.578	23623.11
653.93	23527.74
654.282	23440.29
654.633	23344.7
654.985	23476.67
655.337	23453.17
655.688	23391.93
656.039	23484.81
656.391	23250.46
656.742	23398.25
657.094	23465.15
657.445	23430.8
657.796	23497.91
658.147	23250.91
658.498	23393.28
658.849	23376.11
659.2	23267.18
659.551	23241.2
659.902	23350.57
660.253	23297.69
660.604	23370.01
660.955	23151.26
661.306	23347.18
661.656	23273.06
662.007	23385.83
662.358	23271.7
662.708	23467.41
663.059	23428.31
663.409	23214.08
663.76	23438.03
664.11	23248.43
664.461	23426.73
664.811	23345.6
665.161	23437.12
665.511	23354.64
665.862	23371.14
666.212	23581.3
666.562	23317.58
666.912	23354.87
667.262	23349.22
667.612	23468.08
667.962	23324.81
668.312	23311.03
668.662	23436.22
669.011	23334.3
669.361	23251.59
669.711	23435.77
670.06	23385.15
670.41	23329.1
670.76	23325.94
671.109	23279.61
671.459	23247.3
671.808	23349.89
672.157	23333.85
672.507	23165.72
672.856	23205.94
673.205	23142.67
673.554	23145.38
673.904	23153.29
674.253	23327.75
674.602	23145.15
674.951	22800.53
675.3	22756.46
675.649	23086.17
675.998	22992.62
676.346	23054.99
676.695	23103.57
677.044	22818.16
677.393	23026.29
677.741	23051.37
678.09	22929.34
678.438	22833.75
678.787	23012.05
679.135	22931.83
679.484	22739.29
679.832	22964.82
680.181	22832.17
680.529	22840.3
680.877	22699.52
681.225	22737.93
681.573	22829.46
681.922	22657.26
682.27	22671.72
682.618	22647.31
682.966	22561.67
683.314	22552.4
683.661	22477.6
684.009	22408.68
684.357	22355.8
684.705	22324.38
685.053	22267.66
685.4	22322.8
685.748	22271.96
686.095	22226.31
686.443	22054.11
686.79	22123.03
687.138	22082.58
687.485	22073.77
687.832	22009.59
688.18	22076.93
688.527	21879.65
688.874	21911.06
689.221	21731.41
689.568	21650.73
689.915	21712.2
690.262	21559.66
690.609	21582.94
690.956	21512.2
691.303	21427.91
691.65	21291.87
691.997	21390.17
692.344	21226.56
692.69	21053.46
693.037	21182.27
693.383	21005.1
693.73	21146.79
694.077	20946.57
694.423	20886.91
694.769	20820.24
695.116	20880.13
695.462	20740.7
695.808	20782.05
696.155	20723.3
696.501	20444.21
696.847	20501.83
697.193	20468.39
697.539	20480.82
697.885	20375.96
698.231	20254.83
698.577	20213.48
698.923	20208.96
699.269	20069.08
699.614	20037.89
699.96	19958.12
700.306	20044.9
700.651	19823.66
700.997	19735.53
701.342	19775.07
701.688	19702.31
702.033	19530.56
702.379	19561.29
702.724	19545.25
703.069	19563.55
703.415	19238.14
703.76	19303.45
704.105	19254.18
704.45	19216.22
704.795	19158.37
705.14	19100.97
705.485	19055.09
705.83	18961.08
706.175	19013.06
706.52	18922.67
706.865	18706.85
707.209	18785.27
707.554	18799.96
707.899	18779.39
708.243	18578.49
708.588	18572.39
708.932	18471.83
709.277	18448.55
709.621	18450.36
709.966	18475.45
710.31	18479.29
710.654	18171.73
710.998	18186.64
711.342	18208.79
711.687	18129.47
712.031	18040.88
712.375	17965.63
712.719	18065.51
713.063	18001.11
713.407	18124.95
713.75	18028.68
714.094	17918.17
714.438	17846.99
714.782	17891.96
715.125	17751.62
715.469	17828.01
715.812	17672.98
716.156	17669.37
716.499	17592.98
716.843	17675.24
717.186	17494.23
717.53	17612.19
717.873	17614.9
718.216	17540.1
718.559	17546.66
718.902	17475.47
719.246	17458.3
719.589	17453.33
719.932	17285.87
720.275	17348.92
720.617	17321.13
720.96	17301.01
721.303	17182.15
721.646	17230.51
721.989	17197.74
722.331	17177.63
722.674	17094.47
723.016	17098.31
723.359	17130.17
723.701	17094.24
724.044	17011.53
724.386	16947.35
724.729	16978.31
725.071	16935.83
725.413	16920.46
725.755	16922.27
726.097	16843.85
726.439	16717.98
726.782	16783.29
727.124	16888.82
727.465	16702.16
727.807	16752.55
728.149	16768.15
728.491	16767.69
728.833	16804.98
729.175	16597.76
729.516	16797.52
729.858	16671.65
730.199	16734.93
730.541	16644.08
730.882	16620.13
731.224	16694.93
731.565	16541.03
731.906	16605.89
732.248	16555.27
732.589	16601.37
732.93	16540.81
733.271	16451.09
733.612	16535.84
733.953	16542.39
734.294	16502.39
734.635	16346.91
734.976	16469.62
735.317	16451.09
735.658	16489.51
735.999	16448.38
736.339	16419.91
736.68	16455.16
737.021	16433.92
737.361	16368.38
737.702	16378.55
738.042	16455.39
738.383	16424.88
738.723	16482.5
739.063	16403.64
739.404	16369.51
739.744	16419
740.084	16440.47
740.424	16371.09
740.764	16358.67
741.104	16424.88
741.444	16258.33
741.784	16363.19
742.124	16349.4
742.464	16298.33
742.804	16395.73
743.143	16382.17
743.483	16443.86
743.823	16299.23
744.162	16395.05
744.502	16366.12
744.841	16363.86
745.181	16453.13
745.52	16496.06
745.86	16571.77
746.199	16486.35
746.538	16507.36
746.877	16590.98
747.216	16586.91
747.556	16474.82
747.895	16637.53
748.234	16619
748.573	16585.55
748.911	16641.14
749.25	16661.26
749.589	16704.65
749.928	16713.46
750.267	16819.44
750.605	16849.95
750.944	16900.8
751.283	16863.06
751.621	16949.38
751.96	16987.12
752.298	16940.12
752.636	17129.72
752.975	17105.31
753.313	17161.58
753.651	17293.33
753.989	17271.86
754.327	17269.83
754.666	17289.26
755.004	17443.16
755.342	17509.14
755.679	17594.57
756.017	17583.72
756.355	17663.72
756.693	17743.49
757.031	17798.63
757.368	17827.33
757.706	17817.38
758.044	17928.34
758.381	18131.27
758.719	18201.33
759.056	18182.12
759.394	18288.33
759.731	18148
760.068	18292.4
760.405	18356.35
760.743	18356.58
761.08	18499.85
761.417	18507.31
761.754	18522.22
762.091	18719.96
762.428	18615.56
762.765	18649.68
763.102	18804.7
763.438	18728.1
763.775	18686.97
764.112	18809.22
764.449	18986.85
764.785	18920.63
765.122	18983.68
765.458	18923.34
765.795	18893.29
766.131	19023.45
766.467	18944.36
766.804	19062.32
767.14	19032.27
767.476	19034.08
767.812	19016.68
768.148	19124.24
768.485	19040.86
768.821	19007.86
769.157	18950.69
769.492	19030.46
769.828	19034.3
770.164	18992.95
770.5	18965.15
770.836	19047.63
771.171	18943
771.507	18993.85
771.842	18923.12
772.178	18920.63
772.513	18874.98
772.849	18863.91
773.184	18861.2
773.519	18869.56
773.855	18797.47
774.19	18776.91
774.525	18733.74
774.86	18662.79
775.195	18768.32
775.53	18726.06
775.865	18631.83
776.2	18614.43
776.535	18349.8
776.87	18421.21
777.205	18520.42
777.539	18350.48
777.874	18455.33
778.209	18266.41
778.543	18308.9
778.878	18177.83
779.212	18182.35
779.547	18143.48
779.881	18171.27
780.215	18013.54
780.55	18060.32
780.884	17951.17
781.218	17991.84
781.552	17979.41
781.886	17874.56
782.22	17745.52
782.554	17806.99
782.888	17550.27
783.222	17555.47
783.556	17536.49
783.889	17506.21
784.223	17314.8
784.557	17398.41
784.89	17384.63
785.224	17378.3
785.557	17236.16
785.891	17220.34
786.224	17154.8
786.558	17207.68
786.891	17017.41
787.224	17021.7
787.557	16912.78
787.891	16902.15
788.224	16994.81
788.557	16824.42
788.89	16861.93
789.223	16794.36
789.556	16622.84
789.888	16631.2
790.221	16598.21
790.554	16474.82
790.887	16401.6
791.219	16364.09
791.552	16355.95
791.884	16320.25
792.217	16323.19
792.549	16261.49
792.882	16148.73
793.214	16032.35
793.546	16073.02
793.879	15982.86
794.211	15952.57
794.543	15931.11
794.875	15885.46
795.207	15948.51
795.539	15822.18
795.871	15821.73
796.203	15716.65
796.535	15677.55
796.867	15561.62
797.198	15614.73
797.53	15440.05
797.862	15390.1
798.193	15513.72
798.525	15314.4
798.856	15422.42
799.188	15236.66
799.519	15131.13
799.85	15119.15
800.182	15102.65
800.513	15130.68
800.844	14920.29
801.175	15014.75
801.506	15047.06
801.837	14913.51
802.168	14907.86
802.499	14875.09
802.83	14732.27
803.161	14756.22
803.491	14722.32
803.822	14684.81
804.153	14654.76
804.483	14563.01
804.814	14522.78
805.145	14498.38
805.475	14418.38
805.805	14422.67
806.136	14364.59
806.466	14346.29
806.796	14300.87
807.126	14156.92
807.457	14205.05
807.787	14196.24
808.117	14136.13
808.447	14023.81
808.777	14131.61
809.107	14019.97
809.436	13970.48
809.766	13993.08
810.096	13893.87
810.426	13909.01
810.755	13879.86
811.085	13812.07
811.414	13808.68
811.744	13687.1
812.073	13730.94
812.403	13603.71
812.732	13643.94
813.061	13544.73
813.39	13519.64
813.719	13521.68
814.049	13593.54
814.378	13467.44
814.707	13430.83
815.036	13413.66
815.365	13463.15
815.693	13246.66
816.022	13294.11
816.351	13243.04
816.68	13118.3
817.008	13194.46
817.337	13086.66
817.665	13087.57
817.994	13085.08
818.322	13004.4
818.651	13003.5
818.979	12919.66
819.307	13025.87
819.636	12969.38
819.964	12897.06
820.292	13006.21
820.62	12904.52
820.948	12944.07
821.276	12971.41
821.604	12921.92
821.932	12970.05
822.259	12876.5
822.587	12831.53
822.915	12807.12
823.243	12882.6
823.57	12874.69
823.898	12770.74
824.225	12835.59
824.553	12822.71
824.88	12826.78
825.207	12797.86
825.535	12820.45
825.862	12788.82
826.189	12800.57
826.516	12889.83
826.843	12886.67
827.17	12896.38
827.497	12843.28
827.824	12902.49
828.151	12825.88
828.478	12818.65
828.805	12910.62
829.131	12747.01
829.458	12804.64
829.785	12718.76
830.111	12783.17
830.438	12830.62
830.764	12794.47
831.09	12718.08
831.417	12710.17
831.743	12777.52
832.069	12735.48
832.395	12720.8
832.722	12708.37
833.048	12747.24
833.374	12718.76
833.7	12693.68
834.026	12719.89
834.351	12749.95
834.677	12663.62
835.003	12648.71
835.329	12688.48
835.654	12613.68
835.98	12541.59
836.306	12594.7
836.631	12555.6
836.956	12575.71
837.282	12533
837.607	12491.65
837.932	12457.75
838.258	12495.49
838.583	12455.49
838.908	12394.48
839.233	12456.4
839.558	12397.19
839.883	12401.03
840.208	12285.33
840.533	12293.24
840.858	12278.32
841.182	12238.1
841.507	12258.66
841.832	12259.34
842.156	12185.22
842.481	12173.24
842.805	12134.14
843.13	12130.75
843.454	12017.99
843.778	12039.68
844.103	12002.17
844.427	11978.22
844.751	11970.08
845.075	11900.25
845.399	11875.39
845.723	11886.69
846.047	11740.26
846.371	11725.57
846.695	11755.17
847.019	11647.83
847.343	11641.95
847.666	11578.45
847.99	11476.99
848.313	11500.04
848.637	11472.92
848.96	11450.55
849.284	11316.31
849.607	11360.61
849.931	11273.83
850.254	11194.51
850.577	11177.79
850.9	11078.58
851.223	11059.82
851.546	11037.9
851.869	10950.22
852.192	10993.38
852.515	10891.24
852.838	10950.9
853.161	10875.19
853.483	10804.46
853.806	10774.41
854.129	10739.38
854.451	10671.36
854.774	10614.41
855.096	10653.73
855.419	10520.85
855.741	10545.03
856.063	10474.53
856.385	10464.13
856.708	10382.33
857.03	10348.2
857.352	10402.66
857.674	10369.22
857.996	10346.85
858.318	10240.18
858.64	10279.28
858.961	10230.24
859.283	10165.61
859.605	10175.33
859.926	10115.21
860.248	10107.53
860.57	10081.09
860.891	10111.15
861.212	10104.82
861.534	10011.26
861.855	9997.93
862.176	10013.52
862.498	10022.34
862.819	10021.21
863.14	9968.78
863.461	9923.58
863.782	9866.86
864.103	9865.73
864.424	9836.13
864.745	9886.75
865.065	9783.7
865.386	9773.53
865.707	9706.41
866.027	9761.1
866.348	9697.82
866.668	9748.44
866.989	9732.85
867.309	9679.97
867.63	9687.65
867.95	9660.76
868.27	9599.3
868.59	9608.56
868.91	9612.18
869.23	9613.76
869.55	9553.42
869.87	9579.64
870.19	9532.86
870.51	9560.65
870.83	9567.88
871.15	9471.39
871.469	9456.7
871.789	9503.93
872.109	9470.71
872.428	9372.18
872.748	9404.95
873.067	9462.8
873.386	9407.44
873.706	9343.94
874.025	9340.09
874.344	9281.79
874.663	9349.58
874.982	9337.38
875.301	9210.38
875.62	9268.46
875.939	9247.44
876.258	9249.02
876.577	9155.01
876.896	9167.22
877.214	9147.78
877.533	9190.27
877.852	9173.54
878.17	9116.14
878.489	9137.84
878.807	9152.53
879.125	9118.63
879.444	9081.34
879.762	9070.04
880.08	9114.11
880.398	9028.92
880.716	9034.79
881.034	9010.16
881.352	9001.35
881.67	8948.69
881.988	8954.79
882.306	8978.3
882.624	8903.95
882.941	8892.42
883.259	8907.56
883.577	8820.11
883.894	8870.5
884.212	8837.28
884.529	8808.36
884.846	8749.6
885.164	8765.87
885.481	8682.26
885.798	8725.42
886.115	8645.42
886.432	8651.98
886.75	8699.66
887.067	8605.42
887.383	8647.46
887.7	8608.14
888.017	8537.18
888.334	8567.91
888.651	8486.33
888.967	8503.51
889.284	8483.39
889.6	8473.9
889.917	8385.32
890.233	8371.08
890.55	8323.17
890.866	8353
891.182	8338.54
891.498	8341.02
891.815	8300.57
892.131	8304.41
892.447	8275.49
892.763	8238.65
893.079	8154.59
893.395	8144.87
893.71	8185.1
894.026	8109.84
894.342	8101.93
894.657	8034.82
894.973	8035.49
895.289	8023.74
895.604	7928.61
895.92	7979.68
896.235	7899
896.55	7875.73
896.865	7900.58
897.181	7848.16
897.496	7818.78
897.811	7835.95
898.126	7731.77
898.441	7693.58
898.756	7741.27
899.071	7684.09
899.386	7672.11
899.7	7606.58
900.015	7637.54
900.33	7520.25
900.644	7512.34
900.959	7505.79
901.273	7495.85
901.588	7517.32
901.902	7445
902.216	7385.12
902.531	7363.42
902.845	7390.77
903.159	7270.77
903.473	7279.81
903.787	7224.67
904.101	7245.69
904.415	7238.68
904.729	7207.95
905.042	7172.47
905.356	7144.22
905.67	7131.79
905.984	7083.43
906.297	7110.55
906.611	7021.28
906.924	7026.71
907.237	7019.48
907.551	7000.72
907.864	6911.68
908.177	6901.97
908.491	6904.68
908.804	6861.06
909.117	6849.99
909.43	6781.97
909.743	6747.85
910.056	6746.04
910.368	6732.93
910.681	6701.52
910.994	6649.54
911.307	6661.07
911.619	6598.24
911.932	6648.41
912.244	6552.14
912.557	6565.93
912.869	6480.28
913.181	6416.33
913.494	6428.53
913.806	6450.23
914.118	6434.41
914.43	6353.05
914.742	6343.56
915.054	6314.41
915.366	6296.56
915.678	6292.72
915.99	6219.95
916.302	6248.2
916.613	6176.33
916.925	6197.35
917.236	6186.28
917.548	6138.82
917.859	6116.22
918.171	6083.46
918.482	6074.64
918.794	6081.87
919.105	5997.13
919.416	5969.33
919.727	6004.36
920.038	5931.37
920.349	5895.89
920.66	5893.4
920.971	5912.61
921.282	5852.5
921.593	5799.62
921.903	5814.31
922.214	5741.77
922.525	5739.74
922.835	5676.23
923.146	5669.46
923.456	5638.95
923.767	5644.15
924.077	5588.1
924.387	5561.89
924.697	5577.93
925.008	5569.35
925.318	5569.12
925.628	5506.3
925.938	5537.48
926.248	5481.44
926.558	5427.88
926.867	5457.26
927.177	5351.5
927.487	5398.05
927.796	5341.55
928.106	5320.54
928.416	5284.15
928.725	5273.31
929.034	5205.74
929.344	5236.7
929.653	5233.99
929.962	5174.55
930.271	5199.86
930.581	5161.9
930.89	5109.02
931.199	5073.54
931.508	5125.97
931.817	5097.04
932.125	5095.01
932.434	4993.09
932.743	5009.81
933.051	4963.49
933.36	4946.08
933.669	4909.02
933.977	4895.92
934.286	4907.44
934.594	4864.05
934.902	4810.49
935.21	4832.42
935.519	4827.9
935.827	4808.91
936.135	4770.04
936.443	4733.89
936.751	4673.78
937.059	4697.05
937.367	4655.92
937.674	4694.57
937.982	4669.48
938.29	4658.63
938.597	4616.15
938.905	4576.83
939.213	4537.28
939.52	4522.82
939.827	4532.31
940.135	4534.12
940.442	4486.21
940.749	4518.53
941.056	4451.63
941.363	4417.74
941.67	4440.56
941.977	4382.26
942.284	4370.51
942.591	4326.89
942.898	4310.4
943.205	4354.69
943.511	4313.56
943.818	4293.45
944.125	4300.23
944.431	4223.62
944.738	4258.42
945.044	4202.83
945.35	4190.4
945.657	4160.79
945.963	4206.67
946.269	4131.64
946.575	4119.89
946.881	4090.74
947.187	4091.64
947.493	4085.99
947.799	4012.32
948.105	4063.4
948.41	4021.82
948.716	3999.22
949.022	4003.28
949.327	4006.9
949.633	3976.39
949.938	3910.86
950.244	3933.68
950.549	3910.18
950.854	3895.26
951.16	3893.68
951.465	3865.89
951.77	3820.69
952.075	3841.93
952.38	3807.81
952.685	3801.71
952.99	3759.45
953.294	3784.99
953.599	3692.78
953.904	3680.58
954.209	3715.16
954.513	3717.19
954.818	3667.02
955.122	3668.6
955.426	3661.82
955.731	3645.55
956.035	3609.4
956.339	3617.76
956.643	3587.02
956.948	3565.1
957.252	3526.91
957.556	3524.2
957.86	3526.46
958.163	3504.99
958.467	3472.9
958.771	3516.07
959.075	3464.99
959.378	3472
959.682	3422.96
959.985	3396.75
960.289	3396.52
960.592	3388.16
960.896	3363.75
961.199	3349.52
961.502	3311.1
961.805	3345
962.108	3302.74
962.411	3306.81
962.714	3335.51
963.017	3277.88
963.32	3286.02
963.623	3243.76
963.926	3280.82
964.228	3209.41
964.531	3191.55
964.833	3179.8
965.136	3186.58
965.438	3180.03
965.741	3153.14
966.043	3162.85
966.345	3114.04
966.648	3085.57
966.95	3097.32
967.252	3076.98
967.554	3095.96
967.856	3071.11
968.158	3049.64
968.46	3030.65
968.761	3001.73
969.063	2995.85
969.365	2971.22
969.666	3009.64
969.968	2957.66
970.269	2960.37
970.571	2902.3
970.872	2954.27
971.174	2899.58
971.475	2892.81
971.776	2879.7
972.077	2923.99
972.378	2898.91
972.679	2852.13
972.98	2831.11
973.281	2848.06
973.582	2833.37
973.883	2836.99
974.183	2799.02
974.484	2781.4
974.785	2757.22
975.085	2767.61
975.386	2747.72
975.686	2745.24
975.986	2735.07
976.287	2724.67
976.587	2679.03
976.887	2649.87
977.187	2703.43
977.487	2660.5
977.787	2680.38
978.087	2615.07
978.387	2626.82
978.687	2594.28
978.987	2572.81
979.286	2623.21
979.586	2604
979.885	2580.05
980.185	2533.49
980.484	2553.15
980.784	2521.29
981.083	2498.01
981.382	2529.88
981.682	2497.79
981.981	2478.35
982.28	2528.07
982.579	2466.38
982.878	2499.82
983.177	2456.21
983.475	2439.03
983.774	2420.73
984.073	2439.71
984.372	2447.17
984.67	2400.16
984.969	2390.22
985.267	2361.29
985.566	2376.21
985.864	2375.08
986.162	2391.12
986.461	2316.32
986.759	2317.45
987.057	2326.04
987.355	2302.76
987.653	2300.28
987.951	2296.21
988.249	2289.21
988.547	2297.11
988.844	2242.2
989.142	2243.78
989.44	2236.55
989.737	2220.96
990.035	2222.09
990.332	2201.07
990.63	2227.06
990.927	2178.47
991.224	2164.24
991.521	2166.95
991.819	2166.72
992.116	2122.88
992.413	2140.28
992.71	2120.17
993.006	2099.61
993.303	2099.15
993.6	2117.01
993.897	2103.45
994.193	2088.08
994.49	2070.45
994.787	2069.1
995.083	2090.34
995.379	2050.79
995.676	2053.51
995.972	2032.04
996.268	2011.7
996.565	2014.41
996.861	1980.74
997.157	1985.26
997.453	1987.97
997.749	1949.55
998.044	2004.47
998.34	1954.75
998.636	1922.44
998.932	1893.74
999.227	1924.47
999.523	1920.18
999.818	1873.85
1000.114	1877.46
1000.409	1868.2
1000.704	1863.68
1001	1829.1
1001.295	1851.25
1001.59	1825.49
1001.885	1850.12
1002.18	1846.05
1002.475	1808.31
1002.77	1807.18
1003.065	1785.94
1003.359	1776
1003.654	1756.56
1003.949	1775.09
1004.243	1771.7
1004.538	1751.59
1004.832	1730.8
1005.127	1734.19
1005.421	1719.28
1005.715	1695.77
1006.009	1705.27
1006.304	1683.12
1006.598	1681.76
1006.892	1661.43
1007.186	1679.28
1007.48	1650.58
1007.773	1621.43
1008.067	1603.35
1008.361	1655.78
1008.655	1612.84
1008.948	1590.47
1009.242	1594.53
1009.535	1594.08
1009.829	1578.94
1010.122	1577.36
1010.415	1539.39
1010.708	1537.36
1011.001	1533.52
1011.295	1515.89
1011.588	1534.42
1011.881	1520.64
1012.173	1519.73
1012.466	1488.32
1012.759	1484.25
1013.052	1498.27
1013.344	1482.45
1013.637	1466.85
1013.93	1456.23
1014.222	1457.81
1014.514	1464.82
1014.807	1453.75
1015.099	1420.08
1015.391	1405.39
1015.683	1417.14
1015.976	1427.53
1016.268	1388.21
1016.56	1367.2
1016.851	1404.71
1017.143	1357.25
1017.435	1361.32
1017.727	1347.76
1018.018	1331.72
1018.31	1326.74
1018.602	1342.56
1018.893	1340.98
1019.185	1305.5
1019.476	1290.14
1019.767	1284.49
1020.058	1273.86
1020.35	1289.46
1020.641	1296.46
1020.932	1267.09
1021.223	1245.39
1021.514	1259.85
1021.804	1235
1022.095	1240.19
1022.386	1231.38
1022.677	1211.27
1022.967	1187.99
1023.258	1169.46
1023.548	1191.16
1023.839	1189.12
1024.129	1201.78
1024.419	1197.93
1024.709	1168.1
1025	1156.81
1025.29	1149.57
1025.58	1157.48
1025.87	1114.1
1026.16	1120.42
1026.449	1129.46
1026.739	1114.32
1027.029	1129.24
1027.319	1114.55
1027.608	1098.95
1027.898	1075.23
1028.187	1093.3
1028.477	1079.97
1028.766	1069.8
1029.055	1063.7
1029.344	1055.11
1029.634	1041.78
1029.923	1023.02
1030.212	1046.53
1030.501	1037.03
1030.79	1025.06
1031.078	1022.12
1031.367	1011.27
1031.656	1011.5
1031.945	1006.3
1032.233	999.07
1032.522	969.24
1032.81	961.33
1033.099	947.55
1033.387	963.36
1033.675	963.59
1033.963	926.98
1034.251	953.87
1034.54	938.28
1034.828	948.22
1035.116	952.29
1035.403	933.99
1035.691	929.69
1035.979	924.72
1036.267	907.55
1036.554	902.12
1036.842	871.62
1037.129	867.1
1037.417	883.14
1037.704	885.85
1037.992	888.11
1038.279	877.27
1038.566	867.32
1038.853	867.32
1039.14	867.32
