Data from hue_230_FLMS001491_00089.txt Node
Date: Tue Feb 07 16:37:52 GMT 2017
User: dcchb
Spectrometer: FLMS00149
Trigger mode: 0
Integration Time (sec): 2.000000E-2
Scans to average: 10
Electric dark correction enabled: true
Nonlinearity correction enabled: false
Boxcar width: 0
XAxis mode: Wavelengths
Number of Pixels in Spectrum: 2048
>>>>>Begin Spectral Data<<<<<
341.393	10.01
341.776	10.01
342.16	10.01
342.543	-46.03
342.927	-55.97
343.31	-60.49
343.693	-63.43
344.077	-72.7
344.46	-59.36
344.843	-67.5
345.226	-28.18
345.61	-36.54
345.993	-20.04
346.376	-10.78
346.759	9.56
347.142	21.54
347.525	49.56
347.908	60.63
348.291	68.32
348.674	84.36
349.057	125.04
349.44	131.59
349.823	159.84
350.206	184.02
350.588	187.64
350.971	218.37
351.354	223.79
351.737	220.4
352.119	253.85
352.502	259.5
352.884	269.22
353.267	270.35
353.65	276
354.032	288.2
354.414	303.79
354.797	312.6
355.179	323.23
355.562	320.97
355.944	322.55
356.326	314.19
356.709	340.63
357.091	339.5
357.473	339.72
357.855	325.49
358.238	351.25
358.62	328.88
359.002	330.01
359.384	318.93
359.766	334.53
360.148	324.36
360.53	334.3
360.912	327.29
361.294	349.89
361.676	356.9
362.057	341.98
362.439	333.62
362.821	334.07
363.203	324.58
363.584	337.91
363.966	322.77
364.348	325.94
364.729	327.75
365.111	306.73
365.493	330.23
365.874	326.16
366.256	305.83
366.637	311.02
367.019	323.68
367.4	310.12
367.781	313.96
368.163	338.37
368.544	301.31
368.925	305.15
369.306	312.83
369.688	308.54
370.069	306.5
370.45	313.06
370.831	289.33
371.212	303.57
371.593	308.09
371.974	328.88
372.355	314.64
372.736	320.97
373.117	306.73
373.498	299.95
373.879	296.79
374.26	301.31
374.641	325.03
375.021	318.93
375.402	316.67
375.783	322.1
376.163	313.06
376.544	335.66
376.925	338.37
377.305	326.16
377.686	335.2
378.066	313.73
378.447	344.47
378.827	339.72
379.208	330.23
379.588	341.08
379.968	322.77
380.349	323.45
380.729	338.82
381.109	345.15
381.489	328.65
381.87	336.56
382.25	344.69
382.63	348.99
383.01	329.33
383.39	336.33
383.77	354.41
384.15	344.24
384.53	333.62
384.91	339.04
385.29	356.67
385.67	347.63
386.049	351.7
386.429	341.98
386.809	334.75
387.189	337.69
387.568	346.05
387.948	350.57
388.328	362.77
388.707	350.34
389.087	351.25
389.466	346.05
389.846	360.97
390.225	348.08
390.605	348.99
390.984	353.51
391.363	352.15
391.743	367.29
392.122	372.94
392.501	364.81
392.881	377.91
393.26	362.09
393.639	388.08
394.018	374.3
394.397	365.26
394.776	390.34
395.155	382.21
395.534	352.15
395.913	369.78
396.292	383.79
396.671	370.46
397.05	386.28
397.429	400.74
397.808	389.66
398.186	374.52
398.565	391.47
398.944	386.28
399.323	395.31
399.701	409.1
400.08	383.11
400.458	399.61
400.837	404.13
401.215	405.71
401.594	400.06
401.972	409.33
402.351	410.46
402.729	401.87
403.107	434.41
403.486	429.21
403.864	420.85
404.242	419.72
404.62	424.69
404.999	394.41
405.377	446.39
405.755	431.92
406.133	441.87
406.511	424.92
406.889	441.87
407.267	436.44
407.645	468.31
408.023	463.79
408.401	482.32
408.779	474.41
409.156	470.11
409.534	494.52
409.912	464.69
410.29	501.98
410.667	506.5
411.045	512.6
411.422	503.33
411.8	521.41
412.178	527.97
412.555	527.74
412.933	544.69
413.31	549.43
413.687	542.88
414.065	563.22
414.442	563.22
414.819	558.47
415.197	572.71
415.574	560.06
415.951	579.04
416.328	586.04
416.705	590.56
417.082	586.5
417.46	596.21
417.837	596.21
418.214	608.19
418.591	616.78
418.967	645.7
419.344	635.99
419.721	635.08
420.098	648.19
420.475	650.45
420.852	672.14
421.228	675.08
421.605	703.1
421.982	678.7
422.358	694.74
422.735	713.05
423.111	713.5
423.488	728.64
423.864	748.53
424.241	760.05
424.617	771.8
424.994	774.51
425.37	777.68
425.746	778.13
426.123	808.41
426.499	810.44
426.875	817
427.251	835.08
427.627	838.69
428.003	818.81
428.379	844.12
428.756	864.68
429.132	872.36
429.507	894.28
429.883	888.86
430.259	898.8
430.635	906.94
431.011	906.26
431.387	956.43
431.763	955.98
432.138	929.99
432.514	996.65
432.89	970.21
433.265	988.75
433.641	1014.73
434.016	1040.95
434.392	1046.37
434.767	1061.51
435.143	1049.53
435.518	1086.6
435.894	1106.26
436.269	1122.75
436.644	1156.2
437.02	1155.07
437.395	1129.31
437.77	1202.3
438.145	1198.91
438.52	1237.78
438.895	1235.29
439.271	1259.92
439.646	1275.74
440.021	1295.18
440.395	1300.15
440.77	1299.02
441.145	1297.89
441.52	1364.1
441.895	1341.96
442.27	1348.51
442.645	1363.88
443.019	1409.07
443.394	1412.01
443.769	1414.72
444.143	1420.15
444.518	1431.9
444.892	1448.17
445.267	1433.25
445.641	1468.28
446.016	1470.31
446.39	1468.51
446.764	1501.95
447.139	1492.46
447.513	1490.2
447.887	1503.76
448.262	1523.42
448.636	1526.81
449.01	1537.88
449.384	1534.49
449.758	1584.44
450.132	1614.04
450.506	1589.63
450.88	1604.77
451.254	1612.46
451.628	1640.48
452.002	1677.54
452.376	1688.84
452.75	1666.47
453.123	1690.87
453.497	1686.35
453.871	1715.05
454.244	1747.82
454.618	1757.31
454.992	1771.1
455.365	1808.84
455.739	1843.64
456.112	1826.01
456.486	1856.52
456.859	1874.82
457.232	1900.36
457.606	1874.15
457.979	1928.83
458.352	1949.62
458.725	1948.49
459.099	1985.56
459.472	2020.13
459.845	2071.65
460.218	2010.41
460.591	2019.45
460.964	2084.76
461.337	2119.56
461.71	2153.01
462.083	2191.43
462.456	2184.42
462.829	2193.91
463.201	2209.28
463.574	2215.15
463.947	2252.67
464.32	2290.41
464.692	2322.04
465.065	2324.53
465.438	2387.58
465.81	2401.82
466.183	2411.53
466.555	2483.17
466.928	2461.7
467.3	2479.33
467.672	2500.34
468.045	2560.68
468.417	2542.83
468.789	2595.48
469.161	2615.14
469.534	2668.7
469.906	2675.03
470.278	2702.37
470.65	2725.65
471.022	2806.1
471.394	2808.36
471.766	2830.73
472.138	2838.41
472.51	2922.71
472.882	2944.85
473.253	2985.75
473.625	2997.51
473.997	3093.55
474.369	3063.72
474.74	3133.77
475.112	3180.33
475.484	3165.64
475.855	3306.65
476.227	3275.46
476.598	3371.51
476.97	3363.82
477.341	3487.66
477.713	3484.5
478.084	3479.3
478.455	3599.98
478.827	3620.31
479.198	3708.45
479.569	3725.85
479.94	3804.94
480.311	3845.17
480.682	3877.03
481.053	3975.79
481.424	3986.86
481.795	4056.69
482.166	4113.86
482.537	4166.06
482.908	4201.32
483.279	4211.49
483.65	4333.29
484.021	4400.18
484.391	4409.22
484.762	4446.73
485.133	4459.84
485.503	4534.87
485.874	4620.97
486.244	4655.09
486.615	4697.12
486.985	4703.45
487.356	4836.1
487.726	4898.7
488.097	4950.67
488.467	4958.36
488.837	5029.32
489.207	5123.1
489.578	5136.88
489.948	5196.54
490.318	5262.98
490.688	5249.42
491.058	5349.99
491.428	5399.25
491.798	5418.69
492.168	5545.24
492.538	5522.86
492.908	5571.9
493.278	5685.34
493.648	5665.01
494.017	5715.85
494.387	5775.29
494.757	5793.82
495.126	5916.07
495.496	5871.78
495.866	5864.32
496.235	5959.69
496.605	5977.54
496.974	5969.18
497.344	6068.84
497.713	6065
498.082	6095.28
498.452	6173.69
498.821	6163.07
499.19	6199.91
499.559	6231.55
499.928	6240.58
500.298	6276.52
500.667	6351.77
501.036	6256.63
501.405	6314.93
501.774	6372.56
502.143	6354.93
502.512	6425.21
502.88	6461.82
503.249	6433.35
503.618	6480.58
503.987	6485.78
504.356	6555.6
504.724	6544.08
505.093	6572.55
505.462	6599.45
505.83	6609.84
506.199	6620.91
506.567	6690.52
506.936	6669.73
507.304	6734.58
507.672	6728.93
508.041	6800.12
508.409	6814.58
508.777	6776.84
509.145	6880.12
509.514	6844.18
509.882	6865.43
510.25	6823.17
510.618	6895.26
510.986	6895.48
511.354	6843.96
511.722	6963.28
512.09	7018.19
512.458	6974.12
512.826	7015.25
513.193	6994.24
513.561	7062.03
513.929	7008.47
514.297	7100
514.664	7143.61
515.032	7097.96
515.4	7193.33
515.767	7148.36
516.135	7177.96
516.502	7104.52
516.869	7209.82
517.237	7196.72
517.604	7167.57
517.972	7226.1
518.339	7235.13
518.706	7251.86
519.073	7218.64
519.44	7265.42
519.808	7281.46
520.175	7286.88
520.542	7368.01
520.909	7368.01
521.276	7271.74
521.643	7368.24
522.009	7368.46
522.376	7403.27
522.743	7417.95
523.11	7407.33
523.477	7467.67
523.843	7430.61
524.21	7495.92
524.577	7438.29
524.943	7476.48
525.31	7481.23
525.676	7614.11
526.043	7577.27
526.409	7537.5
526.776	7601.9
527.142	7586.09
527.508	7593.09
527.874	7646.2
528.241	7617.05
528.607	7626.54
528.973	7664.28
529.339	7621.34
529.705	7657.04
530.071	7711.51
530.437	7659.98
530.803	7702.01
531.169	7651.39
531.535	7633.99
531.901	7692.98
532.267	7581.34
532.632	7702.92
532.998	7653.88
533.364	7669.7
533.73	7612.07
534.095	7732.3
534.461	7727.55
534.826	7671.73
535.192	7655.69
535.557	7614.79
535.923	7615.24
536.288	7678.29
536.653	7685.74
537.019	7538.4
537.384	7643.03
537.749	7605.52
538.114	7573.43
538.479	7654.78
538.845	7629.93
539.21	7557.39
539.575	7591.51
539.94	7535.24
540.305	7502.25
540.67	7453.21
541.034	7476.71
541.399	7478.97
541.764	7480.1
542.129	7463.15
542.494	7483.26
542.858	7481.46
543.223	7431.97
543.587	7457.73
543.952	7416.82
544.316	7450.72
544.681	7382.93
545.045	7428.58
545.41	7422.25
545.774	7403.04
546.138	7343.38
546.503	7339.54
546.867	7304.74
547.231	7391.74
547.595	7320.1
547.959	7321.69
548.324	7259.99
548.688	7269.48
549.052	7276.04
549.416	7190.16
549.779	7252.08
550.143	7198.98
550.507	7270.61
550.871	7275.81
551.235	7209.37
551.599	7201.01
551.962	7192.2
552.326	7201.92
552.689	7201.92
553.053	7168.7
553.417	7114.46
553.78	7217.28
554.143	7119.21
554.507	7127.57
554.87	7179.77
555.234	7187.23
555.597	7167.79
555.96	7140.45
556.323	7075.82
556.686	7083.27
557.05	7094.57
557.413	7130.5
557.776	7153.1
558.139	7162.14
558.502	7158.75
558.865	7132.76
559.228	7170.96
559.59	7121.69
559.953	7197.62
560.316	7203.72
560.679	7142.93
561.041	7176.83
561.404	7180.67
561.767	7245.98
562.129	7140
562.492	7202.59
562.854	7202.14
563.217	7182.03
563.579	7181.35
563.941	7192.65
564.304	7318.52
564.666	7264.06
565.028	7337.96
565.39	7316.49
565.753	7336.15
566.115	7350.16
566.477	7295.47
566.839	7362.14
567.201	7328.01
567.563	7339.54
567.925	7400.78
568.287	7356.04
568.648	7401.01
569.01	7422.7
569.372	7492.75
569.734	7409.14
570.095	7477.16
570.457	7533.21
570.819	7482.81
571.18	7430.84
571.542	7583.6
571.903	7536.14
572.265	7614.33
572.626	7499.08
572.987	7563.49
573.349	7601
573.71	7642.13
574.071	7615.24
574.432	7632.64
574.794	7708.12
575.155	7649.14
575.516	7615.92
575.877	7705.86
576.238	7648.23
576.599	7758.96
576.96	7725.29
577.32	7740.21
577.681	7805.97
578.042	7837.38
578.403	7805.74
578.763	7789.7
579.124	7810.71
579.485	7851.39
579.845	7927.09
580.206	7941.1
580.566	7887.77
580.927	7867.21
581.287	7956.25
581.648	7913.31
582.008	7899.3
582.368	7996.7
582.728	7925.74
583.089	8026.98
583.449	7933.42
583.809	7915.34
584.169	7943.36
584.529	7959.86
584.889	8084.38
585.249	8008.22
585.609	7935.68
585.969	7999.41
586.329	8093.87
586.688	8017.03
587.048	8005.74
587.408	8098.84
587.768	8107.88
588.127	8083.25
588.487	8112.17
588.846	8066.98
589.206	8065.62
589.565	8113.98
589.925	8194.21
590.284	8080.54
590.643	8198.5
591.003	8173.19
591.362	8205.05
591.721	8203.7
592.08	8155.79
592.44	8216.58
592.799	8164.38
593.158	8172.29
593.517	8170.48
593.876	8252.96
594.235	8223.81
594.593	8182.45
594.952	8242.57
595.311	8289.12
595.67	8193.3
596.029	8254.09
596.387	8268.55
596.746	8364.37
597.104	8236.69
597.463	8262.9
597.822	8304.26
598.18	8231.27
598.538	8280.53
598.897	8324.15
599.255	8273.53
599.613	8426.74
599.972	8411.83
600.33	8308.33
600.688	8271.94
601.046	8335.44
601.404	8399.4
601.762	8344.26
602.12	8398.49
602.478	8364.82
602.836	8330.7
603.194	8363.92
603.552	8302.68
603.91	8352.62
604.268	8415.89
604.625	8362.11
604.983	8387.87
605.341	8345.39
605.698	8425.16
606.056	8434.2
606.413	8431.49
606.771	8441.88
607.128	8496.8
607.485	8435.33
607.843	8408.44
608.2	8464.93
608.557	8491.82
608.914	8455.89
609.272	8467.87
609.629	8474.88
609.986	8502.22
610.343	8466.51
610.7	8501.54
611.057	8562.33
611.414	8492.73
611.771	8523.01
612.127	8517.81
612.484	8469.68
612.841	8605.04
613.198	8524.14
613.554	8546.51
613.911	8551.03
614.267	8561.88
614.624	8570.24
614.98	8589
615.337	8631.48
615.693	8616.34
616.05	8600.3
616.406	8593.29
616.762	8634.87
617.118	8574.08
617.475	8618.83
617.831	8671.71
618.187	8661.09
618.543	8687.3
618.899	8712.16
619.255	8709.45
619.611	8671.26
619.967	8731.82
620.323	8749.22
620.678	8687.53
621.034	8646.17
621.39	8719.39
621.746	8673.51
622.101	8790.12
622.457	8720.07
622.812	8697.24
623.168	8729.33
623.523	8699.05
623.879	8770.01
624.234	8767.52
624.589	8706.28
624.945	8719.84
625.3	8706.06
625.655	8660.41
626.01	8714.64
626.365	8721.88
626.72	8689.79
627.075	8742.44
627.43	8653.63
627.785	8700.18
628.14	8715.32
628.495	8662.44
628.85	8657.7
629.205	8620.86
629.559	8706.73
629.914	8662.22
630.269	8692.5
630.623	8612.05
630.978	8593.52
631.332	8697.47
631.687	8599.62
632.041	8629.67
632.396	8572.95
632.75	8618.6
633.104	8547.19
633.459	8621.54
633.813	8519.39
634.167	8543.12
634.521	8534.54
634.875	8565.95
635.229	8524.59
635.583	8545.83
635.937	8533.63
636.291	8516.23
636.645	8492.5
636.999	8492.05
637.352	8483.92
637.706	8411.6
638.06	8470.13
638.413	8424.48
638.767	8478.94
639.121	8438.27
639.474	8405.5
639.828	8422
640.181	8401.43
640.534	8391.26
640.888	8376.12
641.241	8301.55
641.594	8341.77
641.947	8379.51
642.301	8335.44
642.654	8394.88
643.007	8375.44
643.36	8352.85
643.713	8294.77
644.066	8379.29
644.419	8301.77
644.771	8253.41
645.124	8204.83
645.477	8144.04
645.83	8140.65
646.182	8081.89
646.535	8071.72
646.888	8112.17
647.24	8064.49
647.593	8092.51
647.945	8003.25
648.298	8015.45
648.65	8052.97
649.002	8044.6
649.355	7984.27
649.707	8051.61
650.059	8092.06
650.411	8164.15
650.763	8118.73
651.115	8213.41
651.467	8203.47
651.819	8214.77
652.171	8163.47
652.523	8165.05
652.875	8213.19
653.227	8173.42
653.578	8185.84
653.93	8169.35
654.282	8123.7
654.633	8126.86
654.985	8176.35
655.337	8169.8
655.688	8112.4
656.039	8184.94
656.391	8150.59
656.742	8156.01
657.094	8184.71
657.445	8144.94
657.796	8161.66
658.147	8178.84
658.498	8175.45
658.849	8165.96
659.2	8139.52
659.551	8185.84
659.902	8184.04
660.253	8202.79
660.604	8179.06
660.955	8188.78
661.306	8257.03
661.656	8139.52
662.007	8210.02
662.358	8168.22
662.708	8207.09
663.059	8162.57
663.409	8146.75
663.76	8162.57
664.11	8247.76
664.461	8167.31
664.811	8207.54
665.161	8214.77
665.511	8092.74
665.862	8162.57
666.212	8176.35
666.562	8194.88
666.912	8218.16
667.262	8208.22
667.612	8201.89
667.962	8237.14
668.312	8228.55
668.662	8222
669.011	8167.09
669.361	8220.19
669.711	8272.85
670.06	8169.57
670.41	8178.61
670.76	8175.67
671.109	8125.28
671.459	8163.7
671.808	8112.17
672.157	8184.94
672.507	8108.11
672.856	8122.34
673.205	8134.09
673.554	8072.85
673.904	8049.12
674.253	8129.57
674.602	8075.79
674.951	7992.4
675.3	7960.77
675.649	8097.94
675.998	8014.32
676.346	8127.99
676.695	8106.07
677.044	7995.11
677.393	8086.86
677.741	8113.53
678.09	8012.97
678.438	7996.7
678.787	8036.02
679.135	8016.13
679.484	7957.15
679.832	8042.35
680.181	7956.92
680.529	7876.25
680.877	7924.16
681.225	7895.46
681.573	7952.86
681.922	7903.14
682.27	7897.94
682.618	7873.54
682.966	7848.23
683.314	7890.94
683.661	7875.8
684.009	7813.2
684.357	7763.03
684.705	7766.87
685.053	7771.62
685.4	7783.59
685.748	7671.51
686.095	7656.59
686.443	7691.85
686.79	7619.76
687.138	7623.6
687.485	7643.26
687.832	7642.36
688.18	7667.67
688.527	7565.3
688.874	7551.51
689.221	7582.47
689.568	7529.59
689.915	7496.14
690.262	7496.14
690.609	7493.88
690.956	7454.56
691.303	7427.22
691.65	7394.45
691.997	7376.6
692.344	7309.71
692.69	7373.89
693.037	7328.47
693.383	7265.87
693.73	7284.62
694.077	7255.93
694.423	7236.26
694.769	7179.99
695.116	7154.46
695.462	7179.09
695.808	7185.64
696.155	7143.16
696.501	7069.72
696.847	7070.39
697.193	7008.25
697.539	7070.39
697.885	6988.81
698.231	7028.13
698.577	6950.85
698.923	6912.66
699.269	6989.72
699.614	6942.94
699.96	6899.32
700.306	6848.03
700.651	6849.83
700.997	6760.57
701.342	6738.2
701.688	6748.14
702.033	6697.97
702.379	6746.79
702.724	6739.55
703.069	6719.67
703.415	6645.09
703.76	6629.5
704.105	6653.91
704.45	6596.51
704.795	6617.98
705.14	6570.97
705.485	6548.82
705.83	6501.14
706.175	6499.11
706.52	6530.29
706.865	6403.52
707.209	6455.72
707.554	6466.12
707.899	6447.13
708.243	6389.51
708.588	6364.65
708.932	6336.63
709.277	6330.75
709.621	6338.66
709.966	6304.54
710.31	6277.42
710.654	6253.01
710.998	6276.06
711.342	6302.5
711.687	6262.28
712.031	6161.49
712.375	6180.02
712.719	6243.3
713.063	6186.8
713.407	6158.78
713.75	6190.19
714.094	6157.65
714.438	6171.21
714.782	6141.83
715.125	6116.07
715.469	6168.27
715.812	6083.75
716.156	6040.82
716.499	6024.09
716.843	6063.64
717.186	6056.18
717.53	6039.69
717.873	6055.5
718.216	6027.26
718.559	6058.67
718.902	5982.96
719.246	5993.36
719.589	5909.75
719.932	6017.54
720.275	5896.41
720.617	5963.3
720.96	5867.94
721.303	5915.17
721.646	5929.18
721.989	5917.88
722.331	5925.79
722.674	5853.48
723.016	5959.46
723.359	5869.07
723.701	5976.18
724.044	5860.71
724.386	5859.58
724.729	5889.18
725.071	5856.41
725.413	5874.27
725.755	5882.85
726.097	5816.41
726.439	5865
726.782	5857.09
727.124	5865.91
727.465	5857.32
727.807	5827.49
728.149	5863.19
728.491	5853.02
728.833	5813.03
729.175	5794.04
729.516	5797.21
729.858	5846.02
730.199	5849.18
730.541	5832.23
730.882	5756.53
731.224	5816.19
731.565	5790.88
731.906	5826.81
732.248	5832.01
732.589	5722.63
732.93	5772.35
733.271	5759.02
733.612	5756.08
733.953	5756.53
734.294	5818.22
734.635	5762.86
734.976	5800.14
735.317	5759.24
735.658	5810.54
735.999	5786.81
736.339	5764.44
736.68	5886.92
737.021	5753.82
737.361	5769.86
737.702	5820.48
738.042	5788.17
738.383	5818.22
738.723	5860.26
739.063	5815.74
739.404	5868.16
739.744	5825.45
740.084	5816.41
740.424	5867.26
740.764	5835.62
741.104	5914.04
741.444	5815.06
741.784	5858.45
742.124	5923.98
742.464	5916.53
742.804	5901.16
743.143	5921.04
743.483	5934.6
743.823	5961.27
744.162	5937.09
744.502	5954.72
744.841	5961.95
745.181	6030.65
745.52	6046.92
745.86	6076.75
746.199	6107.93
746.538	6084.43
746.877	6117.2
747.216	6177.08
747.556	6153.81
747.895	6224.54
748.234	6245.56
748.573	6273.8
748.911	6294.82
749.25	6321.94
749.589	6344.76
749.928	6396.06
750.267	6452.56
750.605	6522.16
750.944	6542.72
751.283	6610.97
751.621	6623.85
751.96	6699.33
752.298	6755.83
752.636	6827.46
752.975	6892.54
753.313	6977.51
753.651	7080.56
753.989	7104.52
754.327	7163.05
754.666	7242.37
755.004	7356.04
755.342	7401.68
755.679	7500.21
756.017	7577.5
756.355	7690.04
756.693	7763.03
757.031	7885.51
757.368	7994.44
757.706	8076.24
758.044	8160.08
758.381	8332.73
758.719	8363.01
759.056	8522.33
759.394	8584.48
759.731	8648.66
760.068	8808.65
760.405	8928.42
760.743	8981.3
761.08	9128.42
761.417	9273.95
761.754	9369.54
762.091	9482.31
762.428	9521.85
762.765	9701.06
763.102	9829.64
763.438	9952.35
763.775	9993.03
764.112	10156.41
764.449	10306.47
764.785	10346.69
765.122	10413.81
765.458	10532
765.795	10644.08
766.131	10798.66
766.467	10811.31
766.804	10927.24
767.14	10987.35
767.476	11128.14
767.812	11230.96
768.148	11355.25
768.485	11369.94
768.821	11468.02
769.157	11604.29
769.492	11654.45
769.828	11696.71
770.164	11814.22
770.5	11818.74
770.836	11961.11
771.171	11982.13
771.507	12099.19
771.842	12084.95
772.178	12190.71
772.513	12199.75
772.849	12260.99
773.184	12339.63
773.519	12432.51
773.855	12421.89
774.19	12460.53
774.525	12429.8
774.86	12561.55
775.195	12656.01
775.53	12593.64
775.865	12646.97
776.2	12575.33
776.535	12561.55
776.87	12647.65
777.205	12627.54
777.539	12741.2
777.874	12746.18
778.209	12644.71
778.543	12770.58
778.878	12695.1
779.212	12829.56
779.547	12765.61
779.881	12892.16
780.215	12724.03
780.55	12911.6
780.884	12844.93
781.218	12850.81
781.552	12952.27
781.886	12852.61
782.22	12849.9
782.554	12796.34
782.888	12760.64
783.222	12783.46
783.556	12865.95
783.889	12769
784.223	12689.23
784.557	12679.74
784.89	12728.55
785.224	12658.27
785.557	12618.5
785.891	12715.22
786.224	12709.34
786.558	12672.28
786.891	12626.18
787.224	12690.36
787.557	12542.34
787.891	12592.28
788.224	12613.3
788.557	12603.36
788.89	12582.79
789.223	12614.43
789.556	12472.51
789.888	12472.51
790.221	12465.96
790.554	12358.16
790.887	12413.76
791.219	12364.72
791.552	12410.37
791.884	12326.53
792.217	12310.03
792.549	12381.44
792.882	12300.99
793.214	12132.41
793.546	12298.5
793.879	12219.41
794.211	12117.72
794.543	12126.31
794.875	12099.41
795.207	12162.01
795.539	12076.82
795.871	12111.84
796.203	12047.21
796.535	12042.01
796.867	11905.07
797.198	11916.59
797.53	11951.62
797.862	11814.9
798.193	11836.14
798.525	11846.09
798.856	11832.3
799.188	11731.74
799.519	11714.11
799.85	11615.13
800.182	11694.9
800.513	11666.2
800.844	11547.11
801.175	11618.07
801.506	11637.05
801.837	11563.16
802.168	11572.87
802.499	11466.89
802.83	11469.37
803.161	11478.86
803.491	11483.16
803.822	11519.32
804.153	11425.98
804.483	11344.86
804.814	11332.2
805.145	11289.94
805.475	11225.54
805.805	11282.26
806.136	11208.59
806.466	11225.99
806.796	11244.52
807.126	11157.97
807.457	11130.85
807.787	11110.29
808.117	11061.25
808.447	11018.99
808.777	11101.93
809.107	11010.18
809.436	10961.59
809.766	10975.38
810.096	10965.88
810.426	10816.51
810.755	10854.02
811.085	10810.86
811.414	10867.13
811.744	10748.26
812.073	10749.17
812.403	10760.01
812.732	10783.06
813.061	10714.14
813.39	10622.16
813.719	10628.49
814.049	10720.92
814.378	10630.75
814.707	10659.45
815.036	10608.61
815.365	10485.67
815.693	10490.87
816.022	10475.05
816.351	10505.56
816.68	10382.62
817.008	10459
817.337	10402.96
817.665	10353.7
817.994	10323.64
818.322	10392.57
818.651	10306.24
818.979	10326.58
819.307	10325.9
819.636	10367.26
819.964	10196.86
820.292	10302.4
820.62	10312.12
820.948	10247.94
821.276	10205.9
821.604	10148.05
821.932	10273.47
822.259	10261.27
822.587	10194.15
822.915	10222.63
823.243	10345.79
823.57	10169.75
823.898	10218.78
824.225	10195.28
824.553	10252
824.88	10211.78
825.207	10242.29
825.535	10212.23
825.862	10258.33
826.189	10179.92
826.516	10267.15
826.843	10227.6
827.17	10287.71
827.497	10280.93
827.824	10262.4
828.151	10259.69
828.478	10252.23
828.805	10300.82
829.131	10275.73
829.458	10242.74
829.785	10236.19
830.111	10254.04
830.438	10275.96
830.764	10301.27
831.09	10280.7
831.417	10231.21
831.743	10241.61
832.069	10255.85
832.395	10184.21
832.722	10236.19
833.048	10198.67
833.374	10230.76
833.7	10179.01
834.026	10148.5
834.351	10156.41
834.677	10223.76
835.003	10242.51
835.329	10191.89
835.654	10155.96
835.98	10148.5
836.306	10156.41
836.631	10090.65
836.956	10092.91
837.282	10114.61
837.607	10072.35
837.932	10086.13
838.258	10061.27
838.583	10078
838.908	9998
839.233	9974.5
839.558	9963.2
839.883	9909.41
840.208	9892.01
840.533	9898.57
840.858	9840.49
841.182	9864.22
841.507	9901.96
841.832	9843.88
842.156	9855.18
842.481	9845.46
842.805	9821.73
843.13	9809.08
843.454	9832.81
843.778	9833.71
844.103	9705.13
844.427	9675.07
844.751	9665.13
845.075	9684.34
845.399	9643.66
845.723	9524.11
846.047	9612.47
846.371	9472.36
846.695	9532.02
847.019	9424.46
847.343	9430.11
847.666	9360.73
847.99	9340.62
848.313	9363.67
848.637	9322.54
848.96	9265.14
849.284	9303.33
849.607	9221.52
849.931	9132.94
850.254	9111.24
850.577	9031.7
850.9	8974.98
851.223	9008.2
851.546	8976.11
851.869	8903.34
852.192	8861.76
852.515	8901.31
852.838	8767.75
853.161	8845.04
853.483	8784.92
853.806	8768.43
854.129	8775.89
854.451	8628.77
854.774	8697.7
855.096	8622.44
855.419	8619.05
855.741	8532.05
856.063	8496.57
856.385	8540.64
856.708	8493.18
857.03	8432.62
857.352	8434.65
857.674	8413.41
857.996	8396.01
858.318	8329.34
858.64	8356.46
858.961	8309.68
859.283	8318.04
859.605	8247.31
859.926	8293.64
860.248	8196.47
860.57	8216.58
860.891	8290.25
861.212	8176.58
861.534	8219.29
861.855	8108.56
862.176	8166.41
862.498	8143.36
862.819	8143.36
863.14	8097.26
863.461	8096.35
863.782	8053.19
864.103	8056.58
864.424	8040.31
864.745	8058.39
865.065	7943.82
865.386	8012.06
865.707	7964.15
866.027	8029.69
866.348	7953.31
866.668	7963.03
866.989	7953.99
867.309	7864.27
867.63	7918.05
867.95	7856.81
868.27	7830.83
868.59	7810.94
868.91	7897.26
869.23	7885.29
869.55	7808.68
869.87	7805.52
870.19	7780.21
870.51	7790.6
870.83	7816.59
871.15	7695.69
871.469	7802.8
871.789	7765.06
872.109	7771.39
872.428	7652.98
872.748	7718.96
873.067	7712.41
873.386	7678.51
873.706	7633.54
874.025	7569.82
874.344	7591.74
874.663	7647.1
874.982	7633.77
875.301	7613.43
875.62	7518.07
875.939	7581.57
876.258	7608.23
876.577	7543.38
876.896	7507.22
877.214	7528.23
877.533	7488.24
877.852	7523.71
878.17	7496.37
878.489	7467.44
878.807	7462.93
879.125	7455.92
879.444	7482.59
879.762	7410.95
880.08	7451.85
880.398	7375.92
880.716	7410.05
881.034	7374.57
881.352	7390.61
881.67	7361.68
881.988	7408.92
882.306	7317.39
882.624	7275.13
882.941	7222.71
883.259	7227.23
883.577	7239.65
883.894	7261.12
884.212	7260.44
884.529	7170.05
884.846	7145.87
885.164	7091.18
885.481	7162.82
885.798	7168.02
886.115	7086.66
886.432	7092.54
886.75	7074.69
887.067	7123.5
887.383	7051.18
887.7	7052.09
888.017	7015.93
888.334	6989.49
888.651	7022.26
888.967	6990.17
889.284	6887.12
889.6	6986.33
889.917	6886.22
890.233	6927.12
890.55	6876.5
890.866	6825.65
891.182	6838.99
891.498	6822.49
891.815	6775.49
892.131	6755.37
892.447	6793.56
892.763	6737.97
893.079	6674.7
893.395	6730.97
893.71	6622.04
894.026	6670.4
894.342	6674.47
894.657	6606
894.973	6604.64
895.289	6646.45
895.604	6598.77
895.92	6569.39
896.235	6489.17
896.55	6499.56
896.865	6439.22
897.181	6430.41
897.496	6403.07
897.811	6454.59
898.126	6410.75
898.441	6406.91
898.756	6383.18
899.071	6290.07
899.386	6309.06
899.7	6249.85
900.015	6250.98
900.33	6194.94
900.644	6110.87
900.959	6237.42
901.273	6155.84
901.588	6114.49
901.902	6121.27
902.216	6092.11
902.531	6110.19
902.845	6037.43
903.159	6009.86
903.473	5999.69
903.787	5969.18
904.101	5923.53
904.415	5945.45
904.729	5895.06
905.042	5930.08
905.356	5890.76
905.67	5825.45
905.984	5859.35
906.297	5793.14
906.611	5793.36
906.924	5790.88
907.237	5696.42
907.551	5776.42
907.864	5729.19
908.177	5688.28
908.491	5659.58
908.804	5678.57
909.117	5633.82
909.43	5564.9
909.743	5595.63
910.056	5552.02
910.368	5482.19
910.681	5525.8
910.994	5497.33
911.307	5476.08
911.619	5478.8
911.932	5452.36
912.244	5400.15
912.557	5433.6
912.869	5384.11
913.181	5328.29
913.494	5326.94
913.806	5300.95
914.118	5286.26
914.43	5224.57
914.742	5247.16
915.054	5299.82
915.366	5185.25
915.678	5224.79
915.99	5163.1
916.302	5128.75
916.613	5098.92
916.925	5131.69
917.236	5078.36
917.548	5046.04
917.859	5047.62
918.171	5074.06
918.482	5056.21
918.794	4957.45
919.105	4970.79
919.416	4963.56
919.727	4946.83
920.038	4901.64
920.349	4860.51
920.66	4874.52
920.971	4897.57
921.282	4862.99
921.593	4816.22
921.903	4763.79
922.214	4771.47
922.525	4721.98
922.835	4749.1
923.146	4742.09
923.456	4684.92
923.767	4661.42
924.077	4697.12
924.387	4651.7
924.697	4597.46
925.008	4615.32
925.318	4571.93
925.628	4600.4
925.938	4567.86
926.248	4527.41
926.558	4510.46
926.867	4478.6
927.177	4472.72
927.487	4464.59
927.796	4423.46
928.106	4394.76
928.416	4361.09
928.725	4377.36
929.034	4357.24
929.344	4387.53
929.653	4307.98
929.962	4302.33
930.271	4299.62
930.581	4287.42
930.89	4251.48
931.199	4229.34
931.508	4232.95
931.817	4221.43
932.125	4228.43
932.434	4183.69
932.743	4117.93
933.051	4151.15
933.36	4096.23
933.669	4137.14
933.977	4128.78
934.286	4059.4
934.594	4048.33
934.902	4053.52
935.21	4023.92
935.519	4056.01
935.827	4021.21
936.135	3980.3
936.443	3965.84
936.751	3955.45
937.059	3944.6
937.367	3934.2
937.674	3914.32
937.982	3930.59
938.29	3893.53
938.597	3870.03
938.905	3840.87
939.213	3838.61
939.52	3773.98
939.827	3785.28
940.135	3809.01
940.442	3775.11
940.749	3762.91
941.056	3740.76
941.363	3713.19
941.67	3696.92
941.977	3687.43
942.284	3685.4
942.591	3660.31
942.898	3622.8
943.205	3633.2
943.511	3617.38
943.818	3619.41
944.125	3554.33
944.431	3579.64
944.738	3589.13
945.044	3503.26
945.35	3509.58
945.657	3484.5
945.963	3486.76
946.269	3467.32
946.575	3454.9
946.881	3438.4
947.187	3437.49
947.493	3394.11
947.799	3451.28
948.105	3372.19
948.41	3358.63
948.716	3370.83
949.022	3348.01
949.327	3314.33
949.633	3294.9
949.938	3321.79
950.244	3303.03
950.549	3230.04
950.854	3250.38
951.16	3252.19
951.465	3233.88
951.77	3238.4
952.075	3251.96
952.38	3194.79
952.685	3212.42
952.99	3158.63
953.294	3135.58
953.599	3144.85
953.904	3145.75
954.209	3100.33
954.513	3141.46
954.818	3107.56
955.122	3113.89
955.426	3100.1
955.731	3053.32
956.035	3036.83
956.339	3054.91
956.643	3035.02
956.948	3034.12
957.252	2994.57
957.556	2948.24
957.86	2994.57
958.163	2984.62
958.467	2956.6
958.771	2995.47
959.075	2915.93
959.378	2907.79
959.682	2900.11
959.985	2891.75
960.289	2881.12
960.592	2899.66
960.896	2834.35
961.199	2845.42
961.502	2835.02
961.805	2859.66
962.108	2831.41
962.411	2802.26
962.714	2755.48
963.017	2795.93
963.32	2801.13
963.623	2724.52
963.926	2761.35
964.228	2696.5
964.531	2703.95
964.833	2686.55
965.136	2697.17
965.438	2646.33
965.741	2700.11
966.043	2647.68
966.345	2677.97
966.648	2618.53
966.95	2645.88
967.252	2630.06
967.554	2605.65
967.856	2587.12
968.158	2591.64
968.46	2592.09
968.761	2574.01
969.063	2556.61
969.365	2524.52
969.666	2543.51
969.968	2486.11
970.269	2506.9
970.571	2487.91
970.872	2482.04
971.174	2471.19
971.475	2451.31
971.776	2509.61
972.077	2441.81
972.378	2446.56
972.679	2428.71
972.98	2451.53
973.281	2397.52
973.582	2403.17
973.883	2421.25
974.183	2342.83
974.484	2353.46
974.785	2375.6
975.085	2376.96
975.386	2332.66
975.686	2304.87
975.986	2346.45
976.287	2316.62
976.587	2308.26
976.887	2285.21
977.187	2310.07
977.487	2267.13
977.787	2261.25
978.087	2250.86
978.387	2196.62
978.687	2226
978.987	2187.81
979.286	2212.89
979.586	2205.44
979.885	2195.95
980.185	2176.06
980.484	2177.19
980.784	2146.91
981.083	2152.33
981.382	2147.36
981.682	2135.38
981.981	2151.43
982.28	2117.76
982.579	2121.37
982.878	2116.85
983.177	2109.17
983.475	2093.8
983.774	2093.35
984.073	2058.32
984.372	2053.35
984.67	2022.62
984.969	2045.21
985.267	2024.88
985.566	2036.4
985.864	2037.08
986.162	2029.62
986.461	2005.89
986.759	2001.15
987.057	1998.89
987.355	1953.69
987.653	1973.58
987.951	1974.71
988.249	1946.91
988.547	1951.21
988.844	1918.89
989.142	1937.19
989.44	1928.83
989.737	1887.48
990.035	1913.69
990.332	1878.44
990.63	1891.77
990.927	1858.33
991.224	1878.21
991.521	1847.25
991.819	1831.89
992.116	1832.56
992.413	1831.89
992.71	1838.89
993.006	1817.2
993.303	1832.56
993.6	1828.72
993.897	1794.6
994.193	1790.31
994.49	1786.92
994.787	1746.01
995.083	1772.45
995.379	1763.41
995.676	1741.72
995.972	1748.95
996.268	1713.7
996.565	1718.44
996.861	1705.56
997.157	1703.3
997.453	1668.95
997.749	1701.95
998.044	1677.09
998.34	1679.35
998.636	1669.63
998.932	1678.22
999.227	1675.73
999.523	1642.06
999.818	1648.61
1000.114	1609.29
1000.409	1636.19
1000.704	1597.99
1001	1640.93
1001.295	1595.28
1001.59	1628.28
1001.885	1582.4
1002.18	1565.91
1002.475	1548.96
1002.77	1539.47
1003.065	1566.36
1003.359	1541.72
1003.654	1511.9
1003.949	1539.69
1004.243	1531.78
1004.538	1519.13
1004.832	1493.82
1005.127	1501.73
1005.421	1493.14
1005.715	1468.05
1006.009	1510.54
1006.304	1463.76
1006.598	1482.07
1006.892	1454.04
1007.186	1453.59
1007.48	1426.93
1007.773	1416.3
1008.067	1407.04
1008.361	1403.65
1008.655	1394.38
1008.948	1403.2
1009.242	1375.4
1009.535	1407.49
1009.829	1374.5
1010.122	1364.1
1010.415	1403.42
1010.708	1356.87
1011.001	1349.19
1011.295	1354.84
1011.588	1327.72
1011.881	1317.32
1012.173	1303.54
1012.466	1329.53
1012.759	1308.96
1013.052	1316.19
1013.344	1307.61
1013.637	1301.51
1013.93	1270.55
1014.222	1255.86
1014.514	1252.92
1014.807	1256.76
1015.099	1235.07
1015.391	1245.46
1015.683	1245.01
1015.976	1265.12
1016.268	1234.61
1016.56	1225.8
1016.851	1203.2
1017.143	1208.17
1017.435	1192.81
1017.727	1207.04
1018.018	1165.46
1018.31	1173.6
1018.602	1192.13
1018.893	1175.63
1019.185	1167.72
1019.476	1155.29
1019.767	1151.45
1020.058	1108.06
1020.35	1139.02
1020.641	1110.78
1020.932	1083.66
1021.223	1101.28
1021.514	1089.31
1021.804	1076.88
1022.095	1081.17
1022.386	1108.52
1022.677	1092.92
1022.967	1065.58
1023.258	1054.51
1023.548	1058.35
1023.839	1066.71
1024.129	1046.6
1024.419	1045.69
1024.709	1030.33
1025	1023.32
1025.29	1041.17
1025.58	1010.67
1025.87	999.14
1026.16	1004.11
1026.449	1024.22
1026.739	975.41
1027.029	984.9
1027.319	995.3
1027.608	968.41
1027.898	945.81
1028.187	991.68
1028.477	969.76
1028.766	947.16
1029.055	963.89
1029.344	940.38
1029.634	930.44
1029.923	929.99
1030.212	889.76
1030.501	893.38
1030.79	899.93
1031.078	929.09
1031.367	902.87
1031.656	860.16
1031.945	907.84
1032.233	885.25
1032.522	861.97
1032.81	884.57
1033.099	870.78
1033.387	843.21
1033.675	850.67
1033.963	848.18
1034.251	850.44
1034.54	864.68
1034.828	862.87
1035.116	847.05
1035.403	847.73
1035.691	825.81
1035.979	816.77
1036.267	831.24
1036.554	846.6
1036.842	822.2
1037.129	821.52
1037.417	801.41
1037.704	810.44
1037.992	794.63
1038.279	783.78
1038.566	791.91
1038.853	791.91
1039.14	791.91
