Data from hue_350_FLMS001491_76.txt Node
Date: Mon Feb 06 15:38:30 GMT 2017
User: dcchb
Spectrometer: FLMS00149
Trigger mode: 0
Integration Time (sec): 2.000000E-2
Scans to average: 10
Electric dark correction enabled: true
Nonlinearity correction enabled: false
Boxcar width: 0
XAxis mode: Wavelengths
Number of Pixels in Spectrum: 2048
>>>>>Begin Spectral Data<<<<<
341.393	-8.84
341.776	-8.84
342.16	-8.84
342.543	-83.42
342.927	-77.77
343.31	-69.63
343.693	-72.79
344.077	-70.08
344.46	-51.78
344.843	-55.39
345.226	-29.86
345.61	-38.45
345.993	-16.3
346.376	-1.84
346.759	-0.48
347.142	22.34
347.525	53.76
347.908	55.34
348.291	68.67
348.674	92.17
349.057	114.32
349.44	106.41
349.823	146.41
350.206	160.19
350.588	192.51
350.971	199.97
351.354	212.85
351.737	257.37
352.119	244.94
352.502	251.04
352.884	281.55
353.267	256.24
353.65	273.18
354.032	300.98
354.414	297.82
354.797	316.12
355.179	321.55
355.562	326.74
355.944	317.93
356.326	321.77
356.709	318.16
357.091	337.36
357.473	354.76
357.855	336.69
358.238	347.76
358.62	310.02
359.002	326.74
359.384	361.09
359.766	350.25
360.148	328.55
360.53	335.78
360.912	315.44
361.294	338.49
361.676	333.3
362.057	342.79
362.439	325.16
362.821	319.74
363.203	337.36
363.584	327.19
363.966	327.42
364.348	302.56
364.729	306.86
365.111	303.01
365.493	328.32
365.874	327.42
366.256	296.24
366.637	303.47
367.019	313.41
367.4	339.17
367.781	332.62
368.163	312.51
368.544	307.53
368.925	333.3
369.306	322
369.688	293.07
370.069	321.77
370.45	324.93
370.831	320.42
371.212	314.77
371.593	305.27
371.974	300.53
372.355	311.15
372.736	320.19
373.117	303.47
373.498	320.19
373.879	320.64
374.26	305.5
374.641	310.25
375.021	319.74
375.402	311.15
375.783	315.67
376.163	304.14
376.544	322.45
376.925	321.09
377.305	334.88
377.686	317.03
378.066	337.36
378.447	324.03
378.827	315.9
379.208	298.72
379.588	311.38
379.968	322.68
380.349	333.75
380.729	331.04
381.109	321.09
381.489	325.84
381.87	329.68
382.25	327.42
382.63	321.32
383.01	326.06
383.39	339.17
383.77	355.22
384.15	350.92
384.53	347.08
384.91	335.56
385.29	329.23
385.67	330.13
386.049	345.05
386.429	327.87
386.809	339.17
387.189	348.89
387.568	341.21
387.948	353.63
388.328	326.06
388.707	367.87
389.087	356.57
389.466	347.99
389.846	326.29
390.225	369.45
390.605	344.6
390.984	359.96
391.363	347.31
391.743	363.13
392.122	338.27
392.501	348.66
392.881	368.78
393.26	368.78
393.639	371.71
394.018	373.3
394.397	365.39
394.776	370.81
395.155	362.22
395.534	348.44
395.913	359.28
396.292	366.74
396.671	364.26
397.05	361.32
397.429	355.22
397.808	369.23
398.186	382.56
398.565	385.05
398.944	391.37
399.323	362.9
399.701	369
400.08	378.04
400.458	382.56
400.837	399.74
401.215	404.48
401.594	389.11
401.972	390.24
402.351	400.64
402.729	377.36
403.107	376.23
403.486	394.99
403.864	385.5
404.242	391.37
404.62	396.57
404.999	381.66
405.377	406.29
405.755	408.55
406.133	391.15
406.511	404.25
406.889	419.17
407.267	411.94
407.645	434.76
408.023	412.62
408.401	419.4
408.779	424.82
409.156	437.7
409.534	419.4
409.912	414.88
410.29	432.28
410.667	441.99
411.045	445.84
411.422	436.34
411.8	445.16
412.178	442.67
412.555	458.72
412.933	462.78
413.31	461.43
413.687	452.16
414.065	451.94
414.442	473.41
414.819	460.52
415.197	469.56
415.574	466.17
415.951	479.96
416.328	475.89
416.705	486.29
417.082	468.43
417.46	489.9
417.837	479.73
418.214	491.03
418.591	506.85
418.967	483.35
419.344	503.46
419.721	509.11
420.098	490.58
420.475	503.24
420.852	504.82
421.228	513.63
421.605	514.31
421.982	518.83
422.358	539.39
422.735	532.39
423.111	522.9
423.488	525.83
423.864	539.84
424.241	555.21
424.617	541.2
424.994	519.28
425.37	533.29
425.746	546.62
426.123	548.66
426.499	554.31
426.875	565.83
427.251	548.43
427.627	578.94
428.003	557.47
428.379	602.67
428.756	573.52
429.132	591.14
429.507	598.15
429.883	591.14
430.259	612.61
430.635	600.86
431.011	588.66
431.387	624.36
431.763	632.95
432.138	642.67
432.514	617.36
432.89	649.67
433.265	647.64
433.641	631.82
434.016	663.68
434.392	671.37
434.767	646.28
435.143	655.32
435.518	669.78
435.894	679.73
436.269	681.08
436.644	674.53
437.02	659.16
437.395	672.95
437.77	669.11
438.145	699.39
438.52	712.27
438.895	710.69
439.271	730.8
439.646	721.99
440.021	711.59
440.395	737.58
440.77	729.9
441.145	741.42
441.52	745.94
441.895	754.53
442.27	743.68
442.645	772.83
443.019	770.8
443.394	770.12
443.769	766.96
444.143	779.39
444.518	745.49
444.892	768.77
445.267	763.34
445.641	772.61
446.016	770.35
446.39	760.86
446.764	783.45
447.139	776.67
447.513	798.14
447.887	808.99
448.262	802.89
448.636	803.79
449.01	815.77
449.384	824.58
449.758	805.37
450.132	808.54
450.506	849.89
450.88	847.41
451.254	831.81
451.628	835.66
452.002	849.89
452.376	881.98
452.75	855.99
453.123	855.77
453.497	898.93
453.871	870.23
454.244	886.28
454.618	897.12
454.992	895.09
455.365	896.45
455.739	918.37
456.112	891.25
456.486	931.7
456.859	917.91
457.232	936.67
457.606	972.38
457.979	932.83
458.352	991.36
458.725	951.13
459.099	989.55
459.472	1007.85
459.845	1016.44
460.218	1013.28
460.591	1045.59
460.964	990.91
461.337	1043.33
461.71	1025.93
462.083	1039.94
462.456	1043.11
462.829	1071.81
463.201	1055.54
463.574	1091.02
463.947	1078.59
464.32	1121.3
464.692	1109.77
465.065	1144.57
465.438	1124.01
465.81	1147.74
466.183	1174.86
466.555	1168.53
466.928	1190.67
467.3	1194.06
467.672	1226.61
468.045	1215.76
468.417	1246.49
468.789	1265.02
469.161	1254.63
469.534	1305.25
469.906	1303.44
470.278	1321.97
470.65	1349.09
471.022	1356.77
471.394	1361.29
471.766	1412.14
472.138	1396.32
472.51	1410.56
472.882	1457.56
473.253	1457.79
473.625	1473.15
473.997	1503.89
474.369	1511.57
474.74	1519.48
475.112	1562.64
475.484	1546.6
475.855	1624.79
476.227	1611.68
476.598	1650.32
476.97	1681.51
477.341	1692.36
477.713	1733.03
478.084	1751.11
478.455	1775.52
478.827	1794.95
479.198	1848.74
479.569	1822.97
479.94	1892.35
480.311	1931.67
480.682	1968.96
481.053	2019.81
481.424	2005.12
481.795	2064.1
482.166	2116.53
482.537	2095.51
482.908	2149.07
483.279	2177.32
483.65	2208.28
484.021	2238.33
484.391	2281.95
484.762	2295.96
485.133	2352
485.503	2334.37
485.874	2442.62
486.244	2388.84
486.615	2481.94
486.985	2511.77
487.356	2549.28
487.726	2561.49
488.097	2626.34
488.467	2620.92
488.837	2660.92
489.207	2726.91
489.578	2741.14
489.948	2793.57
490.318	2824.53
490.688	2824.98
491.058	2883.74
491.428	2929.61
491.798	2930.97
492.168	2972.1
492.538	2996.05
492.908	3035.6
493.278	3102.26
493.648	3102.49
494.017	3121.25
494.387	3165.09
494.757	3203.5
495.126	3217.29
495.496	3197.4
495.866	3193.79
496.235	3283.5
496.605	3280.79
496.974	3339.32
497.344	3387.45
497.713	3343.84
498.082	3434.91
498.452	3439.66
498.821	3447.11
499.19	3459.32
499.559	3529.37
499.928	3509.48
500.298	3548.8
500.667	3561.69
501.036	3579.09
501.405	3572.53
501.774	3608.01
502.143	3645.07
502.512	3692.3
502.88	3665.86
503.249	3698.86
503.618	3674.45
503.987	3728.24
504.356	3736.82
504.724	3761.23
505.093	3778.63
505.462	3786.31
505.83	3796.48
506.199	3851.17
506.567	3839.87
506.936	3871.06
507.304	3892.52
507.672	3915.8
508.041	3920.55
508.409	3966.2
508.777	3946.08
509.145	3977.49
509.514	4016.14
509.882	4016.59
510.25	4030.83
510.618	4019.08
510.986	4047.55
511.354	4099.07
511.722	4118.28
512.09	4122.58
512.458	4163.25
512.826	4202.12
513.193	4182.01
513.561	4220.43
513.929	4234.66
514.297	4262.01
514.664	4285.51
515.032	4226.08
515.4	4308.11
515.767	4288.9
516.135	4297.26
516.502	4305.62
516.869	4358.05
517.237	4363.92
517.604	4356.02
517.972	4357.6
518.339	4399.63
518.706	4384.94
519.073	4446.41
519.44	4429.46
519.808	4437.82
520.175	4415.9
520.542	4478.27
520.909	4512.85
521.276	4483.02
521.643	4512.85
522.009	4527.99
522.376	4569.12
522.743	4625.61
523.11	4638.72
523.477	4609.34
523.843	4668.32
524.21	4692.73
524.577	4728.89
524.943	4765.72
525.31	4768.21
525.676	4795.78
526.043	4813.63
526.409	4890.01
526.776	4831.71
527.142	4837.81
527.508	4902.67
527.874	4909
528.241	4962.1
528.607	4970.46
528.973	5026.05
529.339	4993.29
529.705	5056.56
530.071	5084.13
530.437	5121.64
530.803	5156.9
531.169	5110.57
531.535	5152.15
531.901	5204.35
532.267	5212.49
532.632	5195.32
532.998	5171.36
533.364	5278.25
533.73	5247.97
534.095	5332.03
534.461	5306.5
534.826	5378.81
535.192	5400.06
535.557	5453.16
535.923	5429.21
536.288	5474.4
536.653	5490.22
537.019	5459.94
537.384	5506.95
537.749	5576.32
538.114	5567.73
538.479	5555.31
538.845	5591.46
539.21	5603.89
539.575	5647.73
539.94	5664.23
540.305	5729.54
540.67	5692.93
541.034	5693.16
541.399	5767.96
541.764	5803.21
542.129	5809.99
542.494	5817.67
542.858	5813.6
543.223	5856.99
543.587	5887.73
543.952	5892.7
544.316	5938.35
544.681	5887.5
545.045	5933.15
545.41	5938.12
545.774	6012.02
546.138	5994.39
546.503	6050.66
546.867	6068.06
547.231	6085.91
547.595	6111.9
547.959	6085.91
548.324	6117.1
548.688	6195.29
549.052	6193.93
549.416	6183.99
549.779	6217.89
550.143	6236.19
550.507	6296.08
550.871	6265.34
551.235	6301.05
551.599	6299.24
551.962	6287.49
552.326	6408.62
552.689	6416.07
553.053	6431.44
553.417	6397.54
553.78	6435.51
554.143	6450.88
554.507	6482.74
554.87	6535.62
555.234	6581.49
555.597	6564.32
555.96	6556.64
556.323	6577.2
556.686	6621.72
557.05	6669.4
557.413	6638.22
557.776	6683.41
558.139	6740.59
558.502	6693.36
558.865	6739.91
559.228	6770.87
559.59	6784.2
559.953	6808.61
560.316	6860.58
560.679	6847.7
561.041	6903.75
561.404	6941.26
561.767	6937.87
562.129	6946.91
562.492	7009.05
562.854	6981.03
563.217	7009.28
563.579	7004.08
563.941	7038.43
564.304	7006.79
564.666	7178.77
565.028	7124.3
565.39	7176.51
565.753	7210.18
566.115	7238.2
566.477	7251.08
566.839	7262.83
567.201	7368.14
567.563	7275.49
567.925	7365.88
568.287	7396.84
568.648	7367.01
569.01	7416.27
569.372	7502.15
569.734	7423.51
570.095	7539.21
570.457	7562.03
570.819	7605.2
571.18	7625.76
571.542	7632.54
571.903	7665.08
572.265	7777.85
572.626	7792.31
572.987	7747.34
573.349	7838.41
573.71	7911.18
574.071	7889.26
574.432	7966.54
574.794	8058.06
575.155	8098.29
575.516	8088.12
575.877	8229.59
576.238	8225.29
576.599	8351.84
576.96	8366.31
577.32	8451.5
577.681	8518.39
578.042	8527.43
578.403	8617.15
578.763	8671.16
579.124	8792.06
579.485	8880.87
579.845	8991.83
580.206	9090.35
580.566	9118.83
580.927	9277.69
581.287	9383.91
581.648	9455.32
582.008	9651.02
582.368	9714.07
582.728	9891.92
583.089	9922.42
583.449	10160.83
583.809	10224.34
584.169	10420.26
584.529	10534.84
584.889	10767.15
585.249	10821.38
585.609	11032
585.969	11262.5
586.329	11416.62
586.688	11616.16
587.048	11760.11
587.408	12003.27
587.768	12187.22
588.127	12453.66
588.487	12623.37
588.846	12818.62
589.206	13094.77
589.565	13326.18
589.925	13524.36
590.284	13851.81
590.643	14017.46
591.003	14335.41
591.362	14561.85
591.721	14731.79
592.08	15088.84
592.44	15379.91
592.799	15574.93
593.158	15832.78
593.517	16085.65
593.876	16357.28
594.235	16505.07
594.593	16996.59
594.952	17350.25
595.311	17453.75
595.67	17674.08
596.029	18245.82
596.387	18448.07
596.746	18795.64
597.104	18930.55
597.463	19186.13
597.822	19622.51
598.18	19702.73
598.538	20066.79
598.897	20473.56
599.255	20548.36
599.613	21075.12
599.972	21229.02
600.33	21440.99
600.688	21650.48
601.046	21991.94
601.404	22432.83
601.762	22610.22
602.12	23007.73
602.478	23237.33
602.836	23546.7
603.194	23623.53
603.552	24037.53
603.91	24134.48
604.268	24681.58
604.625	24746.89
604.983	25173.77
605.341	25154.34
605.698	25628.22
606.056	25782.34
606.413	26021.43
606.771	26307.75
607.128	26627.29
607.485	26685.6
607.843	27004.91
608.2	27273.6
608.557	27543.43
608.914	27724.21
609.272	28075.62
609.629	28281.26
609.986	28653.68
610.343	28689.16
610.7	29126.66
611.057	29132.77
611.414	29446.88
611.771	29596.48
612.127	29936.13
612.484	29915.12
612.841	30286.18
613.198	30349.23
613.554	30573.41
613.911	30840.29
614.267	30969.55
614.624	31194.18
614.98	31449.54
615.337	31584.68
615.693	31802.53
616.05	31837.55
616.406	32172.91
616.762	32207.03
617.118	32281.16
617.475	32444.32
617.831	32603.86
618.187	32813.57
618.543	33023.74
618.899	33345.76
619.255	33254.24
619.611	33348.25
619.967	33564.29
620.323	33711.85
620.678	33763.38
621.034	33706.43
621.39	33994.11
621.746	34096.02
622.101	34464.15
622.457	34313.19
622.812	34479.74
623.168	34773.52
623.523	34660.08
623.879	34955.89
624.234	34767.87
624.589	34966.96
624.945	35105.04
625.3	35267.29
625.655	35306.84
626.01	35383.22
626.365	35538.25
626.72	35381.19
627.075	35491.24
627.43	35589.32
627.785	35623.44
628.14	35814.62
628.495	35840.39
628.85	35883.32
629.205	35806.94
629.559	36081.96
629.914	35947.95
630.269	36019.59
630.623	35924.22
630.978	35951.57
631.332	36175.29
631.687	36353.37
632.041	36347.04
632.396	36324.21
632.75	36198.57
633.104	36264.1
633.459	36163.31
633.813	36188.85
634.167	36146.37
634.521	36248.96
634.875	36386.13
635.229	36387.04
635.583	36236.53
635.937	36293.25
636.291	36409.41
636.645	36369.41
636.999	36177.78
637.352	36481.27
637.706	36207.61
638.06	36473.59
638.413	36387.49
638.767	36274.5
639.121	36427.04
639.474	36145.46
639.828	36222.52
640.181	36375.96
640.534	36339.81
640.888	36220.49
641.241	36323.76
641.594	36208.74
641.947	36306.36
642.301	36272.92
642.654	36306.81
643.007	36315.4
643.36	36269.75
643.713	36210.09
644.066	36303.2
644.419	36141.17
644.771	36009.42
645.124	35656.66
645.477	35572.6
645.83	35298.48
646.182	35254.64
646.535	35251.25
646.888	35240.4
647.24	35013.29
647.593	35353.39
647.945	35187.07
648.298	35126.51
648.65	35076.11
649.002	34966.74
649.355	35146.39
649.707	35055.1
650.059	35185.94
650.411	35667.96
650.763	35619.15
651.115	36022.75
651.467	35878.58
651.819	35983.43
652.171	35809.2
652.523	35704.12
652.875	35923.09
653.227	35677
653.578	35902.98
653.93	35794.74
654.282	35685.14
654.633	35736.89
654.985	35789.99
655.337	35728.52
655.688	35787.73
656.039	35916.77
656.391	35500.51
656.742	35686.72
657.094	35681.52
657.445	35896.43
657.796	35669.32
658.147	35578.47
658.498	35579.83
658.849	35581.41
659.2	35571.69
659.551	35592.48
659.902	35569.21
660.253	35549.55
660.604	35639.26
660.955	35450.34
661.306	35571.24
661.656	35267.97
662.007	35426.61
662.358	35509.55
662.708	35464.8
663.059	35429.77
663.409	35391.13
663.76	35500.96
664.11	35535.31
664.461	35524.91
664.811	35479.72
665.161	35413.5
665.511	35532.14
665.862	35441.53
666.212	35499.6
666.562	35612.14
666.912	35395.43
667.262	35429.32
667.612	35381.41
667.962	35598.81
668.312	35451.69
668.662	35576.66
669.011	35477.23
669.361	35379.38
669.711	35287.18
670.06	35385.71
670.41	35291.25
670.76	35349.32
671.109	35460.51
671.459	35407.63
671.808	35354.07
672.157	35392.26
672.507	35227.29
672.856	35192.27
673.205	35206.5
673.554	35363.56
673.904	35122.66
674.253	35487.63
674.602	35239.5
674.951	34774.65
675.3	34627.76
675.649	35164.02
675.998	35071.59
676.346	35128.77
676.695	35353.39
677.044	35060.52
677.393	35047.19
677.741	35070.24
678.09	34964.7
678.438	34921.54
678.787	34960.41
679.135	34914.31
679.484	34812.62
679.832	34933.97
680.181	34681.77
680.529	34851.71
680.877	34629.34
681.225	34774.65
681.573	34998.15
681.922	34580.53
682.27	34611.04
682.618	34652.85
682.966	34455.11
683.314	34571.94
683.661	34515.45
684.009	34267.55
684.357	34173.31
684.705	34134.67
685.053	34320.88
685.4	34282.01
685.748	34062.58
686.095	33940.55
686.443	33799.99
686.79	33806.54
687.138	34024.16
687.485	34031.17
687.832	33849.48
688.18	33736.49
688.527	33597.51
688.874	33644.74
689.221	33599.77
689.568	33531.52
689.915	33309.6
690.262	33464.63
690.609	33308.93
690.956	33119.1
691.303	33142.38
691.65	33084.53
691.997	33108.03
692.344	32870.97
692.69	32802.95
693.037	32959.56
693.383	32544.65
693.73	32647.7
694.077	32479.12
694.423	32602.5
694.769	32383.98
695.116	32428.05
695.462	32276.41
695.808	32135.62
696.155	32226.02
696.501	32007.94
696.847	32073.25
697.193	31758.46
697.539	31952.13
697.885	31622.87
698.231	31611.34
698.577	31621.74
698.923	31520.72
699.269	31440.05
699.614	31260.62
699.96	31273.73
700.306	31111.7
700.651	31177.91
700.997	31056.56
701.342	30945.6
701.688	30996.9
702.033	30818.82
702.379	30711.93
702.724	30685.94
703.069	30767.98
703.415	30320.98
703.76	30375.44
704.105	30377.25
704.45	30357.37
704.795	30134.77
705.14	30058.84
705.485	30128.9
705.83	29999.18
706.175	30045.96
706.52	29881.45
706.865	29701.56
707.209	29765.29
707.554	29554
707.899	29614.56
708.243	29455.69
708.588	29446.88
708.932	29347
709.277	29210.05
709.621	29281.69
709.966	29245.98
710.31	29156.04
710.654	28948.82
710.998	29044.86
711.342	28949.04
711.687	29004.41
712.031	28817.75
712.375	28766.22
712.719	28715.15
713.063	28615.26
713.407	28835.15
713.75	28534.36
714.094	28539.79
714.438	28536.62
714.782	28474.93
715.125	28335.5
715.469	28395.16
715.812	28175.73
716.156	28022.51
716.499	28185.67
716.843	28166.91
717.186	27978.9
717.53	27977.99
717.873	28010.08
718.216	27893.48
718.559	27900.03
718.902	27657.32
719.246	27760.82
719.589	27612.81
719.932	27521.96
720.275	27550.21
720.617	27418.69
720.96	27532.81
721.303	27339.59
721.646	27377.56
721.989	27265.7
722.331	27388.18
722.674	27225.24
723.016	27307.95
723.359	27125.36
723.701	27152.25
724.044	27071.8
724.386	26923.11
724.729	27108.86
725.071	27045.14
725.413	27004.69
725.755	26957.23
726.097	26868.87
726.439	26659.61
726.782	26643.34
727.124	26790.23
727.465	26603.11
727.807	26614.19
728.149	26616.22
728.491	26528.31
728.833	26525.15
729.175	26444.25
729.516	26359.73
729.858	26313.4
730.199	26371.03
730.541	26362.67
730.882	26285.83
731.224	26326.96
731.565	26193.18
731.906	26124.93
732.248	26129.23
732.589	26074.09
732.93	25979.4
733.271	25985.73
733.612	25963.81
733.953	25901.66
734.294	25854.21
734.635	25816.92
734.976	25898.73
735.317	25738.05
735.658	25712.06
735.999	25691.5
736.339	25649.24
736.68	25638.17
737.021	25524.5
737.361	25517.49
737.702	25610.82
738.042	25582.12
738.383	25381.23
738.723	25507.55
739.063	25374.45
739.404	25499.64
739.744	25331.28
740.084	25352.53
740.424	25246.54
740.764	25199.31
741.104	25287.22
741.444	25165.19
741.784	25108.24
742.124	25114.57
742.464	25089.93
742.804	25052.65
743.143	24953.67
743.483	24891.97
743.823	24850.84
744.162	24814.69
744.502	24848.13
744.841	24750.96
745.181	24862.59
745.52	24799.77
745.86	24727.91
746.199	24667.35
746.538	24557.52
746.877	24649.04
747.216	24730.85
747.556	24560.68
747.895	24532.43
748.234	24461.02
748.573	24400.23
748.911	24365.66
749.25	24407.92
749.589	24287.92
749.928	24336.51
750.267	24339.44
750.605	24150.07
750.944	24208.37
751.283	24126.34
751.621	24168.38
751.96	23949.4
752.298	23969.29
752.636	24045.22
752.975	23834.6
753.313	23878.89
753.651	23774.94
753.989	23775.39
754.327	23864.2
754.666	23649.97
755.004	23659.24
755.342	23743.3
755.679	23624.44
756.017	23430.99
756.355	23567.04
756.693	23428.06
757.031	23458.34
757.368	23220.15
757.706	23289.3
758.044	23221.28
758.381	23141.96
758.719	23025.81
759.056	23133.83
759.394	23088.86
759.731	22854.96
760.068	22947.16
760.405	22830.33
760.743	22760.28
761.08	22750.79
761.417	22686.61
761.754	22543.11
762.091	22560.73
762.428	22390.57
762.765	22341.53
763.102	22397.12
763.438	22254.98
763.775	22203.46
764.112	22177.02
764.449	22214.08
764.785	22058.6
765.122	21979.73
765.458	21904.03
765.795	21941.77
766.131	21736.12
766.467	21757.59
766.804	21656.35
767.14	21532.74
767.476	21541.33
767.812	21407.09
768.148	21413.19
768.485	21355.79
768.821	21267.89
769.157	21304.27
769.492	21181.34
769.828	21143.14
770.164	20870.16
770.5	20874.23
770.836	20855.24
771.171	20721.69
771.507	20748.13
771.842	20597.85
772.178	20538.19
772.513	20570.28
772.849	20513.1
773.184	20400.34
773.519	20397.4
773.855	20274.01
774.19	20105.21
774.525	20109.5
774.86	20091.65
775.195	19996.28
775.53	19971.88
775.865	19849.39
776.2	19627.7
776.535	19606.46
776.87	19540.93
777.205	19480.36
777.539	19290.76
777.874	19408.27
778.209	19258
778.543	19261.84
778.878	19076.76
779.212	19119.02
779.547	18885.58
779.881	19025.91
780.215	18754.28
780.55	18897.33
780.884	18748.86
781.218	18831.79
781.552	18750.89
781.886	18604.45
782.22	18515.64
782.554	18547.05
782.888	18305.48
783.222	18217.57
783.556	18124.69
783.889	18065.49
784.223	17997.69
784.557	17918.37
784.89	17971.02
785.224	17857.13
785.557	17765.15
785.891	17734.87
786.224	17763.12
786.558	17651.03
786.891	17629.34
787.224	17432.73
787.557	17457.82
787.891	17381.44
788.224	17481.32
788.557	17373.53
788.89	17293.75
789.223	17278.16
789.556	17146.19
789.888	17060.09
790.221	17046.3
790.554	16890.38
790.887	16855.57
791.219	16835.91
791.552	16780.55
791.884	16631.4
792.217	16670.04
792.549	16609.48
792.882	16448.13
793.214	16378.3
793.546	16396.15
793.879	16345.76
794.211	16210.17
794.543	16337.4
794.875	16218.75
795.207	16223.27
795.539	16104.41
795.871	16103.5
796.203	15908.03
796.535	15854.02
796.867	15841.59
797.198	15736.73
797.53	15803.62
797.862	15633.68
798.193	15695.38
798.525	15555.72
798.856	15634.59
799.188	15461.03
799.519	15361.15
799.85	15304.88
800.182	15385.33
800.513	15353.69
800.844	15200.25
801.175	15248.38
801.506	15240.47
801.837	15136.52
802.168	15081.84
802.499	15033.02
802.83	15003.42
803.161	14955.74
803.491	14877.32
803.822	14869.86
804.153	14747.61
804.483	14730.66
804.814	14751.67
805.145	14660.15
805.475	14619.25
805.805	14600.27
806.136	14638.91
806.466	14620.15
806.796	14472.36
807.126	14423.55
807.457	14424.45
807.787	14326.83
808.117	14336.32
808.447	14266.94
808.777	14264.46
809.107	14143.1
809.436	14197.56
809.766	14177.9
810.096	14048.42
810.426	13997.12
810.755	14090.45
811.085	14012.71
811.414	13943.11
811.744	13864.01
812.073	13855.43
812.403	13788.54
812.732	13791.25
813.061	13687.07
813.39	13642.78
813.719	13648.65
814.049	13673.06
814.378	13572.5
814.707	13520.29
815.036	13511.25
815.365	13529.79
815.693	13374.99
816.022	13403.24
816.351	13349.68
816.68	13288.66
817.008	13326.18
817.337	13177.48
817.665	13231.71
817.994	13163.02
818.322	13227.87
818.651	13146.29
818.979	13096.35
819.307	13098.61
819.636	13065.62
819.964	12986.97
820.292	13048.22
820.62	12965.51
820.948	13017.48
821.276	13012.74
821.604	12920.76
821.932	12980.2
822.259	12942.68
822.587	12925.73
822.915	12957.82
823.243	12885.73
823.57	12958.28
823.898	12964.38
824.225	12846.64
824.553	12922.34
824.88	12877.15
825.207	12887.54
825.535	12862.01
825.862	12911.95
826.189	12822.23
826.516	12930.48
826.843	12918.95
827.17	12909.69
827.497	12951.04
827.824	12927.99
828.151	12894.55
828.478	12878.73
828.805	12911.04
829.131	12831.27
829.458	12788.56
829.785	12786.75
830.111	12789.69
830.438	12833.31
830.764	12856.36
831.09	12863.36
831.417	12827.66
831.743	12844.38
832.069	12754.66
832.395	12777.04
832.722	12816.36
833.048	12773.65
833.374	12804.61
833.7	12716.02
834.026	12737.72
834.351	12831.27
834.677	12758.96
835.003	12773.65
835.329	12690.26
835.654	12690.94
835.98	12617.04
836.306	12645.29
836.631	12652.75
836.956	12675.57
837.282	12601
837.607	12503.37
837.932	12610.49
838.258	12494.33
838.583	12497.27
838.908	12463.37
839.233	12463.37
839.558	12389.48
839.883	12431.51
840.208	12459.53
840.533	12330.27
840.858	12372.75
841.182	12367.1
841.507	12281
841.832	12256.6
842.156	12198.52
842.481	12309.48
842.805	12214.79
843.13	12159.2
843.454	12170.5
843.778	12099.54
844.103	12040.79
844.427	12008.92
844.751	12040.79
845.075	11977.74
845.399	12013.44
845.723	11895.7
846.047	11954.91
846.371	11844.63
846.695	11779.55
847.019	11673.79
847.343	11684.18
847.666	11677.18
847.99	11563.74
848.313	11549.95
848.637	11461.59
848.96	11480.12
849.284	11497.75
849.607	11338.2
849.931	11312.22
850.254	11208.49
850.577	11167.14
850.9	11062.05
851.223	11107.25
851.546	11095.73
851.869	10991.1
852.192	11017.54
852.515	10909.29
852.838	10868.16
853.161	10881.95
853.483	10870.65
853.806	10813.47
854.129	10742.06
854.451	10669.3
854.774	10668.17
855.096	10599.92
855.419	10572.58
855.741	10570.32
856.063	10526.47
856.385	10528.96
856.708	10446.02
857.03	10433.6
857.352	10462.3
857.674	10382.52
857.996	10388.85
858.318	10254.84
858.64	10358.8
858.961	10291
859.283	10237.89
859.605	10241.96
859.926	10180.72
860.248	10179.37
860.57	10094.62
860.891	10171.68
861.212	10100.05
861.534	10106.82
861.855	10027.28
862.176	10034.51
862.498	10080.38
862.819	10001.52
863.14	9928.3
863.461	9981.18
863.782	9876.55
864.103	9898.47
864.424	9836.1
864.745	9938.69
865.065	9820.05
865.386	9797.91
865.707	9795.42
866.027	9791.35
866.348	9815.31
866.668	9731.24
866.989	9744.12
867.309	9624.58
867.63	9689.89
867.95	9683.11
868.27	9643.56
868.59	9707.97
868.91	9633.62
869.23	9587.74
869.55	9627.29
869.87	9623
870.19	9591.81
870.51	9539.61
870.83	9572.15
871.15	9502.77
871.469	9507.74
871.789	9465.94
872.109	9572.15
872.428	9447.86
872.748	9448.99
873.067	9403.57
873.386	9452.83
873.706	9472.04
874.025	9346.17
874.344	9349.56
874.663	9369.67
874.982	9296.22
875.301	9383.45
875.62	9319.27
875.939	9282.44
876.258	9284.25
876.577	9192.5
876.896	9201.54
877.214	9230.69
877.533	9218.94
877.852	9191.59
878.17	9220.75
878.489	9285.6
878.807	9209.9
879.125	9122.9
879.444	9119.28
879.762	9103.46
880.08	9119.51
880.398	9039.06
880.716	9073.41
881.034	8996.57
881.352	9041.54
881.67	8990.02
881.988	9042.45
882.306	8977.59
882.624	8952.05
882.941	8964.26
883.259	8892.85
883.577	8903.69
883.894	8910.25
884.212	8894.2
884.529	8805.16
884.846	8802.23
885.164	8819.85
885.481	8796.12
885.798	8706.18
886.115	8714.77
886.432	8705.51
886.75	8672.29
887.067	8661.89
887.383	8626.19
887.7	8668.67
888.017	8568.56
888.334	8598.16
888.651	8492.4
888.967	8553.42
889.284	8548.9
889.6	8491.73
889.917	8385.97
890.233	8373.54
890.55	8376.02
890.866	8424.16
891.182	8390.03
891.498	8324.95
891.815	8273.88
892.131	8247.44
892.447	8224.61
892.763	8189.13
893.079	8230.72
893.395	8221.22
893.71	8134.22
894.026	8128.35
894.342	8152.07
894.657	8091.28
894.973	8079.31
895.289	8080.89
895.604	8046.99
895.92	7973.55
896.235	7959.31
896.55	7882.25
896.865	7905.3
897.181	7873.44
897.496	7915.02
897.811	7830.27
898.126	7813.55
898.441	7742.37
898.756	7720.45
899.071	7720.45
899.386	7714.8
899.7	7682.93
900.015	7671.86
900.33	7534.24
900.644	7524.75
900.959	7591.64
901.273	7561.13
901.588	7548.93
901.902	7483.62
902.216	7431.19
902.531	7442.71
902.845	7430.96
903.159	7355.48
903.473	7369.27
903.787	7262.38
904.101	7324.3
904.415	7340.8
904.729	7242.95
905.042	7207.47
905.356	7235.26
905.67	7175.15
905.984	7112.78
906.297	7064.42
906.611	7153.46
906.924	7086.79
907.237	7019
907.551	7025.55
907.864	6983.74
908.177	7037.07
908.491	6961.14
908.804	6875.05
909.117	6832.79
909.43	6857.87
909.743	6774.93
910.056	6785.33
910.368	6720.7
910.681	6715.95
910.994	6652.23
911.307	6680.25
911.619	6617.42
911.932	6633.92
912.244	6641.15
912.557	6608.84
912.869	6575.17
913.181	6458.78
913.494	6492.23
913.806	6492.91
914.118	6470.76
914.43	6383.76
914.742	6363.87
915.054	6353.93
915.366	6341.95
915.678	6377.66
915.99	6283.42
916.302	6280.48
916.613	6260.6
916.925	6205.68
917.236	6167.95
917.548	6136.31
917.859	6158.45
918.171	6087.04
918.482	6061.96
918.794	6086.14
919.105	6009.31
919.416	5968.4
919.727	5955.75
920.038	5973.15
920.349	5958.91
920.66	5941.74
920.971	5855.19
921.282	5903.32
921.593	5797.33
921.903	5819.03
922.214	5763.44
922.525	5774.28
922.835	5767.28
923.146	5713.04
923.456	5721.18
923.767	5658.35
924.077	5667.39
924.387	5661.52
924.697	5598.47
925.008	5548.98
925.318	5571.8
925.628	5536.32
925.938	5496.1
926.248	5480.73
926.558	5440.73
926.867	5445.48
927.177	5385.37
927.487	5394.86
927.796	5387.17
928.106	5325.26
928.416	5336.33
928.725	5293.17
929.034	5298.36
929.344	5301.75
929.653	5243.22
929.962	5222.89
930.271	5169.1
930.581	5170.68
930.89	5138.59
931.199	5095.21
931.508	5121.19
931.817	5119.61
932.125	5032.61
932.434	5084.13
932.743	4977.69
933.051	4984.25
933.36	5017.69
933.669	4955.1
933.977	4930.69
934.286	4968.88
934.594	4889.56
934.902	4882.78
935.21	4848.66
935.519	4829
935.827	4849.56
936.135	4778.6
936.443	4739.28
936.751	4766.17
937.059	4761.88
937.367	4722.56
937.674	4702.22
937.982	4715.78
938.29	4620.42
938.597	4641.43
938.905	4568.89
939.213	4586.29
939.52	4598.49
939.827	4579.96
940.135	4565.5
940.442	4470.14
940.749	4488.44
941.056	4499.06
941.363	4438.95
941.67	4449.8
941.977	4373.87
942.284	4372.51
942.591	4366.86
942.898	4348.11
943.205	4336.58
943.511	4345.62
943.818	4306.53
944.125	4275.79
944.431	4269.69
944.738	4253.19
945.044	4215.68
945.35	4233.08
945.657	4186.3
945.963	4155.34
946.269	4126.19
946.575	4162.57
946.881	4127.09
947.187	4144.72
947.493	4045.52
947.799	4093.2
948.105	4061.11
948.41	4043.26
948.716	4030.37
949.022	4005.06
949.327	3950.15
949.633	3939.98
949.938	3932.07
950.244	3946.76
950.549	3922.81
950.854	3843.03
951.16	3896.59
951.465	3870.83
951.77	3869.02
952.075	3815.69
952.38	3806.65
952.685	3852.07
952.99	3805.52
953.294	3762.58
953.599	3787.44
953.904	3731.63
954.209	3723.94
954.513	3697.73
954.818	3648.46
955.122	3682.81
955.426	3681.46
955.731	3681.46
956.035	3601.46
956.339	3601.46
956.643	3588.58
956.948	3560.1
957.252	3535.92
957.556	3543.16
957.86	3554.91
958.163	3509.71
958.467	3494.57
958.771	3467.68
959.075	3483.95
959.378	3469.26
959.682	3454.34
959.985	3465.64
960.289	3426.1
960.592	3368.92
960.896	3408.24
961.199	3379.32
961.502	3364.63
961.805	3281.02
962.108	3342.48
962.411	3294.12
962.714	3286.44
963.017	3312.2
963.32	3283.05
963.623	3252.32
963.926	3261.58
964.228	3223.84
964.531	3223.39
964.833	3199.21
965.136	3180
965.438	3191.07
965.741	3156.27
966.043	3131.87
966.345	3128.48
966.648	3135.26
966.95	3121.7
967.252	3112.88
967.554	3107.91
967.856	3078.76
968.158	3047.58
968.46	3032.21
968.761	3029.5
969.063	3022.94
969.365	2969.16
969.666	2998.99
969.968	2983.4
970.269	2980.23
970.571	2965.09
970.872	2944.3
971.174	2946.56
971.475	2903.17
971.776	2954.7
972.077	2880.8
972.378	2846.68
972.679	2864.08
972.98	2870.4
973.281	2850.52
973.582	2866.34
973.883	2827.92
974.183	2809.39
974.484	2782.5
974.785	2771.42
975.085	2781.37
975.386	2766.23
975.686	2749.28
975.986	2779.11
976.287	2729.39
976.587	2729.39
976.887	2675.16
977.187	2699.79
977.487	2696.4
977.787	2635.38
978.087	2646.46
978.387	2615.27
978.687	2593.8
978.987	2621.6
979.286	2587.93
979.586	2566.01
979.885	2580.24
980.185	2561.03
980.484	2559.68
980.784	2521.26
981.083	2562.62
981.382	2536.63
981.682	2492.34
981.981	2499.12
982.28	2493.24
982.579	2489.62
982.878	2470.42
983.177	2460.7
983.475	2448.95
983.774	2469.06
984.073	2406.46
984.372	2408.72
984.67	2399.68
984.969	2431.09
985.267	2359.46
985.566	2396.52
985.864	2394.03
986.162	2367.37
986.461	2363.75
986.759	2336.18
987.057	2348.16
987.355	2334.83
987.653	2268.39
987.951	2335.05
988.249	2260.93
988.547	2255.73
988.844	2243.3
989.142	2280.36
989.44	2265.67
989.737	2223.87
990.035	2232.46
990.332	2244.21
990.63	2194.04
990.927	2210.76
991.224	2148.16
991.521	2194.72
991.819	2167.82
992.116	2128.5
992.413	2175.06
992.71	2126.92
993.006	2117.88
993.303	2138.45
993.6	2089.41
993.897	2092.35
994.193	2081.5
994.49	2113.59
994.787	2063.65
995.083	2062.06
995.379	2055.28
995.676	2061.61
995.972	2035.85
996.268	1990.2
996.565	1997.89
996.861	1998.56
997.157	1996.08
997.453	1967.15
997.749	1985
998.044	1955.63
998.34	1959.47
998.636	1923.99
998.932	1937.1
999.227	1922.18
999.523	1922.63
999.818	1886.25
1000.114	1876.31
1000.409	1877.44
1000.704	1849.64
1001	1846.25
1001.295	1864.33
1001.59	1836.99
1001.885	1813.94
1002.18	1833.6
1002.475	1788.63
1002.77	1807.61
1003.065	1783.65
1003.359	1811.9
1003.654	1798.12
1003.949	1788.17
1004.243	1758.8
1004.538	1800.15
1004.832	1706.82
1005.127	1770.09
1005.421	1705.92
1005.715	1710.66
1006.009	1693.71
1006.304	1716.54
1006.598	1670.44
1006.892	1690.55
1007.186	1679.7
1007.48	1670.44
1007.773	1650.78
1008.067	1657.1
1008.361	1630.66
1008.655	1637.67
1008.948	1601.96
1009.242	1592.47
1009.535	1567.39
1009.829	1568.74
1010.122	1593.83
1010.415	1578.91
1010.708	1561.96
1011.001	1571
1011.295	1536.43
1011.588	1531
1011.881	1516.32
1012.173	1510.89
1012.466	1522.42
1012.759	1472.93
1013.052	1502.53
1013.344	1480.84
1013.637	1471.12
1013.93	1494.4
1014.222	1484.9
1014.514	1456.43
1014.807	1444.68
1015.099	1414.85
1015.391	1463.21
1015.683	1412.36
1015.976	1410.56
1016.268	1391.57
1016.56	1380.05
1016.851	1402.87
1017.143	1391.8
1017.435	1382.53
1017.727	1360.61
1018.018	1358.58
1018.31	1342.08
1018.602	1330.56
1018.893	1308.19
1019.185	1314.97
1019.476	1334.63
1019.767	1323.55
1020.058	1291.46
1020.35	1287.4
1020.641	1275.64
1020.932	1272.71
1021.223	1266.15
1021.514	1273.38
1021.804	1248.07
1022.095	1233.84
1022.386	1263.67
1022.677	1222.09
1022.967	1228.41
1023.258	1218.24
1023.548	1213.95
1023.839	1218.92
1024.129	1209.43
1024.419	1199.94
1024.709	1181.41
1025	1153.84
1025.29	1192.26
1025.58	1125.14
1025.87	1137.79
1026.16	1169.43
1026.449	1135.08
1026.739	1126.72
1027.029	1118.36
1027.319	1123.56
1027.608	1106.16
1027.898	1094.86
1028.187	1119.94
1028.477	1114.97
1028.766	1096.44
1029.055	1094.63
1029.344	1070.45
1029.634	1061.19
1029.923	1055.54
1030.212	1034.29
1030.501	1019.15
1030.79	1030.68
1031.078	1017.12
1031.367	997.23
1031.656	1013.96
1031.945	1022.32
1032.233	992.94
1032.522	983.45
1032.81	997.23
1033.099	960.4
1033.387	975.99
1033.675	961.75
1033.963	972.15
1034.251	958.36
1034.54	950.68
1034.828	939.16
1035.116	936.9
1035.403	932.15
1035.691	950.91
1035.979	931.25
1036.267	931.02
1036.554	898.71
1036.842	881.08
1037.129	900.51
1037.417	869.78
1037.704	890.8
1037.992	886.5
1038.279	893.06
1038.566	874.07
1038.853	874.07
1039.14	874.07
