Data from hue_340_FLMS001491_82.txt Node
Date: Mon Feb 06 15:43:43 GMT 2017
User: dcchb
Spectrometer: FLMS00149
Trigger mode: 0
Integration Time (sec): 2.000000E-2
Scans to average: 10
Electric dark correction enabled: true
Nonlinearity correction enabled: false
Boxcar width: 0
XAxis mode: Wavelengths
Number of Pixels in Spectrum: 2048
>>>>>Begin Spectral Data<<<<<
341.393	-26.95
341.776	-26.95
342.16	-26.95
342.543	-42.32
342.927	-63.33
343.31	-56.78
343.693	-72.14
344.077	-68.76
344.46	-67.4
344.843	-50.45
345.226	-53.84
345.61	-39.6
345.993	-16.1
346.376	8.98
346.759	1.98
347.142	11.24
347.525	53.05
347.908	59.15
348.291	82.43
348.674	81.75
349.057	126.49
349.44	128.08
349.823	145.93
350.206	163.56
350.588	183.22
350.971	199.71
351.354	242.87
351.737	242.65
352.119	242.65
352.502	258.92
352.884	258.69
353.267	281.52
353.65	291.01
354.032	308.41
354.414	332.14
354.797	296.43
355.179	316.77
355.562	332.36
355.944	315.64
356.326	334.62
356.709	341.4
357.091	355.87
357.473	331.23
357.855	335.75
358.238	314.96
358.62	348.41
359.002	338.92
359.384	369.2
359.766	346.38
360.148	348.63
360.53	344.34
360.912	342.76
361.294	338.69
361.676	320.84
362.057	298.69
362.439	318.13
362.821	325.81
363.203	332.59
363.584	336.88
363.966	329.65
364.348	320.16
364.729	325.13
365.111	337.56
365.493	307.73
365.874	335.53
366.256	308.41
366.637	303.44
367.019	325.36
367.4	321.29
367.781	303.66
368.163	311.57
368.544	318.35
368.925	300.5
369.306	314.51
369.688	281.97
370.069	296.88
370.45	311.57
370.831	299.82
371.212	305.47
371.593	300.95
371.974	315.19
372.355	304.34
372.736	315.64
373.117	326.26
373.498	326.94
373.879	310.67
374.26	311.8
374.641	312.48
375.021	315.19
375.402	324.23
375.783	315.19
376.163	328.75
376.544	312.03
376.925	313.83
377.305	301.4
377.686	312.03
378.066	335.98
378.447	328.07
378.827	313.38
379.208	334.17
379.588	326.26
379.968	319.26
380.349	316.32
380.729	322.42
381.109	348.18
381.489	315.19
381.87	327.17
382.25	345.7
382.63	325.81
383.01	311.35
383.39	351.12
383.77	345.47
384.15	336.66
384.53	351.12
384.91	353.83
385.29	333.04
385.67	339.6
386.049	332.14
386.429	351.12
386.809	360.61
387.189	354.28
387.568	339.37
387.948	350.22
388.328	345.7
388.707	358.13
389.087	354.51
389.466	351.57
389.846	350.44
390.225	353.61
390.605	358.58
390.984	361.74
391.363	343.44
391.743	355.19
392.122	373.49
392.501	378.69
392.881	361.97
393.26	345.47
393.639	376.43
394.018	371.69
394.397	364.23
394.776	355.19
395.155	359.48
395.534	360.16
395.913	358.8
396.292	383.21
396.671	377.79
397.05	368.07
397.429	383.44
397.808	380.95
398.186	398.13
398.565	391.35
398.944	357.67
399.323	375.07
399.701	379.82
400.08	388.86
400.458	380.95
400.837	414.4
401.215	394.51
401.594	403.1
401.972	415.3
402.351	378.46
402.729	390.67
403.107	418.46
403.486	399.93
403.864	404.45
404.242	406.26
404.62	388.41
404.999	413.49
405.377	411.91
405.755	402.87
406.133	422.53
406.511	439.48
406.889	431.34
407.267	431.34
407.645	425.7
408.023	432.7
408.401	427.05
408.779	451.46
409.156	440.38
409.534	449.42
409.912	452.81
410.29	427.95
410.667	445.81
411.045	453.49
411.422	450.55
411.8	448.52
412.178	476.99
412.555	459.59
412.933	503.21
413.31	444.23
413.687	480.16
414.065	488.07
414.442	490.78
414.819	476.77
415.197	493.94
415.574	518.12
415.951	481.96
416.328	498.91
416.705	518.57
417.082	508.4
417.46	524.68
417.837	495.52
418.214	524.22
418.591	518.12
418.967	533.71
419.344	529.42
419.721	540.95
420.098	547.27
420.475	546.37
420.852	545.47
421.228	550.89
421.605	551.57
421.982	568.29
422.358	565.58
422.735	573.49
423.111	588.18
423.488	579.82
423.864	584.11
424.241	583.21
424.617	577.56
424.994	598.35
425.37	619.36
425.746	621.85
426.123	593.37
426.499	613.26
426.875	610.77
427.251	634.28
427.627	632.02
428.003	648.74
428.379	636.31
428.756	628.4
429.132	630.89
429.507	641.28
429.883	659.59
430.259	690.77
430.635	693.48
431.011	654.62
431.387	697.78
431.763	659.59
432.138	673.15
432.514	712.24
432.89	721.73
433.265	716.99
433.641	711.79
434.016	713.15
434.392	733.03
434.767	743.2
435.143	743.65
435.518	751.79
435.894	744.56
436.269	767.38
436.644	790.21
437.02	775.52
437.395	796.98
437.77	795.4
438.145	803.09
438.52	807.38
438.895	832.24
439.271	797.21
439.646	825.46
440.021	852.8
440.395	843.76
440.77	844.67
441.145	828.62
441.52	867.27
441.895	832.01
442.27	862.75
442.645	843.09
443.019	870.2
443.394	848.96
443.769	847.6
444.143	861.84
444.518	858
444.892	872.24
445.267	893.25
445.641	894.61
446.016	908.17
446.39	880.37
446.764	904.33
447.139	895.97
447.513	904.78
447.887	921.95
448.262	918.11
448.636	892.12
449.01	926.25
449.384	936.64
449.758	935.06
450.132	943.2
450.506	952.46
450.88	929.86
451.254	942.52
451.628	939.35
452.002	961.27
452.376	954.72
452.75	991.56
453.123	983.19
453.497	983.65
453.871	992.46
454.244	1015.74
454.618	1008.96
454.992	1003.98
455.365	1020.48
455.739	1055.28
456.112	1043.53
456.486	1061.61
456.859	1068.39
457.232	1080.82
457.606	1083.76
457.979	1076.53
458.352	1083.98
458.725	1106.36
459.099	1134.6
459.472	1116.52
459.845	1128.5
460.218	1153.59
460.591	1140.25
460.964	1158.56
461.337	1179.35
461.71	1156.98
462.083	1186.35
462.456	1208.5
462.829	1207.6
463.201	1214.6
463.574	1178.9
463.947	1248.95
464.32	1226.8
464.692	1273.13
465.065	1262.74
465.438	1303.64
465.81	1307.03
466.183	1307.93
466.555	1351.32
466.928	1331.89
467.3	1328.95
467.672	1355.84
468.045	1364.88
468.417	1361.26
468.789	1387.7
469.161	1421.15
469.534	1422.28
469.906	1468.38
470.278	1460.92
470.65	1443.75
471.022	1499.11
471.394	1526.01
471.766	1535.95
472.138	1525.1
472.51	1561.03
472.882	1579.34
473.253	1596.51
473.625	1623.4
473.997	1642.84
474.369	1672.67
474.74	1663.4
475.112	1707.92
475.484	1712.21
475.855	1743.17
476.227	1758.09
476.598	1808.94
476.97	1834.7
477.341	1828.82
477.713	1876.96
478.084	1876.73
478.455	1934.36
478.827	1947.24
479.198	2003.05
479.569	1970.06
479.94	2084.86
480.311	2071.98
480.682	2090.06
481.053	2113.33
481.424	2149.94
481.795	2187
482.166	2229.72
482.537	2248.7
482.908	2295.7
483.279	2322.59
483.65	2326.44
484.021	2391.52
484.391	2420.67
484.762	2434.68
485.133	2459.77
485.503	2455.25
485.874	2530.72
486.244	2556.71
486.615	2617.95
486.985	2616.6
487.356	2672.19
487.726	2677.39
488.097	2726.88
488.467	2738.63
488.837	2791.51
489.207	2835.12
489.578	2875.57
489.948	2914.9
490.318	2939.75
490.688	2907.66
491.058	2957.83
491.428	3029.24
491.798	3044.84
492.168	3139.75
492.538	3089.13
492.908	3123.25
493.278	3142.46
493.648	3207.77
494.017	3247.09
494.387	3249.35
494.757	3255
495.126	3315.56
495.496	3309.91
495.866	3366.86
496.235	3423.58
496.605	3390.14
496.974	3446.41
497.344	3424.71
497.713	3479.17
498.082	3500.87
498.452	3508.78
498.821	3534.31
499.19	3551.04
499.559	3583.58
499.928	3604.14
500.298	3620.41
500.667	3658.83
501.036	3620.87
501.405	3681.2
501.774	3685.95
502.143	3756.68
502.512	3703.57
502.88	3740.64
503.249	3807.98
503.618	3811.82
503.987	3792.61
504.356	3814.98
504.724	3851.37
505.093	3863.34
505.462	3858.15
505.83	3913.51
506.199	3907.41
506.567	3923.91
506.936	3918.03
507.304	3929.33
507.672	4002.32
508.041	4009.1
508.409	3996.9
508.777	4002.32
509.145	4058.59
509.514	4035.32
509.882	4112.83
510.25	4054.75
510.618	4094.98
510.986	4119.16
511.354	4144.69
511.722	4171.36
512.09	4177.01
512.458	4160.96
512.826	4202.54
513.193	4211.58
513.561	4216.56
513.929	4250
514.297	4263.11
514.664	4265.82
515.032	4293.62
515.4	4327.74
515.767	4333.16
516.135	4318.25
516.502	4327.74
516.869	4399.38
517.237	4383.33
517.604	4376.33
517.972	4386.49
518.339	4451.13
518.706	4432.82
519.073	4442.31
519.44	4408.42
519.808	4475.31
520.175	4470.33
520.542	4502.42
520.909	4555.3
521.276	4563.67
521.643	4569.31
522.009	4595.53
522.376	4633.95
522.743	4634.4
523.11	4664.91
523.477	4654.28
523.843	4678.24
524.21	4718.69
524.577	4769.08
524.943	4772.47
525.31	4849.99
525.676	4835.75
526.043	4835.3
526.409	4855.41
526.776	4904.22
527.142	4866.48
527.508	4929.31
527.874	4937.67
528.241	4965.24
528.607	5033.03
528.973	5061.05
529.339	5022.41
529.705	5086.82
530.071	5131.11
530.437	5175.63
530.803	5164.55
531.169	5158.45
531.535	5179.02
531.901	5262.63
532.267	5232.35
532.632	5228.73
532.998	5272.35
533.364	5307.6
533.73	5307.15
534.095	5387.37
534.461	5364.32
534.826	5374.94
535.192	5387.37
535.557	5457.2
535.923	5448.39
536.288	5465.34
536.653	5469.4
537.019	5470.99
537.384	5479.35
537.749	5578.55
538.114	5587.14
538.479	5593.92
538.845	5636.41
539.21	5631.66
539.575	5652.9
539.94	5674.37
540.305	5718.89
540.67	5697.42
541.034	5745.1
541.399	5764.54
541.764	5816.97
542.129	5790.3
542.494	5806.12
542.858	5802.73
543.223	5802.28
543.587	5931.31
543.952	5898.77
544.316	5924.08
544.681	5969.05
545.045	5950.07
545.41	6035.49
545.774	6082.72
546.138	6028.26
546.503	6086.34
546.867	6065.32
547.231	6144.19
547.595	6160.91
547.959	6194.13
548.324	6152.1
548.688	6163.62
549.052	6218.31
549.416	6237.07
549.779	6293.79
550.143	6242.49
550.507	6346.44
550.871	6347.12
551.235	6389.61
551.599	6430.06
551.962	6388.25
552.326	6394.58
552.689	6435.71
553.053	6397.74
553.417	6465.54
553.78	6526.55
554.143	6524.52
554.507	6524.74
554.87	6567.68
555.234	6602.48
555.597	6594.57
555.96	6595.93
556.323	6619.66
556.686	6680.45
557.05	6711.41
557.413	6672.76
557.776	6777.62
558.139	6742.14
558.502	6789.37
558.865	6761.8
559.228	6801.8
559.59	6811.97
559.953	6853.1
560.316	6876.15
560.679	6923.38
561.041	6898.75
561.404	6947.56
561.767	6965.64
562.129	6941.46
562.492	7028.91
562.854	6990.04
563.217	7024.17
563.579	7079.31
563.941	7064.39
564.304	7140.55
564.666	7128.8
565.028	7138.51
565.39	7204.95
565.753	7188.91
566.115	7256.25
566.477	7289.7
566.839	7249.02
567.201	7291.5
567.563	7302.8
567.925	7463.7
568.287	7378.51
568.648	7371.73
569.01	7405.85
569.372	7457.83
569.734	7484.72
570.095	7543.93
570.457	7561.78
570.819	7588.9
571.18	7670.7
571.542	7642.45
571.903	7673.19
572.265	7715.22
572.626	7792.96
572.987	7855.1
573.349	7840.42
573.71	7873.63
574.071	7941.66
574.432	7981.43
574.794	8067.08
575.155	8133.51
575.516	8106.4
575.877	8172.38
576.238	8244.02
576.599	8337.58
576.96	8380.29
577.32	8486.27
577.681	8515.43
578.042	8572.15
578.403	8613.5
578.763	8730.79
579.124	8808.53
579.485	8947.73
579.845	9097.78
580.206	9083.32
580.566	9186.59
580.927	9327.83
581.287	9485.8
581.648	9592.23
582.008	9671.33
582.368	9847.82
582.728	9989.74
583.089	9998.55
583.449	10195.61
583.809	10383.4
584.169	10518.31
584.529	10671.08
584.889	10819.09
585.249	10904.06
585.609	11142.02
585.969	11349.48
586.329	11567.32
586.688	11716.02
587.048	11889.8
587.408	12138.16
587.768	12246.4
588.127	12546.51
588.487	12802.09
588.846	13101.52
589.206	13135.64
589.565	13372.02
589.925	13738.34
590.284	13997.77
590.643	14233.02
591.003	14494.48
591.362	14804.3
591.721	14904.86
592.08	15157.06
592.44	15510.04
592.799	15804.27
593.158	16017.83
593.517	16273.87
593.876	16593.18
594.235	16776.23
594.593	17150.23
594.952	17418.47
595.311	17516.32
595.67	17963.09
596.029	18301.38
596.387	18538.21
596.746	18907.47
597.104	19035.15
597.463	19460.67
597.822	19676.71
598.18	19942.7
598.538	20109.25
598.897	20480.31
599.255	20665.84
599.613	21285.94
599.972	21389.66
600.33	21620.39
600.688	21893.15
601.046	22193.94
601.404	22478.45
601.762	22786.46
602.12	23058.32
602.478	23306.9
602.836	23551.41
603.194	23806.1
603.552	24080.89
603.91	24273.43
604.268	24616.7
604.625	24779.63
604.983	25158.38
605.341	25169.9
605.698	25570.8
606.056	25878.59
606.413	25919.26
606.771	26302.98
607.128	26522.18
607.485	26652.12
607.843	26835.4
608.2	27227.7
608.557	27563.29
608.914	27748.14
609.272	27940.23
609.629	28180.22
609.986	28443.26
610.343	28449.82
610.7	28968.9
611.057	28975.23
611.414	29135.67
611.771	29323.69
612.127	29632.84
612.484	29604.59
612.841	29971.13
613.198	30112.15
613.554	30116.89
613.911	30516.88
614.267	30658.57
614.624	30764.78
614.98	30937.44
615.337	31440.7
615.693	31404.77
616.05	31491.09
616.406	31837.3
616.762	31697.87
617.118	32015.15
617.475	32082.72
617.831	32403.61
618.187	32425.53
618.543	32418.98
618.899	32823.49
619.255	32838.18
619.611	32973.54
619.967	33246.98
620.323	33399.07
620.678	33315
621.034	33240.88
621.39	33515.22
621.746	33597.48
622.101	33829.56
622.457	33768.32
622.812	33980.29
623.168	34157.46
623.523	34131.02
623.879	34414.41
624.234	34263.68
624.589	34377.57
624.945	34555.19
625.3	34578.92
625.655	34651.01
626.01	34763.78
626.365	34962.19
626.72	34857.33
627.075	35023.66
627.43	34927.39
627.785	34971.68
628.14	35073.82
628.495	35173.03
628.85	35206.02
629.205	35151.11
629.559	35449.41
629.914	35247.15
630.269	35474.26
630.623	35308.85
630.978	35278.79
631.332	35502.51
631.687	35579.35
632.041	35594.94
632.396	35631.32
632.75	35502.96
633.104	35656.63
633.459	35523.98
633.813	35611.89
634.167	35547.94
634.521	35613.24
634.875	35717.42
635.229	35705.22
635.583	35447.6
635.937	35596.3
636.291	35533.7
636.645	35686.91
636.999	35585
637.352	35667.03
637.706	35484.21
638.06	35743.64
638.413	35624.77
638.767	35654.6
639.121	35713.58
639.474	35448.73
639.828	35500.7
640.181	35522.17
640.534	35609.4
640.888	35564.88
641.241	35376.87
641.594	35472.01
641.947	35579.35
642.301	35407.15
642.654	35543.64
643.007	35592.23
643.36	35510.2
643.713	35451.21
644.066	35634.03
644.419	35270.65
644.771	35097.33
645.124	34875.41
645.477	34844.9
645.83	34601.97
646.182	34500.05
646.535	34486.27
646.888	34534.4
647.24	34221.64
647.593	34473.84
647.945	34398.81
648.298	34378.93
648.65	34223.68
649.002	34272.26
649.355	34369.21
649.707	34274.3
650.059	34404.91
650.411	34816.43
650.763	34877.9
651.115	35301.16
651.467	35250.32
651.819	35184.33
652.171	35114.5
652.523	34927.84
652.875	35047.38
653.227	34820.72
653.578	35209.87
653.93	35150.43
654.282	35035.18
654.633	34986.37
654.985	35064.33
655.337	34954.73
655.688	34903.43
656.039	35133.93
656.391	34751.8
656.742	34862.3
657.094	34839.03
657.445	34905.24
657.796	34920.38
658.147	34788.41
658.498	34773.04
658.849	34930.1
659.2	34857.33
659.551	34637.68
659.902	34910.21
660.253	34897.33
660.604	34864.56
660.955	34655.76
661.306	34787.73
661.656	34764.68
662.007	34678.58
662.358	34796.09
662.708	34688.07
663.059	34681.52
663.409	34404.24
663.76	34759.71
664.11	34729.43
664.461	34719.03
664.811	34731.01
665.161	34680.84
665.511	34585.93
665.862	34634.06
666.212	34740.05
666.562	34702.53
666.912	34632.93
667.262	34622.08
667.612	34641.29
667.962	34679.48
668.312	34629.54
668.662	34790.89
669.011	34647.85
669.361	34649.43
669.711	34612.59
670.06	34556.1
670.41	34438.13
670.76	34407.85
671.109	34600.62
671.459	34503.22
671.808	34430.22
672.157	34426.38
672.507	34316.1
672.856	34424.58
673.205	34424.12
673.554	34490.56
673.904	34527.4
674.253	34645.81
674.602	34410.56
674.951	34017.58
675.3	33857.36
675.649	34430.22
675.998	34384.8
676.346	34366.5
676.695	34484.01
677.044	34032.95
677.393	34317.46
677.741	34321.3
678.09	34179.61
678.438	34169.44
678.787	34219.83
679.135	34192.04
679.484	33933.29
679.832	34205.82
680.181	33836.34
680.529	34140.74
680.877	33909.11
681.225	33845.38
681.573	34156.56
681.922	33819.39
682.27	33852.16
682.618	33874.31
682.966	33630.02
683.314	33727.64
683.661	33674.76
684.009	33514.77
684.357	33444.49
684.705	33520.64
685.053	33345.28
685.4	33434.09
685.748	33172.18
686.095	33174.89
686.443	33093.08
686.79	33025.74
687.138	33154.55
687.485	33133.08
687.832	33030.04
688.18	33063.03
688.527	32825.97
688.874	32763.38
689.221	32827.55
689.568	32656.49
689.915	32464.17
690.262	32468.92
690.609	32334.01
690.956	32300.79
691.303	32199.1
691.65	32071.87
691.997	32218.08
692.344	32063.28
692.69	31949.39
693.037	32064.64
693.383	31718.43
693.73	31769.5
694.077	31760.24
694.423	31713.91
694.769	31590.07
695.116	31579.9
695.462	31518.89
695.808	31438.44
696.155	31416.74
696.501	31278.22
696.847	31259.23
697.193	31012.01
697.539	31081.16
697.885	30920.49
698.231	30861.73
698.577	30740.15
698.923	30716.88
699.269	30593.94
699.614	30461.06
699.96	30532.25
700.306	30455.64
700.651	30294.51
700.997	30251.8
701.342	30175.42
701.688	30188.75
702.033	30074.63
702.379	29994.18
702.724	29863.57
703.069	29975.43
703.415	29602.55
703.76	29694.98
704.105	29676.23
704.45	29607.07
704.795	29412.73
705.14	29362.34
705.485	29288.89
705.83	29275.78
706.175	29235.11
706.52	29211.6
706.865	29159.18
707.209	29112.62
707.554	28916.92
707.899	29036.92
708.243	28925.06
708.588	28729.81
708.932	28604.39
709.277	28667.66
709.621	28608.46
709.966	28428.57
710.31	28553.54
710.654	28234
710.998	28361.01
711.342	28287.11
711.687	28293.44
712.031	28074.23
712.375	28054.57
712.719	28056.38
713.063	28088.7
713.407	27940.9
713.75	27951.98
714.094	27799.44
714.438	27701.81
714.782	27794.47
715.125	27630.86
715.469	27531.2
715.812	27530.07
716.156	27346.57
716.499	27375.49
716.843	27533.91
717.186	27250.98
717.53	27363.29
717.873	27407.81
718.216	27344.54
718.559	27085.11
718.902	27000.59
719.246	27093.69
719.589	27056.63
719.932	26907.03
720.275	26944.09
720.617	26857.09
720.96	26771.89
721.303	26743.65
721.646	26733.25
721.989	26556.08
722.331	26586.14
722.674	26621.62
723.016	26582.07
723.359	26488.29
723.701	26594.95
724.044	26316.31
724.386	26264.79
724.729	26415.75
725.071	26260.95
725.413	26325.58
725.755	26270.89
726.097	26158.58
726.439	26103.66
726.782	26069.31
727.124	26199.48
727.465	25964.91
727.807	25999.71
728.149	25905.03
728.491	25875.87
728.833	25889.66
729.175	25838.36
729.516	25699.83
729.858	25754.52
730.199	25663
730.541	25654.18
730.882	25702.54
731.224	25724.01
731.565	25490.35
731.906	25410.57
732.248	25441.76
732.589	25391.59
732.93	25319.73
733.271	25505.49
733.612	25321.09
733.953	25342.55
734.294	25174.87
734.635	25151.15
734.976	25296
735.317	25012.17
735.658	25123.58
735.999	25060.98
736.339	24985.28
736.68	25114.54
737.021	24938.72
737.361	24802.46
737.702	25054.65
738.042	24869.35
738.383	24841.32
738.723	24937.14
739.063	24887.65
739.404	24967.42
739.744	24760.65
740.084	24691.95
740.424	24740.99
740.764	24711.16
741.104	24696.24
741.444	24515.23
741.784	24458.74
742.124	24606.3
742.464	24391.17
742.804	24411.51
743.143	24294.9
743.483	24385.29
743.823	24313.2
744.162	24138.07
744.502	24228.23
744.841	24223.71
745.181	24219.65
745.52	24211.96
745.86	24254.67
746.199	24054
746.538	24071.4
746.877	24105.07
747.216	24226.43
747.556	23899.88
747.895	23940.1
748.234	23838.64
748.573	23785.76
748.911	23751.41
749.25	23799.32
749.589	23740.79
749.928	23665.08
750.267	23692.65
750.605	23621.92
750.944	23625.99
751.283	23449.5
751.621	23493.11
751.96	23383.06
752.298	23354.36
752.636	23411.53
752.975	23236.85
753.313	23192.78
753.651	23318.43
753.989	23226.45
754.327	23183.97
754.666	23102.84
755.004	22972.22
755.342	23093.12
755.679	22981.49
756.017	22833.92
756.355	22843.86
756.693	22818.33
757.031	22837.54
757.368	22627.15
757.706	22724.77
758.044	22685
758.381	22583.53
758.719	22641.16
759.056	22519.13
759.394	22373.37
759.731	22224.22
760.068	22287.49
760.405	22262.63
760.743	22165.01
761.08	22241.62
761.417	21949.65
761.754	21982.42
762.091	21955.07
762.428	21857.22
762.765	21732.25
763.102	21731.12
763.438	21724.57
763.775	21522.32
764.112	21539.72
764.449	21612.03
764.785	21370.46
765.122	21293.85
765.458	21246.16
765.795	21234.41
766.131	21215.66
766.467	21103.57
766.804	21037.58
767.14	20886.4
767.476	20979.05
767.812	20868.55
768.148	20919.17
768.485	20616.58
768.821	20584.04
769.157	20606.41
769.492	20515.11
769.828	20513.08
770.164	20299.3
770.5	20243.25
770.836	20306.53
771.171	19988.8
771.507	20036.25
771.842	19924.39
772.178	19866.09
772.513	19799.65
772.849	19822.47
773.184	19753.1
773.519	19737.73
773.855	19628.58
774.19	19558.98
774.525	19558.07
774.86	19545.87
775.195	19469.71
775.53	19261.13
775.865	19202.6
776.2	19099.78
776.535	18990.63
776.87	19025.66
777.205	18905.21
777.539	18823.63
777.874	18840.8
778.209	18655.72
778.543	18683.29
778.878	18492.56
779.212	18464.32
779.547	18381.61
779.881	18486.01
780.215	18291.21
780.55	18346.58
780.884	18246.24
781.218	18183.87
781.552	18190.88
781.886	18058.45
782.22	17989.98
782.554	17853.71
782.888	17726.03
783.222	17719.93
783.556	17493.49
783.889	17611.46
784.223	17512.48
784.557	17443.33
784.89	17524.68
785.224	17353.61
785.557	17153.39
785.891	17201.53
786.224	17249.43
786.558	17179.38
786.891	17107.97
787.224	16910.46
787.557	16907.97
787.891	17016.67
788.224	16961.08
788.557	16853.96
788.89	16826.39
789.223	16798.82
789.556	16702.78
789.888	16543.24
790.221	16531.71
790.554	16316.58
790.887	16369.23
791.219	16326.97
791.552	16281.55
791.884	16281.55
792.217	16157.26
792.549	16035
792.882	15950.94
793.214	15868.9
793.546	16031.84
793.879	15875.46
794.211	15668.68
794.543	15874.33
794.875	15788.68
795.207	15770.83
795.539	15570.61
795.871	15610.61
796.203	15545.75
796.535	15450.84
796.867	15439.76
797.198	15340.33
797.53	15350.5
797.862	15195.25
798.193	15310.28
798.525	15070.73
798.856	15135.14
799.188	15005.65
799.519	14974.24
799.85	14854.02
800.182	14940.79
800.513	14828.03
800.844	14837.52
801.175	14815.37
801.506	14781.02
801.837	14698.54
802.168	14625.1
802.499	14553.69
802.83	14614.25
803.161	14483.63
803.491	14513.91
803.822	14434.37
804.153	14397.76
804.483	14276.86
804.814	14274.82
805.145	14221.49
805.475	14252.45
805.805	14193.02
806.136	14138.78
806.466	14178.55
806.796	14110.08
807.126	14010.42
807.457	13931.1
807.787	13946.47
808.117	13858.34
808.447	13842.52
808.777	13870.31
809.107	13760.26
809.436	13745.12
809.766	13711.67
810.096	13688.4
810.426	13641.62
810.755	13642.07
811.085	13620.38
811.414	13529.08
811.744	13376.54
812.073	13417.44
812.403	13398.46
812.732	13326.6
813.061	13307.62
813.39	13305.36
813.719	13169.99
814.049	13243.21
814.378	13252.02
814.707	13146.49
815.036	13243.44
815.365	13178.58
815.693	13008.42
816.022	13014.52
816.351	12951.47
816.68	12861.3
817.008	12982.65
817.337	12738.59
817.665	12780.17
817.994	12847.06
818.322	12807.06
818.651	12789.66
818.979	12699.95
819.307	12735.43
819.636	12687.52
819.964	12629.44
820.292	12664.92
820.62	12686.62
820.948	12550.8
821.276	12662.89
821.604	12606.17
821.932	12557.81
822.259	12569.78
822.587	12569.78
822.915	12577.01
823.243	12655.66
823.57	12548.09
823.898	12520.07
824.225	12464.02
824.553	12518.48
824.88	12493.4
825.207	12513.51
825.535	12544.47
825.862	12523.46
826.189	12510.58
826.516	12597.35
826.843	12585.83
827.17	12499.95
827.497	12497.69
827.824	12458.82
828.151	12501.76
828.478	12493.4
828.805	12536.11
829.131	12519.16
829.458	12449.33
829.785	12372.73
830.111	12374.08
830.438	12513.96
830.764	12446.62
831.09	12565.04
831.417	12386.96
831.743	12439.16
832.069	12424.48
832.395	12345.16
832.722	12347.42
833.048	12399.39
833.374	12369.11
833.7	12299.73
834.026	12304.7
834.351	12335.21
834.677	12313.07
835.003	12320.98
835.329	12317.36
835.654	12280.07
835.98	12242.79
836.306	12280.52
836.631	12221.32
836.956	12262.45
837.282	12148.78
837.607	12168.66
837.932	12113.3
838.258	12079.4
838.583	12088.21
838.908	12046.86
839.233	12054.32
839.558	12048.21
839.883	11948.1
840.208	11936.13
840.533	11967.09
840.858	11972.28
841.182	11989.01
841.507	11955.34
841.832	11795.11
842.156	11835.56
842.481	11847.09
842.805	11820.2
843.13	11846.86
843.454	11732.74
843.778	11787.66
844.103	11711.05
844.427	11744.04
844.751	11623.82
845.075	11698.17
845.399	11562.8
845.723	11460.43
846.047	11534.56
846.371	11483.26
846.695	11431.28
847.019	11377.5
847.343	11273.09
847.666	11296.14
847.99	11269.48
848.313	11237.16
848.637	11074.45
848.96	11216.82
849.284	11121.23
849.607	11029.48
849.931	11019.54
850.254	10969.15
850.577	10866.1
850.9	10761.24
851.223	10831.07
851.546	10694.8
851.869	10606.9
852.192	10614.58
852.515	10555.6
852.838	10550.4
853.161	10571.42
853.483	10467.92
853.806	10420.69
854.129	10493.45
854.451	10413.23
854.774	10374.36
855.096	10341.82
855.419	10240.8
855.741	10290.07
856.063	10191.99
856.385	10168.94
856.708	10169.85
857.03	10071.32
857.352	10131.88
857.674	10093.46
857.996	10015.73
858.318	9970.08
858.64	10036.74
858.961	9952.45
859.283	9908.84
859.605	9859.57
859.926	9894.82
860.248	9857.09
860.57	9835.62
860.891	9833.36
861.212	9770.31
861.534	9755.17
861.855	9754.94
862.176	9768.95
862.498	9728.73
862.819	9735.96
863.14	9624.32
863.461	9596.53
863.782	9560.82
864.103	9583.87
864.424	9556.75
864.745	9582.06
865.065	9503.87
865.386	9479.47
865.707	9529.86
866.027	9559.47
866.348	9460.26
866.668	9477.21
866.989	9458.9
867.309	9341.39
867.63	9338.46
867.95	9382.3
868.27	9330.77
868.59	9312.69
868.91	9338.68
869.23	9297.78
869.55	9276.31
869.87	9309.08
870.19	9269.76
870.51	9357.21
870.83	9213.49
871.15	9231.11
871.469	9174.84
871.789	9239.47
872.109	9210.55
872.428	9139.14
872.748	9132.58
873.067	9148.18
873.386	9196.31
873.706	9122.19
874.025	9152.02
874.344	9016.66
874.663	9031.57
874.982	9034.51
875.301	9032.7
875.62	9066.37
875.939	9001.06
876.258	8989.54
876.577	8976.2
876.896	8952.25
877.214	8871.57
877.533	9032.02
877.852	8956.77
878.17	8954.51
878.489	8935.08
878.807	8892.59
879.125	8932.36
879.444	8820.05
879.762	8830.22
880.08	8829.09
880.398	8776.89
880.716	8811.01
881.034	8794.51
881.352	8758.36
881.67	8777.79
881.988	8783.44
882.306	8671.58
882.624	8688.08
882.941	8636.1
883.259	8600.62
883.577	8564.46
883.894	8577.35
884.212	8614.41
884.529	8611.92
884.846	8500.06
885.164	8506.16
885.481	8479.95
885.798	8528.08
886.115	8422.77
886.432	8401.76
886.75	8423.22
887.067	8458.25
887.383	8365.15
887.7	8372.83
888.017	8338.03
888.334	8337.8
888.651	8292.38
888.967	8350.68
889.284	8203.57
889.6	8239.05
889.917	8221.2
890.233	8197.24
890.55	8169.9
890.866	8161.54
891.182	8162.21
891.498	8095.1
891.815	8077.92
892.131	8005.38
892.447	8034.99
892.763	7991.6
893.079	8046.06
893.395	7974.88
893.71	7891.26
894.026	7949.79
894.342	7908.89
894.657	7882
894.973	7878.15
895.289	7796.57
895.604	7831.6
895.92	7773.3
896.235	7733.98
896.55	7698.27
896.865	7688.55
897.181	7676.13
897.496	7666.63
897.811	7647.65
898.126	7563.81
898.441	7524.94
898.756	7537.82
899.071	7435.23
899.386	7494.44
899.7	7423.93
900.015	7377.83
900.33	7357.04
900.644	7385.06
900.959	7371.5
901.273	7336.25
901.588	7300.77
901.902	7273.2
902.216	7215.35
902.531	7165.63
902.845	7204.27
903.159	7184.61
903.473	7100.32
903.787	7016.03
904.101	7023.04
904.415	7032.53
904.729	6989.36
905.042	6956.82
905.356	6982.58
905.67	7006.31
905.984	6984.39
906.297	6939.2
906.611	6870.72
906.924	6870.72
907.237	6872.98
907.551	6805.19
907.864	6760.44
908.177	6759.09
908.491	6783.27
908.804	6661.69
909.117	6607.91
909.43	6681.35
909.743	6603.84
910.056	6646.1
910.368	6553.67
910.681	6535.59
910.994	6500.79
911.307	6505.54
911.619	6452.66
911.932	6472.32
912.244	6420.34
912.557	6394.13
912.869	6394.35
913.181	6382.15
913.494	6283.17
913.806	6219.67
914.118	6268.93
914.43	6189.61
914.742	6250.63
915.054	6204.53
915.366	6197.07
915.678	6205.66
915.99	6094.02
916.302	6101.25
916.613	6073.91
916.925	6042.04
917.236	6005.44
917.548	5997.98
917.859	6021.25
918.171	5939
918.482	5957.98
918.794	5867.36
919.105	5797.98
919.416	5807.02
919.727	5820.58
920.038	5801.6
920.349	5753.24
920.66	5769.06
920.971	5689.06
921.282	5727.25
921.593	5694.48
921.903	5617.2
922.214	5634.82
922.525	5601.38
922.835	5570.64
923.146	5543.75
923.456	5619
923.767	5493.58
924.077	5442.51
924.387	5500.82
924.697	5472.34
925.008	5405.9
925.318	5421.04
925.628	5429.18
925.938	5339.92
926.248	5285.68
926.558	5301.27
926.867	5323.19
927.177	5248.62
927.487	5190.32
927.796	5192.12
928.106	5184.21
928.416	5182.18
928.725	5147.83
929.034	5099.7
929.344	5093.59
929.653	5099.02
929.962	5072.58
930.271	5034.39
930.581	5042.75
930.89	5001.39
931.199	4969.53
931.508	4927.72
931.817	4934.5
932.125	4925.24
932.434	4873.26
932.743	4871.23
933.051	4836.65
933.36	4783.09
933.669	4798.91
933.977	4779.93
934.286	4733.15
934.594	4797.11
934.902	4680.72
935.21	4674.62
935.519	4693.15
935.827	4663.32
936.135	4632.14
936.443	4641.18
936.751	4591.91
937.059	4569.31
937.367	4561.86
937.674	4548.3
937.982	4572.7
938.29	4500.84
938.597	4515.53
938.905	4446.83
939.213	4438.02
939.52	4405.25
939.827	4432.82
940.135	4391.92
940.442	4406.16
940.749	4360.73
941.056	4383.33
941.363	4305.37
941.67	4311.02
941.977	4275.76
942.284	4264.69
942.591	4249.1
942.898	4254.75
943.205	4260.17
943.511	4231.7
943.818	4186.95
944.125	4188.53
944.431	4150.12
944.738	4156.44
945.044	4112.38
945.35	4084.58
945.657	4084.58
945.963	4071.7
946.269	4047.29
946.575	4013.4
946.881	3976.34
947.187	3986.28
947.493	3987.86
947.799	3962.78
948.105	3933.85
948.41	3908.99
948.716	3881.88
949.022	3891.82
949.327	3866.51
949.633	3838.71
949.938	3842.55
950.244	3822.44
950.549	3777.92
950.854	3797.13
951.16	3793.52
951.465	3740.18
951.77	3733.86
952.075	3731.82
952.38	3722.33
952.685	3716.46
952.99	3726.63
953.294	3667.87
953.599	3680.75
953.904	3631.03
954.209	3565.27
954.513	3632.39
954.818	3584.48
955.122	3582
955.426	3527.53
955.731	3550.13
956.035	3516.69
956.339	3488.44
956.643	3496.8
956.948	3492.06
957.252	3467.65
957.556	3460.42
957.86	3422.68
958.163	3444.15
958.467	3397.37
958.771	3410.25
959.075	3398.95
959.378	3386.3
959.682	3351.49
959.985	3372.28
960.289	3363.02
960.592	3316.24
960.896	3311.04
961.199	3269.01
961.502	3259.52
961.805	3263.13
962.108	3233.3
962.411	3234.21
962.714	3205.06
963.017	3174.78
963.32	3156.92
963.623	3149.47
963.926	3158.28
964.228	3162.12
964.531	3120.09
964.833	3127.09
965.136	3089.81
965.438	3082.12
965.741	3056.59
966.043	3043.71
966.345	3035.34
966.648	3025.85
966.95	3021.56
967.252	3004.16
967.554	3011.62
967.856	2992.41
968.158	2980.43
968.46	2963.48
968.761	2934.56
969.063	2910.6
969.365	2964.16
969.666	2865.63
969.968	2846.87
970.269	2898.4
970.571	2866.99
970.872	2852.52
971.174	2834.67
971.475	2801.68
971.776	2841.45
972.077	2803.94
972.378	2805.29
972.679	2795.35
972.98	2774.33
973.281	2779.98
973.582	2754.22
973.883	2760.1
974.183	2776.14
974.484	2721
974.785	2696.6
975.085	2707.89
975.386	2679.65
975.686	2680.78
975.986	2662.25
976.287	2652.3
976.587	2634
976.887	2611.63
977.187	2614.56
977.487	2602.13
977.787	2603.72
978.087	2561.46
978.387	2561.46
978.687	2577.05
978.987	2534.11
979.286	2530.05
979.586	2521.69
979.885	2489.82
980.185	2465.42
980.484	2474.68
980.784	2456.6
981.083	2499.99
981.382	2488.69
981.682	2458.18
981.981	2418.19
982.28	2408.47
982.579	2424.29
982.878	2396.04
983.177	2377.96
983.475	2410.73
983.774	2329.15
984.073	2358.07
984.372	2364.85
984.67	2373.89
984.969	2347
985.267	2305.42
985.566	2317.85
985.864	2313.33
986.162	2321.46
986.461	2287.34
986.759	2260.22
987.057	2287.79
987.355	2226.1
987.653	2233.33
987.951	2237.62
988.249	2229.26
988.547	2215.93
988.844	2195.82
989.142	2229.49
989.44	2196.04
989.737	2158.3
990.035	2184.29
990.332	2148.59
990.63	2168.47
990.927	2144.29
991.224	2114.69
991.521	2151.53
991.819	2125.31
992.116	2100.68
992.413	2078.31
992.71	2101.36
993.006	2105.42
993.303	2040.79
993.6	2071.08
993.897	2050.29
994.193	2037.18
994.49	2014.35
994.787	2006.22
995.083	1990.17
995.379	1980.23
995.676	1991.53
995.972	1957.86
996.268	1984.07
996.565	1965.99
996.861	1962.38
997.157	1948.59
997.453	1937.75
997.749	1919.89
998.044	1883.96
998.34	1912.21
998.636	1913.11
998.932	1903.17
999.227	1890.52
999.523	1859.1
999.818	1845.32
1000.114	1837.18
1000.409	1838.54
1000.704	1828.6
1001	1792.66
1001.295	1792.21
1001.59	1826.34
1001.885	1807.13
1002.18	1787.69
1002.475	1741.59
1002.77	1774.13
1003.065	1744.3
1003.359	1754.47
1003.654	1748.37
1003.949	1728.94
1004.243	1715.15
1004.538	1702.95
1004.832	1707.7
1005.127	1690.29
1005.421	1690.97
1005.715	1686.23
1006.009	1677.41
1006.304	1662.72
1006.598	1635.15
1006.892	1638.54
1007.186	1643.74
1007.48	1636.28
1007.773	1605.55
1008.067	1605.33
1008.361	1589.05
1008.655	1574.59
1008.948	1554.03
1009.242	1567.81
1009.535	1584.99
1009.829	1575.72
1010.122	1519.9
1010.415	1536.17
1010.708	1537.98
1011.001	1526.91
1011.295	1523.97
1011.588	1484.2
1011.881	1490.75
1012.173	1477.64
1012.466	1471.77
1012.759	1453.69
1013.052	1448.04
1013.344	1441.71
1013.637	1430.41
1013.93	1434.71
1014.222	1437.65
1014.514	1421.83
1014.807	1439.68
1015.099	1381.38
1015.391	1389.96
1015.683	1365.33
1015.976	1402.84
1016.268	1376.18
1016.56	1371.66
1016.851	1360.36
1017.143	1356.97
1017.435	1353.81
1017.727	1331.89
1018.018	1333.24
1018.31	1305.22
1018.602	1297.76
1018.893	1307.25
1019.185	1279.01
1019.476	1301.38
1019.767	1295.05
1020.058	1272
1020.35	1267.93
1020.641	1274.94
1020.932	1272.23
1021.223	1213.02
1021.514	1229.06
1021.804	1188.84
1022.095	1210.08
1022.386	1188.39
1022.677	1199.23
1022.967	1181.83
1023.258	1178.67
1023.548	1205.11
1023.839	1164.43
1024.129	1155.17
1024.419	1174.83
1024.709	1133.7
1025	1154.49
1025.29	1132.34
1025.58	1114.94
1025.87	1121.72
1026.16	1087.82
1026.449	1125.56
1026.739	1105
1027.029	1086.69
1027.319	1074.94
1027.608	1076.3
1027.898	1069.97
1028.187	1054.61
1028.477	1052.35
1028.766	1074.72
1029.055	1063.87
1029.344	1031.1
1029.634	1002.18
1029.923	1016.41
1030.212	1036.07
1030.501	1025
1030.79	1018.22
1031.078	990.65
1031.367	994.49
1031.656	982.97
1031.945	1013.48
1032.233	964.66
1032.522	987.71
1032.81	976.42
1033.099	947.72
1033.387	952.01
1033.675	949.07
1033.963	948.39
1034.251	946.81
1034.54	944.55
1034.828	912.01
1035.116	936.19
1035.403	913.14
1035.691	916.53
1035.979	892.35
1036.267	902.52
1036.554	897.55
1036.842	879.69
1037.129	900.71
1037.417	891.45
1037.704	891.9
1037.992	882.18
1038.279	871.56
1038.566	855.51
1038.853	855.51
1039.14	855.51
