Data from hue_36_FLMS001491_00081.txt Node
Date: Tue Feb 07 17:30:24 GMT 2017
User: dcchb
Spectrometer: FLMS00149
Trigger mode: 0
Integration Time (sec): 2.000000E-2
Scans to average: 10
Electric dark correction enabled: true
Nonlinearity correction enabled: false
Boxcar width: 0
XAxis mode: Wavelengths
Number of Pixels in Spectrum: 2048
>>>>>Begin Spectral Data<<<<<
341.393	-21.88
341.776	-21.88
342.16	-21.88
342.543	-72.27
342.927	-65.94
343.31	-58.49
343.693	-74.53
344.077	-60.75
344.46	-53.74
344.843	-64.36
345.226	-58.26
345.61	-47.19
345.993	-32.5
346.376	-9
346.759	17.9
347.142	32.36
347.525	45.01
347.908	65.35
348.291	80.72
348.674	117.1
349.057	100.38
349.44	130.21
349.823	142.41
350.206	179.02
350.588	206.82
350.971	223.54
351.354	237.78
351.737	261.05
352.119	243.65
352.502	271.45
352.884	276.42
353.267	298.57
353.65	298.11
354.032	285.46
354.414	302.63
354.797	320.03
355.179	315.51
355.562	324.78
355.944	331.11
356.326	325.46
356.709	330.88
357.091	351.9
357.473	344.67
357.855	329.3
358.238	337.66
358.62	343.99
359.002	349.64
359.384	351.9
359.766	342.18
360.148	318.23
360.53	359.58
360.912	345.12
361.294	339.92
361.676	345.12
362.057	342.63
362.439	322.29
362.821	314.61
363.203	313.93
363.584	349.19
363.966	340.37
364.348	342.41
364.729	325.91
365.111	314.84
365.493	310.54
365.874	322.97
366.256	324.78
366.637	312.58
367.019	316.19
367.4	322.75
367.781	321.62
368.163	315.97
368.544	315.29
368.925	317.32
369.306	322.07
369.688	329.53
370.069	345.8
370.45	329.3
370.831	322.29
371.212	325.68
371.593	318.9
371.974	323.88
372.355	313.71
372.736	324.1
373.117	326.59
373.498	341.5
373.879	314.38
374.26	336.08
374.641	339.92
375.021	341.5
375.402	336.76
375.783	315.74
376.163	329.53
376.544	337.43
376.925	321.62
377.305	318.45
377.686	341.95
378.066	318.9
378.447	341.28
378.827	354.84
379.208	311.45
379.588	345.12
379.968	324.1
380.349	329.3
380.729	343.31
381.109	320.71
381.489	345.34
381.87	347.83
382.25	336.98
382.63	334.04
383.01	353.25
383.39	344.44
383.77	338.79
384.15	361.39
384.53	346.93
384.91	355.51
385.29	339.47
385.67	358.68
386.049	364.33
386.429	339.92
386.809	356.42
387.189	334.27
387.568	345.12
387.948	354.61
388.328	344.89
388.707	403.42
389.087	358.9
389.466	361.39
389.846	374.95
390.225	360.26
390.605	360.26
390.984	377.43
391.363	391.44
391.743	400.26
392.122	350.99
392.501	363.87
392.881	359.13
393.26	350.32
393.639	351.45
394.018	392.35
394.397	366.81
394.776	379.24
395.155	374.72
395.534	383.99
395.913	359.58
396.292	368.85
396.671	388.96
397.05	373.37
397.429	371.33
397.808	373.14
398.186	386.47
398.565	401.84
398.944	400.26
399.323	402.97
399.701	380.6
400.08	387.15
400.458	406.13
400.837	408.62
401.215	397.32
401.594	394.38
401.972	405.68
402.351	404.78
402.729	408.85
403.107	409.3
403.486	424.89
403.864	390.54
404.242	428.28
404.62	403.2
404.999	399.58
405.377	417.43
405.755	422.86
406.133	419.01
406.511	432.57
406.889	413.36
407.267	440.26
407.645	422.86
408.023	431.67
408.401	435.29
408.779	414.49
409.156	446.58
409.534	431.44
409.912	447.94
410.29	450.88
410.667	435.96
411.045	443.87
411.422	447.04
411.8	458.56
412.178	461.27
412.555	448.39
412.933	451.1
413.31	440.26
413.687	471.44
414.065	467.15
414.442	460.14
414.819	478.9
415.197	481.84
415.574	482.29
415.951	455.4
416.328	485.68
416.705	486.36
417.082	492.01
417.46	499.01
417.837	492.46
418.214	477.32
418.591	515.06
418.967	480.93
419.344	498.11
419.721	517.77
420.098	499.92
420.475	511.89
420.852	515.28
421.228	504.66
421.605	509.18
421.982	503.98
422.358	515.06
422.735	517.54
423.111	521.84
423.488	546.69
423.864	529.29
424.241	533.36
424.617	548.5
424.994	546.92
425.37	539.24
425.746	548.5
426.123	550.76
426.499	545.79
426.875	550.76
427.251	549.86
427.627	577.2
428.003	572.23
428.379	574.49
428.756	564.32
429.132	558.45
429.507	578.33
429.883	572.23
430.259	593.93
430.635	577.2
431.011	598.67
431.387	595.96
431.763	625.11
432.138	590.31
432.514	618.11
432.89	601.16
433.265	629.18
433.641	620.59
434.016	653.13
434.392	649.74
434.767	651.55
435.143	630.53
435.518	654.49
435.894	643.42
436.269	664.21
436.644	680.48
437.02	658.33
437.395	663.75
437.77	660.59
438.145	655.62
438.52	675.05
438.895	682.74
439.271	675.5
439.646	707.14
440.021	684.77
440.395	671.89
440.77	680.7
441.145	692
441.52	692
441.895	726.58
442.27	737.65
442.645	722.06
443.019	720.7
443.394	724.09
443.769	734.26
444.143	745.33
444.518	723.87
444.892	726.12
445.267	745.79
445.641	743.07
446.016	727.71
446.39	761.6
446.764	748.95
447.139	764.32
447.513	791.43
447.887	773.36
448.262	776.75
448.636	776.52
449.01	762.28
449.384	787.82
449.758	801.15
450.132	811.55
450.506	824.88
450.88	791.66
451.254	811.32
451.628	802.28
452.002	825.33
452.376	809.74
452.75	826.01
453.123	823.52
453.497	840.7
453.871	839.57
454.244	831.43
454.618	854.71
454.992	863.75
455.365	902.17
455.739	884.54
456.112	895.84
456.486	885.22
456.859	903.52
457.232	896.52
457.606	914.14
457.979	944.42
458.352	939.68
458.725	973.12
459.099	929.74
459.472	971.09
459.845	982.62
460.218	1014.03
460.591	1014.03
460.964	987.81
461.337	1053.57
461.71	1051.99
462.083	1054.48
462.456	1070.52
462.829	1063.52
463.201	1071.43
463.574	1094.93
463.947	1110.52
464.32	1117.75
464.692	1127.47
465.065	1164.76
465.438	1137.87
465.81	1145.77
466.183	1197.53
466.555	1196.17
466.928	1213.34
467.3	1207.92
467.672	1234.13
468.045	1248.82
468.417	1249.5
468.789	1261.48
469.161	1304.19
469.534	1306.9
469.906	1361.36
470.278	1348.93
470.65	1374.24
471.022	1401.81
471.394	1433.9
471.766	1441.36
472.138	1450.4
472.51	1517.06
472.882	1533.56
473.253	1551.64
473.625	1562.71
473.997	1625.54
474.369	1621.92
474.74	1657.4
475.112	1663.5
475.484	1717.06
475.855	1759.09
476.227	1805.42
476.598	1832.31
476.97	1878.64
477.341	1912.08
477.713	1979.2
478.084	1991.4
478.455	2070.95
478.827	2115.24
479.198	2152.53
479.569	2207.89
479.94	2247.89
480.311	2298.96
480.682	2366.99
481.053	2451.5
481.424	2485.4
481.795	2556.36
482.166	2620.31
482.537	2683.59
482.908	2772.17
483.279	2799.52
483.65	2889.23
484.021	2975.33
484.391	3022.34
484.762	3061.2
485.133	3154.99
485.503	3243.8
485.874	3332.84
486.244	3418.94
486.615	3502.1
486.985	3584.13
487.356	3641.75
487.726	3734.18
488.097	3821.64
488.467	3927.62
488.837	3980.05
489.207	4112.7
489.578	4205.81
489.948	4271.57
490.318	4446.25
490.688	4442.19
491.058	4533.93
491.428	4663.65
491.798	4746.58
492.168	4897.77
492.538	4938.67
492.908	5018.89
493.278	5127.37
493.648	5186.35
494.017	5271.32
494.387	5390.64
494.757	5449.16
495.126	5552.89
495.496	5635.15
495.866	5699.1
496.235	5765.09
496.605	5919.21
496.974	5962.82
497.344	6041.92
497.713	6163.72
498.082	6232.19
498.452	6293.21
498.821	6419.31
499.19	6479.19
499.559	6497.95
499.928	6629.25
500.298	6686.87
500.667	6739.53
501.036	6759.41
501.405	6971.61
501.774	6989.24
502.143	7019.29
502.512	7108.78
502.88	7182
503.249	7198.05
503.618	7297.93
503.987	7362.56
504.356	7500.64
504.724	7506.51
505.093	7511.48
505.462	7623.12
505.83	7766.17
506.199	7834.86
506.567	7946.95
506.936	7927.29
507.304	8041.19
507.672	8027.85
508.041	8128.87
508.409	8174.06
508.777	8308.75
509.145	8339.71
509.514	8320.73
509.882	8485.47
510.25	8495.19
510.618	8560.04
510.986	8611.57
511.354	8704.22
511.722	8748.51
512.09	8840.71
512.458	8871
512.826	8928.4
513.193	9007.49
513.561	9036.64
513.929	9082.06
514.297	9135.4
514.664	9227.6
515.032	9319.8
515.4	9396.18
515.767	9406.35
516.135	9433.92
516.502	9380.13
516.869	9557.53
517.237	9597.3
517.604	9598.66
517.972	9739.45
518.339	9747.13
518.706	9772.21
519.073	9848.82
519.44	9886.11
519.808	10048.59
520.175	9968.59
520.542	10156.16
520.909	10141.24
521.276	10233.45
521.643	10302.82
522.009	10348.24
522.376	10430.05
522.743	10463.72
523.11	10558.86
523.477	10638.41
523.843	10694.22
524.21	10796.37
524.577	10874.11
524.943	10904.39
525.31	10952.75
525.676	11084.72
526.043	11150.71
526.409	11083.37
526.776	11270.71
527.142	11238.62
527.508	11434.09
527.874	11421.89
528.241	11527.42
528.607	11556.57
528.973	11722.22
529.339	11667.08
529.705	11739.17
530.071	11878.6
530.437	11933.29
530.803	12007.86
531.169	12074.3
531.535	12081.53
531.901	12105.94
532.267	12211.02
532.632	12254.86
532.998	12258.7
533.364	12330.11
533.73	12431.81
534.095	12533.95
534.461	12577.79
534.826	12582.99
535.192	12597.9
535.557	12787.95
535.923	12677
536.288	12795.64
536.653	12831.8
537.019	12819.37
537.384	12974.62
537.749	12969.19
538.114	13082.18
538.479	13063.65
538.845	13124.44
539.21	13102.52
539.575	13251.22
539.94	13310.43
540.305	13323.31
540.67	13351.78
541.034	13478.56
541.399	13452.12
541.764	13548.39
542.129	13520.14
542.494	13617.31
542.858	13643.75
543.223	13715.61
543.587	13780.02
543.952	13832
544.316	13860.24
544.681	13908.38
545.045	13981.14
545.41	14019.56
545.774	14112.21
546.138	14111.54
546.503	14187.24
546.867	14234.92
547.231	14305.65
547.595	14379.33
547.959	14416.16
548.324	14478.08
548.688	14464.97
549.052	14515.82
549.416	14551.98
549.779	14605.76
550.143	14648.7
550.507	14788.58
550.871	14815.02
551.235	14841.01
551.599	14877.84
551.962	14995.13
552.326	14973.66
552.689	15123.71
553.053	14989.48
553.417	15067.44
553.78	15201.9
554.143	15117.16
554.507	15209.13
554.87	15217.5
555.234	15445.74
555.597	15308.11
555.96	15373.2
556.323	15456.59
556.686	15500.88
557.05	15611.61
557.413	15703.36
557.776	15664.94
558.139	15798.05
558.502	15806.41
558.865	15977.02
559.228	16039.17
559.59	16038.26
559.953	16119.17
560.316	16221.76
560.679	16283.46
561.041	16327.97
561.404	16305.83
561.767	16376.56
562.129	16393.96
562.492	16677.34
562.854	16549.44
563.217	16679.83
563.579	16694.74
563.941	16717.57
564.304	16799.6
564.666	16955.75
565.028	17014.96
565.39	17033.72
565.753	17120.5
566.115	17236.43
566.477	17188.29
566.839	17272.58
567.201	17381.05
567.563	17301.28
567.925	17580.82
568.287	17548.51
568.648	17548.28
569.01	17665.11
569.372	17820.14
569.734	17804.32
570.095	17952.56
570.457	17936.75
570.819	18029.17
571.18	18109.62
571.542	18243.86
571.903	18246.79
572.265	18362.05
572.626	18337.41
572.987	18414.93
573.349	18588.03
573.71	18661.02
574.071	18685.65
574.432	18760.23
574.794	19013.1
575.155	18989.37
575.516	18962.26
575.877	19221.68
576.238	19241.34
576.599	19342.13
576.96	19459.19
577.32	19582.8
577.681	19635.46
578.042	19806.53
578.403	19929.91
578.763	20017.82
579.124	20140.3
579.485	20286.74
579.845	20441.31
580.206	20515.89
580.566	20771.02
580.927	20738.93
581.287	21012.37
581.648	21091.92
582.008	21331.91
582.368	21327.39
582.728	21608.51
583.089	21776.64
583.449	22003.53
583.809	22105.9
584.169	22218.44
584.529	22347.7
584.889	22751.76
585.249	22794.7
585.609	22891.19
585.969	23241.24
586.329	23396.04
586.688	23704.73
587.048	23705.86
587.408	23871.28
587.768	24052.29
588.127	24275.11
588.487	24493.18
588.846	24811.82
589.206	24935.66
589.565	25198.02
589.925	25505.81
590.284	25682.53
590.643	25869.64
591.003	26095.18
591.362	26276.41
591.721	26577.2
592.08	26828.94
592.44	26960.46
592.799	27198.88
593.158	27310.51
593.517	27581.92
593.876	27777.39
594.235	28115.69
594.593	28161.56
594.952	28470.71
595.311	28717.25
595.67	29018.04
596.029	29230.23
596.387	29494.86
596.746	29813.72
597.104	29708.87
597.463	29967.39
597.822	30297.78
598.18	30418.9
598.538	30581.84
598.897	30810.98
599.255	30825.9
599.613	31473.34
599.972	31339.56
600.33	31661.36
600.688	31782.94
601.046	31984.06
601.404	32419.98
601.762	32436.7
602.12	32775.45
602.478	32924.6
602.836	32901.32
603.194	33016.12
603.552	33340.63
603.91	33311.03
604.268	33685.71
604.625	33711.02
604.983	33867.63
605.341	33959.15
605.698	34424.45
606.056	34365.24
606.413	34450.89
606.771	34747.83
607.128	34975.62
607.485	34882.52
607.843	35154.6
608.2	35357.98
608.557	35554.36
608.914	35577.86
609.272	35839.78
609.629	36019.21
609.986	36231.41
610.343	36199.99
610.7	36537.39
611.057	36602.24
611.414	36566.09
611.771	36741
612.127	36883.82
612.484	37107.99
612.841	37324.48
613.198	37319.74
613.554	37258.05
613.911	37669.56
614.267	37736.45
614.624	37801.31
614.98	37910.68
615.337	38126.95
615.693	38084.46
616.05	38312.71
616.406	38450.78
616.762	38421.86
617.118	38408.98
617.475	38687.61
617.831	38625.02
618.187	38792.69
618.543	38895.52
618.899	39121.05
619.255	39101.39
619.611	39156.3
619.967	39341.38
620.323	39349.52
620.678	39303.87
621.034	39246.69
621.39	39382.51
621.746	39383.64
622.101	39870.18
622.457	39589.06
622.812	39774.59
623.168	39909.5
623.523	39808.49
623.879	40029.05
624.234	39817.98
624.589	40083.28
624.945	40173
625.3	40231.3
625.655	40178.65
626.01	40320.34
626.365	40362.82
626.72	40311.07
627.075	40365.08
627.43	40332.54
627.785	40356.27
628.14	40502.93
628.495	40449.83
628.85	40371.64
629.205	40563.5
629.559	40523.95
629.914	40477.4
630.269	40516.04
630.623	40478.53
630.978	40432.88
631.332	40561.01
631.687	40651.63
632.041	40589.48
632.396	40651.63
632.75	40620.22
633.104	40622.03
633.459	40450.96
633.813	40442.82
634.167	40515.59
634.521	40551.29
634.875	40677.84
635.229	40523.72
635.583	40560.33
635.937	40411.18
636.291	40403.27
636.645	40445.98
636.999	40481.69
637.352	40596.49
637.706	40377.29
638.06	40402.14
638.413	40462.93
638.767	40426.32
639.121	40411.86
639.474	40111.98
639.828	40254.13
640.181	40254.58
640.534	40268.59
640.888	40083.96
641.241	39946.56
641.594	40180.91
641.947	40265.42
642.301	40115.6
642.654	40164.86
643.007	40116.05
643.36	40077.63
643.713	40069.5
644.066	40222.49
644.419	40017.52
644.771	39730.07
645.124	39398.1
645.477	39377.99
645.83	39301.16
646.182	39022.07
646.535	38838.57
646.888	39053.25
647.24	38983.65
647.593	38963.54
647.945	39034.5
648.298	38723.77
648.65	38834.95
649.002	38711.57
649.355	38851.9
649.707	38759.93
650.059	38923.31
650.411	39362.4
650.763	39336.18
651.115	39727.81
651.467	39687.59
651.819	39672.9
652.171	39503.18
652.523	39379.35
652.875	39492.34
653.227	39314.26
653.578	39682.16
653.93	39575.05
654.282	39214.6
654.633	39280.59
654.985	39323.75
655.337	39335.28
655.688	39355.17
656.039	39476.52
656.391	39025.23
656.742	39304.09
657.094	39387.26
657.445	39409.18
657.796	39300.03
658.147	39361.49
658.498	39256.86
658.849	39356.3
659.2	39257.09
659.551	39030.88
659.902	39129.41
660.253	39203.53
660.604	39267.03
660.955	39152.91
661.306	39237.88
661.656	39245.11
662.007	39188.39
662.358	39276.98
662.708	39086.02
663.059	39114.49
663.409	38871.34
663.76	39222.97
664.11	39202.63
664.461	39240.14
664.811	39197.88
665.161	39178.45
665.511	39072.91
665.862	38929.19
666.212	39166.47
666.562	39102.97
666.912	39152.01
667.262	38842.41
667.612	39000.6
667.962	39072.69
668.312	39069.52
668.662	39212.12
669.011	39104.55
669.361	39033.82
669.711	38954.72
670.06	38847.16
670.41	38760.15
670.76	38861.17
671.109	39031.11
671.459	38912.47
671.808	38858.68
672.157	39018.68
672.507	38724.22
672.856	38674.96
673.205	38775.97
673.554	38813.26
673.904	38803.32
674.253	38946.14
674.602	38864.11
674.951	38165.82
675.3	38141.19
675.649	38704.34
675.998	38654.17
676.346	38668.86
676.695	38798.34
677.044	38543.66
677.393	38515.87
677.741	38580.04
678.09	38489.65
678.438	38492.59
678.787	38667.05
679.135	38465.02
679.484	38308.41
679.832	38435.42
680.181	38269.54
680.529	38332.37
680.877	38217.34
681.225	38207.4
681.573	38439.71
681.922	38139.83
682.27	38042.66
682.618	38122.2
682.966	37987.74
683.314	38032.26
683.661	37791.37
684.009	37634.99
684.357	37617.13
684.705	37623.69
685.053	37755.21
685.4	37615.32
685.748	37437.48
686.095	37464.59
686.443	37211.49
686.79	37187.09
687.138	37372.85
687.485	37262.57
687.832	37252.62
688.18	37264.6
688.527	37020.76
688.874	36931.27
689.221	36966.53
689.568	36888.34
689.915	36666.42
690.262	36662.36
690.609	36746.87
690.956	36549.59
691.303	36439.31
691.65	36397.5
691.997	36403.83
692.344	36259.88
692.69	36269.37
693.037	36163.16
693.383	35863.51
693.73	35993.67
694.077	35821.25
694.423	35699.89
694.769	35617.18
695.116	35501.93
695.462	35639.33
695.808	35439.79
696.155	35587.36
696.501	35094.71
696.847	35169.51
697.193	35128.61
697.539	35042.28
697.885	34967.71
698.231	34749.86
698.577	34799.35
698.923	34745.57
699.269	34639.58
699.614	34458.12
699.96	34400.49
700.306	34388.06
700.651	34200.95
700.997	34113.5
701.342	34034.85
701.688	34009.77
702.033	33969.77
702.379	33797.12
702.724	33782.88
703.069	33805.71
703.415	33446.17
703.76	33476.22
704.105	33329.34
704.45	33492.04
704.795	33247.08
705.14	33269.68
705.485	33074.65
705.83	33057.25
706.175	33090.47
706.52	32890.25
706.865	32988.1
707.209	32830.37
707.554	32622.24
707.899	32690.48
708.243	32562.35
708.588	32503.59
708.932	32340.66
709.277	32338.18
709.621	32410.49
709.966	32075.58
710.31	32211.62
710.654	31909.71
710.998	31983.61
711.342	32068.13
711.687	31815.25
712.031	31713.33
712.375	31699.55
712.719	31665.65
713.063	31675.37
713.407	31699.1
713.75	31520.34
714.094	31470.85
714.438	31167.13
714.782	31297.98
715.125	31220.92
715.469	31197.19
715.812	31087.59
716.156	31032.67
716.499	30972.79
716.843	31038.77
717.186	30802.85
717.53	30956.74
717.873	30947.48
718.216	30779.35
718.559	30657.54
718.902	30446.93
719.246	30537.54
719.589	30420.03
719.932	30291.9
720.275	30278.57
720.617	30278.57
720.96	30215.29
721.303	30343.88
721.646	30224.11
721.989	30012.36
722.331	30116.76
722.674	30013.72
723.016	30002.64
723.359	29955.19
723.701	29988.18
724.044	29782.99
724.386	29717.68
724.729	29835.87
725.071	29698.02
725.413	29701.86
725.755	29703.67
726.097	29545.48
726.439	29409.21
726.782	29417.12
727.124	29487.4
727.465	29418.48
727.807	29447.4
728.149	29252.15
728.491	29289.44
728.833	29316.11
729.175	29088.77
729.516	29191.59
729.858	29014.65
730.199	29099.16
730.541	28946.85
730.882	28991.14
731.224	29210.8
731.565	28822.79
731.906	28829.34
732.248	28937.59
732.589	28665.05
732.93	28608.56
733.271	28653.07
733.612	28593.87
733.953	28764.26
734.294	28631.15
734.635	28414.89
734.976	28616.92
735.317	28399.3
735.658	28490.82
735.999	28408.11
736.339	28336.7
736.68	28313.2
737.021	28247.21
737.361	28149.36
737.702	28290.37
738.042	28198.4
738.383	28064.39
738.723	28071.17
739.063	28028.91
739.404	28119.53
739.744	27868.01
740.084	27904.85
740.424	27865.3
740.764	27917.73
741.104	27887.9
741.444	27897.39
741.784	27739.2
742.124	27834.34
742.464	27682.93
742.804	27675.25
743.143	27476.83
743.483	27562.71
743.823	27445.42
744.162	27347.57
744.502	27439.77
744.841	27404.29
745.181	27403.84
745.52	27387.8
745.86	27324.07
746.199	27285.2
746.538	27155.03
746.877	27257.63
747.216	27185.09
747.556	27124.07
747.895	27126.33
748.234	26961.14
748.573	27045.43
748.911	26911.88
749.25	26908.71
749.589	26933.35
749.928	26853.35
750.267	26810.86
750.605	26901.48
750.944	26595.05
751.283	26593.47
751.621	26623.52
751.96	26443.64
752.298	26501.49
752.636	26405
752.975	26346.47
753.313	26159.58
753.651	26422.17
753.989	26216.3
754.327	26209.07
754.666	26102.63
755.004	26137.89
755.342	26137.89
755.679	26089.07
756.017	25979.47
756.355	26031.67
756.693	25792.36
757.031	25814.5
757.368	25851.34
757.706	25753.72
758.044	25599.14
758.381	25615.87
758.719	25565.92
759.056	25535.64
759.394	25344.91
759.731	25292.26
760.068	25189.66
760.405	25129.33
760.743	25145.37
761.08	25211.13
761.417	24952.61
761.754	24961.42
762.091	24823.8
762.428	24747.19
762.765	24633.29
763.102	24719.39
763.438	24593.97
763.775	24492.96
764.112	24530.7
764.449	24507.42
764.785	24278.27
765.122	24168.22
765.458	24126.19
765.795	24081.67
766.131	24184.49
766.467	23944.5
766.804	23824.27
767.14	23781.79
767.476	23738.85
767.812	23691.17
768.148	23725.07
768.485	23553.55
768.821	23407.34
769.157	23400.11
769.492	23285.31
769.828	23206.44
770.164	23109.49
770.5	23081.47
770.836	23062.03
771.171	22848.48
771.507	22900.46
771.842	22545.66
772.178	22664.76
772.513	22598.77
772.849	22513.57
773.184	22344.31
773.519	22489.85
773.855	22272
774.19	22179.12
774.525	22165.34
774.86	22105.68
775.195	22114.04
775.53	21934.61
775.865	21857.09
776.2	21764.44
776.535	21523.09
776.87	21596.99
777.205	21545.92
777.539	21382.53
777.874	21397.45
778.209	21232.25
778.543	21276.55
778.878	21129.66
779.212	21029.32
779.547	20891.47
779.881	20972.82
780.215	20854.18
780.55	20836.56
780.884	20640.86
781.218	20645.6
781.552	20635.21
781.886	20456.45
782.22	20430.69
782.554	20352.05
782.888	20123.13
783.222	20078.16
783.556	20005.17
783.889	19944.15
784.223	19909.8
784.557	19726.76
784.89	19817.37
785.224	19715.46
785.557	19643.37
785.891	19592.97
786.224	19466.42
786.558	19504.61
786.891	19381.23
787.224	19341.45
787.557	19217.39
787.891	19221.46
788.224	19098.52
788.557	19089.03
788.89	19174
789.223	18943.73
789.556	18849.49
789.888	18868.92
790.221	18766.78
790.554	18598.42
790.887	18634.81
791.219	18518.43
791.552	18495.6
791.884	18397.3
792.217	18302.61
792.549	18237.3
792.882	18133.58
793.214	18074.82
793.546	18119.79
793.879	18035.27
794.211	17941.04
794.543	17950.98
794.875	17852.45
795.207	17910.76
795.539	17837.54
795.871	17727.49
796.203	17661.05
796.535	17460.15
796.867	17620.82
797.198	17505.57
797.53	17558.68
797.862	17385.57
798.193	17328.4
798.525	17203.43
798.856	17172.25
799.188	17099.03
799.519	17047.05
799.85	16938.58
800.182	17028.07
800.513	16954.62
800.844	16758.47
801.175	16830.56
801.506	16843.44
801.837	16686.84
802.168	16725.25
802.499	16616.55
802.83	16503.56
803.161	16425.15
803.491	16464.47
803.822	16418.14
804.153	16328.2
804.483	16279.84
804.814	16178.6
805.145	16147.64
805.475	16208.43
805.805	16084.14
806.136	16177.24
806.466	16129.56
806.796	16002.79
807.126	15809.34
807.457	15887.53
807.787	15782.9
808.117	15774.77
808.447	15681.44
808.777	15743.81
809.107	15613.87
809.436	15596.47
809.766	15614.55
810.096	15559.18
810.426	15502.91
810.755	15417.72
811.085	15436.47
811.414	15336.36
811.744	15297.95
812.073	15214.11
812.403	15214.78
812.732	15159.87
813.061	15158.06
813.39	14986.54
813.719	15069.7
814.049	15069.02
814.378	15029.25
814.707	14910.16
815.036	14922.36
815.365	14848.24
815.693	14771.63
816.022	14808.01
816.351	14735.02
816.68	14617.51
817.008	14718.3
817.337	14504.52
817.665	14580
817.994	14603.73
818.322	14598.75
818.651	14469.04
818.979	14432.21
819.307	14426.78
819.636	14457.52
819.964	14369.61
820.292	14358.53
820.62	14350.85
820.948	14252.1
821.276	14295.26
821.604	14262.49
821.932	14241.02
822.259	14340.68
822.587	14339.33
822.915	14276.96
823.243	14338.2
823.57	14253
823.898	14224.75
824.225	14116.96
824.553	14197.18
824.88	14255.49
825.207	14242.15
825.535	14269.72
825.862	14265.66
826.189	14241.25
826.516	14317.63
826.843	14352.89
827.17	14215.49
827.497	14270.4
827.824	14173.23
828.151	14261.81
828.478	14239.67
828.805	14222.27
829.131	14213.68
829.458	14155.83
829.785	14140.69
830.111	14090.75
830.438	14222.27
830.764	14206.67
831.09	14241.7
831.417	14126.9
831.743	14166.22
832.069	14109.05
832.395	14087.36
832.722	14163.06
833.048	14138.65
833.374	14119.9
833.7	13989.73
834.026	14020.92
834.351	14037.64
834.677	14027.92
835.003	14077.64
835.329	14009.84
835.654	13937.3
835.98	13881.94
836.306	13911.77
836.631	13912.22
836.956	14008.49
837.282	13982.5
837.607	13887.13
837.932	13807.14
838.258	13835.16
838.583	13823.86
838.908	13697.08
839.233	13800.58
839.558	13727.37
839.883	13665.22
840.208	13646.01
840.533	13626.35
840.858	13641.94
841.182	13528.05
841.507	13641.72
841.832	13581.38
842.156	13429.52
842.481	13432.68
842.805	13452.57
843.13	13420.25
843.454	13389.52
843.778	13328.28
844.103	13339.8
844.427	13304.33
844.751	13334.61
845.075	13300.26
845.399	13170.77
845.723	13151.33
846.047	13129.87
846.371	13001.51
846.695	13060.26
847.019	12901.62
847.343	12955.63
847.666	12792.25
847.99	12766.03
848.313	12797.9
848.637	12629.31
848.96	12665.47
849.284	12653.27
849.607	12566.72
849.931	12517.23
850.254	12399.94
850.577	12302.77
850.9	12226.16
851.223	12303.9
851.546	12242.21
851.869	12188.65
852.192	12195.65
852.515	12079.5
852.838	12038.82
853.161	11996.11
853.483	11880.18
853.806	11931.71
854.129	11888.09
854.451	11801.09
854.774	11746.17
855.096	11725.38
855.419	11775.55
855.741	11662.79
856.063	11588.21
856.385	11620.08
856.708	11534.88
857.03	11569.91
857.352	11538.04
857.674	11460.98
857.996	11427.54
858.318	11388.9
858.64	11367.88
858.961	11329.01
859.283	11251.95
859.605	11233.19
859.926	11280.88
860.248	11168.34
860.57	11185.74
860.891	11171.73
861.212	11155
861.534	11048.34
861.855	11051.73
862.176	11075.46
862.498	10978.06
862.819	11016.02
863.14	10988.45
863.461	10929.02
863.782	10934.9
864.103	10941.9
864.424	10832.53
864.745	10921.11
865.065	10844.05
865.386	10778.97
865.707	10826.88
866.027	10830.04
866.348	10776.71
866.668	10786.65
866.989	10747.56
867.309	10653.77
867.63	10741.91
867.95	10657.16
868.27	10606.54
868.59	10608.13
868.91	10576.26
869.23	10638.41
869.55	10523.38
869.87	10644.28
870.19	10505.3
870.51	10567.22
870.83	10616.94
871.15	10528.58
871.469	10518.86
871.789	10447.45
872.109	10503.04
872.428	10425.3
872.748	10499.43
873.067	10398.86
873.386	10409.71
873.706	10376.27
874.025	10273.9
874.344	10335.14
874.663	10362.71
874.982	10310.28
875.301	10260.79
875.62	10261.92
875.939	10255.14
876.258	10174.92
876.577	10275.25
876.896	10215.59
877.214	10173.11
877.533	10158.42
877.852	10122.49
878.17	10196.16
878.489	10203.62
878.807	10102.38
879.125	10139.21
879.444	10036.39
879.762	10013.34
880.08	10039.78
880.398	10065.54
880.716	9985.09
881.034	9961.14
881.352	9930.63
881.67	9881.36
881.988	9907.8
882.306	9888.82
882.624	9866.9
882.941	9790.07
883.259	9830.74
883.577	9806.11
883.894	9733.35
884.212	9730.41
884.529	9727.02
884.846	9692.44
885.164	9632.78
885.481	9644.53
885.798	9684.08
886.115	9584.88
886.432	9654.93
886.75	9545.1
887.067	9548.72
887.383	9538.1
887.7	9541.71
888.017	9404.09
888.334	9510.98
888.651	9409.29
888.967	9419
889.284	9360.47
889.6	9374.26
889.917	9303.98
890.233	9318.89
890.55	9278.22
890.866	9290.87
891.182	9265.79
891.498	9201.61
891.815	9104.21
892.131	9130.2
892.447	9095.62
892.763	9061.27
893.079	9120.71
893.395	9022.18
893.71	8990.77
894.026	8985.12
894.342	8983.99
894.657	8901.73
894.973	8835.52
895.289	8936.76
895.604	8939.92
895.92	8798.91
896.235	8782.64
896.55	8804.1
896.865	8682.98
897.181	8672.36
897.496	8700.6
897.811	8656.09
898.126	8625.13
898.441	8611.12
898.756	8566.14
899.071	8494.73
899.386	8520.27
899.7	8445.92
900.015	8407.05
900.33	8332.25
900.644	8295.87
900.959	8398.01
901.273	8346.26
901.588	8247.06
901.902	8220.39
902.216	8247.28
902.531	8202.54
902.845	8165.25
903.159	8133.61
903.473	8071.02
903.787	8057.46
904.101	8014.75
904.415	8007.97
904.729	7986.05
905.042	7945.37
905.356	7943.79
905.67	7928.87
905.984	7953.96
906.297	7927.97
906.611	7790.12
906.924	7833.96
907.237	7798.26
907.551	7734.53
907.864	7746.28
908.177	7657.24
908.491	7723.23
908.804	7617.47
909.117	7625.6
909.43	7506.51
909.743	7546.51
910.056	7485.27
910.368	7446.63
910.681	7365.5
910.994	7297.48
911.307	7372.28
911.619	7327.76
911.932	7306.29
912.244	7220.64
912.557	7262
912.869	7191.27
913.181	7169.12
913.494	7177.25
913.806	7113.3
914.118	7069.69
914.43	7015
914.742	7067.88
915.054	6980.2
915.366	7032.17
915.678	6957.15
915.99	6895.68
916.302	6913.98
916.613	6861.78
916.925	6808.68
917.236	6779.3
917.548	6753.99
917.859	6749.92
918.171	6751.73
918.482	6681.67
918.794	6668.12
919.105	6616.14
919.416	6596.25
919.727	6604.39
920.038	6573.43
920.349	6487.78
920.66	6452.08
920.971	6473.54
921.282	6471.74
921.593	6380.21
921.903	6314.45
922.214	6383.6
922.525	6307.22
922.835	6314.9
923.146	6274
923.456	6243.04
923.767	6195.81
924.077	6256.15
924.387	6173.21
924.697	6150.39
925.008	6168.02
925.318	6158.07
925.628	6049.6
925.938	6026.1
926.248	6031.07
926.558	5989.49
926.867	5994.24
927.177	5944.74
927.487	5923.5
927.796	5860.68
928.106	5866.33
928.416	5845.76
928.725	5847.57
929.034	5768.48
929.344	5781.81
929.653	5805.99
929.962	5715.37
930.271	5669.95
930.581	5659.33
930.89	5624.08
931.199	5582.04
931.508	5601.93
931.817	5608.48
932.125	5562.61
932.434	5566.45
932.743	5484.64
933.051	5453.46
933.36	5489.62
933.669	5392.22
933.977	5435.38
934.286	5369.39
934.594	5343.86
934.902	5325.33
935.21	5332.33
935.519	5304.76
935.827	5286.46
936.135	5326.68
936.443	5209.85
936.751	5216.4
937.059	5129.17
937.367	5173.92
937.674	5127.59
937.982	5104.77
938.29	5094.15
938.597	5108.83
938.905	5061.6
939.213	4983.19
939.52	5003.3
939.827	4968.73
940.135	4978.44
940.442	4962.85
940.749	4979.35
941.056	4942.29
941.363	4828.39
941.67	4849.86
941.977	4846.92
942.284	4787.94
942.591	4806.7
942.898	4758.56
943.205	4807.15
943.511	4734.83
943.818	4728.51
944.125	4668.62
944.431	4653.71
944.738	4663.87
945.044	4651.9
945.35	4594.5
945.657	4580.03
945.963	4568.74
946.269	4552.01
946.575	4556.53
946.881	4532.58
947.187	4511.34
947.493	4458
947.799	4435.18
948.105	4429.08
948.41	4398.34
948.716	4414.39
949.022	4371.68
949.327	4386.59
949.633	4332.36
949.938	4302.53
950.244	4308.63
950.549	4283.09
950.854	4271.79
951.16	4241.96
951.465	4265.69
951.77	4223.66
952.075	4200.61
952.38	4233.38
952.685	4168.97
952.99	4155.41
953.294	4110.67
953.599	4090.33
953.904	4079.48
954.209	4072.7
954.513	4057.56
954.818	4041.97
955.122	3989.99
955.426	3985.93
955.731	3947.06
956.035	3960.62
956.339	4005.59
956.643	3966.49
956.948	3857.79
957.252	3878.36
957.556	3868.87
957.86	3846.49
958.163	3849.21
958.467	3822.99
958.771	3846.04
959.075	3816.67
959.378	3763.11
959.682	3792.49
959.985	3774.63
960.289	3732.83
960.592	3721.98
960.896	3717.46
961.199	3705.93
961.502	3649.66
961.805	3647.4
962.108	3654.86
962.411	3641.53
962.714	3597.69
963.017	3584.81
963.32	3569.67
963.623	3582.55
963.926	3567.18
964.228	3539.84
964.531	3542.1
964.833	3504.81
965.136	3519.72
965.438	3472.95
965.741	3467.07
966.043	3416.22
966.345	3413.51
966.648	3421.87
966.95	3400.18
967.252	3378.48
967.554	3330.8
967.856	3338.03
968.158	3315.66
968.46	3332.38
968.761	3293.52
969.063	3284.48
969.365	3283.57
969.666	3266.85
969.968	3242.89
970.269	3245.83
970.571	3194.08
970.872	3232.5
971.174	3211.03
971.475	3186.4
971.776	3179.39
972.077	3173.74
972.378	3132.39
972.679	3135.33
972.98	3112.5
973.281	3094.2
973.582	3095.78
973.883	3094.88
974.183	3081.77
974.484	3022.11
974.785	3046.74
975.085	3018.04
975.386	3021.66
975.686	2987.99
975.986	2986.63
976.287	2969.46
976.587	2975.33
976.887	2950.25
977.187	2952.28
977.487	2924.71
977.787	2889.91
978.087	2873.19
978.387	2879.74
978.687	2921.32
978.987	2829.57
979.286	2843.58
979.586	2823.24
979.885	2831.83
980.185	2779.4
980.484	2769.24
980.784	2781.21
981.083	2777.37
981.382	2732.4
981.682	2732.17
981.981	2734.89
982.28	2699.63
982.579	2724.26
982.878	2746.41
983.177	2721.78
983.475	2683.59
983.774	2670.25
984.073	2637.71
984.372	2640.65
984.67	2641.33
984.969	2615.34
985.267	2583.7
985.566	2641.55
985.864	2588
986.162	2570.82
986.461	2575.79
986.759	2503.93
987.057	2550.26
987.355	2498.96
987.653	2505.51
987.951	2484.72
988.249	2477.94
988.547	2480.88
988.844	2473.88
989.142	2495.12
989.44	2429.13
989.737	2435.68
990.035	2444.72
990.332	2405.18
990.63	2429.81
990.927	2380.54
991.224	2370.15
991.521	2350.94
991.819	2333.54
992.116	2331.96
992.413	2333.77
992.71	2343.26
993.006	2345.07
993.303	2306.87
993.6	2277.27
993.897	2279.3
994.193	2284.5
994.49	2251.28
994.787	2218.06
995.083	2228.91
995.379	2237.27
995.676	2220.1
995.972	2201.79
996.268	2188.23
996.565	2218.06
996.861	2178.52
997.157	2162.25
997.453	2169.02
997.749	2141.68
998.044	2132.64
998.34	2132.42
998.636	2106.43
998.932	2073.21
999.227	2082.02
999.523	2102.59
999.818	2044.06
1000.114	2061.01
1000.409	2038.63
1000.704	2004.74
1001	2021.91
1001.295	1992.08
1001.59	2002.7
1001.885	1990.5
1002.18	2000.22
1002.475	1995.92
1002.77	1965.41
1003.065	1965.87
1003.359	1965.87
1003.654	1908.92
1003.949	1902.14
1004.243	1917.96
1004.538	1898.52
1004.832	1910.95
1005.127	1882.03
1005.421	1884.51
1005.715	1844.74
1006.009	1817.62
1006.304	1834.34
1006.598	1796.38
1006.892	1828.47
1007.186	1826.44
1007.48	1806.32
1007.773	1773.56
1008.067	1811.29
1008.361	1774.23
1008.655	1752.76
1008.948	1744.18
1009.242	1748.02
1009.535	1747.34
1009.829	1724.97
1010.122	1734.23
1010.415	1713.44
1010.708	1712.09
1011.001	1701.24
1011.295	1649.49
1011.588	1678.42
1011.881	1643.39
1012.173	1644.97
1012.466	1630.06
1012.759	1640.23
1013.052	1644.29
1013.344	1615.82
1013.637	1612.43
1013.93	1591.86
1014.222	1586.22
1014.514	1586.67
1014.807	1573.79
1015.099	1529.49
1015.391	1567.23
1015.683	1517.29
1015.976	1498.76
1016.268	1510.74
1016.56	1489.95
1016.851	1470.29
1017.143	1499.89
1017.435	1484.75
1017.727	1447.01
1018.018	1478.65
1018.31	1463.05
1018.602	1452.21
1018.893	1413.79
1019.185	1429.16
1019.476	1447.91
1019.767	1412.21
1020.058	1421.25
1020.35	1387.58
1020.641	1408.14
1020.932	1363.62
1021.223	1357.75
1021.514	1388.25
1021.804	1354.13
1022.095	1354.13
1022.386	1327.01
1022.677	1296.28
1022.967	1310.97
1023.258	1300.35
1023.548	1278.65
1023.839	1305.54
1024.129	1300.57
1024.419	1251.08
1024.709	1288.6
1025	1242.27
1025.29	1230.52
1025.58	1252.44
1025.87	1226
1026.16	1231.87
1026.449	1243.63
1026.739	1233.68
1027.029	1201.37
1027.319	1211.08
1027.608	1204.08
1027.898	1192.78
1028.187	1182.38
1028.477	1159.33
1028.766	1163.63
1029.055	1131.76
1029.344	1125.21
1029.634	1154.36
1029.923	1140.35
1030.212	1108.71
1030.501	1131.99
1030.79	1109.17
1031.078	1099.45
1031.367	1072.1
1031.656	1096.28
1031.945	1084.76
1032.233	1073.46
1032.522	1073.91
1032.81	1056.06
1033.099	1057.19
1033.387	1057.42
1033.675	1051.77
1033.963	1028.04
1034.251	1043.18
1034.54	1007.7
1034.828	1021.94
1035.116	1016.29
1035.403	1005.21
1035.691	960.7
1035.979	996.4
1036.267	983.52
1036.554	1015.83
1036.842	945.78
1037.129	961.82
1037.417	968.83
1037.704	924.99
1037.992	967.93
1038.279	939.9
1038.566	928.38
1038.853	928.38
1039.14	928.38
