Data from hue_28_FLMS001491_00037.txt Node
Date: Tue Feb 07 17:17:12 GMT 2017
User: dcchb
Spectrometer: FLMS00149
Trigger mode: 0
Integration Time (sec): 2.000000E-2
Scans to average: 10
Electric dark correction enabled: true
Nonlinearity correction enabled: false
Boxcar width: 0
XAxis mode: Wavelengths
Number of Pixels in Spectrum: 2048
>>>>>Begin Spectral Data<<<<<
341.393	-20.34
341.776	-20.34
342.16	-20.34
342.543	-80.45
342.927	-59.43
343.31	-77.74
343.693	-60.34
344.077	-76.61
344.46	-67.57
344.843	-48.81
345.226	-35.25
345.61	-42.94
345.993	-21.92
346.376	9.49
346.759	8.59
347.142	21.24
347.525	44.07
347.908	47.46
348.291	81.58
348.674	119.32
349.057	99.43
349.44	125.65
349.823	155.48
350.206	182.59
350.588	190.73
350.971	218.3
351.354	230.73
351.737	241.8
352.119	266.43
352.502	251.74
352.884	279.09
353.267	289.03
353.65	289.94
354.032	309.82
354.414	327
354.797	301.91
355.179	331.29
355.562	331.97
355.944	334.23
356.326	329.48
356.709	350.05
357.091	349.14
357.473	361.12
357.855	337.84
358.238	356.6
358.62	343.04
359.002	334.91
359.384	352.99
359.766	349.6
360.148	360.67
360.53	359.99
360.912	341.91
361.294	331.52
361.676	314.57
362.057	322.48
362.439	324.06
362.821	326.32
363.203	327.9
363.584	334.68
363.966	328.58
364.348	330.16
364.729	332.65
365.111	328.58
365.493	329.93
365.874	318.64
366.256	308.24
366.637	305.3
367.019	312.31
367.4	326.09
367.781	303.72
368.163	305.75
368.544	314.57
368.925	310.73
369.306	334.91
369.688	309.82
370.069	310.73
370.45	324.51
370.831	312.08
371.212	308.69
371.593	305.53
371.974	326.55
372.355	318.64
372.736	311.4
373.117	305.3
373.498	328.13
373.879	318.86
374.26	328.58
374.641	323.16
375.021	319.31
375.402	328.58
375.783	315.7
376.163	331.06
376.544	331.52
376.925	344.62
377.305	323.38
377.686	349.6
378.066	322.93
378.447	354.79
378.827	328.13
379.208	342.14
379.588	350.5
379.968	334
380.349	324.51
380.729	330.84
381.109	323.16
381.489	344.85
381.87	332.19
382.25	332.87
382.63	322.03
383.01	336.26
383.39	340.78
383.77	349.37
384.15	351.86
384.53	354.79
384.91	345.53
385.29	357.5
385.67	337.17
386.049	359.76
386.429	350.27
386.809	357.73
387.189	367.22
387.568	362.25
387.948	364.06
388.328	352.53
388.707	366.09
389.087	357.28
389.466	374.68
389.846	378.3
390.225	349.37
390.605	378.97
390.984	360.89
391.363	353.44
391.743	370.39
392.122	368.58
392.501	350.95
392.881	364.74
393.26	369.48
393.639	375.36
394.018	381.91
394.397	358.63
394.776	383.72
395.155	376.26
395.534	353.21
395.913	393.44
396.292	383.72
396.671	383.04
397.05	392.98
397.429	377.84
397.808	372.87
398.186	374.23
398.565	391.63
398.944	384.85
399.323	394.34
399.701	391.4
400.08	390.5
400.458	395.02
400.837	411.51
401.215	391.63
401.594	398.18
401.972	408.12
402.351	385.07
402.729	409.48
403.107	410.61
403.486	409.71
403.864	400.89
404.242	420.1
404.62	410.61
404.999	414.45
405.377	412.64
405.755	418.07
406.133	429.14
406.511	415.13
406.889	419.65
407.267	422.36
407.645	425.98
408.023	441.8
408.401	435.47
408.779	424.62
409.156	435.02
409.534	432.31
409.912	440.67
410.29	444.06
410.667	441.8
411.045	442.47
411.422	450.84
411.8	444.96
412.178	462.36
412.555	456.49
412.933	467.33
413.31	458.29
413.687	472.08
414.065	458.07
414.442	472.98
414.819	479.31
415.197	477.95
415.574	481.34
415.951	490.38
416.328	470.5
416.705	494.9
417.082	506.2
417.46	496.71
417.837	504.85
418.214	498.29
418.591	494
418.967	512.08
419.344	503.04
419.721	494.9
420.098	523.38
420.475	509.82
420.852	526.77
421.228	497.39
421.605	532.87
421.982	547.1
422.358	523.6
422.735	529.93
423.111	533.77
423.488	556.82
423.864	524.51
424.241	556.14
424.617	554.34
424.994	552.75
425.37	541
425.746	572.19
426.123	548.69
426.499	571.96
426.875	566.31
427.251	564.5
427.627	566.54
428.003	579.42
428.379	598.85
428.756	578.52
429.132	569.7
429.507	598.18
429.883	614.67
430.259	608.8
430.635	607.89
431.011	613.54
431.387	619.87
431.763	609.48
432.138	625.52
432.514	635.69
432.89	648.34
433.265	639.31
433.641	649.25
434.016	655.58
434.392	649.02
434.767	684.95
435.143	658.51
435.518	672.98
435.894	688.34
436.269	681.11
436.644	686.99
437.02	692.19
437.395	695.8
437.77	687.67
438.145	695.12
438.52	721.56
438.895	730.6
439.271	725.63
439.646	720.66
440.021	732.86
440.395	734.67
440.77	719.98
441.145	721.34
441.52	755.46
441.895	737.61
442.27	755.69
442.645	757.72
443.019	764.27
443.394	757.72
443.769	757.49
444.143	744.61
444.518	778.28
444.892	770.15
445.267	793.43
445.641	783.03
446.016	770.38
446.39	793.88
446.764	805.85
447.139	792.3
447.513	802.46
447.887	810.83
448.262	780.54
448.636	806.31
449.01	826.87
449.384	825.97
449.758	843.37
450.132	815.8
450.506	822.58
450.88	824.84
451.254	842.01
451.628	843.59
452.002	858.51
452.376	844.05
452.75	892.41
453.123	875.01
453.497	918.85
453.871	876.14
454.244	882.46
454.618	910.26
454.992	909.58
455.365	912.74
455.739	937.83
456.112	959.07
456.486	978.51
456.859	948
457.232	952.97
457.606	968.34
457.979	969.92
458.352	996.36
458.725	1005.4
459.099	997.04
459.472	1014.66
459.845	1044.72
460.218	1029.8
460.591	1023.48
460.964	1059.86
461.337	1072.29
461.71	1099.41
462.083	1120.42
462.456	1108.9
462.829	1105.96
463.201	1118.16
463.574	1111.84
463.947	1141.21
464.32	1170.36
464.692	1146.86
465.065	1167.65
465.438	1179.86
465.81	1217.37
466.183	1215.56
466.555	1226.63
466.928	1232.96
467.3	1265.96
467.672	1264.37
468.045	1303.02
468.417	1286.07
468.789	1311.38
469.161	1339.4
469.534	1354.54
469.906	1388.89
470.278	1392.05
470.65	1403.35
471.022	1438.83
471.394	1429.11
471.766	1460.53
472.138	1478.38
472.51	1494.88
472.882	1550.92
473.253	1554.54
473.625	1574.2
473.997	1580.98
474.369	1615.78
474.74	1644.93
475.112	1658.49
475.484	1703.68
475.855	1758.82
476.227	1745.94
476.598	1801.31
476.97	1804.7
477.341	1825.71
477.713	1883.11
478.084	1922.89
478.455	1976.22
478.827	1971.02
479.198	2027.29
479.569	2050.57
479.94	2097.8
480.311	2172.82
480.682	2181.86
481.053	2231.81
481.424	2271.8
481.795	2331.92
482.166	2349.09
482.537	2351.8
482.908	2427.28
483.279	2481.06
483.65	2491.01
484.021	2617.78
484.391	2636.09
484.762	2667.05
485.133	2722.87
485.503	2706.14
485.874	2839.7
486.244	2878.34
486.615	2949.08
486.985	2938
487.356	3029.52
487.726	3089.86
488.097	3126.92
488.467	3128.05
488.837	3246.69
489.207	3261.61
489.578	3314.26
489.948	3357.65
490.318	3425.22
490.688	3448.04
491.058	3549.29
491.428	3608.49
491.798	3626.57
492.168	3727.59
492.538	3820.46
492.908	3801.26
493.278	3820.69
493.648	3841.25
494.017	3939.78
494.387	4017.07
494.757	3993.34
495.126	4050.74
495.496	4092.77
495.866	4116.28
496.235	4181.58
496.605	4283.73
496.974	4268.36
497.344	4321.69
497.713	4366.89
498.082	4434.46
498.452	4455.48
498.821	4478.53
499.19	4525.08
499.559	4545.19
499.928	4554.91
500.298	4621.57
500.667	4665.19
501.036	4669.93
501.405	4786.77
501.774	4736.15
502.143	4766.65
502.512	4762.59
502.88	4851.17
503.249	4902.24
503.618	4892.75
503.987	4954.45
504.356	4920.77
504.724	4969.13
505.093	4974.56
505.462	5064.73
505.83	5084.61
506.199	5102.92
506.567	5151.5
506.936	5104.95
507.304	5171.16
507.672	5257.49
508.041	5304.72
508.409	5251.16
508.777	5353.76
509.145	5403.02
509.514	5355.57
509.882	5424.04
510.25	5444.83
510.618	5462.23
510.986	5469.91
511.354	5520.31
511.722	5568.22
512.09	5643.02
512.458	5576.35
512.826	5602.56
513.193	5675.11
513.561	5653.86
513.929	5705.39
514.297	5745.39
514.664	5796.91
515.032	5793.29
515.4	5846.63
515.767	5879.39
516.135	5923.01
516.502	5869.22
516.869	5968.2
517.237	5951.26
517.604	5971.37
517.972	5985.61
518.339	6039.84
518.706	6040.97
519.073	6026.28
519.44	6106.51
519.808	6145.6
520.175	6090.24
520.542	6263.79
520.909	6199.61
521.276	6185.15
521.643	6227.41
522.009	6314.18
522.376	6324.58
522.743	6347.18
523.11	6449.77
523.477	6458.59
523.843	6455.2
524.21	6527.74
524.577	6578.81
524.943	6589.88
525.31	6601.18
525.676	6616.32
526.043	6716.43
526.409	6667.85
526.776	6714.4
527.142	6776.77
527.508	6832.14
527.874	6864.23
528.241	6923.89
528.607	6963.88
528.973	7024.22
529.339	6975.64
529.705	7086.59
530.071	7099.7
530.437	7126.82
530.803	7203.43
531.169	7223.76
531.535	7219.02
531.901	7180.38
532.267	7303.99
532.632	7312.35
532.998	7411.78
533.364	7360.94
533.73	7419.47
534.095	7513.47
534.461	7457.66
534.826	7547.82
535.192	7579.24
535.557	7595.05
535.923	7561.61
536.288	7626.24
536.653	7682.74
537.019	7644.54
537.384	7681.83
537.749	7745.11
538.114	7808.16
538.479	7774.94
538.845	7897.42
539.21	7883.41
539.575	7865.56
539.94	7899.91
540.305	7962.95
540.67	7996.85
541.034	7964.54
541.399	8041.37
541.764	8059.9
542.129	8113.23
542.494	8037.75
542.858	8181.93
543.223	8169.95
543.587	8164.31
543.952	8244.08
544.316	8284.08
544.681	8315.71
545.045	8296.96
545.41	8444.98
545.774	8418.76
546.138	8449.04
546.503	8426.9
546.867	8449.95
547.231	8532.88
547.595	8647.23
547.959	8629.6
548.324	8676.83
548.688	8663.05
549.052	8677.29
549.416	8740.79
549.779	8720.9
550.143	8779.43
550.507	8778.53
550.871	8809.26
551.235	8861.91
551.599	8885.64
551.962	8871.86
552.326	8978.07
552.689	9038.41
553.053	8963.83
553.417	9023.94
553.78	9052.87
554.143	9035.02
554.507	9115.24
554.87	9161.34
555.234	9253.77
555.597	9182.81
555.96	9209.93
556.323	9234.79
556.686	9343.03
557.05	9342.81
557.413	9345.52
557.776	9411.73
558.139	9423.48
558.502	9423.71
558.865	9436.36
559.228	9548
559.59	9597.49
559.953	9548
560.316	9711.38
560.679	9704.15
561.041	9695.34
561.404	9745.96
561.767	9842.45
562.129	9757.71
562.492	9951.38
562.854	9893.98
563.217	9848.78
563.579	9898.27
563.941	9948.89
564.304	10053.07
564.666	10065.95
565.028	9997.48
565.39	10161.09
565.753	10112.73
566.115	10197.92
566.477	10238.83
566.839	10244.48
567.201	10251.71
567.563	10364.25
567.925	10411.93
568.287	10355.66
568.648	10415.09
569.01	10482.89
569.372	10617.8
569.734	10556.11
570.095	10628.42
570.457	10620.51
570.819	10766.72
571.18	10688.76
571.542	10818.02
571.903	10817.12
572.265	10865.7
572.626	10881.07
572.987	10980.28
573.349	11011.24
573.71	11092.82
574.071	11113.15
574.432	11231.34
574.794	11318.8
575.155	11332.58
575.516	11368.97
575.877	11514.95
576.238	11573.48
576.599	11651.9
576.96	11618.68
577.32	11752.01
577.681	11830.65
578.042	11876.3
578.403	12015.96
578.763	12134.82
579.124	12224.54
579.485	12367.58
579.845	12465.43
580.206	12538.2
580.566	12706.78
580.927	12888.25
581.287	12874.24
581.648	13033.56
582.008	13339.76
582.368	13370.5
582.728	13500.66
583.089	13700.2
583.449	13817.72
583.809	14012.29
584.169	14193.07
584.529	14322.34
584.889	14595.55
585.249	14641.87
585.609	14830.57
585.969	15123.67
586.329	15333.38
586.688	15596.88
587.048	15742.18
587.408	15991.9
587.768	16250.65
588.127	16437.53
588.487	16626.68
588.846	17074.58
589.206	17216.04
589.565	17406.1
589.925	17802.92
590.284	18010.83
590.643	18216.7
591.003	18609.91
591.362	18869.33
591.721	19053.96
592.08	19316.33
592.44	19698.24
592.799	19940.49
593.158	20198.34
593.517	20472.46
593.876	20737.76
594.235	21025.44
594.593	21433.33
594.952	21733.44
595.311	22044.17
595.67	22283.03
596.029	22792.4
596.387	23045.5
596.746	23327.75
597.104	23574.3
597.463	23693.61
597.822	24133.83
598.18	24429.87
598.538	24660.37
598.897	25101.49
599.255	25219
599.613	25824.18
599.972	25831.19
600.33	26320.21
600.688	26439.3
601.046	26771.05
601.404	27177.14
601.762	27428.43
602.12	27731.7
602.478	28085.59
602.836	28324.68
603.194	28462.98
603.552	28737.78
603.91	28976.87
604.268	29298.89
604.625	29470.19
604.983	29852.32
605.341	29968.03
605.698	30399.43
606.056	30706.54
606.413	30876.48
606.771	31238.95
607.128	31468.55
607.485	31482.11
607.843	31692.05
608.2	32167.97
608.557	32362.99
608.914	32471.24
609.272	32861.06
609.629	33103.99
609.986	33381.95
610.343	33521.38
610.7	33862.16
611.057	34017.18
611.414	34314.58
611.771	34343.05
612.127	34683.61
612.484	34800.21
612.841	35151.62
613.198	35241.33
613.554	35353.19
613.911	35839.96
614.267	35813.75
614.624	35953.63
614.98	36175.77
615.337	36530.11
615.693	36509.55
616.05	36643.33
616.406	37032.7
616.762	36893.04
617.118	37185.69
617.475	37320.37
617.831	37574.61
618.187	37688.95
618.543	37858.67
618.899	38247.81
619.255	38282.84
619.611	38245.32
619.967	38401.02
620.323	38613.9
620.678	38540
621.034	38591.08
621.39	38666.33
621.746	38700.9
622.101	39264.73
622.457	39002.59
622.812	39189.93
623.168	39500.43
623.523	39519.86
623.879	39699.97
624.234	39577.26
624.589	39661.1
624.945	39787.88
625.3	39925.05
625.655	39955.56
626.01	39973.41
626.365	40149.9
626.72	40150.58
627.075	40180.19
627.43	40279.84
627.785	40308.09
628.14	40345.83
628.495	40526.84
628.85	40518.03
629.205	40436
629.559	40613.17
629.914	40576.33
630.269	40632.15
630.623	40599.16
630.978	40654.98
631.332	40923.44
631.687	40970
632.041	40761.41
632.396	40885.93
632.75	40896.33
633.104	41046.83
633.459	40910.34
633.813	40901.75
634.167	40867.4
634.521	40936.1
634.875	41088.41
635.229	40916.66
635.583	40809.1
635.937	40905.82
636.291	40895.42
636.645	40992.14
636.999	40899.49
637.352	41049.32
637.706	40620.85
638.06	40991.01
638.413	41033.5
638.767	40906.5
639.121	40956.89
639.474	40668.08
639.828	40725.93
640.181	40870.34
640.534	40811.13
640.888	40710.12
641.241	40594.19
641.594	40893.84
641.947	40862.2
642.301	40657.91
642.654	40903.78
643.007	40689.1
643.36	40732.04
643.713	40733.39
644.066	40864.01
644.419	40578.37
644.771	40349.22
645.124	40049.34
645.477	40085.5
645.83	39753.31
646.182	39607.55
646.535	39641.9
646.888	39708.56
647.24	39459.98
647.593	39848.22
647.945	39662.91
648.298	39539.98
648.65	39422.69
649.002	39290.72
649.355	39544.27
649.707	39555.8
650.059	39612.07
650.411	39978.61
650.763	40125.05
651.115	40539.5
651.467	40295.44
651.819	40308.09
652.171	40318.94
652.523	40287.3
652.875	40245.5
653.227	40084.6
653.578	40391.48
653.93	40306.51
654.282	40168.66
654.633	40091.15
654.985	40248.21
655.337	40148.32
655.688	40265.61
656.039	40188.32
656.391	39966.18
656.742	40084.6
657.094	40052.51
657.445	40304.7
657.796	40112.84
658.147	40104.71
658.498	40026.29
658.849	40090.7
659.2	40112.84
659.551	39960.08
659.902	40131.37
660.253	40114.65
660.604	40119.85
660.955	39889.35
661.306	40020.87
661.656	39950.14
662.007	40014.32
662.358	40024.03
662.708	39983.58
663.059	39971.83
663.409	39848.9
663.76	40055.22
664.11	39877.82
664.461	39927.31
664.811	40072.39
665.161	39874.66
665.511	39880.76
665.862	40035.33
666.212	40032.39
666.562	40031.49
666.912	39954.2
667.262	39799.86
667.612	39847.99
667.962	40047.31
668.312	39959.4
668.662	40061.09
669.011	40034.43
669.361	39774.1
669.711	39890.25
670.06	39850.25
670.41	39673.08
670.76	39849.8
671.109	39924.6
671.459	39717.15
671.808	39731.84
672.157	39812.06
672.507	39602.57
672.856	39606.64
673.205	39719.63
673.554	39825.39
673.904	39647.77
674.253	39791.72
674.602	39690.93
674.951	39186.99
675.3	38914.23
675.649	39538.4
675.998	39540.2
676.346	39492.52
676.695	39553.54
677.044	39443.48
677.393	39391.96
677.741	39583.37
678.09	39377.72
678.438	39311.28
678.787	39365.07
679.135	39478.51
679.484	39154.68
679.832	39179.99
680.181	39028.35
680.529	39143.83
680.877	39017.51
681.225	39046.66
681.573	39271.74
681.922	39001.23
682.27	38910.84
682.618	38904.97
682.966	38842.59
683.314	38785.19
683.661	38768.92
684.009	38585.43
684.357	38538.42
684.705	38582.49
685.053	38511.76
685.4	38483.51
685.748	38297.07
686.095	38355.38
686.443	38215.04
686.79	38196.06
687.138	38097.76
687.485	38243.29
687.832	38063.63
688.18	38075.83
688.527	37717.65
688.874	37787.26
689.221	37831.77
689.568	37644.66
689.915	37594.72
690.262	37622.29
690.609	37583.19
690.956	37354.95
691.303	37431.33
691.65	37180.94
691.997	37213.03
692.344	36936.66
692.69	36968.97
693.037	37058.23
693.383	36682.2
693.73	36828.41
694.077	36669.32
694.423	36567.4
694.769	36563.56
695.116	36640.17
695.462	36414.41
695.808	36182.33
696.155	36425.71
696.501	36080.63
696.847	36031.14
697.193	35706.86
697.539	36018.04
697.885	35617.82
698.231	35632.51
698.577	35562.68
698.923	35538.73
699.269	35309.81
699.614	35202.24
699.96	35085.41
700.306	35228
700.651	35211.05
700.997	34884.96
701.342	35022.36
701.688	34714.79
702.033	34671.18
702.379	34743.49
702.724	34590.95
703.069	34725.19
703.415	34256.05
703.76	34338.31
704.105	34304.86
704.45	34254.24
704.795	34151.19
705.14	33910.29
705.485	33928.37
705.83	33690.64
706.175	33791.88
706.52	33740.58
706.865	33608.16
707.209	33560.47
707.554	33453.13
707.899	33491.55
708.243	33254.49
708.588	33292.46
708.932	33098.34
709.277	33016.08
709.621	33110.99
709.966	32772.92
710.31	32917.55
710.654	32638.46
710.998	32725.69
711.342	32682.98
711.687	32635.53
712.031	32550.1
712.375	32484.12
712.719	32494.96
713.063	32369.32
713.407	32395.08
713.75	32237.8
714.094	32299.94
714.438	32033.28
714.782	32169.1
715.125	32037.12
715.469	32031.25
715.812	31827.41
716.156	31651.82
716.499	31744.7
716.843	31678.04
717.186	31501.32
717.53	31671.94
717.873	31672.39
718.216	31557.36
718.559	31330.48
718.902	31248.9
719.246	31262.23
719.589	31225.62
719.932	31067.21
720.275	31140.88
720.617	30977.72
720.96	31054.55
721.303	30962.35
721.646	31071.5
721.989	30780.89
722.331	30931.16
722.674	30819.75
723.016	30915.57
723.359	30808.23
723.701	30784.95
724.044	30636.03
724.386	30421.12
724.729	30567.78
725.071	30514.45
725.413	30488.92
725.755	30339.09
726.097	30319.43
726.439	30142.03
726.782	30278.07
727.124	30283.5
727.465	30095.93
727.807	30130.96
728.149	29998.53
728.491	30004.63
728.833	29938.65
729.175	29902.72
729.516	29836.28
729.858	29770.52
730.199	29947.69
730.541	29848.71
730.882	29628.15
731.224	29810.74
731.565	29457.98
731.906	29670.86
732.248	29532.1
732.589	29375.95
732.93	29350.19
733.271	29367.36
733.612	29388.38
733.953	29413.69
734.294	29363.3
734.635	29156.07
734.976	29387.7
735.317	29064.77
735.658	29001.95
735.999	29085.34
736.339	29038.11
736.68	29110.65
737.021	28953.14
737.361	28780.71
737.702	28992.46
738.042	28887.6
738.383	28837.66
738.723	28886.02
739.063	28615.97
739.404	28780.03
739.744	28664.33
740.084	28491.68
740.424	28672.92
740.764	28487.61
741.104	28595.18
741.444	28467.73
741.784	28358.58
742.124	28457.56
742.464	28341.63
742.804	28335.75
743.143	28290.33
743.483	28275.41
743.823	28092.37
744.162	28164.01
744.502	28231.35
744.841	28060.05
745.181	28111.13
745.52	28014.18
745.86	28072.93
746.199	27872.04
746.538	28045.82
746.877	27931.24
747.216	27990.45
747.556	27874.52
747.895	27908.42
748.234	27702.32
748.573	27723.11
748.911	27790.46
749.25	27688.99
749.589	27587.3
749.928	27665.71
750.267	27673.62
750.605	27546.85
750.944	27432.27
751.283	27352.73
751.621	27391.6
751.96	27232.05
752.298	27289
752.636	27334.42
752.975	27166.52
753.313	27003.81
753.651	27108.89
753.989	27010.36
754.327	27036.8
754.666	26940.31
755.004	26922.23
755.342	26889.46
755.679	26810.82
756.017	26703.48
756.355	26806.53
756.693	26653.99
757.031	26588.45
757.368	26524.95
757.706	26480.66
758.044	26425.75
758.381	26348.91
758.719	26432.3
759.056	26427.55
759.394	26213.1
759.731	26035.02
760.068	26018.07
760.405	25915.25
760.743	25901.69
761.08	26058.52
761.417	25685.88
761.754	25760.23
762.091	25788.7
762.428	25667.12
762.765	25615.6
763.102	25548.03
763.438	25394.13
763.775	25327.92
764.112	25359.79
764.449	25295.83
764.785	25114.82
765.122	25043.18
765.458	25016.29
765.795	24992.56
766.131	24797.09
766.467	24697.66
766.804	24598.45
767.14	24525
767.476	24514.16
767.812	24435.97
768.148	24438.23
768.485	24280.27
768.821	24170.89
769.157	24078.46
769.492	24007.05
769.828	23932.7
770.164	23752.6
770.5	23764.12
770.836	23744.01
771.171	23624.92
771.507	23486.16
771.842	23306.73
772.178	23463.56
772.513	23241.65
772.849	23299.5
773.184	23132.27
773.519	23183.8
773.855	23112.16
774.19	22954.42
774.525	22877.59
774.86	22818.84
775.195	22795.56
775.53	22630.37
775.865	22570.93
776.2	22412.74
776.535	22297.27
776.87	22276.7
777.205	22226.31
777.539	22112.86
777.874	22042.58
778.209	21936.37
778.543	21880.78
778.878	21746.77
779.212	21783.16
779.547	21709.26
779.881	21707
780.215	21548.81
780.55	21648.7
780.884	21399.21
781.218	21332.09
781.552	21394.01
781.886	21256.62
782.22	21122.16
782.554	21097.07
782.888	20911.99
783.222	20853.01
783.556	20803.52
783.889	20710.42
784.223	20476.75
784.557	20453.93
784.89	20480.37
785.224	20400.37
785.557	20331.89
785.891	20240.15
786.224	20168.28
786.558	20195.63
786.891	19952.24
787.224	19921.74
787.557	19823.43
787.891	19829.54
788.224	19824.56
788.557	19744.79
788.89	19657.56
789.223	19627.73
789.556	19426.61
789.888	19414.63
790.221	19402.2
790.554	19277.91
790.887	19264.35
791.219	19134.86
791.552	19095.32
791.884	19013.06
792.217	18886.74
792.549	18934.64
792.882	18766.96
793.214	18740.07
793.546	18728.77
793.879	18504.6
794.211	18469.12
794.543	18609.91
794.875	18443.58
795.207	18545.28
795.539	18353.87
795.871	18326.75
796.203	18224.38
796.535	18203.59
796.867	18118.39
797.198	18179.63
797.53	18036.59
797.862	17867.1
798.193	17972.18
798.525	17829.81
798.856	17830.94
799.188	17650.16
799.519	17587.33
799.85	17434.34
800.182	17551.85
800.513	17415.81
800.844	17351.18
801.175	17430.73
801.506	17483.61
801.837	17299.43
802.168	17270.51
802.499	17177.18
802.83	17141.92
803.161	17061.47
803.491	17073
803.822	17061.92
804.153	16958.65
804.483	16757.07
804.814	16682.27
805.145	16671.2
805.475	16722.72
805.805	16690.86
806.136	16666.68
806.466	16612.67
806.796	16537.64
807.126	16428.27
807.457	16442.73
807.787	16409.29
808.117	16376.97
808.447	16297.42
808.777	16313.7
809.107	16201.83
809.436	16137.2
809.766	16014.04
810.096	16055.4
810.426	16020.14
810.755	15918.9
811.085	15956.64
811.414	15941.95
811.744	15761.39
812.073	15773.6
812.403	15754.61
812.732	15718
813.061	15631.23
813.39	15650.21
813.719	15587.16
814.049	15575.64
814.378	15613.37
814.707	15499.71
815.036	15410.67
815.365	15373.83
815.693	15239.15
816.022	15305.59
816.351	15243.22
816.68	15057.46
817.008	15143.1
817.337	15096.1
817.665	15049.55
817.994	15123.9
818.322	15047.97
818.651	15026.05
818.979	14903.79
819.307	15022.43
819.636	14938.59
819.964	14790.57
820.292	14885.94
820.62	14838.93
820.948	14755.54
821.276	14816.33
821.604	14734.3
821.932	14818.82
822.259	14721.42
822.587	14753.96
822.915	14784.47
823.243	14756.9
823.57	14663.12
823.898	14720.97
824.225	14635.77
824.553	14613.63
824.88	14696.34
825.207	14652.04
825.535	14769.56
825.862	14747.63
826.189	14691.59
826.516	14717.13
826.843	14708.09
827.17	14706.28
827.497	14691.59
827.824	14738.37
828.151	14761.42
828.478	14665.83
828.805	14784.02
829.131	14617.02
829.458	14648.2
829.785	14622.67
830.111	14647.75
830.438	14692.72
830.764	14639.62
831.09	14699.05
831.417	14562.78
831.743	14703.12
832.069	14624.02
832.395	14527.98
832.722	14560.07
833.048	14554.87
833.374	14530.01
833.7	14467.42
834.026	14469
834.351	14505.16
834.677	14550.8
835.003	14527.08
835.329	14508.09
835.654	14436.68
835.98	14390.58
836.306	14405.27
836.631	14325.05
836.956	14388.32
837.282	14388.77
837.607	14299.51
837.932	14324.82
838.258	14265.61
838.583	14175.22
838.908	14113.75
839.233	14162.79
839.558	14190.36
839.883	14140.42
840.208	14131.15
840.533	14103.36
840.858	13980.65
841.182	14020.42
841.507	14079.63
841.832	13975
842.156	13902.69
842.481	13871.5
842.805	13921.67
843.13	13794.44
843.454	13813.65
843.778	13760.09
844.103	13808
844.427	13706.53
844.751	13698.85
845.075	13733.65
845.399	13623.37
845.723	13568
846.047	13626.76
846.371	13490.94
846.695	13392.42
847.019	13360.55
847.343	13273.32
847.666	13224.29
847.99	13265.41
848.313	13210.5
848.637	13114.91
848.96	13076.04
849.284	13090.5
849.607	12948.13
849.931	12960.56
850.254	12789.04
850.577	12801.02
850.9	12698.65
851.223	12678.99
851.546	12680.8
851.869	12555.83
852.192	12594.25
852.515	12572.32
852.838	12478.99
853.161	12407.13
853.483	12330.52
853.806	12361.48
854.129	12170.53
854.451	12177.53
854.774	12170.53
855.096	12151.32
855.419	12026.8
855.741	12078.78
856.063	11979.35
856.385	11957.43
856.708	12045.33
857.03	11887.82
857.352	11939.12
857.674	11869.29
857.996	11778.45
858.318	11708.84
858.64	11803.08
858.961	11672.01
859.283	11725.12
859.605	11620.49
859.926	11632.24
860.248	11555.85
860.57	11592.01
860.891	11552.24
861.212	11501.84
861.534	11492.81
861.855	11450.77
862.176	11456.65
862.498	11392.92
862.819	11371
863.14	11303.43
863.461	11315.63
863.782	11305.47
864.103	11295.75
864.424	11260.49
864.745	11237.44
865.065	11191.57
865.386	11119.48
865.707	11185.47
866.027	11176.88
866.348	11069.54
866.668	11093.04
866.989	11113.38
867.309	10985.25
867.63	11069.09
867.95	11033.38
868.27	11050.78
868.59	10987.51
868.91	10933.27
869.23	11008.07
869.55	10964.68
869.87	10991.58
870.19	10974.63
870.51	10911.35
870.83	10917.68
871.15	10814.63
871.469	10878.81
871.789	10851.92
872.109	10874.97
872.428	10707.06
872.748	10820.51
873.067	10810.79
873.386	10794.52
873.706	10795.42
874.025	10734.86
874.344	10629.55
874.663	10719.72
874.982	10608.08
875.301	10640.17
875.62	10601.53
875.939	10532.83
876.258	10571.25
876.577	10574.41
876.896	10543.9
877.214	10498.26
877.533	10522.21
877.852	10543.23
878.17	10468.88
878.489	10483.79
878.807	10452.83
879.125	10410.8
879.444	10364.02
879.762	10352.95
880.08	10361.76
880.398	10276.57
880.716	10301.88
881.034	10274.53
881.352	10308.43
881.67	10219.62
881.988	10231.37
882.306	10176.23
882.624	10182.56
882.941	10168.09
883.259	10069.11
883.577	10097.81
883.894	10103.01
884.212	10079.06
884.529	10032.96
884.846	10110.69
885.164	9963.58
885.481	9931.94
885.798	10021.43
886.115	9852.17
886.432	9893.53
886.75	9894.88
887.067	9836.8
887.383	9831.38
887.7	9822.57
888.017	9774.66
888.334	9802.45
888.651	9782.79
888.967	9679.52
889.284	9675.45
889.6	9694.66
889.917	9610.14
890.233	9616.02
890.55	9548.45
890.866	9577.15
891.182	9576.7
891.498	9504.61
891.815	9427.55
892.131	9477.04
892.447	9373.99
892.763	9390.26
893.079	9378.96
893.395	9264.39
893.71	9282.92
894.026	9255.8
894.342	9291.28
894.657	9178.97
894.973	9217.16
895.289	9153.21
895.604	9142.81
895.92	9107.78
896.235	8960.67
896.55	9019.88
896.865	9004.28
897.181	8992.98
897.496	9044.96
897.811	8925.87
898.126	8921.8
898.441	8838.19
898.756	8778.53
899.071	8757.96
899.386	8797.06
899.7	8682.48
900.015	8694.01
900.33	8612.88
900.644	8603.39
900.959	8623.28
901.273	8581.24
901.588	8543.96
901.902	8522.49
902.216	8396.84
902.531	8458.53
902.845	8435.48
903.159	8353.23
903.473	8374.02
903.787	8331.53
904.101	8299.67
904.415	8284.3
904.729	8212.44
905.042	8147.81
905.356	8197.98
905.67	8196.39
905.984	8182.61
906.297	8075.27
906.611	8088.15
906.924	8064.65
907.237	8072.78
907.551	7968.15
907.864	7949.4
908.177	7906.68
908.491	7938.55
908.804	7866.01
909.117	7829.85
909.43	7774.26
909.743	7742.4
910.056	7750.53
910.368	7696.07
910.681	7649.97
910.994	7691.32
911.307	7652.91
911.619	7563.87
911.932	7596.18
912.244	7517.54
912.557	7477.09
912.869	7502.18
913.181	7407.04
913.494	7332.46
913.806	7386.47
914.118	7328.39
914.43	7271.45
914.742	7247.72
915.054	7191
915.366	7154.84
915.678	7210.88
915.99	7182.64
916.302	7091.11
916.613	7105.58
916.925	7042.75
917.236	7055.63
917.548	7016.99
917.859	7010.89
918.171	6958.24
918.482	6920.27
918.794	6869.65
919.105	6845.24
919.416	6804.34
919.727	6808.41
920.038	6724.12
920.349	6753.27
920.66	6711.24
920.971	6654.29
921.282	6745.59
921.593	6585.59
921.903	6605.48
922.214	6532.71
922.525	6534.29
922.835	6517.57
923.146	6447.29
923.456	6414.29
923.767	6428.08
924.077	6417.23
924.387	6365.93
924.697	6340.85
925.008	6379.27
925.318	6272.83
925.628	6224.7
925.938	6243.45
926.248	6175.43
926.558	6196.67
926.867	6156.67
927.177	6149.89
927.487	6083
927.796	6050.24
928.106	6064.02
928.416	6049.11
928.725	6017.47
929.034	5976.34
929.344	6033.97
929.653	5943.57
929.962	5883.24
930.271	5865.83
930.581	5811.82
930.89	5836.46
931.199	5822.67
931.508	5758.94
931.817	5812.28
932.125	5740.87
932.434	5683.92
932.743	5631.26
933.051	5614.54
933.36	5595.79
933.669	5580.42
933.977	5577.93
934.286	5553.53
934.594	5511.95
934.902	5476.47
935.21	5443.02
935.519	5433.76
935.827	5440.31
936.135	5434.21
936.443	5347.43
936.751	5334.55
937.059	5358.96
937.367	5328.9
937.674	5302.69
937.982	5264.72
938.29	5236.47
938.597	5274.21
938.905	5208
939.213	5165.97
939.52	5153.08
939.827	5152.63
940.135	5149.7
940.442	5106.98
940.749	5061.56
941.056	5083.03
941.363	5037.38
941.67	5002.13
941.977	5022.47
942.284	5002.81
942.591	4960.77
942.898	4869.25
943.205	4888.46
943.511	4888.46
943.818	4917.16
944.125	4841
944.431	4852.98
944.738	4816.37
945.044	4799.65
945.35	4743.38
945.657	4734.56
945.963	4707.22
946.269	4733.89
946.575	4701.57
946.881	4667.9
947.187	4662.93
947.493	4643.27
947.799	4601.23
948.105	4601.01
948.41	4537.96
948.716	4502.03
949.022	4513.1
949.327	4552.87
949.633	4497.96
949.938	4465.87
950.244	4459.54
950.549	4436.49
950.854	4394.46
951.16	4375.25
951.465	4354.24
951.77	4374.8
952.075	4337.29
952.38	4269.72
952.685	4312.43
952.99	4250.28
953.294	4277.4
953.599	4205.54
953.904	4257.06
954.209	4149.5
954.513	4161.47
954.818	4177.97
955.122	4133.68
955.426	4135.26
955.731	4129.83
956.035	4059.1
956.339	4077.63
956.643	4067.92
956.948	3980.69
957.252	3987.69
957.556	3989.95
957.86	3957.64
958.163	3950.18
958.467	3961.25
958.771	3956.51
959.075	3942.5
959.378	3918.54
959.682	3901.59
959.985	3899.56
960.289	3866.34
960.592	3839.45
960.896	3778.88
961.199	3804.87
961.502	3796.96
961.805	3769.39
962.108	3723.74
962.411	3736.62
962.714	3723.74
963.017	3673.35
963.32	3705.67
963.623	3677.42
963.926	3664.08
964.228	3634.48
964.531	3656.4
964.833	3620.7
965.136	3592
965.438	3620.02
965.741	3534.37
966.043	3543.18
966.345	3515.16
966.648	3535.27
966.95	3553.58
967.252	3493.02
967.554	3479.23
967.856	3456.63
968.158	3467.03
968.46	3446.69
968.761	3400.36
969.063	3430.64
969.365	3374.37
969.666	3372.34
969.968	3292.79
970.269	3339.8
970.571	3297.31
970.872	3343.41
971.174	3285.11
971.475	3271.33
971.776	3249.63
972.077	3268.84
972.378	3236.98
972.679	3218.9
972.98	3203.08
973.281	3199.46
973.582	3201.27
973.883	3140.26
974.183	3130.31
974.484	3144.55
974.785	3133.25
975.085	3126.7
975.386	3088.51
975.686	3125.57
975.986	3063.87
976.287	3045.8
976.587	3050.77
976.887	3018
977.187	3022.29
977.487	3045.34
977.787	3020.49
978.087	2970.09
978.387	2955.63
978.687	2953.59
978.987	2911.11
979.286	2926.02
979.586	2905.01
979.885	2895.74
980.185	2851.45
980.484	2906.59
980.784	2873.6
981.083	2833.6
981.382	2846.25
981.682	2848.29
981.981	2823.43
982.28	2792.24
982.579	2810.32
982.878	2808.29
983.177	2798.8
983.475	2786.14
983.774	2731.68
984.073	2728.97
984.372	2706.6
984.67	2695.3
984.969	2682.64
985.267	2671.12
985.566	2661.85
985.864	2655.07
986.162	2663.66
986.461	2646.26
986.759	2640.83
987.057	2633.83
987.355	2573.94
987.653	2584.11
987.951	2602.19
988.249	2573.49
988.547	2544.79
988.844	2561.06
989.142	2545.02
989.44	2527.17
989.737	2495.98
990.035	2490.56
990.332	2476.55
990.63	2447.62
990.927	2451.46
991.224	2466.15
991.521	2470.67
991.819	2416.43
992.116	2415.3
992.413	2396.32
992.71	2389.77
993.006	2397.9
993.303	2410.11
993.6	2381.41
993.897	2389.54
994.193	2347.28
994.49	2340.28
994.787	2314.97
995.083	2333.95
995.379	2261.64
995.676	2274.29
995.972	2290.56
996.268	2297.34
996.565	2246.49
996.861	2235.42
997.157	2249.43
997.453	2229.32
997.749	2210.56
998.044	2180.73
998.34	2199.49
998.636	2161.53
998.932	2160.62
999.227	2169.43
999.523	2149.32
999.818	2139.83
1000.114	2140.73
1000.409	2114.97
1000.704	2056.9
1001	2099.83
1001.295	2071.36
1001.59	2108.65
1001.885	2091.7
1002.18	2040.17
1002.475	2032.04
1002.77	2026.61
1003.065	2008.31
1003.359	1990.46
1003.654	2008.99
1003.949	1954.3
1004.243	1997.24
1004.538	1932.15
1004.832	1974.19
1005.127	1917.92
1005.421	1907.07
1005.715	1927.86
1006.009	1892.38
1006.304	1938.48
1006.598	1908.88
1006.892	1880.18
1007.186	1873.17
1007.48	1842.44
1007.773	1831.59
1008.067	1821.65
1008.361	1805.6
1008.655	1807.86
1008.948	1791.37
1009.242	1798.82
1009.535	1783.68
1009.829	1752.27
1010.122	1768.09
1010.415	1771.48
1010.708	1750.46
1011.001	1748.65
1011.295	1719.73
1011.588	1707.3
1011.881	1698.71
1012.173	1698.26
1012.466	1665.72
1012.759	1693.74
1013.052	1669.56
1013.344	1670.46
1013.637	1671.59
1013.93	1613.97
1014.222	1653.97
1014.514	1632.5
1014.807	1637.7
1015.099	1567.64
1015.391	1585.95
1015.683	1580.07
1015.976	1569.45
1016.268	1552.28
1016.56	1521.32
1016.851	1520.41
1017.143	1515.89
1017.435	1548.43
1017.727	1508.43
1018.018	1499.4
1018.31	1497.14
1018.602	1479.96
1018.893	1472.05
1019.185	1460.3
1019.476	1455.55
1019.767	1442.9
1020.058	1451.71
1020.35	1431.37
1020.641	1416.23
1020.932	1426.18
1021.223	1414.43
1021.514	1420.08
1021.804	1365.84
1022.095	1343.02
1022.386	1359.06
1022.677	1351.6
1022.967	1374.43
1023.258	1336.69
1023.548	1348.44
1023.839	1324.26
1024.129	1329.46
1024.419	1321.32
1024.709	1292.85
1025	1304.82
1025.29	1307.76
1025.58	1265.28
1025.87	1261.44
1026.16	1242.68
1026.449	1262.34
1026.739	1242.68
1027.029	1240.65
1027.319	1221.89
1027.608	1214.21
1027.898	1198.84
1028.187	1221.44
1028.477	1192.74
1028.766	1169.23
1029.055	1180.31
1029.344	1194.77
1029.634	1164.49
1029.923	1164.72
1030.212	1144.38
1030.501	1156.13
1030.79	1134.89
1031.078	1124.26
1031.367	1119.29
1031.656	1098.73
1031.945	1127.65
1032.233	1091.95
1032.522	1111.38
1032.81	1073.64
1033.099	1064.6
1033.387	1056.92
1033.675	1079.97
1033.963	1029.13
1034.251	1035.68
1034.54	1037.26
1034.828	1033.87
1035.116	1034.78
1035.403	1050.37
1035.691	1002.69
1035.979	1017.15
1036.267	1030.26
1036.554	998.62
1036.842	966.98
1037.129	981.22
1037.417	950.26
1037.704	957.04
1037.992	961.78
1038.279	972.86
1038.566	958.39
1038.853	958.39
1039.14	958.39
