Data from hue_120_FLMS001491_00085.txt Node
Date: Tue Feb 07 17:00:08 GMT 2017
User: dcchb
Spectrometer: FLMS00149
Trigger mode: 0
Integration Time (sec): 2.000000E-2
Scans to average: 10
Electric dark correction enabled: true
Nonlinearity correction enabled: false
Boxcar width: 0
XAxis mode: Wavelengths
Number of Pixels in Spectrum: 2048
>>>>>Begin Spectral Data<<<<<
341.393	-12.56
341.776	-12.56
342.16	-12.56
342.543	-68.37
342.927	-61.37
343.31	-44.65
343.693	-52.78
344.077	-68.83
344.46	-68.83
344.843	-55.49
345.226	-50.07
345.61	-23.86
345.993	-9.17
346.376	-10.07
346.759	-6.23
347.142	29.02
347.525	52.07
347.908	61.57
348.291	52.75
348.674	78.06
349.057	116.48
349.44	132.52
349.823	156.7
350.206	159.87
350.588	187.21
350.971	217.04
351.354	215.23
351.737	214.1
352.119	255.01
352.502	252.3
352.884	273.54
353.267	282.8
353.65	300.2
354.032	296.59
354.414	319.19
354.797	323.71
355.179	318.96
355.562	310.6
355.944	353.99
356.326	331.16
356.709	350.82
357.091	340.88
357.473	347.66
357.855	340.43
358.238	341.11
358.62	347.89
359.002	339.75
359.384	349.92
359.766	340.43
360.148	318.73
360.53	342.91
360.912	347.43
361.294	332.29
361.676	333.65
362.057	320.32
362.439	348.34
362.821	366.19
363.203	346.53
363.584	330.49
363.966	336.59
364.348	319.41
364.729	347.89
365.111	300.88
365.493	326.64
365.874	321.45
366.256	321.22
366.637	336.81
367.019	321.9
367.4	323.71
367.781	320.99
368.163	334.1
368.544	313.76
368.925	325.97
369.306	331.84
369.688	323.93
370.069	323.25
370.45	316.7
370.831	304.72
371.212	334.33
371.593	311.73
371.974	303.82
372.355	325.97
372.736	329.36
373.117	336.36
373.498	325.29
373.879	326.19
374.26	291.16
374.641	328.9
375.021	310.15
375.402	326.19
375.783	320.54
376.163	310.37
376.544	308.11
376.925	336.59
377.305	356.02
377.686	329.81
378.066	332.75
378.447	358.73
378.827	352.18
379.208	344.95
379.588	320.54
379.968	345.63
380.349	329.81
380.729	340.43
381.109	317.15
381.489	356.93
381.87	365.74
382.25	363.71
382.63	340.65
383.01	363.25
383.39	346.3
383.77	323.25
384.15	348.11
384.53	359.86
384.91	358.73
385.29	346.3
385.67	353.31
386.049	364.61
386.429	363.48
386.809	379.52
387.189	368.45
387.568	360.99
387.948	365.74
388.328	375.23
388.707	381.11
389.087	379.52
389.466	360.54
389.846	383.14
390.225	378.62
390.605	389.02
390.984	379.07
391.363	379.75
391.743	393.31
392.122	399.18
392.501	365.74
392.881	390.37
393.26	391.5
393.639	407.55
394.018	388.79
394.397	405.29
394.776	387.66
395.155	401.67
395.534	424.04
395.913	401.9
396.292	401.44
396.671	408.9
397.05	432.18
397.429	410.03
397.808	417.26
398.186	411.39
398.565	408.45
398.944	401.67
399.323	410.26
399.701	418.62
400.08	426.75
400.458	409.58
400.837	435.12
401.215	436.25
401.594	413.87
401.972	453.87
402.351	441.67
402.729	444.83
403.107	447.77
403.486	435.34
403.864	430.37
404.242	445.28
404.62	454.32
404.999	470.14
405.377	459.07
405.755	445.51
406.133	464.27
406.511	455.91
406.889	466.98
407.267	471.5
407.645	471.5
408.023	477.37
408.401	472.4
408.779	470.59
409.156	478.28
409.534	485.74
409.912	471.05
410.29	499.52
410.667	495.68
411.045	508.56
411.422	519.41
411.8	491.61
412.178	485.28
412.555	518.96
412.933	503.36
413.31	539.97
413.687	537.49
414.065	516.7
414.442	537.26
414.819	553.08
415.197	530.71
415.574	569.35
415.951	554.66
416.328	559.41
416.705	555.34
417.082	570.71
417.46	544.49
417.837	564.15
418.214	563.02
418.591	584.26
418.967	567.54
419.344	600.54
419.721	557.15
420.098	578.84
420.475	589.01
420.852	584.72
421.228	609.12
421.605	600.54
421.982	589.24
422.358	613.87
422.735	606.86
423.111	619.29
423.488	619.07
423.864	628.1
424.241	634.21
424.617	649.57
424.994	645.28
425.37	651.38
425.746	657.48
426.123	637.82
426.499	687.31
426.875	672.85
427.251	665.39
427.627	665.17
428.003	693.19
428.379	711.72
428.756	690.7
429.132	700.87
429.507	712.17
429.883	701.55
430.259	740.64
430.635	721.89
431.011	711.27
431.387	740.87
431.763	747.65
432.138	732.51
432.514	755.56
432.89	759.85
433.265	788.1
433.641	798.04
434.016	763.02
434.392	780.19
434.767	804.6
435.143	802.56
435.518	814.77
435.894	826.97
436.269	822
436.644	838.49
437.02	844.37
437.395	835.56
437.77	854.99
438.145	863.58
438.52	841.88
438.895	853.86
439.271	891.83
439.646	911.71
440.021	925.95
440.395	911.49
440.77	899.96
441.145	912.39
441.52	907.42
441.895	925.5
442.27	932.73
442.645	939.74
443.019	960.53
443.394	939.74
443.769	948.77
444.143	944.25
444.518	974.76
444.892	963.69
445.267	972.73
445.641	995.55
446.016	993.52
446.39	998.94
446.764	1007.3
447.139	997.59
447.513	1033.29
447.887	1012.5
448.262	1017.47
448.636	1050.47
449.01	1014.99
449.384	1049.79
449.758	1071.03
450.132	1045.5
450.506	1084.59
450.88	1068.55
451.254	1069.45
451.628	1112.39
452.002	1090.47
452.376	1134.31
452.75	1121.88
453.123	1132.05
453.497	1133.85
453.871	1171.37
454.244	1180.41
454.618	1158.71
454.992	1222.44
455.365	1209.78
455.739	1193.97
456.112	1237.13
456.486	1262.21
456.859	1286.17
457.232	1304.47
457.606	1274.64
457.979	1324.81
458.352	1338.82
458.725	1334.53
459.099	1344.24
459.472	1407.75
459.845	1393.51
460.218	1415.2
460.591	1404.81
460.964	1410.46
461.337	1462.43
461.71	1462.43
462.083	1520.51
462.456	1484.13
462.829	1508.08
463.201	1535.65
463.574	1561.87
463.947	1565.93
464.32	1589.21
464.692	1631.92
465.065	1642.32
465.438	1653.16
465.81	1694.97
466.183	1735.65
466.555	1733.61
466.928	1749.66
467.3	1763.44
467.672	1816.55
468.045	1868.07
468.417	1857
468.789	1895.64
469.161	1879.37
469.534	1946.71
469.906	1986.94
470.278	2008.63
470.65	2043.21
471.022	2080.72
471.394	2128.86
471.766	2130.44
472.138	2182.87
472.51	2240.49
472.882	2297.67
473.253	2333.37
473.625	2381.96
473.997	2449.75
474.369	2491.33
474.74	2533.14
475.112	2595.96
475.484	2626.47
475.855	2721.84
476.227	2719.8
476.598	2808.84
476.97	2844.54
477.341	2971.09
477.713	3026.46
478.084	3113.01
478.455	3173.57
478.827	3263.74
479.198	3366.34
479.569	3404.08
479.94	3508.93
480.311	3556.39
480.682	3658.99
481.053	3816.72
481.424	3909.83
481.795	3998.86
482.166	4059.2
482.537	4146.88
482.908	4292.87
483.279	4425.75
483.65	4467.55
484.021	4622.8
484.391	4738.73
484.762	4795.45
485.133	4949.12
485.503	5104.82
485.874	5243.8
486.244	5298.72
486.615	5473.63
486.985	5597.01
487.356	5772.15
487.726	5823.9
488.097	6062.76
488.467	6147.73
488.837	6313.83
489.207	6435.86
489.578	6556.99
489.948	6762.18
490.318	6853.7
490.688	6925.11
491.058	7090.08
491.428	7272.9
491.798	7425.89
492.168	7667.47
492.538	7777.97
492.908	7936.16
493.278	8143.39
493.648	8188.13
494.017	8375.25
494.387	8466.32
494.757	8594.9
495.126	8816.59
495.496	8870.37
495.866	8977.26
496.235	9159.18
496.605	9347.88
496.974	9372.73
497.344	9586.29
497.713	9709.67
498.082	9864.92
498.452	9981.76
498.821	10022.89
499.19	10083.9
499.559	10291.35
499.928	10338.13
500.298	10524.12
500.667	10704.45
501.036	10739.03
501.405	10823.54
501.774	10890.21
502.143	11013.14
502.512	11066.02
502.88	11185.12
503.249	11333.59
503.618	11467.59
503.987	11470.31
504.356	11549.85
504.724	11776.51
505.093	11761.82
505.462	11802.5
505.83	11865.55
506.199	11977.41
506.567	12221.47
506.936	12249.49
507.304	12436.38
507.672	12483.61
508.041	12543.05
508.409	12608.35
508.777	12721.8
509.145	12845.64
509.514	12847.22
509.882	12940.55
510.25	12992.75
510.618	13058.74
510.986	13146.87
511.354	13308.45
511.722	13235.46
512.09	13454.89
512.458	13368.79
512.826	13461.89
513.193	13570.59
513.561	13482.91
513.929	13662.79
514.297	13799.28
514.664	13809.23
515.032	13866.85
515.4	13903.01
515.767	14008.09
516.135	14004.25
516.502	13866.85
516.869	14150.91
517.237	14130.35
517.604	14162.89
517.972	14219.16
518.339	14307.07
518.706	14357.91
519.073	14291.25
519.44	14375.31
519.808	14481.75
520.175	14561.07
520.542	14552.48
520.909	14674.29
521.276	14604.23
521.643	14789.31
522.009	14828.64
522.376	14828.41
522.743	14915.19
523.11	14937.11
523.477	14971.91
523.843	15156.08
524.21	15171
524.577	15157.89
524.943	15261.39
525.31	15227.5
525.676	15319.7
526.043	15426.36
526.409	15368.96
526.776	15532.8
527.142	15586.58
527.508	15569.18
527.874	15615.28
528.241	15677.2
528.607	15665.9
528.973	15683.08
529.339	15639.01
529.705	15705.67
530.071	15812.56
530.437	15779.34
530.803	15810.3
531.169	15851.21
531.535	15766.01
531.901	15810.08
532.267	15796.29
532.632	15762.4
532.998	15810.08
533.364	15908.16
533.73	15757.2
534.095	15847.14
534.461	15831.32
534.826	15907.03
535.192	15874.94
535.557	15920.81
535.923	15888.04
536.288	15863.64
536.653	15789.29
537.019	15793.36
537.384	15749.29
537.749	15819.57
538.114	15672
538.479	15737.99
538.845	15715.84
539.21	15569.41
539.575	15692.79
539.94	15725.79
540.305	15712.23
540.67	15617.99
541.034	15678.56
541.399	15662.06
541.764	15583.42
542.129	15612.57
542.494	15649.18
542.858	15500.26
543.223	15516.98
543.587	15526.7
543.952	15416.87
544.316	15416.87
544.681	15419.13
545.045	15361.95
545.41	15361.73
545.774	15399.69
546.138	15301.39
546.503	15255.06
546.867	15216.87
547.231	15324.22
547.595	15197.67
547.959	15238.79
548.324	15180.49
548.688	15225.91
549.052	15136.88
549.416	15147.5
549.779	15124.22
550.143	15061.17
550.507	15097.1
550.871	15148.4
551.235	14986.82
551.599	15076.54
551.962	14952.02
552.326	15012.59
552.689	15047.61
553.053	14970.1
553.417	14939.59
553.78	14930.1
554.143	14912.48
554.507	14909.31
554.87	14896.43
555.234	14985.47
555.597	14922.87
555.96	14968.29
556.323	14926.49
556.686	14807.85
557.05	14984.11
557.413	14877.67
557.776	14964.45
558.139	14922.19
558.502	14928.52
558.865	14827.28
559.228	14905.92
559.59	14872.48
559.953	14933.49
560.316	15039.48
560.679	14974.85
561.041	14908.86
561.404	14914.51
561.767	14981.17
562.129	14820.95
562.492	15032.7
562.854	15035.18
563.217	14974.62
563.579	15030.89
563.941	15051.68
564.304	15036.09
564.666	15154.05
565.028	15089.19
565.39	15104.11
565.753	15228.17
566.115	15198.12
566.477	15201.06
566.839	15339.36
567.201	15292.13
567.563	15228.4
567.925	15376.64
568.287	15359.24
568.648	15285.57
569.01	15377.32
569.372	15399.02
569.734	15319.7
570.095	15327.61
570.457	15496.64
570.819	15413.48
571.18	15514.49
571.542	15554.27
571.903	15504.32
572.265	15502.29
572.626	15587.94
572.987	15644.21
573.349	15542.74
573.71	15648.27
574.071	15648.27
574.432	15637.2
574.794	15735.5
575.155	15690.31
575.516	15649.4
575.877	15718.56
576.238	15717.65
576.599	15775.96
576.96	15769.18
577.32	15740.48
577.681	15907.93
578.042	15759.46
578.403	15801.04
578.763	15716.3
579.124	15812.11
579.485	15820.25
579.845	15819.57
580.206	15874.71
580.566	15834.26
580.927	15854.15
581.287	15879.46
581.648	15815.73
582.008	15875.61
582.368	15754.49
582.728	15851.66
583.089	15871.55
583.449	15796.52
583.809	15816.18
584.169	15811.66
584.529	15755.84
584.889	15817.76
585.249	15720.36
585.609	15708.84
585.969	15865.44
586.329	15756.75
586.688	15746.8
587.048	15574.83
587.408	15648.5
587.768	15654.83
588.127	15657.54
588.487	15617.54
588.846	15715.39
589.206	15649.86
589.565	15621.16
589.925	15734.83
590.284	15638.11
590.643	15690.53
591.003	15621.61
591.362	15708.84
591.721	15667.03
592.08	15653.47
592.44	15674.04
592.799	15675.17
593.158	15676.75
593.517	15698.9
593.876	15703.64
594.235	15576.64
594.593	15557.88
594.952	15630.65
595.311	15577.54
595.67	15617.32
596.029	15685.79
596.387	15608.73
596.746	15676.3
597.104	15589.52
597.463	15529.86
597.822	15640.14
598.18	15547.94
598.538	15561.27
598.897	15667.03
599.255	15448.28
599.613	15788.84
599.972	15591.1
600.33	15635.62
600.688	15514.95
601.046	15633.13
601.404	15656.41
601.762	15570.99
602.12	15717.65
602.478	15731.89
602.836	15617.77
603.194	15638.33
603.552	15574.38
603.91	15558.33
604.268	15643.76
604.625	15540.48
604.983	15633.81
605.341	15511.1
605.698	15606.24
606.056	15627.03
606.413	15644.43
606.771	15609.18
607.128	15661.16
607.485	15631.33
607.843	15638.33
608.2	15720.82
608.557	15726.47
608.914	15641.95
609.272	15770.31
609.629	15713.36
609.986	15832.68
610.343	15728.27
610.7	15910.64
611.057	15799.01
611.414	15759.23
611.771	15801.72
612.127	15853.02
612.484	15845.78
612.841	15853.92
613.198	15822.51
613.554	15881.26
613.911	15976.85
614.267	15939.79
614.624	15889.85
614.98	15972.11
615.337	16001.26
615.693	15959
616.05	15930.75
616.406	16120.8
616.762	16001.71
617.118	15943.63
617.475	16116.06
617.831	16007.14
618.187	16036.06
618.543	16055.27
618.899	16122.61
619.255	16134.82
619.611	16094.36
619.967	16076.06
620.323	16156.96
620.678	16036.29
621.034	16053.91
621.39	16128.04
621.746	16032.45
622.101	16283.96
622.457	16145.44
622.812	16137.53
623.168	16182.05
623.523	16111.99
623.879	16242.38
624.234	16131.2
624.589	16137.98
624.945	16207.13
625.3	16246.45
625.655	16186.11
626.01	16119
626.365	16204.42
626.72	16097.75
627.075	16215.27
627.43	16086.46
627.785	16104.76
628.14	16128.26
628.495	16159.67
628.85	16091.65
629.205	16029.73
629.559	16130.75
629.914	16008.49
630.269	16055.72
630.623	15997.87
630.978	15935.95
631.332	16073.12
631.687	16046
632.041	15926.91
632.396	15977.53
632.75	15853.47
633.104	15909.51
633.459	15939.11
633.813	15994.03
634.167	15817.76
634.521	15920.58
634.875	15933.92
635.229	15862.05
635.583	15783.64
635.937	15795.84
636.291	15839
636.645	15813.24
636.999	15649.18
637.352	15727.37
637.706	15641.04
638.06	15699.57
638.413	15637.88
638.767	15628.16
639.121	15662.96
639.474	15586.58
639.828	15526.24
640.181	15531.89
640.534	15588.16
640.888	15500.26
641.241	15498.22
641.594	15587.26
641.947	15577.77
642.301	15498.67
642.654	15478.34
643.007	15537.54
643.36	15530.31
643.713	15495.74
644.066	15533.93
644.419	15400.82
644.771	15254.39
645.124	15274.05
645.477	15163.32
645.83	15023.88
646.182	15029.53
646.535	14923.55
646.888	14919.25
647.24	14883.32
647.593	15011.68
647.945	14892.14
648.298	14916.32
648.65	14895.98
649.002	14893.27
649.355	14949.99
649.707	14894.62
650.059	15047.61
650.411	15142.53
650.763	15135.75
651.115	15291.67
651.467	15322.18
651.819	15267.27
652.171	15201.06
652.523	15177.78
652.875	15213.03
653.227	15086.71
653.578	15264.1
653.93	15203.54
654.282	15161.73
654.633	15084.45
654.985	15168.06
655.337	15170.1
655.688	15232.01
656.039	15231.11
656.391	15141.62
656.742	15135.52
657.094	15180.26
657.445	15203.09
657.796	15215.97
658.147	15130.32
658.498	15230.43
658.849	15175.97
659.2	15204.67
659.551	15112.7
659.902	15224.56
660.253	15277.89
660.604	15156.08
660.955	15101.4
661.306	15245.12
661.656	15152.92
662.007	15219.36
662.358	15183.43
662.708	15214.16
663.059	15247.16
663.409	15107.5
663.76	15285.12
664.11	15238.79
664.461	15349.75
664.811	15282.41
665.161	15266.82
665.511	15160.6
665.862	15193.82
666.212	15259.81
666.562	15220.49
666.912	15236.31
667.262	15248.96
667.612	15188.4
667.962	15279.92
668.312	15166.03
668.662	15247.16
669.011	15242.18
669.361	15202.64
669.711	15202.64
670.06	15154.95
670.41	15126.03
670.76	15171.23
671.109	15136.2
671.459	15119.02
671.808	15173.94
672.157	15185.46
672.507	15048.97
672.856	14983.43
673.205	15116.09
673.554	15072.47
673.904	15014.85
674.253	15183.43
674.602	15010.55
674.951	14851.46
675.3	14766.49
675.649	14973.26
675.998	14922.19
676.346	15034.51
676.695	15084.9
677.044	14996.54
677.393	15031.57
677.741	14942.76
678.09	14868.86
678.438	14904.11
678.787	14927.62
679.135	14856.21
679.484	14877.22
679.832	14852.82
680.181	14822.08
680.529	14747.28
680.877	14782.99
681.225	14704.57
681.573	14792.03
681.922	14674.74
682.27	14573.95
682.618	14602.65
682.966	14529.89
683.314	14627.96
683.661	14553.39
684.009	14422.54
684.357	14424.35
684.705	14459.83
685.053	14463.45
685.4	14439.49
685.748	14422.77
686.095	14358.82
686.443	14377.12
686.79	14324.47
687.138	14294.86
687.485	14284.92
687.832	14255.09
688.18	14288.99
688.527	14123.57
688.874	14166.73
689.221	14168.09
689.568	14005.61
689.915	14108.43
690.262	13944.82
690.609	13986.17
690.956	13850.58
691.303	13878.38
691.65	13742.56
691.997	13768.32
692.344	13739.17
692.69	13691.49
693.037	13681.55
693.383	13534.43
693.73	13610.14
694.077	13459.41
694.423	13489.01
694.769	13469.12
695.116	13303.93
695.462	13408.11
695.808	13282.69
696.155	13292.63
696.501	13205.18
696.847	13206.98
697.193	13072.07
697.539	13160.2
697.885	13034.56
698.231	12952.3
698.577	13042.92
698.923	12959.08
699.269	12882.7
699.614	12846.54
699.96	12782.36
700.306	12729.03
700.651	12709.6
700.997	12604.74
701.342	12627.79
701.688	12599.99
702.033	12506.89
702.379	12572.65
702.724	12448.81
703.069	12472.77
703.415	12327.91
703.76	12381.92
704.105	12275.26
704.45	12305.76
704.795	12178.54
705.14	12126.79
705.485	12091.98
705.83	12078.2
706.175	12176.05
706.52	11957.07
706.865	11990.52
707.209	12025.55
707.554	11877.53
707.899	11919.11
708.243	11873.01
708.588	11855.83
708.932	11764.08
709.277	11753.01
709.621	11738.55
709.966	11684.09
710.31	11716.85
710.654	11666.68
710.998	11572.22
711.342	11569.74
711.687	11590.08
712.031	11431.89
712.375	11521.38
712.719	11448.84
713.063	11393.02
713.407	11545.33
713.75	11403.87
714.094	11452.45
714.438	11353.7
714.782	11368.16
715.125	11307.6
715.469	11360.03
715.812	11289.29
716.156	11238.9
716.499	11237.09
716.843	11238.22
717.186	11195.74
717.53	11271.89
717.873	11233.02
718.216	11129.52
718.559	11074.16
718.902	11122.97
719.246	11086.81
719.589	11005.46
719.932	10959.58
720.275	11034.84
720.617	10963.65
720.96	11012.46
721.303	10891.11
721.646	11038.9
721.989	10955.07
722.331	10903.54
722.674	10929.53
723.016	10922.52
723.359	10854.05
723.701	10901.28
724.044	10790.1
724.386	10796.88
724.729	10826.48
725.071	10856.99
725.413	10844.56
725.755	10828.29
726.097	10750.55
726.439	10685.47
726.782	10702.19
727.124	10742.19
727.465	10745.58
727.807	10755.3
728.149	10737.44
728.491	10727.73
728.833	10714.17
729.175	10728.86
729.516	10654.96
729.858	10653.38
730.199	10748.97
730.541	10690.67
730.882	10707.61
731.224	10701.29
731.565	10542.87
731.906	10632.14
732.248	10704.9
732.589	10574.51
732.93	10539.03
733.271	10583.1
733.612	10635.3
733.953	10645.47
734.294	10579.03
734.635	10536.32
734.976	10625.58
735.317	10530.9
735.658	10541.74
735.999	10587.39
736.339	10616.09
736.68	10595.75
737.021	10541.97
737.361	10554.4
737.702	10581.06
738.042	10595.3
738.383	10551.91
738.723	10636.2
739.063	10664.45
739.404	10606.6
739.744	10639.59
740.084	10584.91
740.424	10652.25
740.764	10622.64
741.104	10714.85
741.444	10584.23
741.784	10648.63
742.124	10630.55
742.464	10659.03
742.804	10682.3
743.143	10752.58
743.483	10794.39
743.823	10729.76
744.162	10689.99
744.502	10760.04
744.841	10832.36
745.181	10900.6
745.52	10855.63
745.86	10896.99
746.199	10942.86
746.538	10917.1
746.877	10943.31
747.216	11039.36
747.556	11054.05
747.895	11148.05
748.234	11099.92
748.573	11138.34
748.911	11291.1
749.25	11287.03
749.589	11374.26
749.928	11397.31
750.267	11559.57
750.605	11548.5
750.944	11591.66
751.283	11625.33
751.621	11828.04
751.96	11847.24
752.298	11989.16
752.636	11971.99
752.975	12016.05
753.313	12126.11
753.651	12334.69
753.989	12351.64
754.327	12508.24
754.666	12572.42
755.004	12791.85
755.342	12875.01
755.679	13022.81
756.017	13084.95
756.355	13173.09
756.693	13279.98
757.031	13551.15
757.368	13516.35
757.706	13752.28
758.044	13905.27
758.381	14048.32
758.719	14162.44
759.056	14398.82
759.394	14529.43
759.731	14628.19
760.068	14780.73
760.405	14928.52
760.743	15119.02
761.08	15245.35
761.417	15425.68
761.754	15637.2
762.091	15705.22
762.428	15840.36
762.765	15905.67
763.102	16180.92
763.438	16253.23
763.775	16481.02
764.112	16596.05
764.449	16750.84
764.785	16843.5
765.122	16986.09
765.458	17083.94
765.795	17291.17
766.131	17477.61
766.467	17563.25
766.804	17652.52
767.14	17808.44
767.476	17944.26
767.812	17985.39
768.148	18215.89
768.485	18237.13
768.821	18409.78
769.157	18568.2
769.492	18604.81
769.828	18757.12
770.164	18760.06
770.5	18878.25
770.836	19036.89
771.171	19013.16
771.507	19069.43
771.842	19180.39
772.178	19298.8
772.513	19342.64
772.849	19359.36
773.184	19499.7
773.519	19694.95
773.855	19550.77
774.19	19600.04
774.525	19813.59
774.86	19859.24
775.195	20019.01
775.53	19942.63
775.865	19941.5
776.2	19896.75
776.535	19849.07
776.87	19973.81
777.205	20013.13
777.539	20041.15
777.874	20103.75
778.209	20030.98
778.543	20116.41
778.878	20018.33
779.212	20128.38
779.547	20061.72
779.881	20288.38
780.215	20204.54
780.55	20166.8
780.884	20062.85
781.218	20219.68
781.552	20232.56
781.886	20247.25
782.22	20206.57
782.554	20187.36
782.888	20000.93
783.222	20086.12
783.556	20028.95
783.889	20021.95
784.223	19936.3
784.557	19957.54
784.89	19955.96
785.224	19949.86
785.557	19819.24
785.891	19890.65
786.224	19816.75
786.558	19866.7
786.891	19701.05
787.224	19672.8
787.557	19787.15
787.891	19683.65
788.224	19660.82
788.557	19763.65
788.89	19799.8
789.223	19758.45
789.556	19558.68
789.888	19609.3
790.221	19494.05
790.554	19395.75
790.887	19378.57
791.219	19443.2
791.552	19353.71
791.884	19321.85
792.217	19237.79
792.549	19193.49
792.882	19133.38
793.214	19094.74
793.546	19159.82
793.879	19022.65
794.211	18883.22
794.543	18956.44
794.875	18976.1
795.207	18967.74
795.539	18957.34
795.871	18865.82
796.203	18748.76
796.535	18707.63
796.867	18810
797.198	18697.91
797.53	18658.82
797.862	18538.37
798.193	18517.58
798.525	18424.47
798.856	18396.23
799.188	18339.96
799.519	18305.61
799.85	18202.11
800.182	18175.21
800.513	18256.79
800.844	18025.84
801.175	18157.59
801.506	18110.13
801.837	18029.68
802.168	18036.01
802.499	17852.96
802.83	17876.01
803.161	17825.84
803.491	17897.03
803.822	17814.32
804.153	17733.42
804.483	17653.42
804.814	17440.32
805.145	17586.3
805.475	17511.28
805.805	17562.57
806.136	17549.47
806.466	17464.27
806.796	17482.8
807.126	17349.7
807.457	17373.65
807.787	17280.77
808.117	17224.73
808.447	17183.15
808.777	17229.93
809.107	17172.98
809.436	17046.2
809.766	17125.3
810.096	16999.65
810.426	16959.43
810.755	17001.23
811.085	16920.33
811.414	16965.98
811.744	16825.19
812.073	16742.71
812.403	16730.96
812.732	16613.45
813.061	16603.05
813.39	16678.08
813.719	16536.39
814.049	16603.96
814.378	16610.96
814.707	16466.56
815.036	16504.75
815.365	16473.79
815.693	16292.1
816.022	16299.78
816.351	16361.25
816.68	16148.6
817.008	16254.59
817.337	16139.79
817.665	16088.04
817.994	16040.36
818.322	16092.33
818.651	15981.15
818.979	15985.67
819.307	16034.25
819.636	16039.68
819.964	15887.59
820.292	15965.1
820.62	15985.44
820.948	15835.16
821.276	15937.08
821.604	15858.21
821.932	15976.18
822.259	15907.93
822.587	15928.27
822.915	15817.31
823.243	15957.65
823.57	15793.36
823.898	15875.39
824.225	15805.11
824.553	15866.57
824.88	15842.17
825.207	15918.1
825.535	15868.83
825.862	15848.72
826.189	15828.16
826.516	15959
826.843	16034.03
827.17	16003.97
827.497	15971.43
827.824	15887.82
828.151	15975.5
828.478	15994.03
828.805	16052.56
829.131	15913.13
829.458	15920.58
829.785	15824.99
830.111	15907.48
830.438	15901.38
830.764	15954.93
831.09	15963.97
831.417	15881.26
831.743	15910.87
832.069	15915.61
832.395	15845.33
832.722	15876.97
833.048	15817.54
833.374	15880.59
833.7	15741.15
834.026	15796.52
834.351	15828.16
834.677	15746.58
835.003	15793.13
835.329	15761.72
835.654	15737.31
835.98	15704.09
836.306	15692.12
836.631	15641.72
836.956	15758.33
837.282	15702.28
837.607	15622.29
837.932	15570.76
838.258	15635.17
838.583	15573.02
838.908	15457.77
839.233	15510.88
839.558	15487.15
839.883	15399.24
840.208	15309.3
840.533	15384.78
840.858	15343.88
841.182	15418.45
841.507	15354.95
841.832	15285.8
842.156	15284.67
842.481	15211.68
842.805	15187.04
843.13	15151.56
843.454	15038.12
843.778	14966.49
844.103	15035.86
844.427	14876.54
844.751	14914.28
845.075	14898.92
845.399	14792.48
845.723	14702.31
846.047	14733.04
846.371	14624.12
846.695	14666.61
847.019	14505.48
847.343	14535.54
847.666	14429.1
847.99	14386.61
848.313	14321.08
848.637	14271.59
848.96	14234.3
849.284	14205.15
849.607	14099.39
849.931	14014.65
850.254	13910.24
850.577	13925.38
850.9	13757.7
851.223	13842.67
851.546	13747.08
851.869	13706.41
852.192	13771.26
852.515	13591.38
852.838	13564.71
853.161	13585.05
853.483	13511.16
853.806	13367.21
854.129	13356.58
854.451	13343.7
854.774	13343.48
855.096	13219.41
855.419	13222.8
855.741	13062.35
856.063	13114.1
856.385	13093.54
856.708	13075.24
857.03	13032.3
857.352	13014.45
857.674	12963.15
857.996	12951.62
858.318	12826.88
858.64	12954.79
858.961	12835.47
859.283	12727.67
859.605	12671.4
859.926	12789.82
860.248	12759.31
860.57	12599.54
860.891	12635.47
861.212	12562.93
861.534	12519.09
861.855	12480.22
862.176	12468.47
862.498	12493.78
862.819	12434.8
863.14	12438.87
863.461	12418.98
863.782	12406.55
864.103	12342.6
864.424	12371.07
864.745	12371.52
865.065	12252.43
865.386	12273.9
865.707	12229.38
866.027	12169.5
866.348	12125.43
866.668	12198.87
866.989	12177.18
867.309	12123.4
867.63	12126.56
867.95	12089.72
868.27	12006.56
868.59	11981.48
868.91	12101.48
869.23	11958.88
869.55	11895.15
869.87	12017.86
870.19	11926.56
870.51	11856.51
870.83	11960.01
871.15	11854.02
871.469	11863.52
871.789	11944.19
872.109	11866.45
872.428	11819.68
872.748	11807.25
873.067	11793.24
873.386	11763.41
873.706	11719.56
874.025	11694.93
874.344	11681.6
874.663	11654.71
874.982	11643.18
875.301	11644.09
875.62	11589.17
875.939	11624.88
876.258	11542.39
876.577	11584.65
876.896	11506.91
877.214	11533.81
877.533	11519.34
877.852	11437.76
878.17	11544.65
878.489	11442.51
878.807	11421.95
879.125	11340.82
879.444	11387.6
879.762	11334.72
880.08	11352.34
880.398	11288.84
880.716	11359.12
881.034	11285.68
881.352	11311.21
881.67	11202.06
881.988	11268.96
882.306	11153.48
882.624	11136.76
882.941	11098.11
883.259	11071.22
883.577	11034.16
883.894	11057.21
884.212	11076.19
884.529	11107.6
884.846	11007.49
885.164	10944.67
885.481	10904.9
885.798	10889.08
886.115	10869.19
886.432	10820.15
886.75	10813.15
887.067	10798.01
887.383	10766.82
887.7	10740.83
888.017	10713.94
888.334	10792.58
888.651	10636.66
888.967	10683.43
889.284	10598.92
889.6	10538.13
889.917	10559.6
890.233	10535.64
890.55	10532.48
890.866	10479.82
891.182	10468.75
891.498	10450.45
891.815	10325.03
892.131	10330
892.447	10268.3
892.763	10307.85
893.079	10310.56
893.395	10181.07
893.71	10199.38
894.026	10094.3
894.342	10070.12
894.657	10100.85
894.973	10073.73
895.289	10092.26
895.604	10017.46
895.92	9955.54
896.235	9857.47
896.55	9835.55
896.865	9883.45
897.181	9776.79
897.496	9751.25
897.811	9751.71
898.126	9741.99
898.441	9664.93
898.756	9631.48
899.071	9626.74
899.386	9609.56
899.7	9504.71
900.015	9522.33
900.33	9401.21
900.644	9438.27
900.959	9409.57
901.273	9380.19
901.588	9381.32
901.902	9302.91
902.216	9242.57
902.531	9232.4
902.845	9175.9
903.159	9137.03
903.473	9079.18
903.787	9031.73
904.101	9067.43
904.415	8957.6
904.729	9001.44
905.042	8904.95
905.356	8965.96
905.67	8904.95
905.984	8876.02
906.297	8806.65
906.611	8752.41
906.924	8777.5
907.237	8658.63
907.551	8782.01
907.864	8659.31
908.177	8664.28
908.491	8588.57
908.804	8515.36
909.117	8464.51
909.43	8430.16
909.743	8399.65
910.056	8329.82
910.368	8389.26
910.681	8326.89
910.994	8297.96
911.307	8310.61
911.619	8225.65
911.932	8252.54
912.244	8106.1
912.557	8132.77
912.869	8084.18
913.181	8049.6
913.494	8050.96
913.806	7993.79
914.118	7951.53
914.43	7917.18
914.742	7942.49
915.054	7902.26
915.366	7859.55
915.678	7820.01
915.99	7797.18
916.302	7690.29
916.613	7691.42
916.925	7679.22
917.236	7660.91
917.548	7626.79
917.859	7627.92
918.171	7598.77
918.482	7504.31
918.794	7473.35
919.105	7497.3
919.416	7360.36
919.727	7354.03
920.038	7398.1
920.349	7334.37
920.66	7282.39
920.971	7316.29
921.282	7317.19
921.593	7253.69
921.903	7139.57
922.214	7170.08
922.525	7184.32
922.835	7154.71
923.146	7023.64
923.456	7097.31
923.767	7050.08
924.077	7017.99
924.387	6925.34
924.697	6874.04
925.008	6865.91
925.318	6848.51
925.628	6871.56
925.938	6847.83
926.248	6739.36
926.558	6764.44
926.867	6759.7
927.177	6682.86
927.487	6628.17
927.796	6618.91
928.106	6583.65
928.416	6588.85
928.725	6505.92
929.034	6563.99
929.344	6575.75
929.653	6513.83
929.962	6397.44
930.271	6409.87
930.581	6411.23
930.89	6348.86
931.199	6302.31
931.508	6317.67
931.817	6329.88
932.125	6330.1
932.434	6268.86
932.743	6201.29
933.051	6222.76
933.36	6191.8
933.669	6143.89
933.977	6119.49
934.286	6084.91
934.594	6051.47
934.902	5981.41
935.21	6034.52
935.519	5990.22
935.827	6007.62
936.135	5938.25
936.443	5882.88
936.751	5845.82
937.059	5861.87
937.367	5844.69
937.674	5875.2
937.982	5840.62
938.29	5802.66
938.597	5738.03
938.905	5706.62
939.213	5649.89
939.52	5641.53
939.827	5674.07
940.135	5623.45
940.442	5615.09
940.749	5545.26
941.056	5529.45
941.363	5523.57
941.67	5524.47
941.977	5480.63
942.284	5399.73
942.591	5435.21
942.898	5356.57
943.205	5396.57
943.511	5318.15
943.818	5343.46
944.125	5295.33
944.431	5300.98
944.738	5293.29
945.044	5253.97
945.35	5236.12
945.657	5162
945.963	5183.01
946.269	5143.92
946.575	5124.26
946.881	5057.14
947.187	5091.04
947.493	5118.38
947.799	5043.36
948.105	5014.66
948.41	5001.32
948.716	4976.92
949.022	4979.63
949.327	4956.8
949.633	4877.71
949.938	4866.19
950.244	4889.69
950.549	4809.24
950.854	4820.09
951.16	4825.06
951.465	4766.3
951.77	4755.68
952.075	4738.96
952.38	4735.79
952.685	4708
952.99	4648.79
953.294	4638.17
953.599	4629.58
953.904	4634.78
954.209	4613.08
954.513	4550.49
954.818	4546.65
955.122	4581.9
955.426	4509.58
955.731	4505.74
956.035	4486.76
956.339	4450.15
956.643	4467.55
956.948	4456.48
957.252	4418.51
957.556	4388.46
957.86	4395.69
958.163	4352.3
958.467	4346.65
958.771	4326.76
959.075	4282.47
959.378	4290.61
959.682	4230.04
959.985	4210.38
960.289	4231.4
960.592	4151.63
960.896	4198.41
961.199	4259.2
961.502	4155.24
961.805	4128.58
962.108	4117.96
962.411	4096.71
962.714	4065.98
963.017	4100.78
963.32	4049.71
963.623	4065.3
963.926	4008.36
964.228	4000.67
964.531	3974.68
964.833	3929.94
965.136	3940.79
965.438	3967
965.741	3901.92
966.043	3910.73
966.345	3850.62
966.648	3849.49
966.95	3849.26
967.252	3792.09
967.554	3823.73
967.856	3810.17
968.158	3752.99
968.46	3752.32
968.761	3741.02
969.063	3734.69
969.365	3688.14
969.666	3718.19
969.968	3659.44
970.269	3662.83
970.571	3637.52
970.872	3644.3
971.174	3606.33
971.475	3611.3
971.776	3574.24
972.077	3535.6
972.378	3511.64
972.679	3520.91
972.98	3510.52
973.281	3486.79
973.582	3489.05
973.883	3457.18
974.183	3432.55
974.484	3437.3
974.785	3376.73
975.085	3422.16
975.386	3449.27
975.686	3390.74
975.986	3363.4
976.287	3402.5
976.587	3344.64
976.887	3337.64
977.187	3354.13
977.487	3318.43
977.787	3272.56
978.087	3283.4
978.387	3275.27
978.687	3255.61
978.987	3227.13
979.286	3184.87
979.586	3241.14
979.885	3216.96
980.185	3163.86
980.484	3116.63
980.784	3126.57
981.083	3083.86
981.382	3134.25
981.682	3108.49
981.981	3105.1
982.28	3053.35
982.579	3046.12
982.878	3054.03
983.177	3050.64
983.475	3051.54
983.774	2976.97
984.073	2956.63
984.372	2955.73
984.67	2973.58
984.969	2991.21
985.267	2937.42
985.566	2935.16
985.864	2924.09
986.162	2876.18
986.461	2869.63
986.759	2873.24
987.057	2829.85
987.355	2849.52
987.653	2805.67
987.951	2774.04
988.249	2802.51
988.547	2803.87
988.844	2778.56
989.142	2806.13
989.44	2758.67
989.737	2722.97
990.035	2676.86
990.332	2712.34
990.63	2711.21
990.927	2656.07
991.224	2669.41
991.521	2646.81
991.819	2665.34
992.116	2659.24
992.413	2643.19
992.71	2622.4
993.006	2600.48
993.303	2589.41
993.6	2557.77
993.897	2535.63
994.193	2565.46
994.49	2526.13
994.787	2529.52
995.083	2523.65
995.379	2480.71
995.676	2481.16
995.972	2469.41
996.268	2470.77
996.565	2450.88
996.861	2433.48
997.157	2434.16
997.453	2429.19
997.749	2397.55
998.044	2413.59
998.34	2388.74
998.636	2347.61
998.932	2361.39
999.227	2357.33
999.523	2367.27
999.818	2313.03
1000.114	2314.39
1000.409	2272.13
1000.704	2259.7
1001	2279.13
1001.295	2230.1
1001.59	2254.5
1001.885	2237.78
1002.18	2214.96
1002.475	2190.55
1002.77	2165.24
1003.065	2186.48
1003.359	2184.45
1003.654	2148.52
1003.949	2155.75
1004.243	2141.06
1004.538	2137.44
1004.832	2096.31
1005.127	2129.31
1005.421	2072.81
1005.715	2072.81
1006.009	2042.08
1006.304	2082.08
1006.598	2044.56
1006.892	2030.33
1007.186	2034.62
1007.48	2015.64
1007.773	2040.05
1008.067	1991.01
1008.361	1967.05
1008.655	1966.6
1008.948	1926.83
1009.242	1941.74
1009.535	1913.04
1009.829	1912.82
1010.122	1903.1
1010.415	1904.46
1010.708	1875.08
1011.001	1853.16
1011.295	1822.42
1011.588	1872.82
1011.881	1828.07
1012.173	1826.72
1012.466	1811.35
1012.759	1792.59
1013.052	1778.13
1013.344	1777.91
1013.637	1805.48
1013.93	1777
1014.222	1759.6
1014.514	1755.53
1014.807	1745.59
1015.099	1704.91
1015.391	1732.71
1015.683	1678.47
1015.976	1664.69
1016.268	1661.75
1016.56	1685.93
1016.851	1657.68
1017.143	1658.36
1017.435	1612.71
1017.727	1647.06
1018.018	1602.09
1018.31	1605.48
1018.602	1609.1
1018.893	1557.8
1019.185	1575.65
1019.476	1565.26
1019.767	1568.19
1020.058	1544.01
1020.35	1555.31
1020.641	1524.58
1020.932	1542.66
1021.223	1530.45
1021.514	1484.13
1021.804	1490.68
1022.095	1482.55
1022.386	1470.57
1022.677	1461.53
1022.967	1448.65
1023.258	1449.55
1023.548	1440.51
1023.839	1421.76
1024.129	1386.73
1024.419	1384.92
1024.709	1407.29
1025	1367.07
1025.29	1340.85
1025.58	1344.47
1025.87	1370.68
1026.16	1349.44
1026.449	1363.9
1026.739	1336.79
1027.029	1307.64
1027.319	1330.01
1027.608	1334.53
1027.898	1280.07
1028.187	1283
1028.477	1277.13
1028.766	1273.51
1029.055	1253.4
1029.344	1251.37
1029.634	1252.04
1029.923	1231.7
1030.212	1251.14
1030.501	1212.95
1030.79	1204.36
1031.078	1184.93
1031.367	1192.84
1031.656	1184.7
1031.945	1177.24
1032.233	1163.68
1032.522	1170.46
1032.81	1156.45
1033.099	1163.23
1033.387	1134.53
1033.675	1160.07
1033.963	1126.62
1034.251	1132.5
1034.54	1125.27
1034.828	1071.94
1035.116	1113.74
1035.403	1063.12
1035.691	1073.29
1035.979	1076.23
1036.267	1064.7
1036.554	1083.01
1036.842	1059.05
1037.129	1053.18
1037.417	1052.73
1037.704	1027.87
1037.992	1023.35
1038.279	1019.96
1038.566	1007.08
1038.853	1007.08
1039.14	1007.08
