Data from hue_90_FLMS001491_16.txt Node
Date: Mon Feb 06 15:24:45 GMT 2017
User: dcchb
Spectrometer: FLMS00149
Trigger mode: 0
Integration Time (sec): 2.000000E-2
Scans to average: 10
Electric dark correction enabled: true
Nonlinearity correction enabled: false
Boxcar width: 0
XAxis mode: Wavelengths
Number of Pixels in Spectrum: 2048
>>>>>Begin Spectral Data<<<<<
341.393	-0.3
341.776	-0.3
342.16	-0.3
342.543	-67.87
342.927	-85.04
343.31	-51.59
343.693	-94.98
344.077	-62.67
344.46	-69.45
344.843	-36.68
345.226	-43.69
345.61	-56.57
345.993	-16.12
346.376	-7.53
346.759	24.56
347.142	4.68
347.525	34.73
347.908	69.31
348.291	81.51
348.674	103.66
349.057	120.83
349.44	142.3
349.823	149.53
350.206	152.24
350.588	176.65
350.971	205.8
351.354	225.69
351.737	223.88
352.119	245.8
352.502	262.75
352.884	261.84
353.267	263.88
353.65	303.2
354.032	275.4
354.414	315.18
354.797	321.73
355.179	313.82
355.562	299.13
355.944	324.67
356.326	315.85
356.709	337.1
357.091	326.02
357.473	351.11
357.855	328.73
358.238	344.55
358.62	335.06
359.002	332.12
359.384	307.94
359.766	342.75
360.148	334.16
360.53	340.94
360.912	325.8
361.294	338
361.676	329.41
362.057	313.82
362.439	316.31
362.821	321.5
363.203	328.06
363.584	322.63
363.966	331.45
364.348	314.27
364.729	312.01
365.111	309.98
365.493	321.73
365.874	296.87
366.256	321.05
366.637	300.03
367.019	295.74
367.4	308.85
367.781	300.94
368.163	309.07
368.544	306.14
368.925	298.68
369.306	284.89
369.688	323.76
370.069	309.3
370.45	313.82
370.831	300.03
371.212	316.98
371.593	298.45
371.974	286.93
372.355	306.81
372.736	289.41
373.117	308.4
373.498	291.22
373.879	298.9
374.26	305.68
374.641	318.34
375.021	317.21
375.402	303.88
375.783	316.31
376.163	309.98
376.544	316.98
376.925	317.21
377.305	330.77
377.686	328.73
378.066	328.96
378.447	318.34
378.827	325.34
379.208	313.82
379.588	315.85
379.968	329.41
380.349	324.44
380.729	326.02
381.109	321.28
381.489	323.76
381.87	321.5
382.25	333.93
382.63	321.73
383.01	335.74
383.39	348.62
383.77	340.71
384.15	342.75
384.53	325.34
384.91	337.1
385.29	329.41
385.67	327.6
386.049	339.36
386.429	352.46
386.809	343.2
387.189	336.87
387.568	315.63
387.948	351.33
388.328	342.97
388.707	338.68
389.087	341.39
389.466	353.37
389.846	356.3
390.225	353.82
390.605	355.63
390.984	336.87
391.363	369.86
391.743	351.78
392.122	350.65
392.501	354.04
392.881	379.35
393.26	399.01
393.639	368.96
394.018	380.03
394.397	380.03
394.776	377.77
395.155	363.54
395.534	376.19
395.913	356.76
396.292	379.13
396.671	376.64
397.05	375.06
397.429	361.05
397.808	369.19
398.186	379.58
398.565	396.98
398.944	386.36
399.323	379.13
399.701	378.9
400.08	393.37
400.458	369.86
400.837	383.2
401.215	386.36
401.594	375.51
401.972	375.06
402.351	391.11
402.729	386.81
403.107	425.91
403.486	383.42
403.864	394.27
404.242	416.87
404.62	393.82
404.999	425.23
405.377	426.81
405.755	405.79
406.133	396.98
406.511	409.86
406.889	432.23
407.267	424.78
407.645	413.03
408.023	418.9
408.401	433.59
408.779	432.69
409.156	448.05
409.534	434.04
409.912	449.86
410.29	449.18
410.667	435.85
411.045	452.35
411.422	421.84
411.8	450.99
412.178	471.1
412.555	466.36
412.933	461.39
413.31	438.11
413.687	464.1
414.065	478.33
414.442	434.04
414.819	489.18
415.197	458.45
415.574	471.1
415.951	486.24
416.328	475.17
416.705	464.32
417.082	495.51
417.46	490.99
417.837	476.75
418.214	510.2
418.591	508.16
418.967	478.11
419.344	508.16
419.721	506.81
420.098	505.45
420.475	515.85
420.852	519.46
421.228	506.13
421.605	522.4
421.982	510.65
422.358	506.81
422.735	524.21
423.111	533.02
423.488	552.68
423.864	556.75
424.241	546.13
424.617	539.58
424.994	563.98
425.37	550.65
425.746	553.59
426.123	556.52
426.499	565.56
426.875	546.36
427.251	583.87
427.627	566.02
428.003	573.02
428.379	573.7
428.756	577.99
429.132	574.38
429.507	582.29
429.883	599.46
430.259	615.73
430.635	616.18
431.011	611.89
431.387	610.76
431.763	628.39
432.138	652.12
432.514	637.65
432.89	633.59
433.265	657.09
433.641	658.44
434.016	656.64
434.392	651.44
434.767	672.45
435.143	668.84
435.518	665
435.894	685.56
436.269	723.98
436.644	696.63
437.02	715.62
437.395	686.92
437.77	697.76
438.145	720.14
438.52	728.72
438.895	686.01
439.271	719.68
439.646	725.33
440.021	727.14
440.395	745.67
440.77	735.96
441.145	759.46
441.52	765.56
441.895	760.14
442.27	748.38
442.645	745.9
443.019	784.99
443.394	778.67
443.769	768.72
444.143	770.98
444.518	796.74
444.892	802.62
445.267	820.92
445.641	788.16
446.016	808.72
446.39	816.63
446.764	804.65
447.139	814.37
447.513	815.73
447.887	828.16
448.262	832
448.636	839
449.01	832.22
449.384	853.47
449.758	839.23
450.132	881.04
450.506	856.63
450.88	866.57
451.254	870.87
451.628	882.62
452.002	901.37
452.376	916.06
452.75	905.67
453.123	920.13
453.497	917.65
453.871	929.62
454.244	950.19
454.618	947.93
454.992	967.81
455.365	981.37
455.739	984.31
456.112	979.34
456.486	984.31
456.859	1011.65
457.232	1030.41
457.606	1035.16
457.979	1029.73
458.352	1039.9
458.725	1083.74
459.099	1075.83
459.472	1072.22
459.845	1093.46
460.218	1122.61
460.591	1119.45
460.964	1141.59
461.337	1158.54
461.71	1150.86
462.083	1168.26
462.456	1171.2
462.829	1191.76
463.201	1209.62
463.574	1228.82
463.947	1248.03
464.32	1270.18
464.692	1268.37
465.065	1259.33
465.438	1309.27
465.81	1330.29
466.183	1365.32
466.555	1373
466.928	1393.57
467.3	1390.18
467.672	1424.3
468.045	1464.98
468.417	1442.83
468.789	1491.19
469.161	1504.3
469.534	1538.19
469.906	1559.44
470.278	1586.33
470.65	1633.78
471.022	1634.46
471.394	1667.91
471.766	1711.75
472.138	1751.07
472.51	1766.21
472.882	1791.75
473.253	1840.33
473.625	1820.22
473.997	1917.17
474.369	1913.78
474.74	1947.9
475.112	1992.19
475.484	2071.29
475.855	2089.59
476.227	2154.45
476.598	2218.4
476.97	2234.9
477.341	2302.24
477.713	2351.96
478.084	2390.38
478.455	2490.03
478.827	2532.07
479.198	2601.89
479.569	2677.6
479.94	2737.71
480.311	2777.71
480.682	2882.79
481.053	3008.66
481.424	3032.84
481.795	3112.84
482.166	3219.51
482.537	3271.48
482.908	3380.41
483.279	3443
483.65	3579.27
484.021	3678.25
484.391	3769.32
484.762	3801.19
485.133	3913.27
485.503	4035.08
485.874	4168.63
486.244	4193.27
486.615	4330.44
486.985	4456.99
487.356	4533.14
487.726	4616.31
488.097	4797.54
488.467	4871.21
488.837	5019.46
489.207	5152.56
489.578	5241.6
489.948	5363.86
490.318	5526.79
490.688	5578.54
491.058	5713.68
491.428	5803.39
491.798	5890.4
492.168	6120.45
492.538	6185.08
492.908	6289.03
493.278	6453.55
493.648	6510.94
494.017	6652.41
494.387	6810.37
494.757	6857.83
495.126	7028.45
495.496	7051.95
495.866	7122.23
496.235	7327.42
496.605	7446.06
496.974	7539.17
497.344	7680.86
497.713	7740.97
498.082	7897.57
498.452	7932.83
498.821	8039.72
499.19	8135.76
499.559	8197.68
499.928	8300.73
500.298	8431.8
500.667	8542.76
501.036	8623.43
501.405	8692.58
501.774	8754.95
502.143	8886.93
502.512	8875.4
502.88	8968.51
503.249	9111.1
503.618	9224.32
503.987	9266.13
504.356	9348.61
504.724	9364.65
505.093	9479.68
505.462	9540.47
505.83	9585.44
506.199	9629.51
506.567	9811.42
506.936	9827.02
507.304	9958.54
507.672	9935.94
508.041	10061.36
508.409	10132.54
508.777	10221.36
509.145	10238.76
509.514	10223.39
509.882	10275.14
510.25	10362.59
510.618	10423.38
510.986	10566.21
511.354	10584.51
511.722	10629.25
512.09	10794.9
512.458	10697.28
512.826	10739.31
513.193	10939.08
513.561	10837.84
513.929	10963.93
514.297	10963.03
514.664	11026.31
515.032	11078.73
515.4	11112.86
515.767	11223.82
516.135	11213.42
516.502	11226.75
516.869	11313.76
517.237	11309.69
517.604	11275.57
517.972	11353.76
518.339	11416.58
518.706	11426.75
519.073	11536.8
519.44	11569.34
519.808	11618.38
520.175	11580.19
520.542	11653.63
520.909	11734.08
521.276	11661.09
521.643	11812.05
522.009	11799.39
522.376	11877.58
522.743	11940.86
523.11	11967.07
523.477	11972.72
523.843	12022.66
524.21	12099.5
524.577	12184.47
524.943	12158.25
525.31	12189.89
525.676	12270.34
526.043	12244.81
526.409	12237.57
526.776	12299.94
527.142	12324.58
527.508	12349.89
527.874	12367.51
528.241	12386.95
528.607	12371.81
528.973	12429.89
529.339	12423.11
529.705	12533.16
530.071	12490.22
530.437	12503.1
530.803	12590.78
531.169	12547.85
531.535	12494.74
531.901	12467.4
532.267	12490.45
532.632	12535.87
532.998	12552.82
533.364	12543.33
533.73	12622.42
534.095	12587.85
534.461	12479.83
534.826	12564.34
535.192	12591.46
535.557	12474.86
535.923	12532.26
536.288	12482.31
536.653	12530
537.019	12470.11
537.384	12385.14
537.749	12507.17
538.114	12397.12
538.479	12430.79
538.845	12436.89
539.21	12296.78
539.575	12264.69
539.94	12358.02
540.305	12352.15
540.67	12236.44
541.034	12254.07
541.399	12169.1
541.764	12250.23
542.129	12226.27
542.494	12185.15
542.858	12283.22
543.223	12232.38
543.587	12149.67
543.952	12138.37
544.316	12074.41
544.681	12027.64
545.045	12013.4
545.41	12051.59
545.774	11989.44
546.138	11892.72
546.503	12034.42
546.867	11931.14
547.231	11985.15
547.595	11863.35
547.959	11880.97
548.324	11855.66
548.688	11844.36
549.052	11819.28
549.416	11725.72
549.779	11737.25
550.143	11697.02
550.507	11675.33
550.871	11737.47
551.235	11595.78
551.599	11725.5
551.962	11740.41
552.326	11680.3
552.689	11670.13
553.053	11613.41
553.417	11527.08
553.78	11673.07
554.143	11500.64
554.507	11629
554.87	11510.14
555.234	11640.08
555.597	11428.1
555.96	11507.42
556.323	11507.2
556.686	11495.67
557.05	11497.71
557.413	11494.09
557.776	11487.54
558.139	11437.59
558.502	11502.68
558.865	11496.35
559.228	11531.38
559.59	11517.37
559.953	11498.16
560.316	11596.91
560.679	11477.82
561.041	11548.55
561.404	11468.1
561.767	11613.86
562.129	11491.38
562.492	11543.81
562.854	11478.27
563.217	11531.6
563.579	11550.59
563.941	11587.87
564.304	11604.6
564.666	11628.32
565.028	11668.55
565.39	11690.92
565.753	11687.31
566.115	11718.94
566.477	11681.88
566.839	11749.9
567.201	11723.69
567.563	11632.84
567.925	11756.46
568.287	11746.51
568.648	11708.32
569.01	11830.35
569.372	11807.08
569.734	11784.93
570.095	11814.99
570.457	11843.91
570.819	11790.81
571.18	11738.83
571.542	11848.66
571.903	11886.85
572.265	11866.51
572.626	11896.11
572.987	11942.89
573.349	11910.12
573.71	11974.98
574.071	11943.8
574.432	11862.67
574.794	12037.35
575.155	12044.13
575.516	11926.17
575.877	11989.44
576.238	11986.73
576.599	12024.02
576.96	11947.41
577.32	11954.87
577.681	12098.82
578.042	12034.42
578.403	11978.15
578.763	12026.28
579.124	11965.49
579.485	12003
579.845	12071.25
580.206	12094.75
580.566	11975.66
580.927	12018.14
581.287	12086.17
581.648	11910.35
582.008	12083.68
582.368	12080.52
582.728	12077.8
583.089	12067.41
583.449	12037.8
583.809	11962.55
584.169	12058.37
584.529	12091.59
584.889	12048.88
585.249	11981.76
585.609	11993.06
585.969	12055.43
586.329	11974.98
586.688	12026.96
587.048	11935.66
587.408	12003.23
587.768	11933.4
588.127	11921.42
588.487	11863.35
588.846	12047.75
589.206	11917.81
589.565	11918.94
589.925	11843.69
590.284	11842.1
590.643	11890.01
591.003	11893.85
591.362	11949.22
591.721	11918.71
592.08	11822.44
592.44	11947.64
592.799	11963.91
593.158	11877.81
593.517	11887.53
593.876	11881.42
594.235	11802.1
594.593	11827.42
594.952	11855.89
595.311	11809.11
595.67	11850.92
596.029	11899.05
596.387	11880.52
596.746	11961.65
597.104	11859.96
597.463	11802.1
597.822	11797.36
598.18	11722.78
598.538	11860.86
598.897	11838.26
599.255	11761.43
599.613	11858.83
599.972	11824.25
600.33	11796.91
600.688	11789
601.046	11838.04
601.404	11930.46
601.762	11881.88
602.12	11959.61
602.478	11833.74
602.836	11874.65
603.194	11883.68
603.552	11838.26
603.91	11744.03
604.268	11830.58
604.625	11770.02
604.983	11792.84
605.341	11739.96
605.698	11868.77
606.056	11901.76
606.413	11838.26
606.771	11826.29
607.128	11895.89
607.485	11754.42
607.843	11777.7
608.2	11894.08
608.557	11897.7
608.914	11884.59
609.272	11874.19
609.629	11966.85
609.986	11946.73
610.343	11878.04
610.7	12023.57
611.057	12065.6
611.414	11948.09
611.771	11998.71
612.127	12001.65
612.484	11934.53
612.841	12052.95
613.198	11922.1
613.554	12004.36
613.911	12010.46
614.267	12011.59
614.624	12042.55
614.98	11991.48
615.337	12074.87
615.693	12052.72
616.05	12010.01
616.406	12068.76
616.762	12122.77
617.118	12164.13
617.475	12039.39
617.831	12050.91
618.187	12140.85
618.543	12086.62
618.899	12183.11
619.255	12130.23
619.611	12135.66
619.967	12212.26
620.323	12123.9
620.678	12153.28
621.034	12062.89
621.39	12140.4
621.746	12144.69
622.101	12165.03
622.457	12180.63
622.812	12196.67
623.168	12188.99
623.523	12225.37
623.879	12213.39
624.234	12089.33
624.589	12179.5
624.945	12195.31
625.3	12255.88
625.655	12209.78
626.01	12139.5
626.365	12211.81
626.72	12263.79
627.075	12237.57
627.43	12073.96
627.785	12063.57
628.14	12226.05
628.495	12124.81
628.85	12148.54
629.205	12043.23
629.559	12169.55
629.914	12069.67
630.269	12091.36
630.623	12033.96
630.978	12078.71
631.332	12023.57
631.687	12066.96
632.041	12047.75
632.396	12065.83
632.75	11972.95
633.104	12054.08
633.459	12014.53
633.813	11951.93
634.167	12000.29
634.521	11953.74
634.875	11944.93
635.229	11953.51
635.583	11892.95
635.937	11872.84
636.291	11892.27
636.645	11870.8
636.999	11809.11
637.352	11887.98
637.706	11831.26
638.06	11899.5
638.413	11758.72
638.767	11764.14
639.121	11866.74
639.474	11775.44
639.828	11738.6
640.181	11782.9
640.534	11783.57
640.888	11715.78
641.241	11709.23
641.594	11642.34
641.947	11694.54
642.301	11684.82
642.654	11671.71
643.007	11664.03
643.36	11664.93
643.713	11605.73
644.066	11699.28
644.419	11575.67
644.771	11572.96
645.124	11537.03
645.477	11391.04
645.83	11327.54
646.182	11312.17
646.535	11177.71
646.888	11278.5
647.24	11261.1
647.593	11303.81
647.945	11236.02
648.298	11185.17
648.65	11199.41
649.002	11220.43
649.355	11192.63
649.707	11219.07
650.059	11264.72
650.411	11467.2
650.763	11422.68
651.115	11556.69
651.467	11474.43
651.819	11522.34
652.171	11510.36
652.523	11532.06
652.875	11502.45
653.227	11432.17
653.578	11478.5
653.93	11516.24
654.282	11474.88
654.633	11441.66
654.985	11414.77
655.337	11417.48
655.688	11487.99
656.039	11513.3
656.391	11276.02
656.742	11416.8
657.094	11509.46
657.445	11457.48
657.796	11449.57
658.147	11446.63
658.498	11456.58
658.849	11456.8
659.2	11473.98
659.551	11397.37
659.902	11485.05
660.253	11480.53
660.604	11446.86
660.955	11407.54
661.306	11496.35
661.656	11521.21
662.007	11475.11
662.358	11493.19
662.708	11447.99
663.059	11393.98
663.409	11453.87
663.76	11528.21
664.11	11437.82
664.461	11492.73
664.811	11518.04
665.161	11492.28
665.511	11528.89
665.862	11519.17
666.212	11527.31
666.562	11481.21
666.912	11485.05
667.262	11474.88
667.612	11540.64
667.962	11510.81
668.312	11527.54
668.662	11559.63
669.011	11512.85
669.361	11485.05
669.711	11474.66
670.06	11459.06
670.41	11440.08
670.76	11467.42
671.109	11474.88
671.459	11471.49
671.808	11497.03
672.157	11480.76
672.507	11390.59
672.856	11386.97
673.205	11380.87
673.554	11393.75
673.904	11399.18
674.253	11393.75
674.602	11370.7
674.951	11214.1
675.3	11143.37
675.649	11376.81
675.998	11275.34
676.346	11313.98
676.695	11320.99
677.044	11260.2
677.393	11282.8
677.741	11290.48
678.09	11222.91
678.438	11273.76
678.787	11253.87
679.135	11271.27
679.484	11201.22
679.832	11239.41
680.181	11221.33
680.529	11244.15
680.877	11178.84
681.225	11117.38
681.573	11195.12
681.922	11068.34
682.27	11055.01
682.618	11075.12
682.966	11028.34
683.314	11058.85
683.661	10988.34
684.009	10984.73
684.357	10953.09
684.705	10924.16
685.053	10925.74
685.4	10854.56
685.748	10845.52
686.095	10903.15
686.443	10747.22
686.79	10789.7
687.138	10781.79
687.485	10788.35
687.832	10749.25
688.18	10705.18
688.527	10613.44
688.874	10634.23
689.221	10682.36
689.568	10596.94
689.915	10604.4
690.262	10629.03
690.609	10521.46
690.956	10452.31
691.303	10400.56
691.65	10441.46
691.997	10371.18
692.344	10371.63
692.69	10275.14
693.037	10304.29
693.383	10244.18
693.73	10257.29
694.077	10212.77
694.423	10159.44
694.769	10124.18
695.116	10134.8
695.462	10100.23
695.808	9992.21
696.155	10022.72
696.501	9969.61
696.847	10020.23
697.193	9867.47
697.539	9911.08
697.885	9886.68
698.231	9794.02
698.577	9795.15
698.923	9760.35
699.269	9743.85
699.614	9639.22
699.96	9613.69
700.306	9647.59
700.651	9583.86
700.997	9535.95
701.342	9570.98
701.688	9450.3
702.033	9448.04
702.379	9456.63
702.724	9306.58
703.069	9416.18
703.415	9373.69
703.76	9333.02
704.105	9265.67
704.45	9218.67
704.795	9214.38
705.14	9147.94
705.485	9195.85
705.83	9150.2
706.175	9148.39
706.52	9075.17
706.865	8977.32
707.209	9027.04
707.554	8972.12
707.899	9009.86
708.243	8944.1
708.588	8922.63
708.932	8809.87
709.277	8815.29
709.621	8855.52
709.966	8827.72
710.31	8841.73
710.654	8709.08
710.998	8683.77
711.342	8654.39
711.687	8712.92
712.031	8698.01
712.375	8535.98
712.719	8685.58
713.063	8622.75
713.407	8654.62
713.75	8596.77
714.094	8568.74
714.438	8582.53
714.782	8565.35
715.125	8551.57
715.469	8567.39
715.812	8480.84
716.156	8497.56
716.499	8474.51
716.843	8449.42
717.186	8470.89
717.53	8496.66
717.873	8450.1
718.216	8377.56
718.559	8437.45
718.902	8388.64
719.246	8345.7
719.589	8331.24
719.932	8324.23
720.275	8308.19
720.617	8294.17
720.96	8307.28
721.303	8332.59
721.646	8279.71
721.989	8251.69
722.331	8251.69
722.674	8236.55
723.016	8283.78
723.359	8253.27
723.701	8272.48
724.044	8215.53
724.386	8163.56
724.729	8216.21
725.071	8169.66
725.413	8127.4
725.755	8171.69
726.097	8124.91
726.439	8068.42
726.782	8069.1
727.124	8128.08
727.465	8059.15
727.807	8102.77
728.149	8113.16
728.491	8117.46
728.833	8041.75
729.175	8060.73
729.516	8071.58
729.858	8051.7
730.199	8088.08
730.541	8022.77
730.882	8065.03
731.224	8060.51
731.565	8044.92
731.906	8025.71
732.248	8074.97
732.589	8058.25
732.93	8016.89
733.271	8055.99
733.612	8031.81
733.953	8109.77
734.294	7998.36
734.635	8022.77
734.976	8049.66
735.317	8015.76
735.658	8019.15
735.999	8027.29
736.339	8015.99
736.68	8092.82
737.021	8066.84
737.361	8038.59
737.702	8081.75
738.042	8054.41
738.383	8019.38
738.723	8038.14
739.063	8034.07
739.404	8068.42
739.744	8089.66
740.084	8087.17
740.424	8107.51
740.764	8066.16
741.104	8111.13
741.444	8088.53
741.784	8088.98
742.124	8118.59
742.464	8163.33
742.804	8128.3
743.143	8196.78
743.483	8194.74
743.823	8178.02
744.162	8228.87
744.502	8206.95
744.841	8266.83
745.181	8325.81
745.52	8246.27
745.86	8309.54
746.199	8338.02
746.538	8413.72
746.877	8459.14
747.216	8491.91
747.556	8466.83
747.895	8542.3
748.234	8525.35
748.573	8583.21
748.911	8721.51
749.25	8663.43
749.589	8721.73
749.928	8819.81
750.267	8868.85
750.605	8916.31
750.944	8985.68
751.283	9008.51
751.621	9115.62
751.96	9161.72
752.298	9260.93
752.636	9393.35
752.975	9371.89
753.313	9406.46
753.651	9634.48
753.989	9576.4
754.327	9740.24
754.666	9820.46
755.004	9865.21
755.342	10077.86
755.679	10131.19
756.017	10188.36
756.355	10341.13
756.693	10435.59
757.031	10615.47
757.368	10659.31
757.706	10785.41
758.044	10839.19
758.381	11030.6
758.719	11099.3
759.056	11274.66
759.394	11422.68
759.731	11505.39
760.068	11702.45
760.405	11770.92
760.743	11836
761.08	12101.98
761.417	12116.9
761.754	12255.65
762.091	12419.26
762.428	12488.19
762.765	12560.5
763.102	12762.76
763.438	12941.96
763.775	13042.52
764.112	13266.25
764.449	13350.09
764.785	13469.86
765.122	13534.04
765.458	13614.49
765.795	13812.22
766.131	13976.29
766.467	13948.26
766.804	14051.76
767.14	14128.6
767.476	14238.88
767.812	14382.15
768.148	14493.33
768.485	14547.34
768.821	14662.82
769.157	14759.99
769.492	14822.59
769.828	15018.52
770.164	14943.49
770.5	15094.67
770.836	15156.14
771.171	15303.26
771.507	15371.28
771.842	15353.2
772.178	15384.16
772.513	15542.35
772.849	15461.22
773.184	15674.32
773.519	15717.71
773.855	15632.74
774.19	15658.73
774.525	15784.83
774.86	15924.93
775.195	15936.23
775.53	15904.6
775.865	15978.49
776.2	15900.98
776.535	15956.12
776.87	16011.71
777.205	15984.59
777.539	15961.09
777.874	16139.17
778.209	15959.96
778.543	16021.2
778.878	16013.52
779.212	16097.13
779.547	15984.14
779.881	16150.69
780.215	16036.57
780.55	16106.17
780.884	16044.71
781.218	16019.17
781.552	16102.33
781.886	16029.56
782.22	16066.63
782.554	16061.88
782.888	15906.86
783.222	15959.06
783.556	15920.41
783.889	16002.22
784.223	15886.74
784.557	15910.92
784.89	15911.38
785.224	15849
785.557	15776.01
785.891	15887.42
786.224	15894.65
786.558	15795.45
786.891	15732.85
787.224	15710.93
787.557	15712.51
787.891	15627.54
788.224	15700.53
788.557	15739.85
788.89	15675.68
789.223	15640.42
789.556	15576.47
789.888	15598.84
790.221	15589.35
790.554	15435.46
790.887	15491.95
791.219	15494.21
791.552	15466.19
791.884	15412.86
792.217	15425.96
792.549	15330.37
792.882	15219.19
793.214	15224.84
793.546	15289.92
793.879	15128.57
794.211	15136.25
794.543	15079.08
794.875	15095.35
795.207	15159.76
795.539	15117.72
795.871	15074.56
796.203	14932.64
796.535	14891.29
796.867	14879.31
797.198	14822.14
797.53	14807.68
797.862	14793.66
798.193	14846.32
798.525	14648.36
798.856	14771.97
799.188	14603.84
799.519	14627.34
799.85	14490.17
800.182	14462.15
800.513	14617.85
800.844	14434.13
801.175	14497.4
801.506	14464.63
801.837	14445.88
802.168	14324.3
802.499	14326.78
802.83	14308.93
803.161	14264.41
803.491	14185.55
803.822	14201.14
804.153	14178.09
804.483	14082.5
804.814	14084.53
805.145	13962.27
805.475	14041.37
805.805	13938.77
806.136	13971.09
806.466	13947.81
806.796	13892.22
807.126	13897.64
807.457	13755.27
807.787	13812.45
808.117	13750.53
808.447	13721.6
808.777	13746.01
809.107	13666.91
809.436	13730.64
809.766	13649.29
810.096	13600.93
810.426	13603.41
810.755	13524.32
811.085	13432.12
811.414	13485.68
811.744	13366.36
812.073	13374.94
812.403	13419.92
812.732	13353.7
813.061	13332.69
813.39	13199.81
813.719	13265.57
814.049	13306.25
814.378	13183.99
814.707	13136.76
815.036	13150.54
815.365	12999.59
815.693	12968.85
816.022	12926.14
816.351	12979.93
816.68	13003.88
817.008	12935.63
817.337	12803.66
817.665	12758.24
817.994	12828.74
818.322	12910.55
818.651	12730.22
818.979	12817.45
819.307	12858.57
819.636	12779.93
819.964	12645.92
820.292	12834.17
820.62	12673.04
820.948	12606.6
821.276	12754.17
821.604	12665.36
821.932	12749.42
822.259	12668.3
822.587	12622.42
822.915	12644.79
823.243	12626.72
823.57	12643.89
823.898	12680.05
824.225	12658.13
824.553	12535.64
824.88	12628.98
825.207	12675.08
825.535	12673.72
825.862	12636.89
826.189	12684.79
826.516	12685.7
826.843	12651.8
827.17	12685.02
827.497	12692.03
827.824	12610.45
828.151	12704.23
828.478	12699.26
828.805	12697.45
829.131	12635.08
829.458	12665.36
829.785	12605.25
830.111	12679.14
830.438	12709.2
830.764	12679.14
831.09	12661.74
831.417	12656.09
831.743	12745.13
832.069	12638.24
832.395	12587.4
832.722	12652.48
833.048	12612.25
833.374	12640.27
833.7	12540.39
834.026	12591.24
834.351	12608.64
834.677	12574.06
835.003	12635.76
835.329	12589.2
835.654	12513.05
835.98	12480.28
836.306	12411.35
836.631	12390.11
836.956	12485.48
837.282	12478.47
837.607	12384.24
837.932	12413.84
838.258	12420.62
838.583	12376.78
838.908	12302.88
839.233	12358.47
839.558	12264.47
839.883	12266.73
840.208	12252.94
840.533	12182.21
840.858	12243.22
841.182	12215.43
841.507	12238.7
841.832	12126.39
842.156	12079.84
842.481	12176.33
842.805	12058.82
843.13	12043
843.454	12085.71
843.778	11918.26
844.103	11975.43
844.427	11969.11
844.751	11946.28
845.075	11997.13
845.399	11874.87
845.723	11734.54
846.047	11830.8
846.371	11734.99
846.695	11738.15
847.019	11610.02
847.343	11612.05
847.666	11599.62
847.99	11462.23
848.313	11443.7
848.637	11403.02
848.96	11382
849.284	11302.68
849.607	11238.5
849.931	11291.16
850.254	11135.23
850.577	11170.94
850.9	11027.89
851.223	11001
851.546	10953.31
851.869	10978.17
852.192	10946.53
852.515	10909.25
852.838	10808.91
853.161	10824.96
853.483	10760.55
853.806	10721
854.129	10637.16
854.451	10636.49
854.774	10535.92
855.096	10549.71
855.419	10609.14
855.741	10528.47
856.063	10481.24
856.385	10461.12
856.708	10426.77
857.03	10360.33
857.352	10384.97
857.674	10304.52
857.996	10309.04
858.318	10257.74
858.64	10324.4
858.961	10209.83
859.283	10141.36
859.605	10165.76
859.926	10121.02
860.248	10153.33
860.57	10114.01
860.891	10046.44
861.212	10011.64
861.534	10008.03
861.855	10000.34
862.176	9951.98
862.498	10013.45
862.819	9932.55
863.14	9917.18
863.461	9895.49
863.782	9851.87
864.103	9872.44
864.424	9827.69
864.745	9821.37
865.065	9811.87
865.386	9728.26
865.707	9716.74
866.027	9682.61
866.348	9694.36
866.668	9687.36
866.989	9638.32
867.309	9605.33
867.63	9662.27
867.95	9697.3
868.27	9585.89
868.59	9601.26
868.91	9602.84
869.23	9610.07
869.55	9481.71
869.87	9602.84
870.19	9476.74
870.51	9541.37
870.83	9473.35
871.15	9437.42
871.469	9497.53
871.789	9467.48
872.109	9476.29
872.428	9345.67
872.748	9458.44
873.067	9426.57
873.386	9384.99
873.706	9342.96
874.025	9298.67
874.344	9328.05
874.663	9303.87
874.982	9219.35
875.301	9309.52
875.62	9250.31
875.939	9195.62
876.258	9237.43
876.577	9242.4
876.896	9177.09
877.214	9242.62
877.533	9218.67
877.852	9196.3
878.17	9162.63
878.489	9163.53
878.807	9128.73
879.125	9106.58
879.444	9162.17
879.762	9094.38
880.08	9095.74
880.398	9101.16
880.716	9130.31
881.034	8948.85
881.352	9059.13
881.67	8994.72
881.988	8973.93
882.306	8971.9
882.624	8974.38
882.941	8882.18
883.259	8863.65
883.577	8894.84
883.894	8793.37
884.212	8817.55
884.529	8865.91
884.846	8793.6
885.164	8775.74
885.481	8720.15
885.798	8755.18
886.115	8730.55
886.432	8695.75
886.75	8594.51
887.067	8702.53
887.383	8602.19
887.7	8599.25
888.017	8506.82
888.334	8542.98
888.651	8556.09
888.967	8487.62
889.284	8453.94
889.6	8415.98
889.917	8465.24
890.233	8385.02
890.55	8324.68
890.866	8361.07
891.182	8325.59
891.498	8345.47
891.815	8267.51
892.131	8224.57
892.447	8226.38
892.763	8207.62
893.079	8199.49
893.395	8158.36
893.71	8115.2
894.026	8091.47
894.342	8090.56
894.657	8053.28
894.973	8114.97
895.289	8068.42
895.604	8049.21
895.92	7981.87
896.235	7934.64
896.55	7960.4
896.865	7945.26
897.181	7844.47
897.496	7814.87
897.811	7874.75
898.126	7771.25
898.441	7695.55
898.756	7736.22
899.071	7674.53
899.386	7760.86
899.7	7685.38
900.015	7599.5
900.33	7568.77
900.644	7558.37
900.959	7564.02
901.273	7479.51
901.588	7470.92
901.902	7416.23
902.216	7365.16
902.531	7371.04
902.845	7336.01
903.159	7320.41
903.473	7285.84
903.787	7286.07
904.101	7287.65
904.415	7198.38
904.729	7242.22
905.042	7162.68
905.356	7181.21
905.67	7156.13
905.984	7107.09
906.297	7106.41
906.611	6978.95
906.924	7017.15
907.237	7013.98
907.551	6991.38
907.864	6942.8
908.177	6914.78
908.491	6885.85
908.804	6847.66
909.117	6839.07
909.43	6750.49
909.743	6743.93
910.056	6685.86
910.368	6724.5
910.681	6682.92
910.994	6674.78
911.307	6641.79
911.619	6502.81
911.932	6591.17
912.244	6538.97
912.557	6509.36
912.869	6418.29
913.181	6513.43
913.494	6439.08
913.806	6420.1
914.118	6398.63
914.43	6401.79
914.742	6344.85
915.054	6347.11
915.366	6292.42
915.678	6250.84
915.99	6239.54
916.302	6227.79
916.613	6186.21
916.925	6168.35
917.236	6168.13
917.548	6103.27
917.859	6112.54
918.171	6059.43
918.482	6003.61
918.794	6054.46
919.105	6010.84
919.416	5943.05
919.727	5978.3
920.038	5950.73
920.349	5877.51
920.66	5874.58
920.971	5847.91
921.282	5876.61
921.593	5788.03
921.903	5773.79
922.214	5715.03
922.525	5715.49
922.835	5697.86
923.146	5692.89
923.456	5705.09
923.767	5646.11
924.077	5591.19
924.387	5592.32
924.697	5573.79
925.008	5574.25
925.318	5521.37
925.628	5508.26
925.938	5506.9
926.248	5448.83
926.558	5409.73
926.867	5432.55
927.177	5382.84
927.487	5367.7
927.796	5306.23
928.106	5298.77
928.416	5357.3
928.725	5328.6
929.034	5249.73
929.344	5269.62
929.653	5250.86
929.962	5162.28
930.271	5170.87
930.581	5172
930.89	5103.98
931.199	5106.46
931.508	5107.14
931.817	5049.06
932.125	5019.91
932.434	5054.26
932.743	4974.26
933.051	4974.04
933.36	4972
933.669	4948.73
933.977	4924.09
934.286	4939.01
934.594	4895.85
934.902	4796.64
935.21	4844.1
935.519	4833.93
935.827	4799.13
936.135	4780.37
936.443	4735.17
936.751	4754.83
937.059	4681.61
937.367	4658.11
937.674	4660.15
937.982	4688.39
938.29	4697.88
938.597	4685.68
938.905	4594.84
939.213	4567.49
939.52	4569.07
939.827	4561.39
940.135	4515.97
940.442	4498.57
940.749	4511.22
941.056	4520.49
941.363	4426.93
941.67	4399.36
941.977	4413.37
942.284	4377.22
942.591	4384.22
942.898	4331.11
943.205	4339.02
943.511	4345.13
943.818	4294.73
944.125	4282.53
944.431	4220.61
944.738	4256.54
945.044	4209.54
945.35	4221.97
945.657	4146.71
945.963	4185.36
946.269	4134.06
946.575	4166.15
946.881	4130.44
947.187	4091.57
947.493	4085.25
947.799	4079.82
948.105	4034.85
948.41	4029.88
948.716	4008.86
949.022	3998.47
949.327	4018.13
949.633	3941.97
949.938	3961.63
950.244	3955.76
950.549	3946.27
950.854	3917.57
951.16	3887.06
951.465	3857.68
951.77	3850
952.075	3846.16
952.38	3809.55
952.685	3857.68
952.99	3737.91
953.294	3772.94
953.599	3754.18
953.904	3762.99
954.209	3723.22
954.513	3748.08
954.818	3698.14
955.122	3660.17
955.426	3641.87
955.731	3658.36
956.035	3655.88
956.339	3599.38
956.643	3600.96
956.948	3558.25
957.252	3576.56
957.556	3562.55
957.86	3531.14
958.163	3541.98
958.467	3561.64
958.771	3509.67
959.075	3492.49
959.378	3483.68
959.682	3480.74
959.985	3452.49
960.289	3396
960.592	3411.14
960.896	3412.27
961.199	3373.17
961.502	3375.43
961.805	3360.52
962.108	3329.56
962.411	3317.36
962.714	3312.61
963.017	3296.57
963.32	3282.1
963.623	3290.69
963.926	3270.58
964.228	3246.4
964.531	3218.83
964.833	3203.23
965.136	3175.44
965.438	3184.25
965.741	3129.56
966.043	3182.44
966.345	3166.85
966.648	3135.89
966.95	3110.36
967.252	3109
967.554	3127.08
967.856	3062.67
968.158	3081.88
968.46	3042.34
968.761	3060.87
969.063	3039.62
969.365	2989.68
969.666	3033.52
969.968	3002.79
970.269	2964.6
970.571	2973.64
970.872	2953.52
971.174	2939.51
971.475	2937.71
971.776	2893.41
972.077	2887.31
972.378	2921.89
972.679	2890.47
972.98	2866.52
973.281	2917.82
973.582	2861.1
973.883	2890.25
974.183	2843.92
974.484	2815
974.785	2793.53
975.085	2805.51
975.386	2778.16
975.686	2733.64
975.986	2731.38
976.287	2749.91
976.587	2708.33
976.887	2711.5
977.187	2708.78
977.487	2686.41
977.787	2662.68
978.087	2633.31
978.387	2642.57
978.687	2625.17
978.987	2612.29
979.286	2591.73
979.586	2623.59
979.885	2603.7
980.185	2572.97
980.484	2541.56
980.784	2551.5
981.083	2563.93
981.382	2540.88
981.682	2525.51
981.981	2498.17
982.28	2504.04
982.579	2468.57
982.878	2488.23
983.177	2469.02
983.475	2465.85
983.774	2460.88
984.073	2456.14
984.372	2432.86
984.67	2407.55
984.969	2424.72
985.267	2445.06
985.566	2416.81
985.864	2376.59
986.162	2366.19
986.461	2376.36
986.759	2307.89
987.057	2309.7
987.355	2296.14
987.653	2312.64
987.951	2287.55
988.249	2286.65
988.547	2315.57
988.844	2336.37
989.142	2281
989.44	2256.59
989.737	2249.14
990.035	2256.59
990.332	2249.14
990.63	2198.97
990.927	2186.09
991.224	2183.83
991.521	2172.75
991.819	2180.21
992.116	2167.78
992.413	2139.76
992.71	2109.93
993.006	2159.19
993.303	2125.98
993.6	2087.11
993.897	2122.13
994.193	2119.87
994.49	2092.98
994.787	2068.58
995.083	2079.2
995.379	2064.96
995.676	2068.8
995.972	2047.56
996.268	1993.55
996.565	2002.14
996.861	2030.84
997.157	1983.15
997.453	2015.7
997.749	1978.41
998.044	1952.42
998.34	1969.14
998.636	1957.17
998.932	1920.33
999.227	1906.09
999.523	1941.57
999.818	1896.15
1000.114	1911.97
1000.409	1892.76
1000.704	1910.61
1001	1879.65
1001.295	1864.51
1001.59	1870.16
1001.885	1840.78
1002.18	1833.78
1002.475	1829.03
1002.77	1807.34
1003.065	1800.79
1003.359	1789.26
1003.654	1789.26
1003.949	1763.5
1004.243	1746.32
1004.538	1754.46
1004.832	1760.79
1005.127	1763.5
1005.421	1731.86
1005.715	1729.83
1006.009	1718.53
1006.304	1725.31
1006.598	1721.92
1006.892	1714.23
1007.186	1688.02
1007.48	1639.43
1007.773	1675.14
1008.067	1658.42
1008.361	1627.01
1008.655	1613.9
1008.948	1590.85
1009.242	1592.66
1009.535	1603.5
1009.829	1594.46
1010.122	1601.7
1010.415	1560.79
1010.708	1556.95
1011.001	1548.82
1011.295	1549.27
1011.588	1524.41
1011.881	1534.8
1012.173	1530.06
1012.466	1531.41
1012.759	1492.55
1013.052	1510.62
1013.344	1464.52
1013.637	1436.5
1013.93	1492.09
1014.222	1483.96
1014.514	1451.42
1014.807	1457.29
1015.099	1451.42
1015.391	1436.5
1015.683	1454.35
1015.976	1415.94
1016.268	1401.02
1016.56	1384.75
1016.851	1399.44
1017.143	1373
1017.435	1380.68
1017.727	1374.13
1018.018	1383.85
1018.31	1368.48
1018.602	1350.63
1018.893	1341.14
1019.185	1332.1
1019.476	1306.56
1019.767	1305.66
1020.058	1296.17
1020.35	1282.16
1020.641	1274.02
1020.932	1264.53
1021.223	1254.59
1021.514	1260.91
1021.804	1263.17
1022.095	1253.46
1022.386	1239.44
1022.677	1249.39
1022.967	1230.18
1023.258	1225.89
1023.548	1188.15
1023.839	1202.16
1024.129	1195.38
1024.419	1169.62
1024.709	1182.72
1025	1173.68
1025.29	1151.31
1025.58	1146.34
1025.87	1161.25
1026.16	1127.36
1026.449	1161.71
1026.739	1117.64
1027.029	1124.42
1027.319	1115.83
1027.608	1110.41
1027.898	1099.56
1028.187	1076.06
1028.477	1072.22
1028.766	1096.62
1029.055	1041.03
1029.344	1048.72
1029.634	1046.23
1029.923	1061.82
1030.212	1062.05
1030.501	1035.16
1030.79	1025.44
1031.078	1019.11
1031.367	993.8
1031.656	1002.61
1031.945	989.06
1032.233	991.32
1032.522	996.51
1032.81	979.79
1033.099	954.25
1033.387	975.95
1033.675	980.02
1033.963	967.59
1034.251	954.03
1034.54	956.29
1034.828	970.98
1035.116	933.92
1035.403	948.38
1035.691	936.4
1035.979	931.2
1036.267	938.21
1036.554	920.36
1036.842	903.63
1037.129	900.02
1037.417	875.39
1037.704	876.06
1037.992	874.26
1038.279	872.45
1038.566	869.29
1038.853	869.29
1039.14	869.29
