Data from hue_150_FLMS001491_00070.txt Node
Date: Tue Feb 07 16:54:23 GMT 2017
User: dcchb
Spectrometer: FLMS00149
Trigger mode: 0
Integration Time (sec): 2.000000E-2
Scans to average: 10
Electric dark correction enabled: true
Nonlinearity correction enabled: false
Boxcar width: 0
XAxis mode: Wavelengths
Number of Pixels in Spectrum: 2048
>>>>>Begin Spectral Data<<<<<
341.393	-14.25
341.776	-14.25
342.16	-14.25
342.543	-48.15
342.927	-60.8
343.31	-53.8
343.693	-80.01
344.077	-62.39
344.46	-50.18
344.843	-52.89
345.226	-48.15
345.61	-34.59
345.993	-12.9
346.376	-15.83
346.759	21.68
347.142	23.26
347.525	54
347.908	55.8
348.291	66.42
348.674	98.29
349.057	91.28
349.44	123.82
349.823	146.2
350.206	174.67
350.588	198.62
350.971	210.83
351.354	212.18
351.737	242.92
352.119	259.87
352.502	268
352.884	271.39
353.267	281.33
353.65	303.25
354.032	301.9
354.414	320.88
354.797	300.54
355.179	305.51
355.562	290.83
355.944	321.79
356.326	326.76
356.709	339.86
357.091	323.37
357.473	333.99
357.855	340.54
358.238	343.25
358.62	329.02
359.002	337.15
359.384	333.76
359.766	335.57
360.148	329.24
360.53	356.59
360.912	333.08
361.294	334.67
361.676	332.63
362.057	326.53
362.439	331.73
362.821	333.54
363.203	317.04
363.584	315.23
363.966	324.5
364.348	322.01
364.729	317.04
365.111	324.95
365.493	310.49
365.874	327.89
366.256	326.3
366.637	304.84
367.019	316.14
367.4	315.46
367.781	312.97
368.163	305.51
368.544	308.68
368.925	285.63
369.306	334.89
369.688	307.55
370.069	310.71
370.45	318.62
370.831	282.46
371.212	322.46
371.593	323.82
371.974	302.8
372.355	312.07
372.736	325.63
373.117	336.47
373.498	307.55
373.879	327.21
374.26	317.49
374.641	312.07
375.021	343.93
375.402	308.45
375.783	332.41
376.163	329.69
376.544	342.58
376.925	317.04
377.305	333.54
377.686	331.95
378.066	329.02
378.447	309.13
378.827	323.37
379.208	322.24
379.588	326.08
379.968	320.88
380.349	332.41
380.729	338.73
381.109	341.45
381.489	337.15
381.87	352.29
382.25	341.67
382.63	340.54
383.01	345.51
383.39	337.38
383.77	346.87
384.15	343.25
384.53	366.08
384.91	343.93
385.29	364.5
385.67	342.12
386.049	353.42
386.429	334.44
386.809	361.33
387.189	345.51
387.568	375.34
387.948	364.27
388.328	360.2
388.707	370.15
389.087	354.1
389.466	370.15
389.846	367.89
390.225	378.51
390.605	387.32
390.984	363.82
391.363	363.59
391.743	388.68
392.122	382.57
392.501	375.8
392.881	385.51
393.26	398.62
393.639	388
394.018	371.28
394.397	409.24
394.776	407.66
395.155	385.06
395.534	394.1
395.913	405.4
396.292	393.65
396.671	398.17
397.05	394.55
397.429	397.72
397.808	389.81
398.186	396.13
398.565	405.62
398.944	401.56
399.323	430.93
399.701	384.38
400.08	418.73
400.458	406.75
400.837	430.48
401.215	404.72
401.594	416.25
401.972	413.76
402.351	414.89
402.729	409.92
403.107	431.16
403.486	418.96
403.864	426.19
404.242	440.43
404.62	463.93
404.999	444.04
405.377	429.13
405.755	439.07
406.133	442.01
406.511	456.47
406.889	446.98
407.267	458.05
407.645	474.32
408.023	449.47
408.401	453.53
408.779	468.22
409.156	468.9
409.534	482.01
409.912	458.5
410.29	489.69
410.667	460.54
411.045	473.87
411.422	507.54
411.8	482.46
412.178	514.55
412.555	522.91
412.933	510.25
413.31	506.64
413.687	501.89
414.065	522.23
414.442	531.05
414.819	538.28
415.197	531.95
415.574	536.92
415.951	532.85
416.328	540.54
416.705	543.47
417.082	560.88
417.46	538.5
417.837	545.73
418.214	555
418.591	554.77
418.967	536.47
419.344	570.59
419.721	541.89
420.098	576.24
420.475	582.34
420.852	580.54
421.228	582.57
421.605	573.08
421.982	586.19
422.358	599.74
422.735	626.18
423.111	602.46
423.488	621.89
423.864	591.83
424.241	605.85
424.617	594.09
424.994	605.62
425.37	626.18
425.746	635
426.123	641.1
426.499	631.61
426.875	648.33
427.251	635
427.627	622.79
428.003	663.92
428.379	668.22
428.756	671.83
429.132	701.89
429.507	674.09
429.883	702.34
430.259	700.53
430.635	715.22
431.011	696.92
431.387	735.11
431.763	717.48
432.138	741.44
432.514	738.5
432.89	752.51
433.265	746.63
433.641	769.91
434.016	775.56
434.392	765.62
434.767	800.19
435.143	801.77
435.518	787.76
435.894	823.92
436.269	814.43
436.644	830.7
437.02	828.89
437.395	832.28
437.77	846.74
438.145	865.05
438.52	842.22
438.895	839.96
439.271	844.94
439.646	864.6
440.021	894.65
440.395	888.1
440.77	883.58
441.145	878.15
441.52	915.67
441.895	919.74
442.27	914.99
442.645	912.28
443.019	918.15
443.394	957.93
443.769	961.09
444.143	944.59
444.518	967.87
444.892	978.27
445.267	976.01
445.641	987.53
446.016	1002.45
446.39	980.98
446.764	965.16
447.139	1004.93
447.513	1016.46
447.887	1002.45
448.262	1000.86
448.636	1016.46
449.01	1019.39
449.384	1031.37
449.758	1051.03
450.132	1056.91
450.506	1077.02
450.88	1078.83
451.254	1064.82
451.628	1089
452.002	1109.34
452.376	1126.74
452.75	1135.1
453.123	1124.7
453.497	1133.06
453.871	1153.85
454.244	1193.17
454.618	1220.07
454.992	1208.09
455.365	1207.19
455.739	1220.74
456.112	1242.44
456.486	1265.26
456.859	1262.55
457.232	1276.79
457.606	1278.14
457.979	1308.43
458.352	1312.27
458.725	1334.41
459.099	1351.36
459.472	1379.38
459.845	1388.88
460.218	1408.31
460.591	1415.32
460.964	1446.5
461.337	1443.79
461.71	1442.89
462.083	1507.29
462.456	1516.78
462.829	1527.18
463.201	1551.36
463.574	1532.83
463.947	1605.37
464.32	1592.03
464.692	1620.73
465.065	1649.66
465.438	1663.44
465.81	1687.17
466.183	1690.79
466.555	1786.61
466.928	1764.46
467.3	1775.98
467.672	1774.85
468.045	1851.69
468.417	1904.34
468.789	1890.56
469.161	1928.97
469.534	1979.14
469.906	2006.49
470.278	2033.38
470.65	2064.11
471.022	2093.04
471.394	2159.93
471.766	2181.62
472.138	2223.43
472.51	2247.84
472.882	2328.06
473.253	2349.08
473.625	2389.3
473.997	2433.59
474.369	2483.31
474.74	2512.46
475.112	2599.92
475.484	2631.78
475.855	2703.87
476.227	2761.27
476.598	2876.52
476.97	2883.75
477.341	2976.4
477.713	3048.95
478.084	3081.49
478.455	3219.56
478.827	3244.87
479.198	3382.04
479.569	3381.82
479.94	3490.29
480.311	3584.98
480.682	3721.47
481.053	3795.82
481.424	3923.72
481.795	3961.69
482.166	4089.82
482.537	4164.17
482.908	4286.43
483.279	4378.4
483.65	4491.17
484.021	4643.48
484.391	4704.72
484.762	4825.17
485.133	4923.02
485.503	5033.75
485.874	5172.28
486.244	5301.99
486.615	5469.45
486.985	5543.34
487.356	5715.32
487.726	5781.3
488.097	5983.33
488.467	5967.96
488.837	6199.14
489.207	6335.41
489.578	6505.13
489.948	6647.95
490.318	6797.1
490.688	6814.04
491.058	7038.9
491.428	7183.07
491.798	7324.54
492.168	7511.43
492.538	7610.86
492.908	7745.09
493.278	7893.11
493.648	8020.79
494.017	8152.77
494.387	8249.71
494.757	8384.62
495.126	8552.76
495.496	8613.54
495.866	8713.2
496.235	8918.17
496.605	9091.5
496.974	9176.24
497.344	9246.07
497.713	9414.88
498.082	9581.43
498.452	9642.22
498.821	9744.36
499.19	9795.66
499.559	9943.91
499.928	10099.61
500.298	10177.35
500.667	10261.41
501.036	10311.13
501.405	10447.62
501.774	10508.86
502.143	10626.37
502.512	10673.38
502.88	10815.29
503.249	10883.54
503.618	11012.8
503.987	11070.2
504.356	11152.69
504.724	11253.93
505.093	11356.07
505.462	11360.14
505.83	11468.61
506.199	11590.19
506.567	11733.01
506.936	11708.83
507.304	11910.86
507.672	11923.74
508.041	12037.86
508.409	12132.1
508.777	12117.18
509.145	12226.33
509.514	12274.24
509.882	12427.68
510.25	12354.01
510.618	12425.87
510.986	12524.63
511.354	12646.21
511.722	12735.7
512.09	12719.88
512.458	12719.2
512.826	12850.27
513.193	12923.94
513.561	13012.3
513.929	13018.63
514.297	13154.67
514.664	13151.05
515.032	13270.15
515.4	13331.16
515.767	13312.86
516.135	13323.7
516.502	13343.36
516.869	13552.85
517.237	13497.71
517.604	13461.78
517.972	13702.45
518.339	13662.9
518.706	13626.75
519.073	13610.93
519.44	13700.87
519.808	13801.2
520.175	13741.32
520.542	13970.24
520.909	13918.72
521.276	13925.04
521.643	14024.48
522.009	14052.5
522.376	14117.58
522.743	14181.53
523.11	14230.57
523.477	14306.95
523.843	14366.84
524.21	14432.15
524.577	14498.81
524.943	14394.41
525.31	14513.28
525.676	14547.17
526.043	14718.02
526.409	14676.66
526.776	14828.3
527.142	14731.35
527.508	14769.99
527.874	14868.97
528.241	14849.31
528.607	14812.03
528.973	14903.32
529.339	14821.74
529.705	14982.87
530.071	14999.14
530.437	14920.95
530.803	14976.32
531.169	14982.87
531.535	14964.79
531.901	15039.36
532.267	14943.1
532.632	15004.79
532.998	14939.48
533.364	14932.02
533.73	14908.29
534.095	15063.77
534.461	15069.87
534.826	15086.37
535.192	15055.86
535.557	15093.37
535.923	14993.26
536.288	15028.97
536.653	15052.92
537.019	14911.91
537.384	14975.19
537.749	14915.98
538.114	14986.94
538.479	14830.78
538.845	14888.63
539.21	14869.43
539.575	14765.47
539.94	14824.45
540.305	14815.64
540.67	14748.98
541.034	14755.53
541.399	14743.1
541.764	14701.97
542.129	14719.82
542.494	14611.35
542.858	14642.54
543.223	14565.93
543.587	14557.12
543.952	14556.67
544.316	14550.56
544.681	14454.3
545.045	14459.04
545.41	14552.15
545.774	14424.69
546.138	14431.47
546.503	14507.18
546.867	14436.22
547.231	14472.15
547.595	14404.58
547.959	14350.12
548.324	14314.41
548.688	14201.19
549.052	14334.07
549.416	14275.77
549.779	14224.47
550.143	14257.46
550.507	14179.95
550.871	14164.13
551.235	14120.74
551.599	14118.26
551.962	14080.29
552.326	14059.05
552.689	14173.17
553.053	13963.69
553.417	13990.13
553.78	14173.62
554.143	13981.31
554.507	14029.45
554.87	13966.17
555.234	14085.27
555.597	13970.92
555.96	13946.29
556.323	13982.22
556.686	13921.2
557.05	13993.29
557.413	13942.22
557.776	13971.14
558.139	13993.74
558.502	13992.16
558.865	13951.71
559.228	13958.04
559.59	13978.38
559.953	14000.07
560.316	14061.54
560.679	13997.81
561.041	14089.33
561.404	14092.27
561.767	14051.37
562.129	13940.64
562.492	14153.96
562.854	14100.63
563.217	14050.92
563.579	14086.85
563.941	14104.25
564.304	14164.81
564.666	14081.65
565.028	14176.56
565.39	14199.84
565.753	14265.37
566.115	14286.84
566.477	14262.66
566.839	14229.44
567.201	14331.13
567.563	14248.2
567.925	14354.64
568.287	14308.54
568.648	14294.98
569.01	14378.36
569.372	14482.54
569.734	14435.76
570.095	14428.76
570.457	14541.07
570.819	14530.45
571.18	14408.42
571.542	14498.14
571.903	14475.31
572.265	14522.77
572.626	14558.25
572.987	14521.41
573.349	14597.57
573.71	14624.23
574.071	14649.32
574.432	14608.64
574.794	14724.12
575.155	14741.97
575.516	14637.57
575.877	14721.18
576.238	14744.23
576.599	14729.54
576.96	14746.26
577.32	14713.5
577.681	14713.27
578.042	14850.67
578.403	14866.04
578.763	14743.1
579.124	14831.91
579.485	14860.84
579.845	14763.21
580.206	14760.05
580.566	14777.68
580.927	14796.66
581.287	14833.49
581.648	14760.95
582.008	14905.13
582.368	14766.15
582.728	14765.93
583.089	14749.65
583.449	14816.09
583.809	14690.67
584.169	14760.05
584.529	14650.9
584.889	14762.08
585.249	14700.84
585.609	14648.41
585.969	14782.65
586.329	14736.32
586.688	14746.49
587.048	14657.68
587.408	14750.78
587.768	14649.54
588.127	14708.07
588.487	14710.33
588.846	14766.83
589.206	14576.78
589.565	14714.4
589.925	14689.54
590.284	14641.18
590.643	14680.96
591.003	14686.83
591.362	14665.81
591.721	14561.41
592.08	14659.26
592.44	14641.41
592.799	14619.49
593.158	14626.72
593.517	14605.7
593.876	14621.07
594.235	14582.2
594.593	14574.29
594.952	14572.71
595.311	14574.74
595.67	14554.63
596.029	14657.23
596.387	14671.69
596.746	14626.49
597.104	14532.49
597.463	14498.81
597.822	14619.94
598.18	14524.35
598.538	14566.16
598.897	14632.6
599.255	14485.03
599.613	14653.61
599.972	14485.25
600.33	14627.17
600.688	14542.43
601.046	14571.13
601.404	14681.86
601.762	14585.37
602.12	14664.01
602.478	14621.97
602.836	14606.38
603.194	14500.4
603.552	14622.43
603.91	14556.21
604.268	14574.97
604.625	14445.03
604.983	14680.96
605.341	14515.31
605.698	14724.57
606.056	14671.92
606.413	14613.16
606.771	14694.06
607.128	14704.01
607.485	14604.8
607.843	14609.55
608.2	14673.5
608.557	14736.55
608.914	14606.38
609.272	14713.5
609.629	14706.72
609.986	14795.08
610.343	14661.3
610.7	14836.66
611.057	14745.13
611.414	14688.19
611.771	14697.68
612.127	14832.82
612.484	14773.38
612.841	14852.7
613.198	14769.99
613.554	14775.19
613.911	14802.53
614.267	14780.16
614.624	14792.82
614.98	14767.28
615.337	14864.68
615.693	14821.52
616.05	14804.57
616.406	14963.66
616.762	14888.41
617.118	14850.22
617.475	14920.95
617.831	14977.67
618.187	14967.73
618.543	14930.67
618.899	15017.9
619.255	15096.09
619.611	14992.59
619.967	14947.16
620.323	15029.65
620.678	14953.94
621.034	14967.95
621.39	14963.89
621.746	14995.07
622.101	15132.24
622.457	15017.22
622.812	15034.84
623.168	15059.25
623.523	15027.84
623.879	15045.47
624.234	15020.83
624.589	15012.25
624.945	15028.07
625.3	15023.77
625.655	14986.71
626.01	15020.83
626.365	15055.86
626.72	15070.1
627.075	15033.94
627.43	15039.82
627.785	14956.88
628.14	15033.04
628.495	15047.27
628.85	15020.83
629.205	14994.85
629.559	15052.02
629.914	14939.71
630.269	15022.19
630.623	14905.58
630.978	14952.81
631.332	15056.77
631.687	14954.17
632.041	14981.06
632.396	14951.91
632.75	14818.13
633.104	14876.88
633.459	14801.86
633.813	14828.3
634.167	14826.04
634.521	14890.44
634.875	14848.63
635.229	14736.77
635.583	14723.21
635.937	14697.68
636.291	14709.66
636.645	14700.16
636.999	14697.45
637.352	14607.51
637.706	14612.93
638.06	14692.48
638.413	14575.2
638.767	14625.36
639.121	14614.74
639.474	14432.6
639.828	14506.72
640.181	14501.53
640.534	14429.66
640.888	14357.12
641.241	14412.94
641.594	14352.15
641.947	14492.71
642.301	14362.77
642.654	14484.35
643.007	14489.1
643.36	14324.81
643.713	14389.89
644.066	14414.3
644.419	14317.12
644.771	14273.96
645.124	14155.77
645.477	14181.99
645.83	14040.52
646.182	14053.4
646.535	13965.27
646.888	13993.97
647.24	13809.34
647.593	13964.82
647.945	13882.11
648.298	13842.79
648.65	13715.56
649.002	13766.63
649.355	13885.72
649.707	13812.28
650.059	13918.49
650.411	14020.86
650.763	14030.58
651.115	14128.2
651.467	14147.64
651.819	14138.37
652.171	14184.7
652.523	14093.17
652.875	14146.28
653.227	14022.44
653.578	14132.5
653.93	14146.96
654.282	14111.71
654.633	14046.85
654.985	14089.33
655.337	14148.99
655.688	14104.02
656.039	14092.95
656.391	14057.47
656.742	14071.93
657.094	14119.61
657.445	14184.7
657.796	14097.02
658.147	14152.16
658.498	14155.77
658.849	14196.45
659.2	14117.58
659.551	14125.72
659.902	14195.54
660.253	14151.93
660.604	14078.71
660.955	14061.31
661.306	14156.68
661.656	14109.9
662.007	14154.19
662.358	14144.7
662.708	14119.84
663.059	14186.73
663.409	14046.62
663.76	14252.94
664.11	14207.52
664.461	14253.4
664.811	14200.06
665.161	14125.26
665.511	14106.28
665.862	14211.82
666.212	14205.49
666.562	14256.56
666.912	14246.39
667.262	14183.12
667.612	14191.93
667.962	14179.73
668.312	14167.97
668.662	14219.5
669.011	14177.69
669.361	14123.23
669.711	14197.58
670.06	14181.76
670.41	14090.24
670.76	14107.86
671.109	14084.36
671.459	14063.34
671.808	14058.15
672.157	14141.08
672.507	13975.89
672.856	13952.84
673.205	13963.01
673.554	14058.6
673.904	13980.18
674.253	14041.65
674.602	13986.51
674.951	13861.77
675.3	13787.42
675.649	13973.86
675.998	13869
676.346	13963.23
676.695	13954.42
677.044	13886.85
677.393	13933.18
677.741	13974.08
678.09	13867.42
678.438	13827.87
678.787	13887.08
679.135	13844.59
679.484	13734.09
679.832	13769.57
680.181	13720.76
680.529	13688.44
680.877	13700.64
681.225	13651.83
681.573	13646.63
681.922	13580.87
682.27	13569.8
682.618	13534.32
682.966	13591.94
683.314	13541.1
683.661	13462.46
684.009	13422.68
684.357	13449.35
684.705	13394.44
685.053	13472.63
685.4	13442.34
685.748	13329.13
686.095	13372.97
686.443	13266.98
686.79	13264.72
687.138	13271.5
687.485	13257.26
687.832	13222.92
688.18	13193.54
688.527	13079.87
688.874	13056.82
689.221	13111.96
689.568	13040.32
689.915	13080.77
690.262	13025.63
690.609	12942.47
690.956	12890.95
691.303	12819.31
691.65	12862.02
691.997	12812.98
692.344	12720.56
692.69	12657.73
693.037	12669.48
693.383	12553.78
693.73	12537.96
694.077	12464.97
694.423	12506.32
694.769	12461.13
695.116	12410.96
695.462	12388.36
695.808	12374.8
696.155	12301.13
696.501	12224.3
696.847	12204.86
697.193	12213.45
697.539	12141.81
697.885	12089.39
698.231	12044.41
698.577	12031.08
698.923	12052.55
699.269	12001.7
699.614	11963.51
699.96	11832.9
700.306	11816.85
700.651	11789.96
700.997	11705.67
701.342	11663.18
701.688	11638.55
702.033	11652.33
702.379	11584.54
702.724	11577.99
703.069	11531.21
703.415	11476.52
703.76	11428.16
704.105	11470.19
704.45	11393.36
704.795	11363.53
705.14	11306.81
705.485	11251.22
705.83	11234.27
706.175	11214.38
706.52	11180.71
706.865	11132.8
707.209	11183.42
707.554	11014.61
707.899	11106.36
708.243	10973.48
708.588	11031.11
708.932	10974.84
709.277	10919.25
709.621	10903.43
709.966	10838.34
710.31	10885.8
710.654	10732.13
710.998	10759.7
711.342	10771.68
711.687	10760.15
712.031	10694.62
712.375	10682.87
712.719	10701.63
713.063	10686.26
713.407	10639.03
713.75	10617.11
714.094	10597
714.438	10515.42
714.782	10537.11
715.125	10461.18
715.469	10485.59
715.812	10546.6
716.156	10420.05
716.499	10434.29
716.843	10389.09
717.186	10389.77
717.53	10368.75
717.873	10406.72
718.216	10330.34
718.559	10322.65
718.902	10265.48
719.246	10277
719.589	10283.33
719.932	10164.24
720.275	10235.65
720.617	10180.96
720.96	10159.04
721.303	10198.81
721.646	10157.91
721.989	10135.31
722.331	10103.9
722.674	10103.22
723.016	10208.76
723.359	10071.36
723.701	10117.01
724.044	10026.39
724.386	10041.3
724.729	10083.56
725.071	10044.24
725.413	10070
725.755	9976.22
726.097	9960.63
726.439	9921.08
726.782	9942.55
727.124	10089.44
727.465	9991.81
727.807	9959.95
728.149	9924.24
728.491	9846.51
728.833	9943.23
729.175	9963.34
729.516	9894.87
729.858	9949.78
730.199	9947.07
730.541	9870.01
730.882	9909.56
731.224	9851.93
731.565	9865.04
731.906	9900.29
732.248	9891.03
732.589	9842.89
732.93	9783.68
733.271	9818.48
733.612	9832.72
733.953	9837.47
734.294	9730.8
734.635	9835.43
734.976	9850.12
735.317	9777.36
735.658	9851.03
735.999	9798.15
736.339	9822.33
736.68	9863.68
737.021	9777.13
737.361	9747.53
737.702	9777.58
738.042	9788.43
738.383	9800.18
738.723	9796.34
739.063	9768.54
739.404	9848.77
739.744	9796.79
740.084	9755.89
740.424	9863.46
740.764	9787.75
741.104	9924.7
741.444	9859.84
741.784	9863
742.124	9836.79
742.464	9920.85
742.804	9944.36
743.143	9841.99
743.483	9989.1
743.823	9948.65
744.162	9976.45
744.502	10033.17
744.841	9988.42
745.181	10114.97
745.52	10065.48
745.86	10126.27
746.199	10123.56
746.538	10191.13
746.877	10283.11
747.216	10270.22
747.556	10256.21
747.895	10383.89
748.234	10399.03
748.573	10447.17
748.911	10473.61
749.25	10545.7
749.589	10611.23
749.928	10657.56
750.267	10761.96
750.605	10832.24
750.944	10853.26
751.283	10847.61
751.621	10972.35
751.96	10990.88
752.298	11068.85
752.636	11243.98
752.975	11272.46
753.313	11284.43
753.651	11436.3
753.989	11553.35
754.327	11672.67
754.666	11646.23
755.004	11899.11
755.342	11970.07
755.679	12081.7
756.017	12193.56
756.355	12369.83
756.693	12440.34
757.031	12615.93
757.368	12698.18
757.706	12764.4
758.044	12895.69
758.381	13102.24
758.719	13258.85
759.056	13465.62
759.394	13539.97
759.731	13611.38
760.068	13733.64
760.405	14000.75
760.743	14154.42
761.08	14259.05
761.417	14416.33
761.754	14432.37
762.091	14722.76
762.428	14779.03
762.765	14878.46
763.102	15176.08
763.438	15247.49
763.775	15353.71
764.112	15539.92
764.449	15750.98
764.785	15847.7
765.122	15900.36
765.458	16080.69
765.795	16313.91
766.131	16477.07
766.467	16521.81
766.804	16615.59
767.14	16732.88
767.476	16937.17
767.812	16900.33
768.148	17155.24
768.485	17256.93
768.821	17290.83
769.157	17431.17
769.492	17585.29
769.828	17672.74
770.164	17587.55
770.5	17775.11
770.836	17947.99
771.171	17974.65
771.507	18134.42
771.842	18099.62
772.178	18269.56
772.513	18270.24
772.849	18476.79
773.184	18454.64
773.519	18468.88
773.855	18538.93
774.19	18667.07
774.525	18633.39
774.86	18740.06
775.195	18893.73
775.53	18826.61
775.865	18818.47
776.2	18877.91
776.535	18810.34
776.87	18848.3
777.205	18928.98
777.539	18862.99
777.874	19062.76
778.209	19008.98
778.543	19003.78
778.878	19088.52
779.212	19079.26
779.547	19008.75
779.881	19231.57
780.215	19148.86
780.55	19194.06
780.884	19116.32
781.218	19228.86
781.552	19232.25
781.886	19206.03
782.22	19124.68
782.554	18998.36
782.888	19017.79
783.222	18992.48
783.556	18978.7
783.889	18966.49
784.223	18942.09
784.557	18838.59
784.89	19036.32
785.224	18892.6
785.557	18984.57
785.891	18825.25
786.224	18920.39
786.558	18875.87
786.891	18672.26
787.224	18778.25
787.557	18725.6
787.891	18818.7
788.224	18678.14
788.557	18697.12
788.89	18741.19
789.223	18721.3
789.556	18559.5
789.888	18615.54
790.221	18629.1
790.554	18470.91
790.887	18461.87
791.219	18428.43
791.552	18404.93
791.884	18291.71
792.217	18397.24
792.549	18266.17
792.882	18248.77
793.214	18176.01
793.546	18230.92
793.879	18138.72
794.211	18021.66
794.543	18133.75
794.875	18030.25
795.207	18065.73
795.539	18049.23
795.871	18038.61
796.203	17871.61
796.535	17830.48
796.867	17700.76
797.198	17766.07
797.53	17704.15
797.862	17689.24
798.193	17710.03
798.525	17489.02
798.856	17609.69
799.188	17424.61
799.519	17395.46
799.85	17328.57
800.182	17387.33
800.513	17382.13
800.844	17289.25
801.175	17368.57
801.506	17242.92
801.837	17168.57
802.168	17059.65
802.499	17138.52
802.83	16905.98
803.161	17063.49
803.491	16932.42
803.822	16985.98
804.153	16837.06
804.483	16690.62
804.814	16804.06
805.145	16735.82
805.475	16689.94
805.805	16623.96
806.136	16581.92
806.466	16698.76
806.796	16660.56
807.126	16511.87
807.457	16451.08
807.787	16525.65
808.117	16424.19
808.447	16344.41
808.777	16437.29
809.107	16353.68
809.436	16244.08
809.766	16238.43
810.096	16154.36
810.426	16175.38
810.755	16163.85
811.085	16125.44
811.414	16095.16
811.744	15962.28
812.073	15964.31
812.403	15961.37
812.732	15844.99
813.061	15955.27
813.39	15823.75
813.719	15831.89
814.049	15942.84
814.378	15796.86
814.707	15690.19
815.036	15755.5
815.365	15672.57
815.693	15504.44
816.022	15577.43
816.351	15494.49
816.68	15459.24
817.008	15612
817.337	15421.73
817.665	15333.14
817.994	15423.54
818.322	15436.64
818.651	15250.66
818.979	15187.16
819.307	15299.47
819.636	15254.05
819.964	15162.07
820.292	15193.48
820.62	15228.51
820.948	15129.76
821.276	15282.75
821.604	15133.15
821.932	15209.08
822.259	15160.72
822.587	15185.8
822.915	15145.12
823.243	15184.45
823.57	15155.07
823.898	15127.5
824.225	15170.66
824.553	15224.67
824.88	15152.36
825.207	15202.52
825.535	15061.06
825.862	15186.48
826.189	15120.27
826.516	15098.35
826.843	15261.05
827.17	15191.45
827.497	15183.77
827.824	15238
828.151	15212.24
828.478	15275.52
828.805	15219.25
829.131	15189.19
829.458	15164.11
829.785	15130.89
830.111	15142.19
830.438	15176.99
830.764	15109.87
831.09	15141.06
831.417	14970.89
831.743	15152.36
832.069	15093.6
832.395	15151.23
832.722	15059.25
833.048	15028.29
833.374	15116.65
833.7	15034.62
834.026	15024
834.351	15108.29
834.677	15050.66
835.003	15038.46
835.329	15036.2
835.654	15022.64
835.98	14913.04
836.306	14969.76
836.631	14892.25
836.956	14993.49
837.282	14993.26
837.607	14876.88
837.932	14865.13
838.258	14836.66
838.583	14856.77
838.908	14787.62
839.233	14788.98
839.558	14761.41
839.883	14702.2
840.208	14669.43
840.533	14765.7
840.858	14681.63
841.182	14692.93
841.507	14612.93
841.832	14528.42
842.156	14532.26
842.481	14518.47
842.805	14484.35
843.13	14447.97
843.454	14401.19
843.778	14356.67
844.103	14246.62
844.427	14228.99
844.751	14258.37
845.075	14246.16
845.399	14236.9
845.723	14080.52
846.047	14131.59
846.371	14066.06
846.695	13981.77
847.019	13899.51
847.343	13930.02
847.666	13837.36
847.99	13761.43
848.313	13672.62
848.637	13676.69
848.96	13586.3
849.284	13534.55
849.607	13510.82
849.931	13374.1
850.254	13349.69
850.577	13345.62
850.9	13219.53
851.223	13215.46
851.546	13185.85
851.869	13007.1
852.192	13101.34
852.515	12978.63
852.838	12955.58
853.161	12907.22
853.483	12874
853.806	12767.11
854.129	12790.16
854.451	12845.07
854.774	12689.37
855.096	12636.04
855.419	12605.76
855.741	12607.11
856.063	12506.32
856.385	12472.43
856.708	12458.19
857.03	12377.06
857.352	12462.26
857.674	12270.4
857.996	12282.37
858.318	12269.72
858.64	12230.62
858.961	12220.46
859.283	12193.56
859.605	12156.5
859.926	12136.84
860.248	12047.13
860.57	11993.34
860.891	12109.72
861.212	12009.84
861.534	11956.51
861.855	11879.67
862.176	12026.11
862.498	11927.36
862.819	11958.77
863.14	11831.31
863.461	11874.25
863.782	11743.41
864.103	11821.82
864.424	11729.39
864.745	11812.56
865.065	11711.32
865.386	11651.88
865.707	11596.74
866.027	11688.04
866.348	11601.49
866.668	11625.67
866.989	11600.81
867.309	11494.6
867.63	11492.34
867.95	11500.93
868.27	11452.34
868.59	11465
868.91	11485.56
869.23	11412.34
869.55	11392.68
869.87	11503.19
870.19	11496.86
870.51	11383.64
870.83	11494.37
871.15	11339.12
871.469	11378.22
871.789	11343.19
872.109	11319.46
872.428	11185.68
872.748	11323.53
873.067	11262.51
873.386	11304.1
873.706	11162.4
874.025	11123.54
874.344	11114.72
874.663	11143.87
874.982	11094.61
875.301	11125.12
875.62	11079.02
875.939	11114.5
876.258	11107.04
876.577	11011.9
876.896	11003.31
877.214	10892.58
877.533	10954.95
877.852	11014.84
878.17	10970.77
878.489	10950.43
878.807	10878.8
879.125	10906.37
879.444	10912.02
879.762	10878.34
880.08	10874.05
880.398	10722.19
880.716	10757.67
881.034	10736.88
881.352	10769.65
881.67	10704.56
881.988	10723.55
882.306	10668.86
882.624	10596.77
882.941	10561.74
883.259	10579.82
883.577	10563.32
883.894	10502.53
884.212	10543.44
884.529	10484.46
884.846	10524.45
885.164	10446.49
885.481	10434.29
885.798	10408.98
886.115	10299.83
886.432	10347.06
886.75	10295.53
887.067	10317
887.383	10268.87
887.7	10366.49
888.017	10285.82
888.334	10284.69
888.651	10143.45
888.967	10209.43
889.284	10145.48
889.6	10095.09
889.917	10119.72
890.233	10049.21
890.55	10017.12
890.866	10032.04
891.182	9985.26
891.498	9963.57
891.815	9896.22
892.131	9899.39
892.447	9780.29
892.763	9820.29
893.079	9764.7
893.395	9764.47
893.71	9723.35
894.026	9793.4
894.342	9682.22
894.657	9682.22
894.973	9599.96
895.289	9609.9
895.604	9543.24
895.92	9553.41
896.235	9472.51
896.55	9413.3
896.865	9537.36
897.181	9381.21
897.496	9349.34
897.811	9354.09
898.126	9333.53
898.441	9246.75
898.756	9286.52
899.071	9184.6
899.386	9180.31
899.7	9047.66
900.015	9144.83
900.33	9005.62
900.644	9006.75
900.959	9022.12
901.273	8936.47
901.588	8916.59
901.902	8881.33
902.216	8850.15
902.531	8803.82
902.845	8833.88
903.159	8706.88
903.473	8708.91
903.787	8641.11
904.101	8606.09
904.415	8592.3
904.729	8559.31
905.042	8546.65
905.356	8509.37
905.67	8461.68
905.984	8418.3
906.297	8493.1
906.611	8364.51
906.924	8366.55
907.237	8341.91
907.551	8308.92
907.864	8231.18
908.177	8272.08
908.491	8271.41
908.804	8198.64
909.117	8085.87
909.43	8063.05
909.743	8030.28
910.056	8009.94
910.368	7984.63
910.681	7982.6
910.994	7932.21
911.307	7870.29
911.619	7832.77
911.932	7878.2
912.244	7790.06
912.557	7829.61
912.869	7706.22
913.181	7701.7
913.494	7665.1
913.806	7676.62
914.118	7643.63
914.43	7487.92
914.742	7527.02
915.054	7490.86
915.366	7513.69
915.678	7436.85
915.99	7374.48
916.302	7327.93
916.613	7323.18
916.925	7327.93
917.236	7322.73
917.548	7202.96
917.859	7256.07
918.171	7217.2
918.482	7162.74
918.794	7105.34
919.105	7137.88
919.416	7108.27
919.727	7077.31
920.038	7060.59
920.349	7005.68
920.66	7013.13
920.971	6976.53
921.282	6948.28
921.593	6873.25
921.903	6849.3
922.214	6826.25
922.525	6819.69
922.835	6760.03
923.146	6720.49
923.456	6737.44
923.767	6716.42
924.077	6740.6
924.387	6654.5
924.697	6571.34
925.008	6574.28
925.318	6572.69
925.628	6543.99
925.938	6553.03
926.248	6508.74
926.558	6453.38
926.867	6380.16
927.177	6375.64
927.487	6339.48
927.796	6349.88
928.106	6271.23
928.416	6265.58
928.725	6228.07
929.034	6193.95
929.344	6326.6
929.653	6194.63
929.962	6188.52
930.271	6182.2
930.581	6105.59
930.89	6117.79
931.199	6103.33
931.508	5991.47
931.817	6042.54
932.125	6028.08
932.434	5993.5
932.743	5918.7
933.051	5898.59
933.36	5905.37
933.669	5870.11
933.977	5778.82
934.286	5833.73
934.594	5803.9
934.902	5768.65
935.21	5781.98
935.519	5782.43
935.827	5658.82
936.135	5629.89
936.443	5644.81
936.751	5640.29
937.059	5626.05
937.367	5532.27
937.674	5540.63
937.982	5537.02
938.29	5520.29
938.597	5488.2
938.905	5459.28
939.213	5404.59
939.52	5384.03
939.827	5412.27
940.135	5385.83
940.442	5360.3
940.749	5299.51
941.056	5315.55
941.363	5240.98
941.67	5276.23
941.977	5222.45
942.284	5217.93
942.591	5181.09
942.898	5198.49
943.205	5151.04
943.511	5106.52
943.818	5063.36
944.125	5050.02
944.431	5011.38
944.738	5000.76
945.044	4940.87
945.35	5011.15
945.657	4990.82
945.963	4935.22
946.269	4954.88
946.575	4899.52
946.881	4853.19
947.187	4876.69
947.493	4816.58
947.799	4783.59
948.105	4782.46
948.41	4794.89
948.716	4824.94
949.022	4760.31
949.327	4764.15
949.633	4726.42
949.938	4671.73
950.244	4743.14
950.549	4629.69
950.854	4593.76
951.16	4593.31
951.465	4599.19
951.77	4557.61
952.075	4520.54
952.38	4510.38
952.685	4511.51
952.99	4465.86
953.294	4421.34
953.599	4413.88
953.904	4441.23
954.209	4361.91
954.513	4390.6
954.818	4419.3
955.122	4352.19
955.426	4349.7
955.731	4265.86
956.035	4278.07
956.339	4290.72
956.643	4269.93
956.948	4233.09
957.252	4225.19
957.556	4224.06
957.86	4150.39
958.163	4153.1
958.467	4161.91
958.771	4132.08
959.075	4095.25
959.378	4109.48
959.682	4104.96
959.985	4049.82
960.289	4037.17
960.592	4010.28
960.896	4010.73
961.199	3984.97
961.502	3984.97
961.805	3947
962.108	3916.27
962.411	3963.72
962.714	3916.95
963.017	3892.76
963.32	3881.69
963.623	3835.37
963.926	3813.44
964.228	3806.89
964.531	3819.77
964.833	3799.21
965.136	3741.36
965.438	3749.04
965.741	3731.19
966.043	3733
966.345	3714.01
966.648	3670.85
966.95	3674.24
967.252	3627.46
967.554	3645.99
967.856	3631.08
968.158	3592.89
968.46	3567.58
968.761	3556.73
969.063	3563.51
969.365	3564.64
969.666	3575.26
969.968	3522.61
970.269	3519.89
970.571	3483.74
970.872	3470.63
971.174	3434.92
971.475	3470.18
971.776	3429.73
972.077	3421.82
972.378	3394.25
972.679	3392.89
972.98	3390.18
973.281	3357.19
973.582	3312.67
973.883	3283.97
974.183	3311.31
974.484	3278.09
974.785	3277.64
975.085	3309.73
975.386	3247.36
975.686	3236.28
975.986	3242.84
976.287	3223.63
976.587	3210.3
976.887	3177.98
977.187	3184.53
977.487	3144.54
977.787	3133.24
978.087	3104.76
978.387	3125.78
978.687	3133.24
978.987	3080.81
979.286	3034.48
979.586	3056.85
979.885	3066.35
980.185	3042.17
980.484	3004.88
980.784	3000.58
981.083	2986.12
981.382	2958.33
981.682	3008.72
981.981	2971.43
982.28	2929.17
982.579	2919.46
982.878	2941.38
983.177	2920.59
983.475	2869.97
983.774	2855.05
984.073	2849.18
984.372	2823.64
984.67	2830.19
984.969	2857.31
985.267	2836.75
985.566	2803.75
985.864	2766.24
986.162	2754.94
986.461	2768.05
986.759	2739.12
987.057	2724.66
987.355	2673.81
987.653	2704.77
987.951	2693.47
988.249	2665.9
988.547	2676.53
988.844	2668.84
989.142	2645.79
989.44	2602.86
989.737	2615.28
990.035	2577.55
990.332	2594.04
990.63	2577.77
990.927	2604.66
991.224	2542.07
991.521	2558.79
991.819	2514.5
992.116	2510.2
992.413	2507.04
992.71	2494.16
993.006	2523.08
993.303	2510.88
993.6	2472.46
993.897	2468.62
994.193	2429.07
994.49	2418.23
994.787	2428.85
995.083	2403.99
995.379	2397.21
995.676	2385.01
995.972	2373.93
996.268	2367.38
996.565	2337.78
996.861	2327.16
997.157	2314.73
997.453	2319.25
997.749	2330.09
998.044	2283.54
998.34	2298.23
998.636	2263.43
998.932	2265.69
999.227	2244.67
999.523	2211.91
999.818	2206.93
1000.114	2196.31
1000.409	2197.44
1000.704	2191.34
1001	2175.52
1001.295	2159.7
1001.59	2129.2
1001.885	2164.45
1002.18	2120.38
1002.475	2104.79
1002.77	2103.66
1003.065	2062.76
1003.359	2089.42
1003.654	2065.92
1003.949	2053.94
1004.243	2073.6
1004.538	2023.66
1004.832	2045.13
1005.127	2027.96
1005.421	2004
1005.715	2005.36
1006.009	1979.82
1006.304	1958.58
1006.598	1948.64
1006.892	1934.62
1007.186	1914.51
1007.48	1891.69
1007.773	1930.78
1008.067	1877.45
1008.361	1878.81
1008.655	1899.82
1008.948	1869.09
1009.242	1839.49
1009.535	1842.65
1009.829	1850.11
1010.122	1843.55
1010.415	1818.7
1010.708	1806.72
1011.001	1804.68
1011.295	1744.57
1011.588	1774.18
1011.881	1771.69
1012.173	1772.82
1012.466	1778.47
1012.759	1742.76
1013.052	1724.69
1013.344	1688.76
1013.637	1710.22
1013.93	1685.14
1014.222	1699.83
1014.514	1664.8
1014.807	1690.34
1015.099	1676.33
1015.391	1637
1015.683	1638.13
1015.976	1620.73
1016.268	1618.7
1016.56	1615.99
1016.851	1583.45
1017.143	1574.86
1017.435	1557.69
1017.727	1551.81
1018.018	1584.8
1018.31	1558.59
1018.602	1523.11
1018.893	1520.4
1019.185	1543.67
1019.476	1514.07
1019.767	1493.73
1020.058	1455.54
1020.35	1477.91
1020.641	1477.91
1020.932	1442.21
1021.223	1429.1
1021.514	1425.71
1021.804	1448.99
1022.095	1417.35
1022.386	1416.67
1022.677	1402.43
1022.967	1412.15
1023.258	1375.32
1023.548	1352.94
1023.839	1383.23
1024.129	1361.98
1024.419	1321.31
1024.709	1362.44
1025	1334.19
1025.29	1320.18
1025.58	1316.34
1025.87	1327.63
1026.16	1314.98
1026.449	1270.69
1026.739	1278.37
1027.029	1293.74
1027.319	1229.33
1027.608	1268.88
1027.898	1245.15
1028.187	1238.6
1028.477	1212.38
1028.766	1211.93
1029.055	1206.06
1029.344	1214.87
1029.634	1192.27
1029.923	1226.62
1030.212	1158.6
1030.501	1185.49
1030.79	1166.73
1031.078	1166.73
1031.367	1147.07
1031.656	1131.71
1031.945	1147.75
1032.233	1129.45
1032.522	1121.76
1032.81	1143.68
1033.099	1100.75
1033.387	1062.33
1033.675	1109.11
1033.963	1083.12
1034.251	1072.05
1034.54	1057.59
1034.828	1070.01
1035.116	1074.31
1035.403	1032.5
1035.691	1056.23
1035.979	1054.87
1036.267	1027.3
1036.554	1007.87
1036.842	1031.15
1037.129	1024.14
1037.417	1010.35
1037.704	1010.35
1037.992	995.67
1038.279	980.07
1038.566	998.6
1038.853	998.6
1039.14	998.6
