Data from hue_26_FLMS001491_00093.txt Node
Date: Tue Feb 07 17:14:50 GMT 2017
User: dcchb
Spectrometer: FLMS00149
Trigger mode: 0
Integration Time (sec): 2.000000E-2
Scans to average: 10
Electric dark correction enabled: true
Nonlinearity correction enabled: false
Boxcar width: 0
XAxis mode: Wavelengths
Number of Pixels in Spectrum: 2048
>>>>>Begin Spectral Data<<<<<
341.393	-24.79
341.776	-24.79
342.16	-24.79
342.543	-59.36
342.927	-58.01
343.31	-66.82
343.693	-62.53
344.077	-65.92
344.46	-62.98
344.843	-64.11
345.226	-35.86
345.61	-11.68
345.993	-38.12
346.376	-7.61
346.759	25.15
347.142	19.28
347.525	43.46
347.908	41.65
348.291	90.46
348.674	97.47
349.057	98.15
349.44	121.2
349.823	144.25
350.206	180.4
350.588	212.04
350.971	236
351.354	247.75
351.737	233.28
352.119	267.86
352.502	297.01
352.884	279.39
353.267	292.94
353.65	297.01
354.032	308.31
354.414	326.39
354.797	350.34
355.179	329.55
355.562	345.6
355.944	346.05
356.326	353.51
356.709	307.86
357.091	355.77
357.473	358.71
357.855	356.45
358.238	349.44
358.62	376.33
359.002	354.19
359.384	345.15
359.766	363.22
360.148	366.84
360.53	385.15
360.912	353.28
361.294	353.28
361.676	363.45
362.057	327.07
362.439	355.09
362.821	344.24
363.203	345.6
363.584	347.41
363.966	370.68
364.348	339.5
364.729	338.82
365.111	338.59
365.493	337.24
365.874	334.53
366.256	336.78
366.637	327.52
367.019	334.75
367.4	315.32
367.781	345.82
368.163	356.9
368.544	353.73
368.925	356.67
369.306	347.86
369.688	333.85
370.069	333.85
370.45	350.12
370.831	328.42
371.212	345.82
371.593	356.45
371.974	354.64
372.355	357.12
372.736	351.7
373.117	338.82
373.498	312.6
373.879	365.03
374.26	358.93
374.641	328.42
375.021	355.77
375.402	352.6
375.783	331.81
376.163	345.82
376.544	360.06
376.925	356.9
377.305	370
377.686	351.47
378.066	344.24
378.447	371.59
378.827	343.79
379.208	365.48
379.588	375.2
379.968	366.84
380.349	369.55
380.729	375.43
381.109	400.06
381.489	373.17
381.87	392.83
382.25	366.61
382.63	378.82
383.01	385.82
383.39	389.66
383.77	374.98
384.15	391.02
384.53	379.95
384.91	384.24
385.29	377.46
385.67	386.95
386.049	413.39
386.429	381.3
386.809	391.02
387.189	402.55
387.568	414.3
387.948	401.64
388.328	395.31
388.707	413.39
389.087	395.09
389.466	410.91
389.846	408.87
390.225	397.8
390.605	395.77
390.984	424.92
391.363	407.74
391.743	426.05
392.122	421.75
392.501	419.49
392.881	445.71
393.26	421.75
393.639	423.34
394.018	424.01
394.397	419.04
394.776	438.48
395.155	431.47
395.534	458.14
395.913	437.8
396.292	431.25
396.671	455.88
397.05	426.5
397.429	454.75
397.808	458.82
398.186	431.02
398.565	436.44
398.944	458.36
399.323	454.3
399.701	455.88
400.08	450.45
400.458	476.22
400.837	485.26
401.215	488.65
401.594	479.83
401.972	487.29
402.351	477.57
402.729	497.01
403.107	510.34
403.486	500.85
403.864	486.39
404.242	487.29
404.62	481.41
404.999	487.06
405.377	484.8
405.755	521.41
406.133	527.06
406.511	524.12
406.889	517.12
407.267	526.38
407.645	516.22
408.023	503.33
408.401	534.29
408.779	523.9
409.156	524.58
409.534	509.89
409.912	544.46
410.29	554.63
410.667	553.28
411.045	552.6
411.422	559.83
411.8	565.03
412.178	575.87
412.555	566.61
412.933	579.26
413.31	583.11
413.687	611.13
414.065	609.77
414.442	596.67
414.819	604.57
415.197	599.83
415.574	617.91
415.951	626.95
416.328	612.03
416.705	624.69
417.082	631.24
417.46	631.69
417.837	613.16
418.214	649.55
418.591	662.2
418.967	658.81
419.344	648.42
419.721	673.95
420.098	638.47
420.475	683.44
420.852	689.09
421.228	660.84
421.605	691.35
421.982	708.3
422.358	689.32
422.735	712.14
423.111	685.25
423.488	694.52
423.864	694.97
424.241	737.23
424.617	710.79
424.994	735.19
425.37	725.48
425.746	743.55
426.123	737.23
426.499	757.11
426.875	763.89
427.251	766.38
427.627	777.9
428.003	784.91
428.379	802.08
428.756	803.21
429.132	801.41
429.507	819.48
429.883	790.11
430.259	838.47
430.635	823.33
431.011	817.9
431.387	826.49
431.763	882.31
432.138	854.06
432.514	883.44
432.89	894.28
433.265	872.59
433.641	897
434.016	903.55
434.392	893.61
434.767	934.06
435.143	947.16
435.518	950.1
435.894	937.22
436.269	986.71
436.644	961.18
437.02	964.79
437.395	974.06
437.77	1007.95
438.145	1026.26
438.52	1015.86
438.895	990.78
439.271	1003.43
439.646	1028.29
440.021	1044.11
440.395	1045.69
440.77	1034.85
441.145	1049.08
441.52	1068.74
441.895	1061.96
442.27	1095.64
442.645	1116.88
443.019	1106.26
443.394	1087.95
443.769	1089.08
444.143	1098.12
444.518	1143.09
444.892	1134.05
445.267	1127.5
445.641	1163.2
446.016	1159.81
446.39	1142.87
446.764	1141.74
447.139	1155.97
447.513	1158.91
447.887	1176.99
448.262	1190.32
448.636	1214.95
449.01	1210.43
449.384	1212.02
449.758	1201.62
450.132	1232.81
450.506	1216.99
450.88	1228.96
451.254	1253.15
451.628	1263.54
452.002	1295.4
452.376	1290.21
452.75	1283.88
453.123	1321.62
453.497	1306.02
453.871	1325.23
454.244	1376.08
454.618	1366.59
454.992	1394.84
455.365	1381.28
455.739	1395.29
456.112	1418.11
456.486	1401.39
456.859	1443.87
457.232	1460.15
457.606	1479.58
457.979	1495.17
458.352	1501.5
458.725	1550.99
459.099	1557.54
459.472	1570.88
459.845	1596.19
460.218	1591.22
460.591	1623.3
460.964	1619.24
461.337	1689.29
461.71	1663.08
462.083	1703.08
462.456	1709.86
462.829	1730.42
463.201	1732.23
463.574	1778.1
463.947	1765
464.32	1797.09
464.692	1853.13
465.065	1865.33
465.438	1847.03
465.81	1886.8
466.183	1935.84
466.555	1986.91
466.928	1972.22
467.3	1976.29
467.672	2001.83
468.045	2006.57
468.417	2041.15
468.789	2086.57
469.161	2106.46
469.534	2136.29
469.906	2162.5
470.278	2194.36
470.65	2229.16
471.022	2262.38
471.394	2336.73
471.766	2354.58
472.138	2362.04
472.51	2395.04
472.882	2419.22
473.253	2460.34
473.625	2519.33
473.997	2583.05
474.369	2598.19
474.74	2620.11
475.112	2691.3
475.484	2689.27
475.855	2767.68
476.227	2771.75
476.598	2918.41
476.97	2917.06
477.341	2956.15
477.713	3060.78
478.084	3070.05
478.455	3190.5
478.827	3223.49
479.198	3324.05
479.569	3322.24
479.94	3423.26
480.311	3431.39
480.682	3539.19
481.053	3561.78
481.424	3666.87
481.795	3762.91
482.166	3809.24
482.537	3862.79
482.908	3959.51
483.279	3952.51
483.65	4101.21
484.021	4124.26
484.391	4227.08
484.762	4306.62
485.133	4346.62
485.503	4389.79
485.874	4532.15
486.244	4581.19
486.615	4639.95
486.985	4731.92
487.356	4797.91
487.726	4860.96
488.097	4999.04
488.467	5003.33
488.837	5132.37
489.207	5226.15
489.578	5261.63
489.948	5336.65
490.318	5462.53
490.688	5450.77
491.058	5570.77
491.428	5669.3
491.798	5743.65
492.168	5868.39
492.538	5908.62
492.908	5901.38
493.278	5993.81
493.648	6075.62
494.017	6162.39
494.387	6212.56
494.757	6258.89
495.126	6356.74
495.496	6402.16
495.866	6430.86
496.235	6475.15
496.605	6566.68
496.974	6633.12
497.344	6684.19
497.713	6702.72
498.082	6815.48
498.452	6907.69
498.821	6929.15
499.19	6969.6
499.559	7044.86
499.928	7122.82
500.298	7110.84
500.667	7212.08
501.036	7182.93
501.405	7325.08
501.774	7287.56
502.143	7403.27
502.512	7371.85
502.88	7470.16
503.249	7547.67
503.618	7569.14
503.987	7673.54
504.356	7611.4
504.724	7718.96
505.093	7772.07
505.462	7829.47
505.83	7853.65
506.199	7923.48
506.567	7998.05
506.936	8033.53
507.304	8078.28
507.672	8059.52
508.041	8120.99
508.409	8178.84
508.777	8183.13
509.145	8269.46
509.514	8323.69
509.882	8327.76
510.25	8343.35
510.618	8431.04
510.986	8466.97
511.354	8582.9
511.722	8590.58
512.09	8697.92
512.458	8599.39
512.826	8785.38
513.193	8866.96
513.561	8782.66
513.929	8843
514.297	8838.48
514.664	8970.91
515.032	8952.38
515.4	8986.95
515.767	9129.1
516.135	9170
516.502	9093.16
516.869	9246.38
517.237	9282.99
517.604	9276.66
517.972	9290.45
518.339	9325.02
518.706	9376.55
519.073	9392.59
519.44	9466.26
519.808	9556.2
520.175	9522.31
520.542	9669.42
520.909	9693.15
521.276	9643.88
521.643	9793.71
522.009	9794.62
522.376	9937.66
522.743	9975.4
523.11	10068.28
523.477	10118.22
523.843	10189.41
524.21	10195.06
524.577	10302.85
524.943	10298.56
525.31	10374.26
525.676	10418.55
526.043	10476.63
526.409	10550.08
526.776	10671.65
527.142	10747.58
527.508	10743.29
527.874	10843.18
528.241	10872.33
528.607	10891.08
528.973	11033.68
529.339	11038.65
529.705	11199.55
530.071	11188.48
530.437	11357.29
530.803	11302.15
531.169	11451.97
531.535	11405.87
531.901	11445.19
532.267	11484.06
532.632	11594.79
532.998	11568.13
533.364	11671.18
533.73	11651.52
534.095	11793.88
534.461	11748.69
534.826	11910.49
535.192	11927.44
535.557	12093.76
535.923	11952.3
536.288	12123.37
536.653	12146.87
537.019	12107.77
537.384	12166.76
537.749	12298.5
538.114	12298.5
538.479	12334.44
538.845	12480.87
539.21	12413.98
539.575	12414.66
539.94	12518.16
540.305	12530.59
540.67	12633.64
541.034	12700.53
541.399	12753.86
541.764	12797.02
542.129	12856.23
542.494	12890.58
542.858	12887.64
543.223	12908.21
543.587	13052.83
543.952	13076.34
544.316	13177.13
544.681	13074.08
545.045	13274.98
545.41	13317.91
545.774	13377.8
546.138	13372.15
546.503	13430
546.867	13522.88
547.231	13594.29
547.595	13613.72
547.959	13691.01
548.324	13616.21
548.688	13697.79
549.052	13735.75
549.416	13818.24
549.779	13812.59
550.143	13924.22
550.507	14044.9
550.871	13969.87
551.235	13984.56
551.599	14086.25
551.962	14180.94
552.326	14191.56
552.689	14350.65
553.053	14190.43
553.417	14231.11
553.78	14506.58
554.143	14346.59
554.507	14477.2
554.87	14521.5
555.234	14655.5
555.597	14642.85
555.96	14620.03
556.323	14666.8
556.686	14682.85
557.05	14780.02
557.413	14821.6
557.776	14923.29
558.139	15023.63
558.502	15086.23
558.865	15142.5
559.228	15169.84
559.59	15195.15
559.953	15240.57
560.316	15373
560.679	15348.14
561.041	15516.27
561.404	15507.46
561.767	15636.95
562.129	15584.29
562.492	15784.06
562.854	15735.48
563.217	15756.04
563.579	15801.24
563.941	15905.42
564.304	15854.34
564.666	16057.95
565.028	15998.52
565.39	16060.21
565.753	16272.86
566.115	16196.93
566.477	16360.32
566.839	16389.92
567.201	16365.74
567.563	16523.25
567.925	16633.08
568.287	16661.33
568.648	16679.41
569.01	16756.47
569.372	16893.64
569.734	16833.75
570.095	16996.23
570.457	16976.57
570.819	17046.63
571.18	17134.31
571.542	17189.9
571.903	17290.69
572.265	17311.71
572.626	17440.29
572.987	17427.63
573.349	17616.78
573.71	17624.92
574.071	17719.6
574.432	17878.24
574.794	18079.82
575.155	18154.17
575.516	18126.6
575.877	18236.2
576.238	18289.08
576.599	18457.89
576.96	18581.5
577.32	18598.23
577.681	18723.65
578.042	18922.06
578.403	18923.87
578.763	19051.55
579.124	19386.23
579.485	19554.13
579.845	19626.9
580.206	19692.66
580.566	19812.21
580.927	20056.72
581.287	20298.52
581.648	20348.46
582.008	20672.3
582.368	20743.93
582.728	21043.59
583.089	21187.76
583.449	21445.38
583.809	21592.05
584.169	21873.39
584.529	22158.81
584.889	22436.77
585.249	22555.64
585.609	22733.26
585.969	23192.23
586.329	23279.01
586.688	23608.04
587.048	23916.96
587.408	24031.53
587.768	24414.57
588.127	24621.57
588.487	25078.96
588.846	25610.47
589.206	25621.54
589.565	25963.68
589.925	26461.07
590.284	26652.93
590.643	27179.69
591.003	27453.36
591.362	27849.51
591.721	28266.9
592.08	28563.61
592.44	28876.6
592.799	29194.56
593.158	29626.86
593.517	30011.26
593.876	30409.21
594.235	30696.66
594.593	31067.73
594.952	31607.83
595.311	31792.46
595.67	32216.17
596.029	32694.58
596.387	33064.51
596.746	33457.95
597.104	33637.15
597.463	34053.86
597.822	34616.79
598.18	34871.7
598.538	35278.24
598.897	35861.73
599.255	35905.12
599.613	36706.9
599.972	36767.47
600.33	37337.85
600.688	37579.65
601.046	37957.94
601.404	38440.19
601.762	38884.92
602.12	39187.97
602.478	39538.92
602.836	39932.81
603.194	40075.85
603.552	40413.25
603.91	40601.49
604.268	41034.02
604.625	41286.22
604.983	41829.93
605.341	41835.13
605.698	42372.06
606.056	42773.64
606.413	42986.74
606.771	43365.26
607.128	43607.51
607.485	43652.03
607.843	44042.53
608.2	44396.87
608.557	44958.21
608.914	44944.2
609.272	45373.57
609.629	45596.39
609.986	45903.04
610.343	45972.87
610.7	46416.48
611.057	46604.04
611.414	46705.28
611.771	47002.22
612.127	47202.67
612.484	47466.85
612.841	47833.16
613.198	47816.67
613.554	47992.03
613.911	48316.77
614.267	48376.88
614.624	48530.77
614.98	48806.7
615.337	49132.11
615.693	49095.28
616.05	49437.87
616.406	49582.27
616.762	49584.53
617.118	49639.22
617.475	49786.11
617.831	50124.4
618.187	50232.65
618.543	50403.27
618.899	50612.3
619.255	50644.16
619.611	50748.34
619.967	50966.41
620.323	51047.09
620.678	51062.23
621.034	51055.9
621.39	51075.11
621.746	51232.4
622.101	51619.5
622.457	51438.94
622.812	51629.67
623.168	51665.38
623.523	51782.89
623.879	51960.74
624.234	51814.53
624.589	51983.34
624.945	52054.3
625.3	52063.11
625.655	52170.9
626.01	52290
626.365	52377.9
626.72	52356.66
627.075	52308.3
627.43	52362.08
627.785	52426.71
628.14	52575.86
628.495	52646.37
628.85	52619.48
629.205	52512.81
629.559	52805.46
629.914	52699.02
630.269	52676.88
630.623	52633.04
630.978	52622.42
631.332	52874.84
631.687	52800.94
632.041	52777.67
632.396	52849.75
632.75	52721.17
633.104	52788.97
633.459	52763.66
633.813	52753.03
634.167	52790.09
634.521	52796.65
634.875	52840.72
635.229	52866.7
635.583	52732.47
635.937	52810.21
636.291	52769.98
636.645	52875.97
636.999	52786.93
637.352	52793.94
637.706	52668.74
638.06	52878.45
638.413	52766.59
638.767	52665.8
639.121	52700.38
639.474	52613.38
639.828	52662.19
640.181	52681.17
640.534	52799.59
640.888	52766.37
641.241	52558.24
641.594	52678.91
641.947	52821.28
642.301	52682.3
642.654	52694.5
643.007	52677.1
643.36	52704.45
643.713	52616.09
644.066	52710.32
644.419	52529.76
644.771	52339.49
645.124	52036.89
645.477	51994.18
645.83	51895.2
646.182	51756.45
646.535	51691.82
646.888	51746.28
647.24	51512.16
647.593	51774.75
647.945	51688.2
648.298	51605.72
648.65	51484.37
649.002	51433.97
649.355	51537.02
649.707	51524.14
650.059	51662.89
650.411	52113.5
650.763	52097.46
651.115	52405.7
651.467	52173.61
651.819	52277.11
652.171	52183.11
652.523	52097.46
652.875	52266.04
653.227	52061.3
653.578	52265.59
653.93	52102.66
654.282	52058.59
654.633	51998.7
654.985	52080.51
655.337	52069.21
655.688	52186.72
656.039	52237.57
656.391	51888.42
656.742	52013.62
657.094	51941.53
657.445	52140.85
657.796	51964.35
658.147	51991.02
658.498	51957.57
658.849	52079.61
659.2	52082.09
659.551	51833.74
659.902	52099.94
660.253	51876.22
660.604	52054.3
660.955	51851.36
661.306	51901.76
661.656	51877.58
662.007	51956.44
662.358	51893.85
662.708	51918.93
663.059	51931.81
663.409	51711.93
663.76	52026.73
664.11	51958.7
664.461	52061.3
664.811	51985.37
665.161	51894.3
665.511	51882.32
665.862	51802.1
666.212	51963.45
666.562	51932.49
666.912	51907.41
667.262	51796.9
667.612	51786.96
667.962	51844.13
668.312	51797.35
668.662	51922.55
669.011	51789.9
669.361	51785.6
669.711	51779.05
670.06	51672.38
670.41	51658.37
670.76	51579.28
671.109	51737.47
671.459	51643.91
671.808	51641.65
672.157	51708.77
672.507	51412.5
672.856	51489.34
673.205	51465.61
673.554	51630.35
673.904	51526.63
674.253	51742.66
674.602	51589
674.951	51116.47
675.3	51012.74
675.649	51525.72
675.998	51461.09
676.346	51447.98
676.695	51663.12
677.044	51323.24
677.393	51499.28
677.741	51483.24
678.09	51321.21
678.438	51297.93
678.787	51283.92
679.135	51346.74
679.484	51149.69
679.832	51230.81
680.181	51085.51
680.529	51135.68
680.877	51046.64
681.225	51012.74
681.573	51159.4
681.922	50882.57
682.27	50776.14
682.618	50874.21
682.966	50855.46
683.314	50825.63
683.661	50789.7
684.009	50517.39
684.357	50617.72
684.705	50436.94
685.053	50534.34
685.4	50497.05
685.748	50323.27
686.095	50292.08
686.443	50160.33
686.79	50174.12
687.138	50223.61
687.485	50118.98
687.832	49887.35
688.18	50031.98
688.527	49826.56
688.874	49887.8
689.221	49788.14
689.568	49599.9
689.915	49619.1
690.262	49725.09
690.609	49566
690.956	49278.77
691.303	49367.59
691.65	49122.62
691.997	49117.2
692.344	48924.43
692.69	48994.94
693.037	48883.98
693.383	48606.25
693.73	48887.15
694.077	48608.74
694.423	48550.43
694.769	48460.72
695.116	48412.36
695.462	48247.39
695.808	48204.68
696.155	48129.2
696.501	47814.63
696.847	47900.28
697.193	47703.68
697.539	47866.38
697.885	47540.06
698.231	47481.99
698.577	47523.57
698.923	47498.26
699.269	47198.6
699.614	46995.45
699.96	46980.98
700.306	47062.34
700.651	46833.42
700.997	46710.93
701.342	46657.83
701.688	46614.66
702.033	46510.49
702.379	46414.22
702.724	46321.11
703.069	46414.67
703.415	45845.64
703.76	46022.82
704.105	45949.6
704.45	45827.57
704.795	45561.36
705.14	45494.47
705.485	45482.49
705.83	45307.81
706.175	45486.33
706.52	45408.14
706.865	45224.42
707.209	45197.53
707.554	44875.73
707.899	45052.45
708.243	44701.72
708.588	44724.32
708.932	44493.59
709.277	44473.7
709.621	44374.95
709.966	44126.14
710.31	44324.78
710.654	43864
710.998	44162.75
711.342	44037.1
711.687	43992.81
712.031	43809.31
712.375	43506.5
712.719	43625.82
713.063	43600.73
713.407	43690
713.75	43497.01
714.094	43420.4
714.438	43184.92
714.782	43301.76
715.125	43003.91
715.469	43141.54
715.812	42914.42
716.156	42784.26
716.499	42718.5
716.843	42860.41
717.186	42500.42
717.53	42742.22
717.873	42716.24
718.216	42446.41
718.559	42391.05
718.902	42108.34
719.246	42344.95
719.589	42081
719.932	42071.51
720.275	42044.39
720.617	41912.19
720.96	41837.39
721.303	41941.34
721.646	41963.94
721.989	41490.96
722.331	41686.88
722.674	41586.32
723.016	41545.87
723.359	41524.63
723.701	41584.29
724.044	41303.62
724.386	41096.84
724.729	41159.89
725.071	41208.03
725.413	41153.56
725.755	40989.28
726.097	40931.2
726.439	40727.81
726.782	40716.74
727.124	40806.46
727.465	40551.77
727.807	40602.62
728.149	40432.91
728.491	40335.06
728.833	40495.5
729.175	40427.03
729.516	40337.09
729.858	40253.7
730.199	40344.32
730.541	40103.87
730.882	40012.35
731.224	40146.81
731.565	39912.02
731.906	39967.38
732.248	40102.29
732.589	39832.7
732.93	39751.34
733.271	39709.76
733.612	39697.11
733.953	39554.06
734.294	39646.26
734.635	39597
734.976	39609.88
735.317	39499.6
735.658	39542.53
735.999	39419.6
736.339	39154.07
736.68	39299.15
737.021	39279.04
737.361	38993.62
737.702	39229.55
738.042	39072.72
738.383	38877.92
738.723	39017.58
739.063	38852.83
739.404	38852.83
739.744	38846.96
740.084	38622.78
740.424	38717.92
740.764	38606.97
741.104	38663.69
741.444	38502.11
741.784	38372.39
742.124	38550.92
742.464	38411.26
742.804	38300.53
743.143	38197.94
743.483	38122.68
743.823	37887.44
744.162	38077.26
744.502	38001.56
744.841	37857.83
745.181	37981.22
745.52	37915.01
745.86	37739.87
746.199	37809.92
746.538	37776.25
746.877	37713.43
747.216	37680.89
747.556	37655.8
747.895	37649.25
748.234	37489.03
748.573	37506.43
748.911	37313.44
749.25	37434.34
749.589	37213.1
749.928	37234.57
750.267	37329.48
750.605	37157.74
750.944	37081.58
751.283	36917.74
751.621	37106.67
751.96	36772.66
752.298	36801.81
752.636	36907.12
752.975	36615.61
753.313	36456.29
753.651	36718.43
753.989	36488.83
754.327	36508.94
754.666	36143.3
755.004	36381.03
755.342	36266.46
755.679	36129.74
756.017	35985.57
756.355	36072.57
756.693	35953.7
757.031	35972.68
757.368	35619.47
757.706	35591.68
758.044	35598.68
758.381	35622.64
758.719	35320.05
759.056	35466.93
759.394	35257.45
759.731	35196.89
760.068	35083.44
760.405	35018.81
760.743	34746.28
761.08	34986.72
761.417	34918.93
761.754	34618.37
762.091	34595.32
762.428	34344.03
762.765	34382.44
763.102	34467.64
763.438	34309.45
763.775	33891.83
764.112	34058.84
764.449	34170.92
764.785	33948.1
765.122	33702.91
765.458	33545.86
765.795	33542.92
766.131	33507.66
766.467	33499.75
766.804	33224.73
767.14	33147.22
767.476	33003.5
767.812	32908.36
768.148	32859.09
768.485	32745.2
768.821	32507.92
769.157	32621.36
769.492	32323.51
769.828	32385.89
770.164	32080.81
770.5	31933.24
770.836	31965.78
771.171	31890.31
771.507	31650.76
771.842	31587.49
772.178	31467.27
772.513	31578.45
772.849	31268.63
773.184	31174.84
773.519	31140.72
773.855	30987.05
774.19	30812.59
774.525	30659.15
774.86	30860.05
775.195	30698.7
775.53	30511.36
775.865	30324.25
776.2	30203.34
776.535	29994.54
776.87	29970.13
777.205	29906.4
777.539	29910.92
777.874	29897.59
778.209	29512.97
778.543	29542.8
778.878	29376.7
779.212	29397.04
779.547	29243.37
779.881	29168.34
780.215	28995.92
780.55	29096.48
780.884	28867.56
781.218	28823.49
781.552	28780.33
781.886	28642.93
782.22	28504.41
782.554	28176.28
782.888	28150.52
783.222	28037.75
783.556	27849.06
783.889	27834.82
784.223	27554.15
784.557	27561.61
784.89	27657.42
785.224	27405
785.557	27315.51
785.891	27269.41
786.224	27076.42
786.558	27156.87
786.891	26926.37
787.224	26808.63
787.557	26675.98
787.891	26636.43
788.224	26758.24
788.557	26675.08
788.89	26504.68
789.223	26481.86
789.556	26348.53
789.888	26236.22
790.221	26049.1
790.554	25890.92
790.887	25883.01
791.219	25742.67
791.552	25687.76
791.884	25662.45
792.217	25584.93
792.549	25525.5
792.882	25333.64
793.214	25227.43
793.546	25286.86
793.879	25096.13
794.211	24963.26
794.543	25065.63
794.875	24855.24
795.207	25005.06
795.539	24888
795.871	24751.28
796.203	24527.34
796.535	24403.04
796.867	24411.63
797.198	24272.65
797.53	24328.47
797.862	24156.72
798.193	24265.65
798.525	23932.32
798.856	24095.71
799.188	23757.86
799.519	23737.98
799.85	23734.36
800.182	23679
800.513	23485.78
800.844	23400.81
801.175	23505.44
801.506	23368.5
801.837	23358.55
802.168	23181.61
802.499	23136.64
802.83	23026.13
803.161	22973.7
803.491	22902.75
803.822	22981.84
804.153	22805.8
804.483	22635.86
804.814	22575.52
805.145	22525.35
805.475	22521.96
805.805	22447.39
806.136	22411.46
806.466	22408.52
806.796	22298.02
807.126	22142.31
807.457	22121.97
807.787	22188.64
808.117	22016.44
808.447	21920.17
808.777	21912.26
809.107	21844.02
809.436	21731.02
809.766	21607.41
810.096	21593.63
810.426	21590.69
810.755	21556.57
811.085	21394.99
811.414	21507.75
811.744	21275.9
812.073	21259.85
812.403	21188.21
812.732	21117.93
813.061	21181.43
813.39	21094.88
813.719	20960.65
814.049	21025.05
814.378	20922.91
814.707	20885.17
815.036	20812.86
815.365	20657.61
815.693	20660.77
816.022	20640.43
816.351	20508.01
816.68	20341.68
817.008	20500.77
817.337	20306.66
817.665	20270.72
817.994	20354.34
818.322	20242.7
818.651	20232.31
818.979	20040
819.307	20272.76
819.636	20085.19
819.964	19846.78
820.292	20124.74
820.62	19992.31
820.948	19967.23
821.276	19935.14
821.604	19933.11
821.932	19978.53
822.259	20058.3
822.587	19877.74
822.915	19876.61
823.243	19947.12
823.57	19885.88
823.898	19831.19
824.225	19766.56
824.553	19774.47
824.88	19780.57
825.207	19846.1
825.535	19882.49
825.862	19839.77
826.189	19741.02
826.516	19802.94
826.843	19911.41
827.17	19794.35
827.497	19816.95
827.824	19862.15
828.151	19892.43
828.478	19829.15
828.805	19895.37
829.131	19755.71
829.458	19698.99
829.785	19661.02
830.111	19711.19
830.438	19849.27
830.764	19840.23
831.09	19792.54
831.417	19776.73
831.743	19673.68
832.069	19694.69
832.395	19614.24
832.722	19651.31
833.048	19645.88
833.374	19697.63
833.7	19454.7
834.026	19526.79
834.351	19626
834.677	19573.12
835.003	19505.32
835.329	19494.93
835.654	19509.84
835.98	19465.32
836.306	19367.24
836.631	19393.23
836.956	19383.52
837.282	19440.01
837.607	19346.45
837.932	19306.23
838.258	19322.73
838.583	19212.67
838.908	19165.22
839.233	19233.46
839.558	19116.86
839.883	19103.3
840.208	18991.89
840.533	18964.54
840.858	19012.68
841.182	19077.99
841.507	18960.02
841.832	18849.07
842.156	18750.31
842.481	18842.29
842.805	18719.35
843.13	18725.45
843.454	18753.02
843.778	18559.36
844.103	18541.28
844.427	18524.56
844.751	18494.05
845.075	18462.18
845.399	18412.69
845.723	18258.35
846.047	18431.45
846.371	18178.58
846.695	18223.09
847.019	17995.76
847.343	17892.48
847.666	17786.95
847.99	17791.69
848.313	17732.03
848.637	17606.16
848.96	17581.76
849.284	17582.66
849.607	17441.42
849.931	17392.38
850.254	17316
850.577	17122.78
850.9	17099.51
851.223	17086.63
851.546	16975.9
851.869	16869.68
852.192	16976.12
852.515	16801.89
852.838	16731.83
853.161	16772.28
853.483	16661.55
853.806	16521.9
854.129	16517.38
854.451	16407.55
854.774	16397.61
855.096	16441.67
855.419	16288.23
855.741	16267.89
856.063	16153.77
856.385	16059.76
856.708	16148.8
857.03	16017.5
857.352	16099.31
857.674	16048.24
857.996	15913.1
858.318	15796.72
858.64	15856.15
858.961	15811.18
859.283	15673.78
859.605	15655.48
859.926	15686.66
860.248	15656.83
860.57	15611.41
860.891	15553.56
861.212	15465.65
861.534	15429.5
861.855	15398.76
862.176	15395.37
862.498	15411.42
862.819	15344.98
863.14	15385.2
863.461	15291.42
863.782	15176.17
864.103	15229.5
864.424	15140.46
864.745	15163.51
865.065	15050.75
865.386	15006.68
865.707	15040.35
866.027	15030.64
866.348	15079.67
866.668	15001.94
866.989	14977.76
867.309	14875.16
867.63	14900.02
867.95	14876.97
868.27	14713.13
868.59	14794.71
868.91	14767.14
869.23	14725.11
869.55	14578.44
869.87	14733.02
870.19	14702.96
870.51	14667.26
870.83	14690.76
871.15	14512.23
871.469	14587.94
871.789	14571.21
872.109	14634.26
872.428	14427.04
872.748	14503.64
873.067	14501.38
873.386	14465.23
873.706	14411.67
874.025	14355.63
874.344	14270.43
874.663	14342.29
874.982	14315.4
875.301	14315.63
875.62	14268.4
875.939	14200.6
876.258	14243.76
876.577	14156.08
876.896	14139.81
877.214	14121.51
877.533	14079.25
877.852	14085.58
878.17	14026.14
878.489	14030.44
878.807	14058.46
879.125	14037.89
879.444	14052.36
879.762	13899.37
880.08	13965.58
880.398	13900.27
880.716	13856.88
881.034	13874.51
881.352	13831.8
881.67	13735.3
881.988	13735.98
882.306	13723.78
882.624	13709.99
882.941	13616.66
883.259	13591.8
883.577	13644.01
883.894	13605.14
884.212	13533.73
884.529	13505.48
884.846	13523.1
885.164	13524.01
885.481	13378.02
885.798	13415.09
886.115	13346.84
886.432	13347.52
886.75	13292.6
887.067	13222.1
887.383	13266.16
887.7	13221.64
888.017	13074.98
888.334	13123.79
888.651	13098.71
888.967	13088.54
889.284	12991.59
889.6	12987.53
889.917	12875.44
890.233	12965.38
890.55	12847.42
890.866	12841.77
891.182	12853.97
891.498	12770.81
891.815	12742.33
892.131	12657.82
892.447	12639.51
892.763	12636.35
893.079	12553.19
893.395	12596.35
893.71	12467.31
894.026	12492.62
894.342	12467.31
894.657	12346.19
894.973	12405.62
895.289	12335.79
895.604	12317.26
895.92	12159.52
896.235	12109.58
896.55	12097.61
896.865	12155.23
897.181	12005.4
897.496	12117.04
897.811	12033.2
898.126	12005.63
898.441	11908.01
898.756	11814.68
899.071	11705.3
899.386	11761.12
899.7	11588.92
900.015	11663.94
900.33	11583.95
900.644	11515.47
900.959	11534
901.273	11470.96
901.588	11428.24
901.902	11417.62
902.216	11314.35
902.531	11344.63
902.845	11296.04
903.159	11182.6
903.473	11181.92
903.787	11195.71
904.101	11073.23
904.415	11118.65
904.729	11065.77
905.042	11004.53
905.356	11015.37
905.67	10863.97
905.984	10907.35
906.297	10863.29
906.611	10805.66
906.924	10793.01
907.237	10758.88
907.551	10731.54
907.864	10687.7
908.177	10600.7
908.491	10606.57
908.804	10471.66
909.117	10415.16
909.43	10397.76
909.743	10367.93
910.056	10302.62
910.368	10310.99
910.681	10310.53
910.994	10271.66
911.307	10194.38
911.619	10082.52
911.932	10092.23
912.244	10032.8
912.557	10024.67
912.869	10016.76
913.181	9918.45
913.494	9854.5
913.806	9822.41
914.118	9755.97
914.43	9745.13
914.742	9749.64
915.054	9634.39
915.366	9671.68
915.678	9545.36
915.99	9643.21
916.302	9476.66
916.613	9516.66
916.925	9426.04
917.236	9413.38
917.548	9316.21
917.859	9313.72
918.171	9326.15
918.482	9253.16
918.794	9232.14
919.105	9261.75
919.416	9108.76
919.727	9076.22
920.038	9037.35
920.349	9009.55
920.66	8965.03
920.971	8958.93
921.282	8877.8
921.593	8838.93
921.903	8749.9
922.214	8769.11
922.525	8749.9
922.835	8731.14
923.146	8624.48
923.456	8647.53
923.767	8573.4
924.077	8546.96
924.387	8463.58
924.697	8428.32
925.008	8477.36
925.318	8423.8
925.628	8405.27
925.938	8360.98
926.248	8287.31
926.558	8264.49
926.867	8232.62
927.177	8229.01
927.487	8181.32
927.796	8089.8
928.106	8055
928.416	8078.73
928.725	8034.21
929.034	7991.27
929.344	8016.36
929.653	7928.45
929.962	7866.3
930.271	7832.18
930.581	7795.8
930.89	7796.48
931.199	7668.34
931.508	7695.46
931.817	7689.59
932.125	7698.63
932.434	7668.8
932.743	7533.43
933.051	7502.02
933.36	7468.8
933.669	7419.76
933.977	7405.75
934.286	7425.19
934.594	7360.56
934.902	7351.97
935.21	7233.55
935.519	7257.05
935.827	7212.31
936.135	7185.19
936.443	7144.52
936.751	7126.21
937.059	7093.22
937.367	7081.92
937.674	7059.77
937.982	7015.48
938.29	6958.76
938.597	6993.79
938.905	6948.81
939.213	6921.24
939.52	6839.66
939.827	6815.94
940.135	6800.8
940.442	6768.71
940.749	6746.79
941.056	6717.63
941.363	6681.25
941.67	6651.87
941.977	6577.3
942.284	6537.07
942.591	6547.92
942.898	6539.79
943.205	6518.54
943.511	6490.75
943.818	6496.17
944.125	6416.63
944.431	6414.14
944.738	6406.46
945.044	6331.2
945.35	6298.89
945.657	6304.99
945.963	6215.27
946.269	6222.05
946.575	6230.19
946.881	6181.6
947.187	6148.38
947.493	6125.79
947.799	6095.96
948.105	6054.6
948.41	6067.93
948.716	6093.02
949.022	5931.89
949.327	5977.09
949.633	5921.5
949.938	5876.75
950.244	5905.45
950.549	5891.44
950.854	5824.55
951.16	5795.17
951.465	5707.49
951.77	5793.14
952.075	5714.95
952.38	5699.36
952.685	5706.14
952.99	5627.27
953.294	5597.21
953.599	5623.88
953.904	5559.02
954.209	5513.37
954.513	5598.57
954.818	5506.82
955.122	5482.19
955.426	5452.13
955.731	5412.81
956.035	5400.38
956.339	5347.27
956.643	5394.51
956.948	5273.6
957.252	5299.37
957.556	5307.95
957.86	5292.81
958.163	5258.92
958.467	5198.58
958.771	5213.04
959.075	5143.66
959.378	5124.46
959.682	5149.54
959.985	5140.05
960.289	5052.37
960.592	5084.46
960.896	4993.84
961.199	4948.42
961.502	4968.08
961.805	4952.48
962.108	4881.07
962.411	4951.58
962.714	4886.5
963.017	4879.26
963.32	4882.65
963.623	4820.73
963.926	4825.93
964.228	4775.09
964.531	4775.99
964.833	4711.81
965.136	4742.32
965.438	4747.06
965.741	4721.53
966.043	4652.83
966.345	4587.97
966.648	4603.57
966.95	4605.15
967.252	4571.93
967.554	4587.52
967.856	4540.74
968.158	4530.12
968.46	4530.57
968.761	4501.42
969.063	4445.6
969.365	4452.61
969.666	4485.6
969.968	4403.57
970.269	4394.08
970.571	4349.56
970.872	4353.63
971.174	4273.63
971.475	4352.95
971.776	4292.84
972.077	4293.52
972.378	4229.56
972.679	4166.06
972.98	4228.89
973.281	4234.31
973.582	4190.69
973.883	4161.77
974.183	4124.71
974.484	4104.82
974.785	4114.31
975.085	4112.73
975.386	4055.33
975.686	4055.78
975.986	4009.91
976.287	4029.12
976.587	3963.58
976.887	3939.4
977.187	3929.23
977.487	3922.68
977.787	3911.38
978.087	3880.19
978.387	3866.64
978.687	3877.26
978.987	3843.36
979.286	3863.92
979.586	3803.59
979.885	3807.88
980.185	3796.13
980.484	3723.81
980.784	3746.86
981.083	3729.46
981.382	3708.22
981.682	3665.06
981.981	3683.59
982.28	3664.16
982.579	3637.04
982.878	3628.68
983.177	3580.77
983.475	3622.35
983.774	3574.44
984.073	3550.26
984.372	3530.6
984.67	3506.42
984.969	3547.77
985.267	3487.89
985.566	3502.35
985.864	3450.15
986.162	3437.95
986.461	3399.76
986.759	3407.66
987.057	3364.5
987.355	3371.51
987.653	3362.24
987.951	3364.5
988.249	3348.01
988.547	3327.89
988.844	3294.9
989.142	3303.26
989.44	3266.88
989.737	3219.42
990.035	3267.78
990.332	3259.42
990.63	3209.03
990.927	3206.09
991.224	3141.23
991.521	3208.12
991.819	3164.28
992.116	3155.02
992.413	3100.78
992.71	3086.09
993.006	3109.82
993.303	3067.33
993.6	3069.37
993.897	3018.75
994.193	3016.04
994.49	2999.54
994.787	2992.31
995.083	3005.87
995.379	2953.89
995.676	2979.2
995.972	2948.02
996.268	2899.2
996.565	2891.75
996.861	2912.54
997.157	2884.29
997.453	2841.13
997.749	2849.71
998.044	2845.87
998.34	2821.69
998.636	2816.27
998.932	2786.44
999.227	2785.76
999.523	2768.13
999.818	2741.02
1000.114	2713.9
1000.409	2701.92
1000.704	2701.47
1001	2701.02
1001.295	2688.81
1001.59	2615.14
1001.885	2698.98
1002.18	2671.86
1002.475	2642.49
1002.77	2571.53
1003.065	2596.61
1003.359	2559.1
1003.654	2581.02
1003.949	2551.64
1004.243	2555.71
1004.538	2482.04
1004.832	2538.53
1005.127	2481.59
1005.421	2468.25
1005.715	2442.94
1006.009	2420.35
1006.304	2427.13
1006.598	2402.49
1006.892	2404.53
1007.186	2376.51
1007.48	2396.84
1007.773	2356.84
1008.067	2307.58
1008.361	2352.1
1008.655	2329.05
1008.948	2334.47
1009.242	2333.34
1009.535	2277.52
1009.829	2299.22
1010.122	2280.91
1010.415	2202.05
1010.708	2222.84
1011.001	2199.11
1011.295	2208.15
1011.588	2183.74
1011.881	2162.73
1012.173	2183.52
1012.466	2155.04
1012.759	2108.26
1013.052	2110.3
1013.344	2119.56
1013.637	2089.28
1013.93	2049.73
1014.222	2075.95
1014.514	2063.29
1014.807	2050.41
1015.099	2028.04
1015.391	2034.82
1015.683	2029.4
1015.976	1967.7
1016.268	1973.58
1016.56	1951.43
1016.851	1957.76
1017.143	1938.32
1017.435	1938.32
1017.727	1928.61
1018.018	1904.2
1018.31	1881.6
1018.602	1891.09
1018.893	1873.92
1019.185	1849.51
1019.476	1828.5
1019.767	1812.9
1020.058	1819.46
1020.35	1818.1
1020.641	1798.44
1020.932	1789.4
1021.223	1776.75
1021.514	1766.13
1021.804	1730.42
1022.095	1750.08
1022.386	1699.46
1022.677	1726.58
1022.967	1693.13
1023.258	1665.79
1023.548	1684.32
1023.839	1674.83
1024.129	1638.45
1024.419	1636.19
1024.709	1633.93
1025	1590.31
1025.29	1618.79
1025.58	1565
1025.87	1575.62
1026.16	1574.94
1026.449	1569.29
1026.739	1541.95
1027.029	1552.8
1027.319	1533.14
1027.608	1529.07
1027.898	1506.02
1028.187	1510.99
1028.477	1468.28
1028.766	1491.1
1029.055	1451.78
1029.344	1444.78
1029.634	1448.17
1029.923	1430.09
1030.212	1436.87
1030.501	1410.2
1030.79	1418.34
1031.078	1377.21
1031.367	1368.17
1031.656	1385.8
1031.945	1375.85
1032.233	1351.9
1032.522	1327.27
1032.81	1320.71
1033.099	1313.48
1033.387	1320.49
1033.675	1313.26
1033.963	1307.15
1034.251	1311.67
1034.54	1300.15
1034.828	1267.83
1035.116	1265.8
1035.403	1236.42
1035.691	1259.92
1035.979	1258.57
1036.267	1229.64
1036.554	1230.77
1036.842	1191.23
1037.129	1203.88
1037.417	1221.96
1037.704	1202.07
1037.992	1163.2
1038.279	1185.35
1038.566	1176.76
1038.853	1176.76
1039.14	1176.76
