Data from hue_250_FLMS001491_00085.txt Node
Date: Tue Feb 07 16:01:35 GMT 2017
User: dcchb
Spectrometer: FLMS00149
Trigger mode: 0
Integration Time (sec): 2.000000E-2
Scans to average: 10
Electric dark correction enabled: true
Nonlinearity correction enabled: false
Boxcar width: 0
XAxis mode: Wavelengths
Number of Pixels in Spectrum: 2048
>>>>>Begin Spectral Data<<<<<
341.393	-5.59
341.776	-5.59
342.16	-5.59
342.543	-67.96
342.927	-65.7
343.31	-56.89
343.693	-68.19
344.077	-54.63
344.46	-73.16
344.843	-36.55
345.226	-23.22
345.61	-31.58
345.993	-35.2
346.376	-11.92
346.759	1.19
347.142	17.23
347.525	47.06
347.908	55.65
348.291	70.11
348.674	89.55
349.057	110.56
349.44	120.73
349.823	133.39
350.206	161.18
350.588	197.11
350.971	200.5
351.354	218.58
351.737	232.14
352.119	240.05
352.502	241.41
352.884	259.71
353.267	273.72
353.65	290.67
354.032	302.65
354.414	311.69
354.797	323.44
355.179	289.77
355.562	308.52
355.944	316.88
356.326	310.1
356.709	313.49
357.091	337.45
357.473	320.5
357.855	326.6
358.238	318.01
358.62	336.54
359.002	334.74
359.384	332.25
359.766	337.45
360.148	339.03
360.53	320.05
360.912	324.12
361.294	310.33
361.676	326.83
362.057	313.49
362.439	309.88
362.821	332.48
363.203	316.43
363.584	317.79
363.966	323.89
364.348	312.36
364.729	314.4
365.111	329.77
365.493	318.24
365.874	311.23
366.256	313.95
366.637	294.51
367.019	309.65
367.4	304.46
367.781	309.65
368.163	320.73
368.544	313.27
368.925	320.73
369.306	292.03
369.688	317.34
370.069	318.92
370.45	298.81
370.831	295.42
371.212	318.69
371.593	335.87
371.974	311.01
372.355	281.86
372.736	317.11
373.117	319.14
373.498	306.26
373.879	306.26
374.26	310.33
374.641	326.15
375.021	307.85
375.402	316.88
375.783	310.33
376.163	333.61
376.544	320.5
376.925	310.1
377.305	331.35
377.686	325.47
378.066	331.12
378.447	332.93
378.827	327.51
379.208	333.16
379.588	321.4
379.968	326.6
380.349	347.17
380.729	313.72
381.109	351.23
381.489	351.91
381.87	331.12
382.25	335.19
382.63	336.32
383.01	342.42
383.39	317.34
383.77	336.32
384.15	361.85
384.53	336.09
384.91	341.52
385.29	339.03
385.67	338.8
386.049	369.54
386.429	343.1
386.809	364.34
387.189	352.59
387.568	354.4
387.948	357.56
388.328	339.71
388.707	338.8
389.087	344.23
389.466	360.27
389.846	363.44
390.225	369.31
390.605	367.96
390.984	378.8
391.363	356.88
391.743	374.74
392.122	354.62
392.501	374.96
392.881	365.7
393.26	384.23
393.639	383.78
394.018	371.8
394.397	379.48
394.776	382.19
395.155	366.15
395.534	386.94
395.913	407.5
396.292	403.44
396.671	384.23
397.05	375.19
397.429	377.9
397.808	393.27
398.186	393.72
398.565	399.14
398.944	389.88
399.323	389.88
399.701	400.5
400.08	422.87
400.458	430.78
400.837	406.15
401.215	389.88
401.594	406.37
401.972	413.15
402.351	417.22
402.729	420.38
403.107	433.04
403.486	420.38
403.864	433.04
404.242	425.58
404.62	422.19
404.999	444.11
405.377	455.19
405.755	433.49
406.133	448.63
406.511	455.86
406.889	474.39
407.267	458.8
407.645	476.43
408.023	460.38
408.401	461.29
408.779	469.65
409.156	480.04
409.534	494.28
409.912	506.48
410.29	496.77
410.667	490.44
411.045	490.21
411.422	537.22
411.8	539.03
412.178	544.45
412.555	534.28
412.933	566.6
413.31	560.49
413.687	558.69
414.065	560.72
414.442	565.69
414.819	585.8
415.197	572.24
415.574	577.22
415.951	594.84
416.328	595.07
416.705	618.8
417.082	584.22
417.46	621.51
417.837	610.89
418.214	587.16
418.591	624.9
418.967	626.03
419.344	637.55
419.721	676.65
420.098	654.95
420.475	685.01
420.852	682.98
421.228	704.44
421.605	674.39
421.982	688.17
422.358	705.8
422.735	692.47
423.111	760.94
423.488	711.9
423.864	735.86
424.241	746.93
424.617	759.36
424.994	798.91
425.37	781.96
425.746	798.23
426.123	782.86
426.499	802.3
426.875	793.71
427.251	834.84
427.627	832.58
428.003	816.31
428.379	865.34
428.756	887.04
429.132	873.48
429.507	899.92
429.883	879.58
430.259	897.66
430.635	898.79
431.011	887.04
431.387	955.74
431.763	950.09
432.138	933.59
432.514	978.79
432.89	968.39
433.265	999.8
433.641	991.67
434.016	1018.11
434.392	1032.35
434.767	1069.18
435.143	1091.33
435.518	1065.11
435.894	1095.85
436.269	1136.07
436.644	1142.63
437.02	1150.76
437.395	1160.7
437.77	1146.24
438.145	1189.18
438.52	1205
438.895	1226.24
439.271	1227.14
439.646	1256.07
440.021	1273.7
440.395	1282.96
440.77	1270.76
441.145	1290.87
441.52	1338.33
441.895	1314.82
442.27	1346.24
442.645	1314.15
443.019	1373.58
443.394	1361.15
443.769	1392.11
444.143	1380.13
444.518	1416.29
444.892	1411.09
445.267	1411.09
445.641	1430.98
446.016	1450.19
446.39	1438.89
446.764	1447.48
447.139	1490.41
447.513	1473.24
447.887	1474.59
448.262	1461.94
448.636	1524.54
449.01	1545.33
449.384	1547.36
449.758	1531.77
450.132	1566.12
450.506	1551.65
450.88	1566.57
451.254	1572.22
451.628	1579.45
452.002	1600.47
452.376	1621.71
452.75	1641.82
453.123	1648.15
453.497	1670.52
453.871	1715.72
454.244	1719.79
454.618	1723.85
454.992	1754.59
455.365	1745.32
455.739	1811.31
456.112	1825.77
456.486	1804.08
456.859	1827.81
457.232	1890.18
457.606	1875.04
457.979	1844.75
458.352	1939.21
458.725	1905.54
459.099	1937.86
459.472	1959.33
459.845	2008.14
460.218	1993
460.591	2017.18
460.964	2013.79
461.337	2086.78
461.71	2098.31
462.083	2151.41
462.456	2132.43
462.829	2147.57
463.201	2191.86
463.574	2174.46
463.947	2214.69
464.32	2281.13
464.692	2301.69
465.065	2269.38
465.438	2320.45
465.81	2345.98
466.183	2354.34
466.555	2418.07
466.928	2399.54
467.3	2389.82
467.672	2479.54
468.045	2544.85
468.417	2527.22
468.789	2533.1
469.161	2611.06
469.534	2611.06
469.906	2637.73
470.278	2664.85
470.65	2725.63
471.022	2745.07
471.394	2796.37
471.766	2778.51
472.138	2809.02
472.51	2879.98
472.882	2915.69
473.253	2926.76
473.625	2977.83
473.997	3032.52
474.369	3053.31
474.74	3074.55
475.112	3122.69
475.484	3199.97
475.855	3249.91
476.227	3253.3
476.598	3337.14
476.97	3348.22
477.341	3396.13
477.713	3486.97
478.084	3459.4
478.455	3533.3
478.827	3564.71
479.198	3663.69
479.569	3639.96
479.94	3736.68
480.311	3778.94
480.682	3841.99
481.053	3987.3
481.424	3952.95
481.795	4011.25
482.166	4052.83
482.537	4086.05
482.908	4154.75
483.279	4191.58
483.65	4248.98
484.021	4340.51
484.391	4371.24
484.762	4410.79
485.133	4483.55
485.503	4505.47
485.874	4585.25
486.244	4583.66
486.615	4681.52
486.985	4743.21
487.356	4824.11
487.726	4860.72
488.097	4941.4
488.467	4884.67
488.837	4994.05
489.207	5030.88
489.578	5168.06
489.948	5209.86
490.318	5258.45
490.688	5236.98
491.058	5354.94
491.428	5378.22
491.798	5421.83
492.168	5479.46
492.538	5507.71
492.908	5577.99
493.278	5641.94
493.648	5619.57
494.017	5701.83
494.387	5732.79
494.757	5752.22
495.126	5865.21
495.496	5801.71
495.866	5871.09
496.235	6004.42
496.605	5961.71
496.974	5975.72
497.344	6027.69
497.713	6061.14
498.082	6121.93
498.452	6188.37
498.821	6203.74
499.19	6163.74
499.559	6200.35
499.928	6226.11
500.298	6277.86
500.667	6330.29
501.036	6323.96
501.405	6355.6
501.774	6387.69
502.143	6420
502.512	6447.57
502.88	6516.04
503.249	6481.69
503.618	6513.78
503.987	6527.57
504.356	6559.21
504.724	6583.16
505.093	6567.57
505.462	6613.67
505.83	6678.52
506.199	6707.68
506.567	6787.22
506.936	6718.07
507.304	6822.48
507.672	6806.21
508.041	6845.98
508.409	6894.34
508.777	6864.96
509.145	6904.73
509.514	6929.82
509.882	6956.48
510.25	7017.73
510.618	6994.22
510.986	7001.23
511.354	7027.22
511.722	7108.12
512.09	7160.55
512.458	7093.66
512.826	7121.68
513.193	7205.74
513.561	7051.62
513.929	7179.75
514.297	7273.76
514.664	7243.48
515.032	7249.58
515.4	7350.6
515.767	7315.34
516.135	7303.14
516.502	7229.47
516.869	7326.64
517.237	7381.78
517.604	7313.76
517.972	7434.44
518.339	7497.49
518.706	7487.32
519.073	7468.11
519.44	7439.63
519.808	7504.72
520.175	7526.19
520.542	7552.17
520.909	7593.76
521.276	7531.84
521.643	7601.44
522.009	7616.13
522.376	7641.44
522.743	7657.26
523.11	7699.29
523.477	7806.18
523.843	7760.08
524.21	7810.92
524.577	7819.29
524.943	7861.32
525.31	7894.31
525.676	7886.4
526.043	7903.58
526.409	7937.25
526.776	7965.27
527.142	7921.66
527.508	8005.5
527.874	8017.92
528.241	8034.65
528.607	7989.22
528.973	8043.91
529.339	8012.05
529.705	8080.52
530.071	8126.4
530.437	8066.74
530.803	8134.98
531.169	8220.18
531.535	8077.13
531.901	8160.75
532.267	8174.98
532.632	8164.59
532.998	8175.89
533.364	8187.86
533.73	8162.55
534.095	8258.82
534.461	8217.47
534.826	8213.17
535.192	8193.51
535.557	8262.66
535.923	8217.24
536.288	8229.67
536.653	8248.65
537.019	8250.24
537.384	8161.88
537.749	8195.77
538.114	8206.39
538.479	8170.46
538.845	8186.96
539.21	8213.17
539.575	8160.52
539.94	8199.84
540.305	8184.47
540.67	8174.3
541.034	8208.2
541.399	8215.43
541.764	8202.78
542.129	8155.77
542.494	8210.01
542.858	8205.26
543.223	8154.87
543.587	8218.82
543.952	8180.86
544.316	8156
544.681	8129.79
545.045	8183.12
545.41	8182.21
545.774	8214.3
546.138	8230.12
546.503	8160.97
546.867	8118.26
547.231	8214.76
547.595	8110.8
547.959	8183.8
548.324	8143.12
548.688	8153.51
549.052	8131.82
549.416	8184.7
549.779	8164.59
550.143	8102.67
550.507	8124.36
550.871	8115.1
551.235	8134.76
551.599	8191.93
551.962	8150.12
552.326	8146.73
552.689	8146.06
553.053	8118.04
553.417	8117.58
553.78	8221.54
554.143	8121.65
554.507	8110.8
554.87	8119.17
555.234	8204.36
555.597	8165.49
555.96	8213.85
556.323	8177.47
556.686	8189.22
557.05	8236.45
557.413	8259.5
557.776	8188.77
558.139	8268.77
558.502	8257.01
558.865	8233.51
559.228	8236.45
559.59	8276
559.953	8267.41
560.316	8344.24
560.679	8283.68
561.041	8405.03
561.404	8379.05
561.767	8380.18
562.129	8399.16
562.492	8437.57
562.854	8464.92
563.217	8385.6
563.579	8436.67
563.941	8441.87
564.304	8487.52
564.666	8529.55
565.028	8547.4
565.39	8527.74
565.753	8555.99
566.115	8595.99
566.477	8588.31
566.839	8620.17
567.201	8657.91
567.563	8641.86
567.925	8705.14
568.287	8708.98
568.648	8734.97
569.01	8711.24
569.372	8835.76
569.734	8737.45
570.095	8872.82
570.457	8837.79
570.819	8881.63
571.18	8905.36
571.542	8927.05
571.903	8968.18
572.265	8953.95
572.626	8939.48
572.987	8965.24
573.349	9004.34
573.71	9002.31
574.071	9015.41
574.432	9090.21
574.794	9099.7
575.155	9134.05
575.516	9122.08
575.877	9096.99
576.238	9167.95
576.599	9132.7
576.96	9169.53
577.32	9189.87
577.681	9315.97
578.042	9230.55
578.403	9268.51
578.763	9278.23
579.124	9259.7
579.485	9311.45
579.845	9364.33
580.206	9374.27
580.566	9358
580.927	9467.83
581.287	9382.41
581.648	9416.08
582.008	9473.48
582.368	9458.56
582.728	9460.15
583.089	9479.13
583.449	9457.89
583.809	9478.45
584.169	9491.56
584.529	9497.66
584.889	9519.81
585.249	9549.64
585.609	9499.47
585.969	9568.39
586.329	9555.74
586.688	9602.97
587.048	9607.94
587.408	9657.88
587.768	9630.09
588.127	9576.3
588.487	9626.7
588.846	9633.48
589.206	9666.92
589.565	9657.66
589.925	9703.3
590.284	9711.44
590.643	9667.15
591.003	9738.56
591.362	9727.26
591.721	9759.8
592.08	9723.19
592.44	9767.26
592.799	9791.44
593.158	9665.34
593.517	9762.74
593.876	9802.74
594.235	9777.43
594.593	9787.14
594.952	9794.15
595.311	9772.68
595.67	9777.2
596.029	9825.11
596.387	9811.1
596.746	9907.14
597.104	9894.03
597.463	9898.55
597.822	9866.01
598.18	9792.34
598.538	9840.48
598.897	9924.54
599.255	9794.38
599.613	9941.26
599.972	9884.77
600.33	9888.16
600.688	9826.92
601.046	9987.36
601.404	9966.57
601.762	9869.4
602.12	9990.53
602.478	9969.29
602.836	10013.58
603.194	9946.01
603.552	9921.83
603.91	9984.43
604.268	9958.89
604.625	9954.15
604.983	9954.6
605.341	9964.54
605.698	9986.46
606.056	9984.65
606.413	10034.14
606.771	9996.18
607.128	10016.06
607.485	10038.44
607.843	10005.44
608.2	9981.26
608.557	10039.79
608.914	10118.89
609.272	10130.86
609.629	10125.67
609.986	10106.23
610.343	10158.66
610.7	10153.69
611.057	10093.35
611.414	10167.25
611.771	10114.59
612.127	10224.87
612.484	10113.69
612.841	10185.33
613.198	10165.21
613.554	10227.58
613.911	10294.02
614.267	10211.54
614.624	10264.19
614.98	10334.25
615.337	10284.08
615.693	10282.72
616.05	10262.16
616.406	10328.6
616.762	10248.6
617.118	10228.71
617.475	10260.8
617.831	10283.4
618.187	10355.49
618.543	10291.99
618.899	10340.58
619.255	10350.74
619.611	10284.98
619.967	10446.11
620.323	10375.38
620.678	10383.06
621.034	10287.02
621.39	10297.86
621.746	10330.63
622.101	10466.22
622.457	10392.33
622.812	10373.8
623.168	10427.8
623.523	10399.56
623.879	10454.47
624.234	10335.6
624.589	10421.48
624.945	10401.82
625.3	10352.1
625.655	10394.13
626.01	10497.86
626.365	10433
626.72	10360.46
627.075	10387.58
627.43	10341.03
627.785	10357.75
628.14	10340.58
628.495	10365.66
628.85	10290.18
629.205	10316.17
629.559	10391.42
629.914	10294.02
630.269	10287.92
630.623	10279.11
630.978	10212.44
631.332	10279.33
631.687	10240.69
632.041	10256.28
632.396	10233.46
632.75	10228.04
633.104	10176.96
633.459	10184.65
633.813	10181.48
634.167	10151.43
634.521	10176.06
634.875	10172.67
635.229	10096.97
635.583	10076.85
635.937	10105.78
636.291	10127.7
636.645	10166.57
636.999	10042.96
637.352	10113.91
637.706	10059.45
638.06	10088.38
638.413	10035.5
638.767	10049.06
639.121	10046.12
639.474	10020.81
639.828	9943.98
640.181	9910.3
640.534	9915.05
640.888	9935.61
641.241	9894.26
641.594	9907.37
641.947	9891.77
642.301	9833.24
642.654	9867.37
643.007	9882.73
643.36	9861.49
643.713	9855.39
644.066	9882.06
644.419	9818.56
644.771	9788.5
645.124	9704.21
645.477	9690.42
645.83	9649.52
646.182	9582.18
646.535	9564.78
646.888	9615.62
647.24	9510.31
647.593	9598.45
647.945	9574.04
648.298	9501.05
648.65	9442.07
649.002	9571.33
649.355	9527.26
649.707	9570.2
650.059	9599.58
650.411	9628.28
650.763	9704.89
651.115	9733.13
651.467	9687.49
651.819	9685.68
652.171	9736.07
652.523	9691.33
652.875	9626.92
653.227	9651.33
653.578	9730.87
653.93	9716.19
654.282	9617.66
654.633	9688.16
654.985	9662.4
655.337	9629.18
655.688	9671.44
656.039	9712.8
656.391	9611.33
656.742	9657.88
657.094	9702.17
657.445	9668.5
657.796	9685.68
658.147	9734.04
658.498	9711.67
658.849	9704.21
659.2	9635.28
659.551	9640.03
659.902	9630.99
660.253	9588.05
660.604	9670.54
660.955	9555.51
661.306	9636.41
661.656	9614.27
662.007	9591.67
662.358	9646.36
662.708	9680.93
663.059	9624.21
663.409	9569.75
663.76	9674.38
664.11	9634.61
664.461	9573.82
664.811	9594.38
665.161	9580.82
665.511	9644.1
665.862	9609.75
666.212	9617.88
666.562	9687.71
666.912	9700.14
667.262	9626.92
667.612	9556.19
667.962	9670.31
668.312	9610.65
668.662	9673.25
669.011	9714.83
669.361	9661.27
669.711	9620.37
670.06	9672.8
670.41	9633.25
670.76	9622.63
671.109	9591.22
671.459	9579.92
671.808	9646.13
672.157	9608.62
672.507	9536.3
672.856	9611.78
673.205	9558.68
673.554	9575.17
673.904	9566.58
674.253	9578.56
674.602	9472.12
674.951	9359.58
675.3	9291.34
675.649	9567.94
675.998	9472.12
676.346	9487.04
676.695	9527.04
677.044	9417.89
677.393	9449.07
677.741	9473.03
678.09	9473.03
678.438	9362.75
678.787	9434.38
679.135	9476.64
679.484	9360.04
679.832	9379.24
680.181	9256.76
680.529	9394.84
680.877	9342.64
681.225	9310.77
681.573	9347.38
681.922	9294.5
682.27	9285.46
682.618	9283.65
682.966	9205.69
683.314	9298.12
683.661	9199.59
684.009	9182.41
684.357	9100.38
684.705	9104.22
685.053	9124.11
685.4	9203.43
685.748	9099.25
686.095	9106.03
686.443	9087.73
686.79	9106.94
687.138	9026.94
687.485	9116.43
687.832	9026.26
688.18	8979.93
688.527	8965.02
688.874	8909.65
689.221	8920.73
689.568	8918.24
689.915	8875.53
690.262	8840.73
690.609	8815.64
690.956	8822.2
691.303	8765.25
691.65	8710.34
691.997	8675.53
692.344	8655.42
692.69	8689.32
693.037	8633.73
693.383	8527.52
693.73	8533.39
694.077	8519.38
694.423	8534.75
694.769	8448.87
695.116	8462.21
695.462	8367.75
695.808	8452.49
696.155	8428.08
696.501	8360.74
696.847	8312.38
697.193	8318.48
697.539	8349.22
697.885	8254.98
698.231	8239.61
698.577	8234.64
698.923	8217.47
699.269	8194.87
699.614	8109.67
699.96	8125.27
700.306	8167.53
700.651	8069
700.997	8047.98
701.342	8061.54
701.688	8038.04
702.033	7987.87
702.379	7985.61
702.724	7956.01
703.069	7971.82
703.415	7789.46
703.76	7849.79
704.105	7866.06
704.45	7820.64
704.795	7786.97
705.14	7670.36
705.485	7742.45
705.83	7658.61
706.175	7664.49
706.52	7687.31
706.865	7642.12
707.209	7656.8
707.554	7540.88
707.899	7560.54
708.243	7558.05
708.588	7565.73
708.932	7522.12
709.277	7532.97
709.621	7480.31
709.966	7438.73
710.31	7526.19
710.654	7343.14
710.998	7410.71
711.342	7378.17
711.687	7433.31
712.031	7329.36
712.375	7290.03
712.719	7295.46
713.063	7257.94
713.407	7308.56
713.75	7356.47
714.094	7253.88
714.438	7235.57
714.782	7205.06
715.125	7178.85
715.469	7228.79
715.812	7173.2
716.156	7162.58
716.499	7128.68
716.843	7152.86
717.186	7136.82
717.53	7092.75
717.873	7117.84
718.216	7109.93
718.559	7066.76
718.902	7042.13
719.246	7031.28
719.589	7041.91
719.932	6979.08
720.275	6979.53
720.617	7046.88
720.96	6986.31
721.303	6963.26
721.646	7013.43
721.989	6955.81
722.331	6946.54
722.674	6932.53
723.016	6982.25
723.359	6938.63
723.701	6941.12
724.044	6889.37
724.386	6877.39
724.729	6953.77
725.071	6912.87
725.413	6818.41
725.755	6854.57
726.097	6814.34
726.439	6778.64
726.782	6837.62
727.124	6852.08
727.465	6860.89
727.807	6904.73
728.149	6838.07
728.491	6801.46
728.833	6833.55
729.175	6838.07
729.516	6838.29
729.858	6829.03
730.199	6827.67
730.541	6790.84
730.882	6801.69
731.224	6802.82
731.565	6760.1
731.906	6763.27
732.248	6780.67
732.589	6760.78
732.93	6759.65
733.271	6746.55
733.612	6724.17
733.953	6721.91
734.294	6771.4
734.635	6728.47
734.976	6763.49
735.317	6696.83
735.658	6728.24
735.999	6733.44
736.339	6717.62
736.68	6792.42
737.021	6733.89
737.361	6700.67
737.702	6735.92
738.042	6758.07
738.383	6732.99
738.723	6743.16
739.063	6768.92
739.404	6768.92
739.744	6704.29
740.084	6713.1
740.424	6759.88
740.764	6781.8
741.104	6821.35
741.444	6753.78
741.784	6768.92
742.124	6778.18
742.464	6797.84
742.804	6778.41
743.143	6796.26
743.483	6845.53
743.823	6778.41
744.162	6790.61
744.502	6829.48
744.841	6837.39
745.181	6821.35
745.52	6874.9
745.86	6943.6
746.199	6914.9
746.538	6996.71
746.877	6987.9
747.216	7074.9
747.556	7022.24
747.895	7044.62
748.234	7078.29
748.573	7125.29
748.911	7124.39
749.25	7167.33
749.589	7194.9
749.928	7236.02
750.267	7312.18
750.605	7306.31
750.944	7335.46
751.283	7367.77
751.621	7477.37
751.96	7416.81
752.298	7572.74
752.636	7568.45
752.975	7673.98
753.313	7660.19
753.651	7830.13
753.989	7895.89
754.327	7944.93
754.666	7977.47
755.004	8087.98
755.342	8168.43
755.679	8198.26
756.017	8296.11
756.355	8354.19
756.693	8389.67
757.031	8535.65
757.368	8601.64
757.706	8717.12
758.044	8818.81
758.381	8909.88
758.719	9040.5
759.056	9107.16
759.394	9200.04
759.731	9221.51
760.068	9417.21
760.405	9399.36
760.743	9517.55
761.08	9637.54
761.417	9756.41
761.754	9866.24
762.091	9976.97
762.428	9994.14
762.765	10182.84
763.102	10284.53
763.438	10341.48
763.775	10476.39
764.112	10539.44
764.449	10670.28
764.785	10807
765.122	10827.79
765.458	10822.82
765.795	10957.73
766.131	11115.7
766.467	11139.88
766.804	11225.3
767.14	11337.61
767.476	11438.63
767.812	11452.64
768.148	11579.19
768.485	11590.71
768.821	11696.25
769.157	11735.34
769.492	11833.19
769.828	11953.41
770.164	11882.23
770.5	11994.77
770.836	12043.13
771.171	12068.89
771.507	12151.38
771.842	12151.6
772.178	12191.37
772.513	12295.55
772.849	12306.17
773.184	12356.79
773.519	12391.82
773.855	12425.94
774.19	12355.66
774.525	12443.8
774.86	12548.2
775.195	12614.19
775.53	12625.71
775.865	12532.61
776.2	12602.44
776.535	12587.75
776.87	12677.69
777.205	12583.91
777.539	12616
777.874	12648.31
778.209	12657.8
778.543	12672.49
778.878	12651.02
779.212	12666.16
779.547	12654.86
779.881	12719.95
780.215	12639.5
780.55	12705.03
780.884	12681.53
781.218	12658.48
781.552	12739.61
781.886	12674.3
782.22	12736.44
782.554	12611.93
782.888	12603.57
783.222	12568.77
783.556	12553.62
783.889	12564.47
784.223	12495.77
784.557	12512.04
784.89	12618.93
785.224	12534.64
785.557	12500.07
785.891	12487.19
786.224	12496.23
786.558	12538.03
786.891	12380.97
787.224	12490.58
787.557	12365.61
787.891	12319.51
788.224	12395.44
788.557	12338.49
788.89	12392.05
789.223	12328.55
789.556	12297.13
789.888	12330.13
790.221	12298.04
790.554	12146.86
790.887	12177.14
791.219	12134.43
791.552	12168.32
791.884	12076.8
792.217	12136.23
792.549	12134.65
792.882	12039.06
793.214	12043.13
793.546	12046.52
793.879	11951.61
794.211	11895.56
794.543	11931.95
794.875	11856.47
795.207	11948.89
795.539	11819.86
795.871	11888.33
796.203	11768.33
796.535	11741.89
796.867	11818.05
797.198	11691.73
797.53	11675.68
797.862	11609.24
798.193	11597.04
798.525	11618.96
798.856	11591.62
799.188	11425.07
799.519	11437.72
799.85	11469.13
800.182	11372.86
800.513	11384.84
800.844	11355.92
801.175	11434.33
801.506	11358.85
801.837	11282.02
802.168	11309.14
802.499	11287.67
802.83	11235.69
803.161	11207.45
803.491	11190.72
803.822	11193.43
804.153	11136.03
804.483	11110.27
804.814	11036.15
805.145	11066.21
805.475	11077.73
805.805	10981.91
806.136	11033.21
806.466	10954.8
806.796	10942.82
807.126	10954.57
807.457	10812.43
807.787	10842.94
808.117	10821.01
808.447	10764.75
808.777	10783.95
809.107	10755.48
809.436	10726.78
809.766	10804.29
810.096	10736.5
810.426	10683.39
810.755	10662.83
811.085	10650.17
811.414	10673.45
811.744	10529.27
812.073	10513.9
812.403	10594.13
812.732	10508.48
813.061	10489.95
813.39	10485.43
813.719	10451.99
814.049	10562.94
814.378	10415.38
814.707	10421.7
815.036	10394.59
815.365	10389.39
815.693	10267.36
816.022	10295.38
816.351	10291.99
816.68	10166.79
817.008	10321.82
817.337	10218.32
817.665	10113.01
817.994	10212.44
818.322	10127.02
818.651	10117.08
818.979	10085.67
819.307	10175.16
819.636	10101.03
819.964	10026.69
820.292	10083.18
820.62	10056.29
820.948	10042.96
821.276	10047.25
821.604	9978.78
821.932	9991.88
822.259	10032.79
822.587	10069.4
822.915	9945.56
823.243	9993.01
823.57	9978.1
823.898	10057.65
824.225	9977.65
824.553	9975.61
824.88	9996.86
825.207	10049.28
825.535	10013.58
825.862	9983.3
826.189	9947.82
826.516	9962.73
826.843	10091.99
827.17	10051.32
827.497	10033.69
827.824	10002.28
828.151	10052.45
828.478	9979.46
828.805	10016.06
829.131	9983.3
829.458	10026.23
829.785	9911.66
830.111	10012.45
830.438	10031.21
830.764	10014.93
831.09	9997.76
831.417	9981.94
831.743	10057.19
832.069	9993.47
832.395	9995.27
832.722	10047.02
833.048	9960.7
833.374	10041.83
833.7	9852.9
834.026	9945.11
834.351	9894.71
834.677	9943.98
835.003	9965.44
835.329	9937.42
835.654	9880.7
835.98	9822.17
836.306	9852.23
836.631	9851.1
836.956	9918.21
837.282	9849.74
837.607	9835.96
837.932	9848.84
838.258	9862.4
838.583	9774.94
838.908	9785.11
839.233	9748.05
839.558	9796.41
839.883	9677.99
840.208	9717.77
840.533	9682.29
840.858	9692.91
841.182	9716.41
841.507	9623.31
841.832	9614.72
842.156	9667.82
842.481	9550.99
842.805	9596.41
843.13	9553.48
843.454	9522.07
843.778	9490.43
844.103	9490.88
844.427	9516.64
844.751	9476.87
845.075	9468.28
845.399	9412.01
845.723	9389.41
846.047	9351.45
846.371	9309.42
846.695	9282.52
847.019	9207.72
847.343	9169.31
847.666	9172.7
847.99	9121.85
848.313	9082.98
848.637	9061.06
848.96	9037.78
849.284	9037.56
849.607	8980.39
849.931	8947.17
850.254	8838.47
850.577	8796.89
850.9	8804.34
851.223	8794.4
851.546	8697.45
851.869	8695.2
852.192	8746.27
852.515	8634.86
852.838	8628.08
853.161	8597.8
853.483	8552.83
853.806	8525.03
854.129	8500.4
854.451	8515.31
854.774	8511.25
855.096	8416.78
855.419	8449.33
855.741	8385.15
856.063	8335.88
856.385	8347.41
856.708	8341.98
857.03	8326.62
857.352	8327.97
857.674	8207.52
857.996	8163.68
858.318	8121.88
858.64	8194.42
858.961	8160.75
859.283	8101.54
859.605	8104.25
859.926	8094.76
860.248	8081.2
860.57	8058.15
860.891	8068.77
861.212	8015.66
861.534	7949.45
861.855	7937.02
862.176	7944.03
862.498	7960.75
862.819	7972.05
863.14	7882.11
863.461	7856.12
863.782	7885.95
864.103	7828.1
864.424	7830.13
864.745	7847.53
865.065	7814.09
865.386	7798.5
865.707	7785.39
866.027	7782.45
866.348	7737.48
866.668	7786.97
866.989	7708.55
867.309	7661.1
867.63	7701.32
867.95	7698.39
868.27	7625.84
868.59	7672.17
868.91	7652.28
869.23	7677.14
869.55	7660.65
869.87	7641.44
870.19	7602.34
870.51	7650.93
870.83	7640.99
871.15	7517.15
871.469	7560.54
871.789	7588.33
872.109	7617.71
872.428	7502.01
872.748	7583.59
873.067	7522.34
873.386	7480.31
873.706	7532.97
874.025	7463.36
874.344	7513.31
874.663	7472.4
874.982	7431.27
875.301	7399.41
875.62	7427.66
875.939	7438.28
876.258	7383.37
876.577	7364.83
876.896	7393.99
877.214	7319.19
877.533	7344.95
877.852	7307.21
878.17	7314.67
878.489	7326.64
878.807	7313.76
879.125	7306.98
879.444	7284.38
879.762	7265.85
880.08	7318.96
880.398	7230.83
880.716	7216.36
881.034	7158.74
881.352	7141.79
881.67	7138.17
881.988	7193.77
882.306	7187.44
882.624	7161.68
882.941	7081
883.259	7060.21
883.577	7069.48
883.894	7091.17
884.212	7059.98
884.529	7074.45
884.846	7035.58
885.164	7062.7
885.481	6958.52
885.798	7020.89
886.115	6965.98
886.432	6986.99
886.75	6948.8
887.067	6895.69
887.383	6873.55
887.7	6915.13
888.017	6844.62
888.334	6863.38
888.651	6881.01
888.967	6796.26
889.284	6824.06
889.6	6738.64
889.917	6742.93
890.233	6729.37
890.55	6715.59
890.866	6706.32
891.182	6634.46
891.498	6572.77
891.815	6647.79
892.131	6673.55
892.447	6623.16
892.763	6553.56
893.079	6572.77
893.395	6548.36
893.71	6534.57
894.026	6489.83
894.342	6489.15
894.657	6440.11
894.973	6442.15
895.289	6477.63
895.604	6477.63
895.92	6379.32
896.235	6402.83
896.55	6342.71
896.865	6339.55
897.181	6342.94
897.496	6296.16
897.811	6291.64
898.126	6253.23
898.441	6230.63
898.756	6232.66
899.071	6210.06
899.386	6233.56
899.7	6136.84
900.015	6159.67
900.33	6095.72
900.644	6025.43
900.959	6074.47
901.273	6009.16
901.588	6042.16
901.902	5985.89
902.216	5974.14
902.531	5933.23
902.845	5901.14
903.159	5897.3
903.473	5879.22
903.787	5865.44
904.101	5798.77
904.415	5823.41
904.729	5761.94
905.042	5749.51
905.356	5744.31
905.67	5707.48
905.984	5726.01
906.297	5670.42
906.611	5658.44
906.924	5647.82
907.237	5641.72
907.551	5642.85
907.864	5597.65
908.177	5540.7
908.491	5587.48
908.804	5525.56
909.117	5484.21
909.43	5506.58
909.743	5463.42
910.056	5436.07
910.368	5436.75
910.681	5355.62
910.994	5395.39
911.307	5321.05
911.619	5319.01
911.932	5331.22
912.244	5313.59
912.557	5302.52
912.869	5248.51
913.181	5232.01
913.494	5227.49
913.806	5168.06
914.118	5220.71
914.43	5160.15
914.742	5148.17
915.054	5098.23
915.366	5122.63
915.678	5084.67
915.99	5070.43
916.302	5032.01
916.613	5032.69
916.925	4994.73
917.236	5001.51
917.548	4972.58
917.859	4939.81
918.171	4920.38
918.482	4920.38
918.794	4871.11
919.105	4851.45
919.416	4853.71
919.727	4850.32
920.038	4793.6
920.349	4773.04
920.66	4739.14
920.971	4770.33
921.282	4762.19
921.593	4676.77
921.903	4699.37
922.214	4667.73
922.525	4665.24
922.835	4670.67
923.146	4582.99
923.456	4627.05
923.767	4579.37
924.077	4618.24
924.387	4537.56
924.697	4520.16
925.008	4472.26
925.318	4498.02
925.628	4477
925.938	4480.39
926.248	4485.81
926.558	4453.95
926.867	4432.26
927.177	4403.1
927.487	4335.08
927.796	4324.91
928.106	4346.83
928.416	4329.66
928.725	4307.06
929.034	4277.68
929.344	4242.66
929.653	4224.13
929.962	4211.92
930.271	4213.28
930.581	4210.34
930.89	4179.16
931.199	4129.89
931.508	4102.77
931.817	4129.44
932.125	4100.74
932.434	4104.81
932.743	4060.29
933.051	4056.22
933.36	4092.83
933.669	4014.41
933.977	4020.52
934.286	3987.07
934.594	4024.81
934.902	3978.26
935.21	3948.2
935.519	3947.52
935.827	3917.02
936.135	3926.28
936.443	3858.03
936.751	3843.57
937.059	3864.59
937.367	3792.95
937.674	3805.15
937.982	3811.48
938.29	3790.92
938.597	3784.59
938.905	3764.93
939.213	3722.44
939.52	3724.93
939.827	3760.86
940.135	3697.13
940.442	3691.26
940.749	3702.78
941.056	3669.79
941.363	3649.45
941.67	3659.17
941.977	3610.13
942.284	3589.79
942.591	3593.63
942.898	3547.99
943.205	3578.49
943.511	3532.62
943.818	3527.2
944.125	3498.95
944.431	3498.5
944.738	3477.48
945.044	3466.18
945.35	3463.47
945.657	3419.4
945.963	3439.06
946.269	3384.6
946.575	3415.33
946.881	3380.98
947.187	3381.21
947.493	3355
947.799	3353.64
948.105	3339.18
948.41	3306.18
948.716	3319.52
949.022	3299.18
949.327	3277.03
949.633	3236.13
949.938	3247.65
950.244	3215.11
950.549	3189.35
950.854	3186.64
951.16	3210.82
951.465	3178.5
951.77	3190.48
952.075	3138.51
952.38	3096.47
952.685	3124.72
952.99	3107.32
953.294	3075.46
953.599	3061.22
953.904	3044.95
954.209	3068.45
954.513	3041.33
954.818	3019.41
955.122	3009.02
955.426	3005.63
955.731	2990.71
956.035	2965.4
956.339	2960.43
956.643	2981.45
956.948	2961.56
957.252	2933.31
957.556	2889.7
957.86	2932.41
958.163	2923.6
958.467	2894.9
958.771	2876.59
959.075	2875.46
959.378	2814.45
959.682	2846.76
959.985	2843.37
960.289	2780.55
960.592	2784.39
960.896	2813.99
961.199	2802.47
961.502	2758.85
961.805	2800.43
962.108	2740.1
962.411	2724.05
962.714	2728.12
963.017	2712.53
963.32	2701
963.623	2678.86
963.926	2732.87
964.228	2694.9
964.531	2679.76
964.833	2626.88
965.136	2647.22
965.438	2635.92
965.741	2626.43
966.043	2598.18
966.345	2581.91
966.648	2577.84
966.95	2583.27
967.252	2562.93
967.554	2551.63
967.856	2553.21
968.158	2495.81
968.46	2537.16
968.761	2492.87
969.063	2518.63
969.365	2486.54
969.666	2468.01
969.968	2458.07
970.269	2436.38
970.571	2463.04
970.872	2435.7
971.174	2433.66
971.475	2428.47
971.776	2420.78
972.077	2353.21
972.378	2400.67
972.679	2409.48
972.98	2399.09
973.281	2357.06
973.582	2338.75
973.883	2319.77
974.183	2319.77
974.484	2336.72
974.785	2330.84
975.085	2323.39
975.386	2310.5
975.686	2269.83
975.986	2280.9
976.287	2243.39
976.587	2270.96
976.887	2237.06
977.187	2259.21
977.487	2237.29
977.787	2206.33
978.087	2168.59
978.387	2188.25
978.687	2196.38
978.987	2182.15
979.286	2131.3
979.586	2155.93
979.885	2121.13
980.185	2144.63
980.484	2116.61
980.784	2101.24
981.083	2124.75
981.382	2095.82
981.682	2112.32
981.981	2101.92
982.28	2087.91
982.579	2081.13
982.878	2073.22
983.177	2065.09
983.475	2067.57
983.774	2030.96
984.073	2037.52
984.372	2047.69
984.67	1992.77
984.969	2031.19
985.267	1995.26
985.566	1978.54
985.864	1992.09
986.162	1951.19
986.461	1956.84
986.759	1971.08
987.057	1911.19
987.355	1927.92
987.653	1920.68
987.951	1919.33
988.249	1962.04
988.547	1933.56
988.844	1883.85
989.142	1891.31
989.44	1874.36
989.737	1894.7
990.035	1862.83
990.332	1868.03
990.63	1837.07
990.927	1852.89
991.224	1805.66
991.521	1843.4
991.819	1826.68
992.116	1815.15
992.413	1791.65
992.71	1816.96
993.006	1741.71
993.303	1820.12
993.6	1761.37
993.897	1769.28
994.193	1755.04
994.49	1721.82
994.787	1742.38
995.083	1722.95
995.379	1735.6
995.676	1727.92
995.972	1701.93
996.268	1702.84
996.565	1705.55
996.861	1690.18
997.157	1674.59
997.453	1668.94
997.749	1645.44
998.044	1634.59
998.34	1618.32
998.636	1616.96
998.932	1623.06
999.227	1646.57
999.523	1631.2
999.818	1592.11
1000.114	1591.2
1000.409	1561.82
1000.704	1580.81
1001	1586.91
1001.295	1542.16
1001.59	1541.48
1001.885	1582.84
1002.18	1531.09
1002.475	1537.64
1002.77	1552.11
1003.065	1509.17
1003.359	1519.79
1003.654	1522.28
1003.949	1511.2
1004.243	1470.53
1004.538	1478.89
1004.832	1472.79
1005.127	1492.67
1005.421	1453.58
1005.715	1447.25
1006.009	1431.88
1006.304	1435.05
1006.598	1447.7
1006.892	1407.48
1007.186	1447.93
1007.48	1412.9
1007.773	1400.25
1008.067	1376.97
1008.361	1392.34
1008.655	1363.64
1008.948	1362.28
1009.242	1365.22
1009.535	1372.22
1009.829	1350.98
1010.122	1366.12
1010.415	1304.88
1010.708	1340.81
1011.001	1360.25
1011.295	1319.57
1011.588	1311.89
1011.881	1288.84
1012.173	1289.97
1012.466	1295.39
1012.759	1296.07
1013.052	1259.01
1013.344	1249.06
1013.637	1277.76
1013.93	1254.94
1014.222	1248.61
1014.514	1227.82
1014.807	1237.54
1015.099	1235.96
1015.391	1211.78
1015.683	1225.56
1015.976	1226.92
1016.268	1206.58
1016.56	1187.14
1016.851	1187.14
1017.143	1166.58
1017.435	1188.95
1017.727	1150.31
1018.018	1158.67
1018.31	1140.14
1018.602	1159.8
1018.893	1143.08
1019.185	1125.22
1019.476	1122.74
1019.767	1111.89
1020.058	1118.67
1020.35	1081.84
1020.641	1076.86
1020.932	1095.62
1021.223	1072.57
1021.514	1092.23
1021.804	1064.44
1022.095	1074.83
1022.386	1042.97
1022.677	1060.37
1022.967	1055.17
1023.258	1057.43
1023.548	1012.46
1023.839	1003.19
1024.129	1032.35
1024.419	1017.43
1024.709	1005.91
1025	977.88
1025.29	979.92
1025.58	979.24
1025.87	1003.65
1026.16	984.21
1026.449	993.48
1026.739	969.07
1027.029	990.76
1027.319	938.11
1027.608	962.74
1027.898	970.2
1028.187	950.77
1028.477	949.86
1028.766	921.84
1029.055	939.47
1029.344	896.76
1029.634	908.73
1029.923	882.97
1030.212	861.28
1030.501	902.18
1030.79	898.34
1031.078	886.59
1031.367	875.06
1031.656	884.78
1031.945	872.58
1032.233	871.22
1032.522	874.16
1032.81	858.34
1033.099	849.75
1033.387	842.97
1033.675	844.78
1033.963	832.8
1034.251	826.25
1034.54	842.75
1034.828	859.24
1035.116	811.11
1035.403	817.44
1035.691	802.75
1035.979	828.28
1036.267	792.13
1036.554	810.88
1036.842	797.32
1037.129	791.22
1037.417	749.64
1037.704	798
1037.992	780.37
1038.279	796.19
1038.566	758.91
1038.853	758.91
1039.14	758.91
