Data from hue_310_FLMS001491_23.txt Node
Date: Mon Feb 06 15:49:19 GMT 2017
User: dcchb
Spectrometer: FLMS00149
Trigger mode: 0
Integration Time (sec): 2.000000E-2
Scans to average: 10
Electric dark correction enabled: true
Nonlinearity correction enabled: false
Boxcar width: 0
XAxis mode: Wavelengths
Number of Pixels in Spectrum: 2048
>>>>>Begin Spectral Data<<<<<
341.393	-29.56
341.776	-29.56
342.16	-29.56
342.543	-59.17
342.927	-83.57
343.31	-76.34
343.693	-73.4
344.077	-84.02
344.46	-65.27
344.843	-33.4
345.226	-48.77
345.61	-48.77
345.993	-15.78
346.376	11.12
346.759	7.73
347.142	55.86
347.525	35.3
347.908	57.89
348.291	74.62
348.674	92.92
349.057	110.32
349.44	121.62
349.823	124.11
350.206	152.81
350.588	212.47
350.971	196.2
351.354	225.12
351.737	248.62
352.119	241.39
352.502	247.49
352.884	252.24
353.267	273.03
353.65	283.65
354.032	282.52
354.414	298.57
354.797	313.71
355.179	318
355.562	314.61
355.944	314.16
356.326	312.58
356.709	318.23
357.091	342.18
357.473	326.14
357.855	357.77
358.238	322.52
358.62	341.5
359.002	328.4
359.384	337.66
359.766	333.82
360.148	323.88
360.53	325.23
360.912	340.37
361.294	336.98
361.676	329.3
362.057	333.82
362.439	340.15
362.821	334.04
363.203	331.79
363.584	300.6
363.966	331.79
364.348	321.16
364.729	336.53
365.111	322.97
365.493	326.59
365.874	318.9
366.256	307.83
366.637	310.09
367.019	305.35
367.4	330.66
367.781	306.93
368.163	298.57
368.544	303.99
368.925	293.37
369.306	316.87
369.688	304.89
370.069	306.25
370.45	300.6
370.831	311.22
371.212	306.47
371.593	310.09
371.974	310.54
372.355	299.02
372.736	312.8
373.117	305.12
373.498	312.35
373.879	300.37
374.26	310.32
374.641	329.53
375.021	322.29
375.402	318
375.783	309.19
376.163	332.01
376.544	298.57
376.925	332.46
377.305	322.97
377.686	331.79
378.066	312.58
378.447	311.9
378.827	323.42
379.208	322.07
379.588	321.39
379.968	303.99
380.349	310.54
380.729	323.65
381.109	332.46
381.489	339.24
381.87	325.91
382.25	346.25
382.63	338.11
383.01	338.79
383.39	324.55
383.77	346.93
384.15	338.79
384.53	351.67
384.91	352.8
385.29	338.11
385.67	345.57
386.049	362.52
386.429	354.61
386.809	358.45
387.189	344.44
387.568	340.6
387.948	357.77
388.328	335.63
388.707	350.77
389.087	341.05
389.466	371.78
389.846	361.16
390.225	362.29
390.605	353.93
390.984	357.1
391.363	356.19
391.743	352.35
392.122	366.13
392.501	354.16
392.881	373.59
393.26	361.84
393.639	385.57
394.018	376.98
394.397	368.85
394.776	369.75
395.155	388.28
395.534	366.36
395.913	380.37
396.292	381.05
396.671	383.31
397.05	375.63
397.429	364.55
397.808	393.93
398.186	373.14
398.565	387.6
398.944	392.8
399.323	406.13
399.701	412.69
400.08	401.84
400.458	369.98
400.837	426.7
401.215	397.55
401.594	414.04
401.972	402.29
402.351	410.43
402.729	404.55
403.107	404.33
403.486	406.59
403.864	407.26
404.242	425.79
404.62	415.62
404.999	430.77
405.377	408.62
405.755	437.09
406.133	449.3
406.511	453.82
406.889	439.13
407.267	432.12
407.645	431.9
408.023	467.37
408.401	467.15
408.779	478
409.156	468.96
409.534	491.78
409.912	491.78
410.29	483.87
410.667	479.13
411.045	493.36
411.422	478.67
411.8	504.89
412.178	512.35
412.555	521.16
412.933	525.45
413.31	535.85
413.687	515.96
414.065	531.55
414.442	553.47
414.819	550.76
415.197	563.64
415.574	582.4
415.951	565
416.328	564.55
416.705	588.95
417.082	581.5
417.46	585.79
417.837	624.21
418.214	626.01
418.591	624.43
418.967	636.18
419.344	642.29
419.721	630.53
420.098	642.06
420.475	656.97
420.852	661.04
421.228	680.7
421.605	707.59
421.982	685.67
422.358	695.62
422.735	701.27
423.111	721.61
423.488	731.55
423.864	710.31
424.241	732.68
424.617	746.92
424.994	763.41
425.37	746.69
425.746	746.46
426.123	802.96
426.499	795.5
426.875	797.31
427.251	811.77
427.627	831.88
428.003	814.03
428.379	834.14
428.756	812.68
429.132	849.29
429.507	858.78
429.883	882.96
430.259	879.57
430.635	874.37
431.011	900.58
431.387	882.28
431.763	905.33
432.138	927.25
432.514	913.01
432.89	933.13
433.265	941.49
433.641	940.81
434.016	994.14
434.392	1012.9
434.767	979.68
435.143	972.67
435.518	1023.74
435.894	1019.22
436.269	1056.96
436.644	1068.94
437.02	1083.86
437.395	1086.34
437.77	1077.53
438.145	1084.76
438.52	1101.71
438.895	1094.7
439.271	1091.77
439.646	1116.62
440.021	1136.28
440.395	1135.15
440.77	1151.42
441.145	1139.9
441.52	1180.12
441.895	1171.09
442.27	1170.41
442.645	1175.83
443.019	1210.18
443.394	1181.48
443.769	1202.04
444.143	1183.74
444.518	1209.95
444.892	1212.89
445.267	1188.03
445.641	1212.89
446.016	1198.43
446.39	1230.07
446.764	1244.08
447.139	1219.67
447.513	1243.4
447.887	1228.71
448.262	1230.07
448.636	1280.23
449.01	1254.47
449.384	1268.03
449.758	1281.36
450.132	1251.99
450.506	1262.83
450.88	1280.46
451.254	1298.09
451.628	1266.9
452.002	1307.35
452.376	1303.96
452.75	1331.31
453.123	1321.36
453.497	1363.17
453.871	1343.74
454.244	1338.09
454.618	1365.66
454.992	1401.81
455.365	1385.99
455.739	1423.73
456.112	1389.16
456.486	1407.69
456.859	1431.42
457.232	1438.42
457.606	1463.73
457.979	1444.98
458.352	1472.09
458.725	1475.26
459.099	1488.14
459.472	1482.72
459.845	1505.31
460.218	1510.06
460.591	1529.27
460.964	1551.19
461.337	1537.4
461.71	1563.62
462.083	1585.09
462.456	1589.83
462.829	1592.77
463.201	1611.3
463.574	1621.92
463.947	1611.75
464.32	1669.38
464.692	1657.17
465.065	1677.51
465.438	1690.62
465.81	1726.32
466.183	1705.99
466.555	1723.84
466.928	1746.44
467.3	1749.15
467.672	1765.87
468.045	1768.58
468.417	1798.41
468.789	1794.57
469.161	1799.77
469.534	1847.23
469.906	1889.48
470.278	1866.43
470.65	1906.21
471.022	1911.86
471.394	1928.81
471.766	1925.19
472.138	1964.96
472.51	1991.4
472.882	2002.02
473.253	2012.64
473.625	2042.25
473.997	2074.79
474.369	2072.53
474.74	2091.29
475.112	2089.03
475.484	2144.17
475.855	2176.48
476.227	2198.63
476.598	2221.23
476.97	2232.3
477.341	2251.96
477.713	2297.61
478.084	2297.61
478.455	2309.13
478.827	2338.06
479.198	2424.84
479.569	2401.56
479.94	2447.66
480.311	2494.44
480.682	2507.1
481.053	2537.15
481.424	2555
481.795	2570.82
482.166	2602.69
482.537	2611.95
482.908	2711.84
483.279	2688.33
483.65	2736.24
484.021	2758.84
484.391	2790.48
484.762	2790.03
485.133	2804.94
485.503	2820.99
485.874	2878.38
486.244	2856.46
486.615	2919.29
486.985	3007.87
487.356	2983.47
487.726	2997.93
488.097	3056.23
488.467	3064.59
488.837	3113.63
489.207	3135.1
489.578	3154.54
489.948	3190.69
490.318	3211.94
490.688	3218.26
491.058	3319.5
491.428	3303.91
491.798	3284.7
492.168	3349.78
492.538	3403.12
492.908	3403.12
493.278	3409.44
493.648	3455.32
494.017	3487.86
494.387	3455.54
494.757	3488.76
495.126	3509.55
495.496	3554.98
495.866	3555.88
496.235	3640.4
496.605	3599.95
496.974	3624.58
497.344	3620.29
497.713	3655.77
498.082	3710.23
498.452	3705.93
498.821	3696.89
499.19	3757.46
499.559	3780.73
499.928	3751.58
500.298	3802.2
500.667	3826.38
501.036	3824.35
501.405	3867.29
501.774	3895.08
502.143	3886.49
502.512	3874.06
502.88	3950.45
503.249	3911.13
503.618	3917
503.987	3901.41
504.356	3993.16
504.724	3994.06
505.093	3981.18
505.462	4004.46
505.83	3991.8
506.199	4037
506.567	4074.96
506.936	4018.24
507.304	4101.18
507.672	4080.39
508.041	4107.73
508.409	4112.25
508.777	4157
509.145	4165.13
509.514	4181.85
509.882	4158.35
510.25	4187.5
510.618	4236.54
510.986	4223.66
511.354	4239.48
511.722	4253.26
512.09	4293.26
512.458	4272.47
512.826	4306.82
513.193	4349.31
513.561	4307.95
513.929	4289.42
514.297	4365.58
514.664	4345.92
515.032	4358.35
515.4	4416.42
515.767	4414.62
516.135	4411
516.502	4403.99
516.869	4482.18
517.237	4473.82
517.604	4415.52
517.972	4500.04
518.339	4522.41
518.706	4483.31
519.073	4519.7
519.44	4481.51
519.808	4609.41
520.175	4543.88
520.542	4587.27
520.909	4587.94
521.276	4605.35
521.643	4612.35
522.009	4631.78
522.376	4637.89
522.743	4672.24
523.11	4708.17
523.477	4746.13
523.843	4747.71
524.21	4747.94
524.577	4778.22
524.943	4841.05
525.31	4819.58
525.676	4830.2
526.043	4832.91
526.409	4911.1
526.776	4910.42
527.142	4930.08
527.508	4922.85
527.874	4960.59
528.241	4988.84
528.607	5013.47
528.973	4992.91
529.339	5070.42
529.705	5115.84
530.071	5132.79
530.437	5126.01
530.803	5141.15
531.169	5147.25
531.535	5166.46
531.901	5171.21
532.267	5247.14
532.632	5268.38
532.998	5292.11
533.364	5305.67
533.73	5305.44
534.095	5336.63
534.461	5398.32
534.826	5416.85
535.192	5443.29
535.557	5482.16
535.923	5388.6
536.288	5461.37
536.653	5439
537.019	5504.53
537.384	5512.67
537.749	5551.08
538.114	5581.36
538.479	5551.76
538.845	5629.05
539.21	5595.6
539.575	5627.92
539.94	5592.21
540.305	5691.42
540.67	5681.7
541.034	5779.33
541.399	5760.79
541.764	5779.55
542.129	5817.29
542.494	5836.5
542.858	5878.76
543.223	5855.93
543.587	5935.25
543.952	5942.03
544.316	5985.65
544.681	5945.65
545.045	6019.32
545.41	5984.52
545.774	6053.44
546.138	6054.35
546.503	6067.68
546.867	6051.86
547.231	6175.25
547.595	6149.49
547.959	6178.86
548.324	6157.85
548.688	6246.43
549.052	6257.73
549.416	6224.96
549.779	6282.82
550.143	6271.29
550.507	6314
550.871	6336.15
551.235	6375.47
551.599	6383.6
551.962	6372.98
552.326	6459.31
552.689	6442.58
553.053	6406.88
553.417	6447.33
553.78	6552.64
554.143	6482.58
554.507	6509.93
554.87	6544.5
555.234	6602.35
555.597	6551.51
555.96	6599.42
556.323	6618.63
556.686	6644.39
557.05	6690.49
557.413	6635.8
557.776	6650.26
558.139	6721.45
558.502	6718.28
558.865	6755.8
559.228	6781.33
559.59	6867.43
559.953	6823.82
560.316	6858.62
560.679	6901.56
561.041	6915.34
561.404	6934.1
561.767	6949.01
562.129	6953.08
562.492	7010.03
562.854	6990.82
563.217	7024.72
563.579	7031.95
563.941	7053.87
564.304	7076.24
564.666	7139.74
565.028	7085.51
565.39	7176.58
565.753	7155.79
566.115	7196.69
566.477	7194.88
566.839	7243.24
567.201	7259.96
567.563	7309.91
567.925	7330.92
568.287	7327.08
568.648	7395.1
569.01	7469.68
569.372	7448.21
569.734	7417.93
570.095	7506.29
570.457	7592.84
570.819	7602.55
571.18	7592.61
571.542	7664.93
571.903	7646.85
572.265	7700.4
572.626	7779.72
572.987	7793.96
573.349	7856.78
573.71	7871.02
574.071	7965.71
574.432	7982.21
574.794	8068.08
575.155	8152.37
575.516	8149.88
575.877	8210.67
576.238	8280.95
576.599	8282.31
576.96	8384.68
577.32	8475.53
577.681	8532.25
578.042	8588.52
578.403	8699.25
578.763	8758.68
579.124	8902.18
579.485	8921.39
579.845	9174.26
580.206	9173.59
580.566	9294.04
580.927	9478.66
581.287	9602.28
581.648	9676.85
582.008	9777.64
582.368	9959.55
582.728	10032.09
583.089	10227.8
583.449	10359.77
583.809	10534
584.169	10826.42
584.529	10905.74
584.889	11192.74
585.249	11253.98
585.609	11460.31
585.969	11720.64
586.329	11843.57
586.688	12131.47
587.048	12407.63
587.408	12547.06
587.768	12736.43
588.127	12920.38
588.487	13243.08
588.846	13543.64
589.206	13634.49
589.565	13894.14
589.925	14172.33
590.284	14431.3
590.643	14655.25
591.003	14970.72
591.362	15310.83
591.721	15506.98
592.08	15798.05
592.44	16086.63
592.799	16311.48
593.158	16552.6
593.517	16980.16
593.876	17340.38
594.235	17406.14
594.593	17697.43
594.952	18105.56
595.311	18279.79
595.67	18701.47
596.029	18972.2
596.387	19272.08
596.746	19650.37
597.104	19830.26
597.463	20179.85
597.822	20461.65
598.18	20626.17
598.538	20909.1
598.897	21394.73
599.255	21509.76
599.613	21961.5
599.972	22180.7
600.33	22431.09
600.688	22656.4
601.046	23086.89
601.404	23337.06
601.762	23553.32
602.12	23977.27
602.478	24285.28
602.836	24585.38
603.194	24647.3
603.552	24892.5
603.91	25133.84
604.268	25436.66
604.625	25748.97
604.983	25962.3
605.341	26091.56
605.698	26433.92
606.056	26682.5
606.413	27019.44
606.771	27207.46
607.128	27449.49
607.485	27492.2
607.843	27803.83
608.2	28183.71
608.557	28550.25
608.914	28580.31
609.272	28986.85
609.629	29150.91
609.986	29387.97
610.343	29505.48
610.7	29771.01
611.057	29984.34
611.414	30177.33
611.771	30359.02
612.127	30595.4
612.484	30866.35
612.841	30954.03
613.198	31144.76
613.554	31359.67
613.911	31558.99
614.267	31823.61
614.624	31950.84
614.98	32185.18
615.337	32460.43
615.693	32391.06
616.05	32483.71
616.406	32788.11
616.762	32759.18
617.118	33029.91
617.475	33157.36
617.831	33392.84
618.187	33483.91
618.543	33691.13
618.899	34076.89
619.255	33968.41
619.611	34051.8
619.967	34351
620.323	34446.59
620.678	34378.35
621.034	34415.41
621.39	34749.86
621.746	34702.86
622.101	35146.46
622.457	35063.3
622.812	35206.8
623.168	35281.6
623.523	35349.4
623.879	35465.32
624.234	35353.92
624.589	35610.86
624.945	35660.12
625.3	35729.95
625.655	35846.56
626.01	36000.45
626.365	36109.15
626.72	36037.96
627.075	36142.59
627.43	36215.81
627.785	36056.95
628.14	36322.03
628.495	36368.35
628.85	36568.12
629.205	36284.96
629.559	36626.65
629.914	36562.24
630.269	36596.59
630.623	36547.1
630.978	36362.25
631.332	36797.04
631.687	36753.2
632.041	36675.01
632.396	36642.69
632.75	36689.47
633.104	36829.58
633.459	36723.14
633.813	36746.87
634.167	36807.89
634.521	36792.3
634.875	36944.16
635.229	36844.95
635.583	36703.48
635.937	36735.57
636.291	36725.4
636.645	36918.62
636.999	36714.33
637.352	36836.14
637.706	36878.39
638.06	37009.69
638.413	36854.44
638.767	36801.33
639.121	36987.09
639.474	36738.29
639.828	36739.19
640.181	36982.12
640.534	36824.16
640.888	36703.03
641.241	36748.23
641.594	36807.44
641.947	36853.08
642.301	36705.74
642.654	36882.24
643.007	36805.18
643.36	36692.41
643.713	36757.04
644.066	36812.63
644.419	36630.27
644.771	36486.54
645.124	36115.02
645.477	35970.85
645.83	35809.72
646.182	35829.61
646.535	35645.21
646.888	35854.69
647.24	35466
647.593	35775.82
647.945	35708.26
648.298	35571.31
648.65	35407.25
649.002	35367.7
649.355	35632.78
649.707	35671.65
650.059	35663.96
650.411	36072.77
650.763	36105.99
651.115	36518.4
651.467	36312.08
651.819	36376.04
652.171	36376.04
652.523	36373.32
652.875	36374.23
653.227	36266.43
653.578	36462.36
653.93	36311.4
654.282	36211.97
654.633	36192.54
654.985	36297.39
655.337	36134.91
655.688	36251.52
656.039	36238.41
656.391	36077.29
656.742	36178.98
657.094	36072.09
657.445	36298.52
657.796	36172.65
658.147	36180.33
658.498	36208.13
658.849	36140.11
659.2	36066.44
659.551	35900.57
659.902	36223.5
660.253	36178.98
660.604	36151.18
660.955	36078.64
661.306	36061.24
661.656	36014.69
662.007	35989.15
662.358	35972.2
662.708	36001.13
663.059	36023.5
663.409	35803.39
663.76	36187.11
664.11	36032.99
664.461	36126.55
664.811	36084.29
665.161	35992.32
665.511	35950.51
665.862	35929.95
666.212	36159.77
666.562	36059.43
666.912	35934.69
667.262	35913.67
667.612	35892.43
667.962	35949.15
668.312	35920
668.662	36044.74
669.011	35932.2
669.361	35887.23
669.711	35849.27
670.06	35764.75
670.41	35734.92
670.76	35770.63
671.109	35913.22
671.459	35907.8
671.808	35770.18
672.157	35822.6
672.507	35579.22
672.856	35735.83
673.205	35829.61
673.554	35866.67
673.904	35617.64
674.253	35878.65
674.602	35759.1
674.951	35189.17
675.3	35118.22
675.649	35829.38
675.998	35694.25
676.346	35591.65
676.695	35678.65
677.044	35695.37
677.393	35601.37
677.741	35728.82
678.09	35595.26
678.438	35451.54
678.787	35501.03
679.135	35481.6
679.484	35354.37
679.832	35434.14
680.181	35147.82
680.529	35345.33
680.877	35282.73
681.225	35129.29
681.573	35446.34
681.922	35154.37
682.27	35098.1
682.618	35088.61
682.966	34937.43
683.314	35064.88
683.661	34981.72
684.009	34789.64
684.357	34672.13
684.705	34492.24
685.053	34775.17
685.4	34506.93
685.748	34561.39
686.095	34377.9
686.443	34353.26
686.79	34189.43
687.138	34433.26
687.485	34283.66
687.832	34258.12
688.18	34370.44
688.527	34035.53
688.874	33996.21
689.221	34132.93
689.568	33946.49
689.915	33739.04
690.262	33949.43
690.609	33837.57
690.956	33754.18
691.303	33620.85
691.65	33450.24
691.997	33565.04
692.344	33322.78
692.69	33298.83
693.037	33370.46
693.383	33016.8
693.73	33272.16
694.077	33055.22
694.423	33131.6
694.769	32990.36
695.116	32894.77
695.462	32847.31
695.808	32651.16
696.155	32714.44
696.501	32515.8
696.847	32462.01
697.193	32320.32
697.539	32495.69
697.885	32097.96
698.231	32041.01
698.577	32064.74
698.923	32007.56
699.269	31838.53
699.614	31684.63
699.96	31589.72
700.306	31626.1
700.651	31536.39
700.997	31528.48
701.342	31401.93
701.688	31359.22
702.033	31270.41
702.379	31289.62
702.724	31114.48
703.069	31270.41
703.415	30829.51
703.76	30838.33
704.105	30865.22
704.45	30796.52
704.795	30624.55
705.14	30602.18
705.485	30582.29
705.83	30523.76
706.175	30495.96
706.52	30287.83
706.865	30314.5
707.209	30263.43
707.554	30092.81
707.899	30096.2
708.243	29961.06
708.588	29940.05
708.932	29754.97
709.277	29825.47
709.621	29722.42
709.966	29597.91
710.31	29644.91
710.654	29334.64
710.998	29468.87
711.342	29482.88
711.687	29406.27
712.031	29301.64
712.375	29123.12
712.719	29204.92
713.063	29075.21
713.407	29169.67
713.75	28879.51
714.094	29070.92
714.438	28894.42
714.782	28991.82
715.125	28787.53
715.469	28836.57
715.812	28777.82
716.156	28546.86
716.499	28653.53
716.843	28653.07
717.186	28446.75
717.53	28510.93
717.873	28609.01
718.216	28456.47
718.559	28260.09
718.902	28151.17
719.246	28288.56
719.589	28202.92
719.932	28073.65
720.275	27908.01
720.617	27950.27
720.96	27960.21
721.303	27784.4
721.646	27782.81
721.989	27764.51
722.331	27858.29
722.674	27702.59
723.016	27805.19
723.359	27718.18
723.701	27647.68
724.044	27514.12
724.386	27393.9
724.729	27478.19
725.071	27367.91
725.413	27437.51
725.755	27459.21
726.097	27247.46
726.439	27075.26
726.782	27085.43
727.124	27195.26
727.465	27014.02
727.807	27045.43
728.149	27039.11
728.491	26959.56
728.833	27067.81
729.175	26945.77
729.516	26774.25
729.858	26775.38
730.199	26840.92
730.541	26785.55
730.882	26630.08
731.224	26773.12
731.565	26657.19
731.906	26597.31
732.248	26562.73
732.589	26368.61
732.93	26402.96
733.271	26410.87
733.612	26418.78
733.953	26434.6
734.294	26340.82
734.635	26227.6
734.976	26409.74
735.317	26187.38
735.658	26190.09
735.999	26198.22
736.339	26126.81
736.68	26207.26
737.021	25940.38
737.361	25960.26
737.702	26061.96
738.042	25972.92
738.383	25867.84
738.723	25994.16
739.063	25902.41
739.404	25902.64
739.744	25747.61
740.084	25711.91
740.424	25715.3
740.764	25605.02
741.104	25788.52
741.444	25494.74
741.784	25519.6
742.124	25490.67
742.464	25443.22
742.804	25348.08
743.143	25217.23
743.483	25415.65
743.823	25213.62
744.162	25247.97
744.502	25207.97
744.841	25157.8
745.181	25310.11
745.52	25040.06
745.86	25014.53
746.199	25078.03
746.538	24986.73
746.877	25040.51
747.216	24984.24
747.556	24979.27
747.895	24972.49
748.234	24872.61
748.573	24799.39
748.911	24750.8
749.25	24830.35
749.589	24660.41
749.928	24623.35
750.267	24626.29
750.605	24568.21
750.944	24538.38
751.283	24435.56
751.621	24574.54
751.96	24424.71
752.298	24407.08
752.636	24239.86
752.975	24211.38
753.313	24095
753.651	24217.26
753.989	24198.05
754.327	24103.36
754.666	23967.32
755.004	24003.48
755.342	24000.32
755.679	23873.09
756.017	23731.17
756.355	23902.69
756.693	23708.8
757.031	23876.02
757.368	23572.08
757.706	23571.85
758.044	23538.63
758.381	23505.19
758.719	23383.16
759.056	23401.23
759.394	23391.52
759.731	23041.92
760.068	23147
760.405	22990.85
760.743	23007.8
761.08	22983.17
761.417	22897.07
761.754	22843.28
762.091	22854.36
762.428	22770.07
762.765	22553.8
763.102	22624.53
763.438	22534.59
763.775	22353.58
764.112	22418.89
764.449	22370.53
764.785	22134.15
765.122	22173.7
765.458	22116.52
765.795	22002.85
766.131	22026.58
766.467	21872.24
766.804	21739.58
767.14	21691
767.476	21768.06
767.812	21563.32
768.148	21587.27
768.485	21491
768.821	21340.05
769.157	21364.23
769.492	21326.71
769.828	21264.79
770.164	21016.89
770.5	21009.66
770.836	21037.46
771.171	20970.56
771.507	20842.66
771.842	20782.09
772.178	20721.31
772.513	20678.37
772.849	20697.58
773.184	20502.55
773.519	20448.32
773.855	20374.2
774.19	20404.48
774.525	20274.31
774.86	20228.21
775.195	20163.35
775.53	20037.03
775.865	20015.56
776.2	19936.47
776.535	19708.9
776.87	19688.11
777.205	19731.5
777.539	19518.17
777.874	19534.44
778.209	19425.75
778.543	19332.87
778.878	19336.94
779.212	19288.35
779.547	19112.76
779.881	19134
780.215	18937.62
780.55	19006.77
780.884	18918.19
781.218	18828.47
781.552	18839.55
781.886	18764.97
782.22	18667.8
782.554	18624.19
782.888	18499.22
783.222	18314.59
783.556	18285.44
783.889	18185.1
784.223	18172.67
784.557	18092.67
784.89	18174.71
785.224	18015.16
785.557	17948.95
785.891	17875.5
786.224	17820.82
786.558	17765.68
786.891	17691.55
787.224	17638.67
787.557	17536.98
787.891	17554.84
788.224	17511.45
788.557	17451.79
788.89	17391.9
789.223	17361.17
789.556	17214.05
789.888	17184.22
790.221	17163.21
790.554	16996.21
790.887	16977.22
791.219	16908.3
791.552	16892.93
791.884	16850.22
792.217	16764.57
792.549	16669.43
792.882	16504.24
793.214	16556.22
793.546	16605.03
793.879	16400.06
794.211	16369.1
794.543	16414.3
794.875	16361.42
795.207	16437.12
795.539	16143.35
795.871	16250.01
796.203	16109.9
796.535	16085.5
796.867	16027.87
797.198	15925.5
797.53	15889.57
797.862	15875.56
798.193	15814.54
798.525	15758.05
798.856	15807.54
799.188	15570.93
799.519	15495.45
799.85	15533.65
800.182	15455.46
800.513	15397.38
800.844	15276.93
801.175	15366.42
801.506	15308.79
801.837	15190.38
802.168	15160.77
802.499	15182.02
802.83	15059.99
803.161	15041.45
803.491	14990.16
803.822	15019.99
804.153	14942.47
804.483	14904.74
804.814	14823.61
805.145	14772.31
805.475	14726.43
805.805	14770.95
806.136	14697.96
806.466	14671.97
806.796	14629.94
807.126	14529.6
807.457	14526.21
807.787	14500.68
808.117	14450.51
808.447	14325.77
808.777	14407.57
809.107	14331.42
809.436	14310.4
809.766	14279.89
810.096	14143.85
810.426	14115.6
810.755	14138.88
811.085	14093.23
811.414	14019.33
811.744	13931.65
812.073	13960.81
812.403	13854.14
812.732	13865.44
813.061	13881.26
813.39	13709.51
813.719	13771.88
814.049	13782.5
814.378	13682.39
814.707	13623.19
815.036	13640.59
815.365	13577.76
815.693	13473.13
816.022	13452.12
816.351	13410.31
816.68	13363.98
817.008	13394.49
817.337	13281.73
817.665	13175.06
817.994	13323.76
818.322	13242.41
818.651	13258.68
818.979	13168.51
819.307	13211.22
819.636	13133.26
819.964	13032.92
820.292	13053.48
820.62	13064.33
820.948	13039.47
821.276	13088.96
821.604	13003.77
821.932	13087.38
822.259	13067.04
822.587	13050.55
822.915	12992.47
823.243	13072.47
823.57	12871.12
823.898	13001.28
824.225	12997.21
824.553	12969.19
824.88	13004.67
825.207	13013.94
825.535	12969.87
825.862	13024.11
826.189	12896.43
826.516	13012.36
826.843	12988.63
827.17	12994.73
827.497	12972.13
827.824	13017.1
828.151	13003.99
828.478	12947.5
828.805	12987.05
829.131	12933.26
829.458	12938.91
829.785	12962.41
830.111	12890.78
830.438	12963.09
830.764	12944.56
831.09	12974.62
831.417	12853.94
831.743	12894.39
832.069	12869.31
832.395	12836.54
832.722	12798.35
833.048	12862.3
833.374	12849.65
833.7	12795.41
834.026	12860.72
834.351	12875.64
834.677	12802.19
835.003	12756.54
835.329	12781.63
835.654	12786.6
835.98	12699.37
836.306	12745.02
836.631	12740.72
836.956	12650.56
837.282	12679.26
837.607	12612.14
837.932	12568.75
838.258	12669.99
838.583	12611.69
838.908	12564.91
839.233	12498.47
839.558	12507.74
839.883	12418.25
840.208	12357.23
840.533	12376.44
840.858	12357.23
841.182	12388.87
841.507	12455.76
841.832	12379.6
842.156	12297.57
842.481	12309.1
842.805	12260.51
843.13	12290.34
843.454	12239.49
843.778	12168.76
844.103	12111.59
844.427	12080.63
844.751	12152.94
845.075	12080.4
845.399	12095.54
845.723	11936.23
846.047	12018.26
846.371	11894.87
846.695	11857.58
847.019	11828.88
847.343	11747.08
847.666	11724.93
847.99	11605.39
848.313	11622.56
848.637	11601.55
848.96	11582.56
849.284	11484.26
849.607	11432.51
849.931	11414.88
850.254	11376.69
850.577	11264.15
850.9	11186.41
851.223	11221.44
851.546	11144.61
851.869	11046.31
852.192	11150.71
852.515	11043.59
852.838	11001.79
853.161	10953.88
853.483	10886.76
853.806	10851.96
854.129	10832.98
854.451	10714.56
854.774	10778.97
855.096	10674.56
855.419	10658.29
855.741	10617.39
856.063	10620.33
856.385	10631.85
856.708	10507.11
857.03	10475.47
857.352	10474.12
857.674	10393.89
857.996	10350.5
858.318	10323.39
858.64	10370.84
858.961	10359.77
859.283	10312.99
859.605	10319.77
859.926	10274.57
860.248	10251.52
860.57	10173.56
860.891	10247
861.212	10096.5
861.534	10042.49
861.855	10074.35
862.176	10085.2
862.498	10131.75
862.819	10085.65
863.14	10020.8
863.461	10021.93
863.782	9923.17
864.103	9929.27
864.424	9903.28
864.745	9972.21
865.065	9902.61
865.386	9902.61
865.707	9903.28
866.027	9890.86
866.348	9872.1
866.668	9851.31
866.989	9763.4
867.309	9734.25
867.63	9769.28
867.95	9726.57
868.27	9687.25
868.59	9696.28
868.91	9642.5
869.23	9741.48
869.55	9619.68
869.87	9678.66
870.19	9635.5
870.51	9586.91
870.83	9586.23
871.15	9579
871.469	9602.95
871.789	9588.04
872.109	9574.25
872.428	9514.82
872.748	9499.91
873.067	9493.8
873.386	9463.3
873.706	9493.8
874.025	9426.46
874.344	9472.56
874.663	9381.04
874.982	9343.98
875.301	9388.5
875.62	9421.26
875.939	9316.18
876.258	9328.84
876.577	9334.94
876.896	9259.69
877.214	9285.67
877.533	9259.01
877.852	9264.88
878.17	9212.23
878.489	9224.66
878.807	9263.3
879.125	9177.2
879.444	9145.79
879.762	9143.08
880.08	9116.41
880.398	9073.48
880.716	9180.82
881.034	9081.61
881.352	9122.51
881.67	9070.09
881.988	9043.87
882.306	8998.9
882.624	9036.87
882.941	8929.98
883.259	8939.69
883.577	8882.75
883.894	8877.32
884.212	8880.26
884.529	8856.98
884.846	8834.61
885.164	8899.24
885.481	8815.86
885.798	8778.57
886.115	8697.67
886.432	8774.05
886.75	8697.44
887.067	8771.34
887.383	8606.14
887.7	8700.83
888.017	8667.16
888.334	8582.42
888.651	8567.73
888.967	8518.69
889.284	8515.52
889.6	8529.54
889.917	8432.59
890.233	8537.9
890.55	8366.6
890.866	8458.58
891.182	8413.83
891.498	8404.57
891.815	8373.61
892.131	8339.94
892.447	8304.68
892.763	8244.12
893.079	8202.99
893.395	8225.81
893.71	8222.65
894.026	8168.64
894.342	8163.44
894.657	8163.44
894.973	8114.63
895.289	8074.86
895.604	8118.25
895.92	8074.41
896.235	7987.85
896.55	8041.41
896.865	7957.35
897.181	7913.51
897.496	7890.46
897.811	7904.47
898.126	7882.32
898.441	7791.7
898.756	7807.52
899.071	7759.84
899.386	7714.87
899.7	7704.25
900.015	7620.41
900.33	7611.59
900.644	7603.01
900.959	7595.55
901.273	7562.1
901.588	7515.55
901.902	7535.66
902.216	7488.43
902.531	7466.74
902.845	7421.09
903.159	7418.6
903.473	7366.4
903.787	7340.64
904.101	7287.99
904.415	7308.55
904.729	7287.76
905.042	7205.95
905.356	7198.5
905.67	7185.84
905.984	7191.49
906.297	7137.26
906.611	7067.88
906.924	7095
907.237	7127.54
907.551	7040.08
907.864	6994.89
908.177	6986.98
908.491	7000.08
908.804	6886.64
909.117	6884.61
909.43	6849.35
909.743	6813.87
910.056	6836.92
910.368	6772.97
910.681	6769.81
910.994	6691.62
911.307	6739.07
911.619	6629.7
911.932	6661.56
912.244	6619.08
912.557	6589.7
912.869	6546.99
913.181	6582.92
913.494	6547.89
913.806	6525.97
914.118	6503.83
914.43	6450.49
914.742	6445.97
915.054	6445.3
915.366	6349.71
915.678	6331.63
915.99	6361.01
916.302	6285.98
916.613	6297.05
916.925	6219.54
917.236	6226.09
917.548	6152.65
917.859	6198.3
918.171	6163.27
918.482	6138.86
918.794	6101.12
919.105	6083.05
919.416	6027.45
919.727	5982.26
920.038	5996.04
920.349	5947.46
920.66	5895.93
920.971	5964.41
921.282	5923.95
921.593	5820.23
921.903	5817.74
922.214	5827.91
922.525	5773.22
922.835	5791.98
923.146	5738.87
923.456	5729.61
923.767	5675.6
924.077	5684.41
924.387	5634.7
924.697	5577.52
925.008	5598.31
925.318	5526.22
925.628	5515.15
925.938	5520.35
926.248	5536.17
926.558	5500.24
926.867	5460.24
927.177	5443.74
927.487	5381.37
927.796	5355.61
928.106	5351.09
928.416	5322.39
928.725	5328.72
929.034	5292.56
929.344	5253.46
929.653	5276.06
929.962	5233.58
930.271	5200.81
930.581	5188.15
930.89	5155.61
931.199	5145.9
931.508	5120.59
931.817	5123.07
932.125	5091.21
932.434	5024.32
932.743	5026.35
933.051	5036.97
933.36	4988.61
933.669	4978.22
933.977	4949.06
934.286	4930.76
934.594	4931.44
934.902	4868.84
935.21	4855.06
935.519	4815.73
935.827	4855.96
936.135	4789.52
936.443	4747.49
936.751	4713.14
937.059	4710.88
937.367	4682.86
937.674	4699.58
937.982	4716.75
938.29	4688.73
938.597	4663.2
938.905	4605.35
939.213	4581.84
939.52	4526.7
939.827	4574.16
940.135	4567.38
940.442	4547.27
940.749	4531.9
941.056	4495.52
941.363	4422.98
941.67	4469.98
941.977	4385.92
942.284	4393.37
942.591	4375.07
942.898	4360.83
943.205	4385.24
943.511	4318.8
943.818	4378.01
944.125	4246.48
944.431	4265.92
944.738	4269.99
945.044	4206.71
945.35	4260.72
945.657	4184.79
945.963	4187.05
946.269	4154.28
946.575	4165.13
946.881	4160.61
947.187	4120.61
947.493	4135.98
947.799	4097.34
948.105	4078.35
948.41	4020.05
948.716	4027.06
949.022	4020.28
949.327	3982.08
949.633	3945.25
949.938	3981.63
950.244	3918.58
950.549	3896.66
950.854	3919.71
951.16	3881.3
951.465	3872.26
951.77	3827.51
952.075	3805.14
952.38	3804.24
952.685	3830
952.99	3763.56
953.294	3754.97
953.599	3797.46
953.904	3735.54
954.209	3742.32
954.513	3694.18
954.818	3679.49
955.122	3692.6
955.426	3710.23
955.731	3682.66
956.035	3640.85
956.339	3614.18
956.643	3623
956.948	3563.34
957.252	3566.5
957.556	3575.77
957.86	3560.17
958.163	3537.8
958.467	3501.65
958.771	3477.01
959.075	3508.2
959.378	3478.82
959.682	3466.39
959.985	3398.15
960.289	3388.2
960.592	3396.79
960.896	3372.84
961.199	3397.92
961.502	3347.52
961.805	3341.2
962.108	3330.12
962.411	3345.72
962.714	3323.8
963.017	3280.86
963.32	3296.9
963.623	3240.18
963.926	3243.8
964.228	3247.87
964.531	3196.57
964.833	3199.51
965.136	3181.65
965.438	3193.4
965.741	3204.93
966.043	3143.01
966.345	3152.95
966.648	3149.79
966.95	3103.69
967.252	3080.41
967.554	3079.96
967.856	3101.88
968.158	3021.21
968.46	3052.39
968.761	3023.92
969.063	3008.1
969.365	3000.64
969.666	2995.9
969.968	2992.73
970.269	2984.14
970.571	2947.99
970.872	2908.44
971.174	2949.12
971.475	2952.06
971.776	2943.69
972.077	2892.4
972.378	2893.3
972.679	2884.03
972.98	2860.98
973.281	2837.71
973.582	2822.79
973.883	2821.66
974.183	2787.31
974.484	2787.99
974.785	2782.57
975.085	2791.61
975.386	2774.21
975.686	2781.21
975.986	2733.98
976.287	2722.91
976.587	2728.33
976.887	2710.03
977.187	2717.94
977.487	2696.02
977.787	2690.59
978.087	2667.77
978.387	2640.2
978.687	2618.73
978.987	2608.11
979.286	2583.25
979.586	2611.05
979.885	2612.63
980.185	2578.96
980.484	2560.65
980.784	2564.95
981.083	2547.09
981.382	2549.58
981.682	2542.8
981.981	2528.34
982.28	2529.47
982.579	2479.98
982.878	2488.56
983.177	2494.21
983.475	2488.34
983.774	2423.71
984.073	2422.13
984.372	2437.72
984.67	2397.95
984.969	2439.3
985.267	2397.95
985.566	2397.04
985.864	2364.5
986.162	2373.99
986.461	2373.09
986.759	2343.03
987.057	2336.25
987.355	2319.08
987.653	2322.24
987.951	2282.47
988.249	2275.91
988.547	2294.67
988.844	2235.46
989.142	2232.53
989.44	2246.09
989.737	2237.05
990.035	2239.53
990.332	2225.52
990.63	2228.68
990.927	2212.64
991.224	2185.52
991.521	2204.5
991.819	2169.25
992.116	2129.93
992.413	2130.61
992.71	2134
993.006	2122.7
993.303	2137.84
993.6	2107.11
993.897	2145.07
994.193	2118.63
994.49	2070.72
994.787	2084.51
995.083	2084.28
995.379	2045.41
995.676	2063.49
995.972	2014.45
996.268	2023.94
996.565	1991.4
996.861	1974.68
997.157	1977.39
997.453	2002.7
997.749	1980.1
998.044	1961.12
998.34	1943.72
998.636	1972.65
998.932	1943.49
999.227	1913.89
999.523	1914.79
999.818	1890.39
1000.114	1869.82
1000.409	1881.12
1000.704	1879.77
1001	1889.71
1001.295	1856.94
1001.59	1881.8
1001.885	1867.79
1002.18	1830.5
1002.475	1815.59
1002.77	1811.97
1003.065	1788.47
1003.359	1806.77
1003.654	1790.96
1003.949	1775.14
1004.243	1776.49
1004.538	1773.78
1004.832	1761.8
1005.127	1748.7
1005.421	1735.36
1005.715	1710.51
1006.009	1695.14
1006.304	1715.7
1006.598	1703.05
1006.892	1711.18
1007.186	1663.28
1007.48	1675.25
1007.773	1650.17
1008.067	1646.55
1008.361	1654.24
1008.655	1609.49
1008.948	1594.58
1009.242	1611.3
1009.535	1601.58
1009.829	1574.24
1010.122	1564.3
1010.415	1574.24
1010.708	1560
1011.001	1571.3
1011.295	1567.46
1011.588	1518.19
1011.881	1520.23
1012.173	1525.88
1012.466	1528.14
1012.759	1496.5
1013.052	1515.48
1013.344	1510.51
1013.637	1473.22
1013.93	1455.37
1014.222	1451.53
1014.514	1449.27
1014.807	1445.88
1015.099	1423.51
1015.391	1442.04
1015.683	1410.4
1015.976	1405.66
1016.268	1413.56
1016.56	1398.2
1016.851	1390.29
1017.143	1421.93
1017.435	1383.51
1017.727	1368.82
1018.018	1336.5
1018.31	1327.69
1018.602	1345.32
1018.893	1345.77
1019.185	1302.16
1019.476	1290.63
1019.767	1287.01
1020.058	1312.1
1020.35	1294.7
1020.641	1262.38
1020.932	1253.12
1021.223	1268.48
1021.514	1265.77
1021.804	1274.36
1022.095	1260.57
1022.386	1235.72
1022.677	1196.17
1022.967	1220.12
1023.258	1209.73
1023.548	1183.74
1023.839	1185.55
1024.129	1196.85
1024.419	1175.83
1024.709	1144.42
1025	1168.15
1025.29	1167.02
1025.58	1136.28
1025.87	1149.16
1026.16	1151.88
1026.449	1138.77
1026.739	1156.85
1027.029	1135.83
1027.319	1129.05
1027.608	1132.89
1027.898	1102.84
1028.187	1091.77
1028.477	1081.14
1028.766	1079.34
1029.055	1093.12
1029.344	1062.61
1029.634	1066.68
1029.923	1053.12
1030.212	1044.99
1030.501	1047.7
1030.79	1036.85
1031.078	1019.9
1031.367	1040.92
1031.656	1010.64
1031.945	1025.78
1032.233	999.11
1032.522	993.01
1032.81	990.75
1033.099	993.24
1033.387	965.89
1033.675	968.15
1033.963	961.15
1034.251	962.95
1034.54	957.76
1034.828	934.26
1035.116	947.14
1035.403	951.2
1035.691	929.51
1035.979	917.76
1036.267	951.43
1036.554	951.2
1036.842	932.67
1037.129	869.4
1037.417	879.57
1037.704	909.62
1037.992	886.12
1038.279	899.23
1038.566	878.21
1038.853	878.21
1039.14	878.21
