Data from hue_38_FLMS001491_00100.txt Node
Date: Tue Feb 07 17:32:15 GMT 2017
User: dcchb
Spectrometer: FLMS00149
Trigger mode: 0
Integration Time (sec): 2.000000E-2
Scans to average: 10
Electric dark correction enabled: true
Nonlinearity correction enabled: false
Boxcar width: 0
XAxis mode: Wavelengths
Number of Pixels in Spectrum: 2048
>>>>>Begin Spectral Data<<<<<
341.393	-3.87
341.776	-3.87
342.16	-3.87
342.543	-68.5
342.927	-75.96
343.31	-74.38
343.693	-67.37
344.077	-56.75
344.46	-66.24
344.843	-57.43
345.226	-44.09
345.61	-28.5
345.993	-21.95
346.376	13.76
346.759	21.89
347.142	9.69
347.525	51.5
347.908	57.6
348.291	59.41
348.674	78.61
349.057	124.26
349.44	130.82
349.823	155.45
350.206	159.74
350.588	180.08
350.971	208.78
351.354	232.06
351.737	237.71
352.119	263.24
352.502	259.17
352.884	274.31
353.267	285.16
353.65	300.08
354.032	319.29
354.414	303.01
354.797	303.69
355.179	322.45
355.562	342.56
355.944	313.86
356.326	349.34
356.709	337.14
357.091	362.45
357.473	354.99
357.855	356.12
358.238	330.81
358.62	329.68
359.002	329
359.384	346.63
359.766	357.93
360.148	334.65
360.53	330.13
360.912	338.04
361.294	340.75
361.676	335.56
362.057	327.42
362.439	334.65
362.821	331.94
363.203	350.7
363.584	346.18
363.966	347.76
364.348	328.32
364.729	329.68
365.111	355.67
365.493	326.97
365.874	335.1
366.256	286.52
366.637	318.16
367.019	319.51
367.4	321.32
367.781	348.44
368.163	326.97
368.544	321.09
368.925	318.38
369.306	317.25
369.688	307.08
370.069	322.22
370.45	312.05
370.831	314.77
371.212	303.69
371.593	305.27
371.974	299.85
372.355	304.6
372.736	330.58
373.117	327.87
373.498	317.03
373.879	307.76
374.26	298.27
374.641	317.7
375.021	340.53
375.402	332.84
375.783	335.33
376.163	348.89
376.544	356.35
376.925	329.23
377.305	344.6
377.686	347.76
378.066	320.87
378.447	342.79
378.827	325.16
379.208	347.08
379.588	329.45
379.968	343.92
380.349	341.21
380.729	340.75
381.109	359.74
381.489	354.31
381.87	352.28
382.25	369.45
382.63	355.89
383.01	349.57
383.39	354.99
383.77	353.18
384.15	357.93
384.53	366.29
384.91	372.39
385.29	346.4
385.67	361.32
386.049	354.76
386.429	359.06
386.809	347.99
387.189	343.01
387.568	358.38
387.948	356.35
388.328	353.63
388.707	332.17
389.087	355.22
389.466	379.17
389.846	354.31
390.225	364.93
390.605	370.81
390.984	362.67
391.363	374.65
391.743	401.77
392.122	372.39
392.501	363.58
392.881	390.47
393.26	392.5
393.639	374.88
394.018	373.75
394.397	389.11
394.776	361.54
395.155	398.38
395.534	380.98
395.913	379.85
396.292	394.31
396.671	390.7
397.05	405.38
397.429	391.15
397.808	422.79
398.186	392.28
398.565	421.88
398.944	418.27
399.323	401.09
399.701	422.33
400.08	408.77
400.458	434.99
400.837	405.16
401.215	409.9
401.594	408.77
401.972	403.58
402.351	419.4
402.729	421.88
403.107	429.56
403.486	430.02
403.864	427.98
404.242	446.29
404.62	434.31
404.999	433.63
405.377	420.98
405.755	421.66
406.133	423.01
406.511	436.12
406.889	445.16
407.267	461.88
407.645	459.39
408.023	429.79
408.401	454.65
408.779	451.94
409.156	456
409.534	453.97
409.912	474.08
410.29	475.21
410.667	497.13
411.045	473.18
411.422	457.59
411.8	451.71
412.178	489.22
412.555	487.19
412.933	476.57
413.31	471.15
413.687	496.68
414.065	493.97
414.442	483.35
414.819	498.26
415.197	507.53
415.574	519.28
415.951	518.15
416.328	503.91
416.705	525.61
417.082	534.42
417.46	536.91
417.837	506.85
418.214	561.76
418.591	531.26
418.967	573.74
419.344	521.99
419.721	535.55
420.098	504.59
420.475	551.14
420.852	561.09
421.228	555.44
421.605	564.93
421.982	562.22
422.358	559.28
422.735	571.26
423.111	591.82
423.488	574.87
423.864	583.69
424.241	611.48
424.617	588.88
424.994	595.21
425.37	604.7
425.746	610.58
426.123	628.43
426.499	603.57
426.875	601.31
427.251	603.8
427.627	605.61
428.003	636.11
428.379	648.99
428.756	657.36
429.132	661.88
429.507	649.22
429.883	669.11
430.259	677.69
430.635	646.51
431.011	657.13
431.387	682.21
431.763	705.26
432.138	716.11
432.514	693.51
432.89	671.59
433.265	691.7
433.641	693.29
434.016	715.43
434.392	719.73
434.767	726.05
435.143	733.29
435.518	732.38
435.894	758.6
436.269	752.04
436.644	751.14
437.02	766.73
437.395	761.08
437.77	767.18
438.145	772.83
438.52	803.11
438.895	800.85
439.271	802.89
439.646	808.54
440.021	818.48
440.395	806.5
440.77	836.11
441.145	833.17
441.52	852.38
441.895	816.9
442.27	822.55
442.645	838.82
443.019	860.29
443.394	841.76
443.769	866.84
444.143	856.45
444.518	871.59
444.892	837.24
445.267	881.76
445.641	897.12
446.016	895.99
446.39	920.85
446.764	903
447.139	915.43
447.513	899.16
447.887	895.77
448.262	918.82
448.636	930.12
449.01	917.91
449.384	933.05
449.758	936.22
450.132	952.04
450.506	955.2
450.88	969.44
451.254	960.85
451.628	949.33
452.002	976.67
452.376	966.95
452.75	1015.99
453.123	1019.83
453.497	1018.7
453.871	1037.01
454.244	1034.97
454.618	1034.29
454.992	1050.34
455.365	1086.5
455.739	1088.76
456.112	1097.8
456.486	1092.15
456.859	1098.93
457.232	1120.39
457.606	1106.16
457.979	1135.08
458.352	1169.88
458.725	1151.58
459.099	1189.32
459.472	1204.23
459.845	1231.58
460.218	1199.04
460.591	1250.79
460.964	1251.69
461.337	1286.94
461.71	1288.3
462.083	1303.67
462.456	1309.09
462.829	1322.2
463.201	1349.77
463.574	1310.22
463.947	1378.24
464.32	1389.31
464.692	1408.52
465.065	1377.34
465.438	1410.1
465.81	1433.15
466.183	1467.05
466.555	1484
466.928	1502.98
467.3	1503.21
467.672	1540.27
468.045	1595.41
468.417	1594.73
468.789	1635.63
469.161	1610.1
469.534	1653.04
469.906	1667.27
470.278	1729.19
470.65	1722.86
471.022	1769.87
471.394	1800.15
471.766	1802.18
472.138	1828.62
472.51	1865.01
472.882	1888.06
473.253	1932.58
473.625	2012.12
473.997	2006.02
474.369	2057.09
474.74	2084.66
475.112	2143.42
475.484	2165.34
475.855	2230.65
476.227	2262.29
476.598	2340.02
476.97	2372.79
477.341	2402.39
477.713	2472.22
478.084	2513.35
478.455	2583.18
478.827	2633.8
479.198	2713.57
479.569	2714.48
479.94	2838.09
480.311	2885.32
480.682	2956.5
481.053	3061.59
481.424	3137.97
481.795	3177.52
482.166	3274.46
482.537	3295.93
482.908	3393.55
483.279	3483.27
483.65	3575.7
484.021	3657.73
484.391	3777.05
484.762	3773.66
485.133	3870.83
485.503	3935.24
485.874	4081.9
486.244	4140.88
486.615	4328.45
486.985	4350.82
487.356	4490.25
487.726	4541.1
488.097	4640.75
488.467	4733.41
488.837	4878.71
489.207	4998.48
489.578	5059.27
489.948	5176.33
490.318	5259.04
490.688	5346.5
491.058	5510.34
491.428	5556.44
491.798	5692.93
492.168	5856.31
492.538	5923.88
492.908	6017.89
493.278	6072.81
493.648	6200.94
494.017	6306.25
494.387	6458.78
494.757	6491.55
495.126	6612.68
495.496	6675.95
495.866	6790.98
496.235	6867.81
496.605	6995.49
496.974	7032.56
497.344	7109.62
497.713	7302.38
498.082	7295.37
498.452	7460.79
498.821	7573.33
499.19	7528.81
499.559	7687.91
499.928	7810.16
500.298	7907.33
500.667	7949.59
501.036	8032.75
501.405	8128.57
501.774	8223.48
502.143	8264.61
502.512	8347.77
502.88	8428.68
503.249	8477.04
503.618	8624.15
503.987	8640.87
504.356	8783.24
504.724	8768.55
505.093	8936.91
505.462	8969.23
505.83	8998.61
506.199	9105.04
506.567	9253.51
506.936	9239.73
507.304	9368.54
507.672	9372.61
508.041	9507.07
508.409	9573.73
508.777	9659.38
509.145	9768.98
509.514	9825.48
509.882	9849.66
510.25	9927.39
510.618	9984.34
510.986	10025.47
511.354	10171.46
511.722	10273.37
512.09	10330.32
512.458	10340.72
512.826	10402.18
513.193	10531.67
513.561	10563.54
513.929	10628.39
514.297	10732.34
514.664	10773.02
515.032	10868.61
515.4	10989.51
515.767	10980.25
516.135	11010.53
516.502	11067.25
516.869	11218.89
517.237	11281.26
517.604	11187.47
517.972	11391.31
518.339	11445.77
518.706	11519.89
519.073	11576.62
519.44	11595.6
519.808	11696.61
520.175	11662.26
520.542	11851.19
520.909	11911.52
521.276	11916.27
521.643	12092.31
522.009	12102.93
522.376	12252.76
522.743	12255.24
523.11	12397.61
523.477	12477.38
523.843	12641.22
524.21	12705.17
524.577	12786.08
524.943	12899.07
525.31	12850.26
525.676	13025.62
526.043	13033.08
526.409	13144.48
526.776	13235.1
527.142	13352.39
527.508	13339.51
527.874	13398.04
528.241	13565.94
528.607	13622.89
528.973	13744.47
529.339	13739.72
529.705	13908.98
530.071	14030.11
530.437	14105.14
530.803	14113.27
531.169	14174.51
531.535	14220.16
531.901	14283.44
532.267	14278.24
532.632	14389.65
532.998	14449.08
533.364	14572.24
533.73	14626.93
534.095	14738.34
534.461	14800.49
534.826	14851.78
535.192	14831.45
535.557	15023.98
535.923	15045.23
536.288	15082.29
536.653	15179.23
537.019	15131.55
537.384	15193.92
537.749	15273.24
538.114	15390.75
538.479	15352.11
538.845	15477.53
539.21	15411.77
539.575	15485.44
539.94	15596.62
540.305	15693.34
540.67	15717.98
541.034	15763.4
541.399	15831.65
541.764	15944.41
542.129	16012.66
542.494	16038.87
542.858	16137.17
543.223	16072.32
543.587	16275.93
543.952	16219.21
544.316	16291.97
544.681	16288.58
545.045	16371.52
545.41	16555.92
545.774	16536.03
546.138	16634.34
546.503	16710.49
546.867	16681.57
547.231	16809.7
547.595	16870.04
547.959	16843.14
548.324	16942.35
548.688	16958.85
549.052	17025.06
549.416	17112.29
549.779	17129.92
550.143	17212.4
550.507	17245.39
550.871	17390.93
551.235	17456.24
551.599	17473.18
551.962	17560.41
552.326	17633.86
552.689	17606.74
553.053	17542.11
553.417	17703.01
553.78	17986.17
554.143	17919.73
554.507	17982.78
554.87	17964.25
555.234	18127.86
555.597	18065.94
555.96	18175.99
556.323	18164.69
556.686	18248.31
557.05	18419.6
557.413	18438.81
557.776	18514.97
558.139	18635.19
558.502	18691.68
558.865	18625.24
559.228	18718.8
559.59	18804.9
559.953	18866.82
560.316	19043.09
560.679	19028.85
561.041	19150.43
561.404	19239.24
561.767	19304.1
562.129	19325.34
562.492	19430.42
562.854	19455.05
563.217	19510.19
563.579	19573.24
563.941	19670.19
564.304	19713.13
564.666	19852.33
565.028	19884.65
565.39	19909.73
565.753	20081.7
566.115	20177.07
566.477	20165.54
566.839	20221.81
567.201	20468.13
567.563	20450.28
567.925	20570.96
568.287	20595.81
568.648	20635.14
569.01	20788.35
569.372	20877.16
569.734	20882.13
570.095	21060.66
570.457	21093.65
570.819	21121.68
571.18	21196.7
571.542	21247.77
571.903	21316.93
572.265	21471.5
572.626	21491.61
572.987	21589.23
573.349	21624.26
573.71	21775.9
574.071	21922.11
574.432	21927.08
574.794	22220.4
575.155	22165.26
575.516	22207.75
575.877	22399.16
576.238	22435.77
576.599	22644.8
576.96	22750.56
577.32	22835.76
577.681	23020.16
578.042	23091.12
578.403	23233.26
578.763	23324.56
579.124	23562.74
579.485	23626.92
579.845	23875.05
580.206	23929.29
580.566	23967.03
580.927	24158.66
581.287	24474.81
581.648	24534.92
582.008	24763.84
582.368	24778.08
582.728	25043.16
583.089	25085.41
583.449	25230.04
583.809	25403.82
584.169	25586.42
584.529	25633.65
584.889	26163.13
585.249	26111.83
585.609	26257.59
585.969	26574.41
586.329	26589.78
586.688	26956.78
587.048	27106.38
587.408	27206.04
587.768	27554.05
588.127	27619.13
588.487	27786.13
588.846	28195.61
589.206	28331.43
589.565	28384.99
589.925	28888.7
590.284	28881.47
590.643	29153.33
591.003	29458.86
591.362	29721.22
591.721	29882.58
592.08	29999.41
592.44	30331.38
592.799	30461.54
593.158	30553.07
593.517	30749.67
593.876	30999.38
594.235	31146.5
594.593	31372.71
594.952	31616.32
595.311	31808.63
595.67	32155.28
596.029	32369.52
596.387	32548.49
596.746	32821.48
597.104	32829.84
597.463	32959.11
597.822	33258.08
598.18	33376.27
598.538	33554.8
598.897	33891.74
599.255	33802.02
599.613	34589.12
599.972	34349.8
600.33	34578.95
600.688	34667.53
601.046	34940.07
601.404	35091.7
601.762	35202.21
602.12	35543.9
602.478	35673.84
602.836	35858.92
603.194	35794.28
603.552	35951.79
603.91	35912.93
604.268	36544.55
604.625	36491.22
604.983	36608.5
605.341	36683.53
605.698	37012.33
606.056	37341.81
606.413	37288.03
606.771	37554.69
607.128	37661.81
607.485	37614.58
607.843	37833.33
608.2	37992.19
608.557	38204.84
608.914	38155.8
609.272	38558.28
609.629	38638.05
609.986	38778.61
610.343	38770.03
610.7	38997.82
611.057	39072.39
611.414	39076.01
611.771	39275.1
612.127	39440.29
612.484	39516.45
612.841	39682.09
613.198	39727.97
613.554	39900.84
613.911	40150.1
614.267	40172.7
614.624	40297.22
614.98	40386.71
615.337	40554.16
615.693	40649.98
616.05	40667.83
616.406	40854.94
616.762	40838.45
617.118	40961.83
617.475	41117.76
617.831	41246.34
618.187	41178.32
618.543	41296.51
618.899	41572.21
619.255	41491.76
619.611	41625.77
619.967	41724.52
620.323	41769.49
620.678	41818.76
621.034	41712.1
621.39	41932.65
621.746	42033.89
622.101	42291.74
622.457	42048.58
622.812	42082.71
623.168	42306.66
623.523	42262.59
623.879	42463.94
624.234	42330.84
624.589	42494.22
624.945	42529.7
625.3	42667.55
625.655	42662.13
626.01	42785.29
626.365	42788.68
626.72	42698.06
627.075	42766.98
627.43	42781.9
627.785	42730.15
628.14	42795.46
628.495	42795.23
628.85	42893.53
629.205	42717.49
629.559	43123.81
629.914	42788.23
630.269	42926.98
630.623	42896.92
630.978	42782.12
631.332	43138.95
631.687	43032.29
632.041	42909.8
632.396	42920.2
632.75	42976.69
633.104	43063.25
633.459	42854.21
633.813	42866.42
634.167	42870.71
634.521	42802.24
634.875	42906.19
635.229	42920.43
635.583	42802.01
635.937	42683.14
636.291	42790.49
636.645	42900.76
636.999	42605.18
637.352	42723.37
637.706	42651.96
638.06	42955.45
638.413	42680.88
638.767	42551.4
639.121	42710.26
639.474	42384.62
639.828	42526.54
640.181	42576.48
640.534	42676.82
640.888	42555.46
641.241	42165.19
641.594	42425.07
641.947	42504.62
642.301	42460.32
642.654	42496.48
643.007	42419.2
643.36	42367.45
643.713	42356.6
644.066	42422.13
644.419	42318.18
644.771	41960.68
645.124	41608.14
645.477	41618.99
645.83	41433.01
646.182	41288.38
646.535	41130.87
646.888	41170.64
647.24	41043.64
647.593	41339.45
647.945	41122.96
648.298	40855.62
648.65	40939.01
649.002	40910.99
649.355	41028.05
649.707	40937.43
650.059	41103.07
650.411	41611.53
650.763	41640.91
651.115	41965.2
651.467	41924.07
651.819	41810.17
652.171	41791.42
652.523	41676.16
652.875	41876.38
653.227	41527.02
653.578	41844.52
653.93	41950.28
654.282	41654.02
654.633	41547.58
654.985	41509.16
655.337	41612.21
655.688	41533.57
656.039	41658.99
656.391	41383.74
656.742	41480.91
657.094	41549.39
657.445	41746.44
657.796	41590.29
658.147	41442.05
658.498	41472.55
658.849	41455.38
659.2	41421.93
659.551	41331.09
659.902	41480.69
660.253	41502.84
660.604	41589.61
660.955	41213.35
661.306	41489.28
661.656	41371.77
662.007	41497.19
662.358	41445.66
662.708	41399.56
663.059	41320.24
663.409	41222.84
663.76	41398.88
664.11	41397.08
664.461	41424.19
664.811	41352.33
665.161	41470.75
665.511	41258.55
665.862	41159.79
666.212	41317.3
666.562	41283.63
666.912	41248.83
667.262	41161.83
667.612	41221.03
667.962	41195.27
668.312	41146.91
668.662	41324.31
669.011	41269.4
669.361	41246.34
669.711	41222.84
670.06	41189.62
670.41	41143.52
670.76	41054.49
671.109	41181.26
671.459	41172
671.808	41060.59
672.157	41223.07
672.507	40841.84
672.856	40994.15
673.205	40965.45
673.554	41234.59
673.904	41090.64
674.253	41233.46
674.602	41061.94
674.951	40540.83
675.3	40332.24
675.649	41053.13
675.998	40990.98
676.346	40913.02
676.695	41111.21
677.044	40625.8
677.393	40856.52
677.741	40806.36
678.09	40740.82
678.438	40597.55
678.787	40783.76
679.135	40780.82
679.484	40493.6
679.832	40641.84
680.181	40360.72
680.529	40498.34
680.877	40506.48
681.225	40228.07
681.573	40557.32
681.922	40224.45
682.27	40261.96
682.618	40239.59
682.966	40051.35
683.314	40201.63
683.661	40053.61
684.009	39932.93
684.357	39817.46
684.705	39813.16
685.053	39931.13
685.4	39784.46
685.748	39587.41
686.095	39514.41
686.443	39424.47
686.79	39364.59
687.138	39340.41
687.485	39390.57
687.832	39251.14
688.18	39310.8
688.527	39059.51
688.874	39092.5
689.221	39001.21
689.568	38914.2
689.915	38680.08
690.262	38951.26
690.609	38677.37
690.956	38538.39
691.303	38634.21
691.65	38517.38
691.997	38439.64
692.344	38118.29
692.69	38158.06
693.037	38223.6
693.383	37838.75
693.73	38048.69
694.077	37775.02
694.423	37804.63
694.769	37767.11
695.116	37671.3
695.462	37448.93
695.808	37582.94
696.155	37476.73
696.501	37158.32
696.847	37278.09
697.193	36914.48
697.539	37117.41
697.885	36934.82
698.231	36754.26
698.577	36722.85
698.923	36685.79
699.269	36467.71
699.614	36388.85
699.96	36285.35
700.306	36225.91
700.651	36296.87
700.997	36105.01
701.342	36033.83
701.688	35938.69
702.033	35822.08
702.379	35820.5
702.724	35594.29
703.069	35818.69
703.415	35371.02
703.76	35403.11
704.105	35367.63
704.45	35318.59
704.795	35110.01
705.14	35034.3
705.485	34977.81
705.83	34823.69
706.175	34966.28
706.52	34829.34
706.865	34781.88
707.209	34747.98
707.554	34537.82
707.899	34529.69
708.243	34474.77
708.588	34330.82
708.932	34066.87
709.277	34147.55
709.621	34188.9
709.966	33839.53
710.31	34116.59
710.654	33798.63
710.998	33917.05
711.342	33847.22
711.687	33687.67
712.031	33608.13
712.375	33488.58
712.719	33534.68
713.063	33565.19
713.407	33611.97
713.75	33338.53
714.094	33338.98
714.438	33068.25
714.782	33189.16
715.125	32970.4
715.469	33060.8
715.812	32805.66
716.156	32788.26
716.499	32758.88
716.843	32740.35
717.186	32620.13
717.53	32570.41
717.873	32751.88
718.216	32457.2
718.559	32453.13
718.902	32229.63
719.246	32321.61
719.589	32105.12
719.932	32036.42
720.275	32187.37
720.617	32123.42
720.96	31945.35
721.303	32036.19
721.646	32045.46
721.989	31794.39
722.331	31937.44
722.674	31772.02
723.016	31897.21
723.359	31863.31
723.701	31926.36
724.044	31568.41
724.386	31420.84
724.729	31641.63
725.071	31460.39
725.413	31466.94
725.755	31494.06
726.097	31320.05
726.439	31109.89
726.782	31112.83
727.124	31296.78
727.465	31126.61
727.807	31149.44
728.149	31034.41
728.491	30920.06
728.833	31054.3
729.175	30827.41
729.516	30780.18
729.858	30874.87
730.199	30708.32
730.541	30596
730.882	30759.84
731.224	30741.99
731.565	30493.86
731.906	30450.7
732.248	30544.71
732.589	30349
732.93	30312.85
733.271	30374.54
733.612	30245.73
733.953	30390.13
734.294	30224.94
734.635	30094.32
734.976	30147.43
735.317	29980.2
735.658	30023.36
735.999	30029.46
736.339	29933.87
736.68	29916.02
737.021	29865.18
737.361	29786.31
737.702	29854.33
738.042	29757.61
738.383	29699.76
738.723	29753.09
739.063	29468.58
739.404	29667.44
739.744	29532.53
740.084	29445.3
740.424	29431.06
740.764	29441.23
741.104	29532.08
741.444	29406.2
741.784	29279.65
742.124	29210.05
742.464	29232.2
742.804	29165.98
743.143	29240.78
743.483	29308.58
743.823	29020.9
744.162	28962.15
744.502	28958.53
744.841	28922.38
745.181	28969.38
745.52	28769.84
745.86	28967.57
746.199	28853.45
746.538	28874.47
746.877	28808.48
747.216	28795.6
747.556	28761.02
747.895	28610.29
748.234	28582.27
748.573	28599.45
748.911	28420.02
749.25	28557.19
749.589	28418.89
749.928	28464.76
750.267	28338.44
750.605	28282.62
750.944	28260.47
751.283	28081.95
751.621	28243.07
751.96	28052.79
752.298	28151.1
752.636	28000.59
752.975	28019.35
753.313	27850.99
753.651	28018.9
753.989	27722.86
754.327	27709.53
754.666	27708.62
755.004	27582.07
755.342	27732.8
755.679	27691
756.017	27396.99
756.355	27557.21
756.693	27381.17
757.031	27461.17
757.368	27265.24
757.706	27186.6
758.044	27090.56
758.381	27109.77
758.719	27065.25
759.056	27045.36
759.394	26963.1
759.731	26720.63
760.068	26686.95
760.405	26677.24
760.743	26567.41
761.08	26666.16
761.417	26444.47
761.754	26378.94
762.091	26387.75
762.428	26241.77
762.765	26132.39
763.102	26161.09
763.438	26001.77
763.775	25897.82
764.112	25991.38
764.449	25927.43
764.785	25786.86
765.122	25571.5
765.458	25534.67
765.795	25368.8
766.131	25397.04
766.467	25352.07
766.804	25234.34
767.14	25169.25
767.476	25066.88
767.812	25063.49
768.148	25064.17
768.485	24846.32
768.821	24739.21
769.157	24684.52
769.492	24705.76
769.828	24521.13
770.164	24448.82
770.5	24378.31
770.836	24380.8
771.171	24224.87
771.507	24187.13
771.842	23968.38
772.178	24002.28
772.513	23890.42
772.849	23923.86
773.184	23753.92
773.519	23798.67
773.855	23567.71
774.19	23564.32
774.525	23572.69
774.86	23522.97
775.195	23396.42
775.53	23230.32
775.865	23058.35
776.2	23033.26
776.535	22909.2
776.87	22841.86
777.205	22762.99
777.539	22688.41
777.874	22631.02
778.209	22504.92
778.543	22379.72
778.878	22402.09
779.212	22295.2
779.547	22147.86
779.881	22209.33
780.215	22014.99
780.55	22058.37
780.884	21861.09
781.218	21893.18
781.552	21878.49
781.886	21787.87
782.22	21617.48
782.554	21594.21
782.888	21467.2
783.222	21271.28
783.556	21188.79
783.889	21179.75
784.223	21081
784.557	20856.82
784.89	20998.06
785.224	20736.83
785.557	20769.6
785.891	20742.93
786.224	20632.88
786.558	20620.45
786.891	20360.11
787.224	20329.61
787.557	20276.95
787.891	20351.08
788.224	20222.04
788.557	20250.96
788.89	20133.23
789.223	20098.88
789.556	19917.64
789.888	19942.95
790.221	19876.29
790.554	19775.72
790.887	19674.93
791.219	19709.74
791.552	19533.92
791.884	19500.25
792.217	19447.14
792.549	19427.48
792.882	19160.15
793.214	19088.96
793.546	19212.12
793.879	18988.4
794.211	19019.58
794.543	18921.96
794.875	18897.1
795.207	19054.39
795.539	18804.45
795.871	18818.69
796.203	18678.35
796.535	18472.03
796.867	18571.46
797.198	18418.02
797.53	18438.13
797.862	18383.22
798.193	18391.35
798.525	18297.57
798.856	18343.9
799.188	18104.58
799.519	18078.59
799.85	17934.64
800.182	17903
800.513	17920.63
800.844	17736.68
801.175	17869.78
801.506	17860.97
801.837	17706.62
802.168	17727.87
802.499	17625.27
802.83	17482
803.161	17477.7
803.491	17454.43
803.822	17507.99
804.153	17231.61
804.483	17191.38
804.814	17130.82
805.145	17121.56
805.475	17111.84
805.805	17042.24
806.136	17056.25
806.466	17002.69
806.796	16901
807.126	16833.65
807.457	16836.14
807.787	16729.7
808.117	16752.07
808.447	16521.35
808.777	16717.27
809.107	16611.29
809.436	16557.28
809.766	16527.67
810.096	16419.43
810.426	16323.38
810.755	16334.01
811.085	16402.48
811.414	16270.05
811.744	16134.69
812.073	16232.09
812.403	16198.19
812.732	16097.18
813.061	16054.69
813.39	15943.73
813.719	15907.58
814.049	16068.48
814.378	15916.16
814.707	15788.26
815.036	15870.74
815.365	15759.33
815.693	15626
816.022	15536.96
816.351	15561.82
816.68	15553.69
817.008	15494.03
817.337	15426.23
817.665	15384.65
817.994	15382.39
818.322	15371.09
818.651	15322.96
818.979	15249.29
819.307	15331.55
819.636	15309.4
819.964	15162.06
820.292	15182.17
820.62	15223.53
820.948	15110.76
821.276	15157.77
821.604	15103.76
821.932	15237.99
822.259	15153.7
822.587	15052.68
822.915	15152.12
823.243	15057.88
823.57	15042.74
823.898	15035.96
824.225	15018.33
824.553	15031.89
824.88	15034.6
825.207	15051.33
825.535	14990.76
825.862	15049.75
826.189	15026.7
826.516	15029.86
826.843	15012.01
827.17	15087.48
827.497	15024.44
827.824	15052.68
828.151	15145.11
828.478	15112.34
828.805	15109.18
829.131	15089.97
829.458	15012.01
829.785	14960.03
830.111	14985.34
830.438	15101.04
830.764	14974.49
831.09	14975.85
831.417	14927.71
831.743	14951.89
832.069	14978.56
832.395	14842.07
832.722	14965
833.048	14854.5
833.374	14862.63
833.7	14855.85
834.026	14882.07
834.351	14975.17
834.677	14854.27
835.003	14840.26
835.329	14833.25
835.654	14914.16
835.98	14726.36
836.306	14786.48
836.631	14656.31
836.956	14776.98
837.282	14721.17
837.607	14666.25
837.932	14559.14
838.258	14598.01
838.583	14580.15
838.908	14488.63
839.233	14565.46
839.558	14514.62
839.883	14484.11
840.208	14316.21
840.533	14356.43
840.858	14365.02
841.182	14317.79
841.507	14422.19
841.832	14389.88
842.156	14274.62
842.481	14283.44
842.805	14267.39
843.13	14217.45
843.454	14187.85
843.778	14120.96
844.103	14018.59
844.427	14064.01
844.751	14137.91
845.075	13991.47
845.399	14014.29
845.723	13916.22
846.047	13993.28
846.371	13822.89
846.695	13789.89
847.019	13708.54
847.343	13653.17
847.666	13556.23
847.99	13527.98
848.313	13584.02
848.637	13402.78
848.96	13345.16
849.284	13344.03
849.607	13228.1
849.931	13179.29
850.254	13105.39
850.577	13089.57
850.9	13000.31
851.223	12903.14
851.546	12875.11
851.869	12829.69
852.192	12878.73
852.515	12778.39
852.838	12815.68
853.161	12730.03
853.483	12680.09
853.806	12619.53
854.129	12550.6
854.451	12436.48
854.774	12440.77
855.096	12395.35
855.419	12372.53
855.741	12345.64
856.063	12290.95
856.385	12214.79
856.708	12217.28
857.03	12201.68
857.352	12162.36
857.674	12064.51
857.996	12059.32
858.318	12019.32
858.64	12037.85
858.961	11990.39
859.283	11911.07
859.605	11899.32
859.926	11951.75
860.248	11860.45
860.57	11740.91
860.891	11817.97
861.212	11669.27
861.534	11664.75
861.855	11713.34
862.176	11687.57
862.498	11638.31
862.819	11650.06
863.14	11620.91
863.461	11604.64
863.782	11535.94
864.103	11490.97
864.424	11468.6
864.745	11521.02
865.065	11408.94
865.386	11432.21
865.707	11416.62
866.027	11374.36
866.348	11355.83
866.668	11444.42
866.989	11344.98
867.309	11254.82
867.63	11302.95
867.95	11301.37
868.27	11173.01
868.59	11270.86
868.91	11303.4
869.23	11193.58
869.55	11143.86
869.87	11293.69
870.19	11202.16
870.51	11163.75
870.83	11164.65
871.15	11068.83
871.469	11074.93
871.789	11132.33
872.109	11009.63
872.428	11020.47
872.748	11028.38
873.067	10947.25
873.386	11010.76
873.706	11001.94
874.025	10854.38
874.344	10841.04
874.663	10951.55
874.982	10859.57
875.301	10841.27
875.62	10843.98
875.939	10844.21
876.258	10807.15
876.577	10745.45
876.896	10695.96
877.214	10620.71
877.533	10694.38
877.852	10717.2
878.17	10722.4
878.489	10688.73
878.807	10613.25
879.125	10600.37
879.444	10642.18
879.762	10603.08
880.08	10635.62
880.398	10561.28
880.716	10568.51
881.034	10491.22
881.352	10500.71
881.67	10456.87
881.988	10447.83
882.306	10439.25
882.624	10351.34
882.941	10312.02
883.259	10343.88
883.577	10310.21
883.894	10319.7
884.212	10333.94
884.529	10266.37
884.846	10167.39
885.164	10266.37
885.481	10178.46
885.798	10171
886.115	10109.08
886.432	10077.9
886.75	10080.84
887.067	10149.31
887.383	10042.19
887.7	10095.75
888.017	10054.62
888.334	9993.38
888.651	9922.42
888.967	9869.54
889.284	9950.9
889.6	9869.77
889.917	9796.1
890.233	9781.41
890.55	9748.42
890.866	9729.89
891.182	9715.87
891.498	9748.87
891.815	9663.45
892.131	9637.46
892.447	9591.36
892.763	9589.78
893.079	9584.8
893.395	9562.88
893.71	9483.79
894.026	9491.7
894.342	9502.09
894.657	9350.69
894.973	9377.58
895.289	9343.45
895.604	9346.39
895.92	9298.48
896.235	9231.82
896.55	9250.58
896.865	9242.44
897.181	9148.21
897.496	9119.96
897.811	9113.63
898.126	9103.91
898.441	9032.5
898.756	9044.25
899.071	8953.63
899.386	9006.06
899.7	8932.62
900.015	8879.96
900.33	8815.56
900.644	8783.24
900.959	8773.07
901.273	8721.78
901.588	8712.74
901.902	8721.32
902.216	8627.09
902.531	8630.48
902.845	8629.8
903.159	8560.2
903.473	8496.47
903.787	8533.53
904.101	8500.99
904.415	8401.11
904.729	8406.98
905.042	8416.02
905.356	8383.71
905.67	8374.67
905.984	8342.13
906.297	8310.04
906.611	8204.5
906.924	8225.29
907.237	8242.69
907.551	8159.53
907.864	8081.79
908.177	8123.37
908.491	8080.66
908.804	8035.24
909.117	7981.46
909.43	7960.89
909.743	7873.44
910.056	7865.08
910.368	7878.86
910.681	7833.44
910.994	7757.96
911.307	7763.84
911.619	7735.81
911.932	7723.16
912.244	7693.55
912.557	7622.6
912.869	7609.49
913.181	7536.95
913.494	7561.58
913.806	7466.22
914.118	7467.8
914.43	7417.86
914.742	7453.56
915.054	7411.3
915.366	7417.86
915.678	7370.63
915.99	7246.79
916.302	7243.17
916.613	7197.97
916.925	7189.61
917.236	7165.66
917.548	7099.22
917.859	7136.06
918.171	7076.62
918.482	7026.68
918.794	7005.89
919.105	6964.08
919.416	6991.2
919.727	6980.35
920.038	6809.06
920.349	6910.07
920.66	6856.29
920.971	6886.57
921.282	6827.36
921.593	6770.87
921.903	6738.33
922.214	6720.7
922.525	6675.73
922.835	6694.48
923.146	6557.31
923.456	6626.69
923.767	6575.84
924.077	6542.4
924.387	6553.25
924.697	6453.36
925.008	6508.73
925.318	6450.65
925.628	6420.59
925.938	6405.23
926.248	6297.43
926.558	6313.25
926.867	6273.71
927.177	6284.78
927.487	6219.24
927.796	6153.26
928.106	6183.76
928.416	6167.95
928.725	6162.52
929.034	6065.35
929.344	6115.29
929.653	6085.24
929.962	6043.43
930.271	5943.54
930.581	5944.9
930.89	5936.54
931.199	5892.02
931.508	5935.18
931.817	5894.73
932.125	5908.06
932.434	5863.55
932.743	5756.2
933.051	5753.04
933.36	5761.85
933.669	5702.42
933.977	5685.25
934.286	5658.13
934.594	5660.61
934.902	5642.08
935.21	5604.57
935.519	5624.91
935.827	5552.82
936.135	5539.49
936.443	5508.98
936.751	5482.54
937.059	5446.16
937.367	5450
937.674	5443.67
937.982	5397.8
938.29	5384.91
938.597	5357.8
938.905	5313.96
939.213	5313.5
939.52	5272.38
939.827	5297.91
940.135	5279.38
940.442	5212.94
940.749	5196.22
941.056	5212.26
941.363	5141.76
941.67	5165.26
941.977	5077.13
942.284	5024.92
942.591	5070.35
942.898	5048.43
943.205	5031.03
943.511	4967.75
943.818	4990.35
944.125	4937.47
944.431	4926.4
944.738	4908.77
945.044	4900.18
945.35	4862.22
945.657	4834.87
945.963	4797.59
946.269	4759.62
946.575	4749
946.881	4748.1
947.187	4734.99
947.493	4716.23
947.799	4722.79
948.105	4664.48
948.41	4659.51
948.716	4664.71
949.022	4597.59
949.327	4632.62
949.633	4541.55
949.938	4563.69
950.244	4565.73
950.549	4494.54
950.854	4500.64
951.16	4467.88
951.465	4441.21
951.77	4398.27
952.075	4431.49
952.38	4420.87
952.685	4368.22
952.99	4327.09
953.294	4333.42
953.599	4287.09
953.904	4292.06
954.209	4243.7
954.513	4257.94
954.818	4279.63
955.122	4253.19
955.426	4212.52
955.731	4158.96
956.035	4141.56
956.339	4126.19
956.643	4126.87
956.948	4110.15
957.252	4081.22
957.556	4102.24
957.86	4060.66
958.163	4062.69
958.467	4024.95
958.771	4046.19
959.075	3993.54
959.378	4015.91
959.682	3981.34
959.985	3974.78
960.289	3911.96
960.592	3880.32
960.896	3904.73
961.199	3868.57
961.502	3863.6
961.805	3845.75
962.108	3827.89
962.411	3860.21
962.714	3794.67
963.017	3814.11
963.32	3813.2
963.623	3836.03
963.926	3771.85
964.228	3705.41
964.531	3684.62
964.833	3676.71
965.136	3682.59
965.438	3664.96
965.741	3672.64
966.043	3633.77
966.345	3618.18
966.648	3606.43
966.95	3566.43
967.252	3559.88
967.554	3539.77
967.856	3519.88
968.158	3547
968.46	3513.78
968.761	3465.64
969.063	3503.83
969.365	3420.9
969.666	3459.09
969.968	3406.89
970.269	3417.96
970.571	3406.21
970.872	3410.73
971.174	3384.29
971.475	3365.53
971.776	3346.55
972.077	3287.79
972.378	3339.54
972.679	3295.25
972.98	3306.78
973.281	3269.26
973.582	3266.33
973.883	3232.43
974.183	3236.72
974.484	3207.12
974.785	3188.36
975.085	3182.94
975.386	3183.16
975.686	3143.17
975.986	3126.44
976.287	3139.1
976.587	3086.22
976.887	3102.04
977.187	3128.03
977.487	3073.11
977.787	3055.94
978.087	3043.51
978.387	3043.51
978.687	3011.64
978.987	3007.58
979.286	2965.09
979.586	2957.18
979.885	2958.76
980.185	2929.16
980.484	2942.04
980.784	2918.31
981.083	2912.44
981.382	2890.97
981.682	2876.73
981.981	2879.9
982.28	2855.94
982.579	2836.96
982.878	2817.75
983.177	2773.23
983.475	2807.13
983.774	2776.62
984.073	2780.01
984.372	2740.69
984.67	2742.05
984.969	2725.1
985.267	2729.39
985.566	2728.71
985.864	2716.06
986.162	2716.51
986.461	2697.75
986.759	2686.23
987.057	2623.41
987.355	2589.51
987.653	2624.54
987.951	2625.89
988.249	2612.33
988.547	2586.57
988.844	2582.28
989.142	2606
989.44	2560.58
989.737	2557.19
990.035	2538.21
990.332	2518.78
990.63	2517.87
990.927	2511.54
991.224	2499.57
991.521	2509.51
991.819	2460.47
992.116	2470.19
992.413	2441.49
992.71	2443.52
993.006	2422.73
993.303	2422.51
993.6	2396.29
993.897	2401.04
994.193	2404.65
994.49	2361.72
994.787	2361.27
995.083	2381.38
995.379	2340.02
995.676	2319.91
995.972	2307.48
996.268	2299.35
996.565	2262.51
996.861	2270.42
997.157	2280.14
997.453	2274.71
997.749	2241.04
998.044	2214.38
998.34	2226.35
998.636	2200.14
998.932	2193.59
999.227	2186.35
999.523	2193.81
999.818	2201.95
1000.114	2158.79
1000.409	2115.62
1000.704	2104.55
1001	2142.97
1001.295	2110.65
1001.59	2117.2
1001.885	2110.2
1002.18	2070.2
1002.475	2064.32
1002.77	2055.06
1003.065	2032.46
1003.359	2038.34
1003.654	2010.99
1003.949	1987.72
1004.243	1994.5
1004.538	1988.85
1004.832	1982.74
1005.127	1992.46
1005.421	1984.55
1005.715	1930.09
1006.009	1932.58
1006.304	1919.7
1006.598	1914.5
1006.892	1859.36
1007.186	1885.8
1007.48	1876.98
1007.773	1845.8
1008.067	1870.66
1008.361	1873.59
1008.655	1882.63
1008.948	1826.36
1009.242	1836.76
1009.535	1826.14
1009.829	1808.51
1010.122	1820.26
1010.415	1806.93
1010.708	1767.16
1011.001	1763.09
1011.295	1732.81
1011.588	1709.08
1011.881	1719.02
1012.173	1755.63
1012.466	1722.64
1012.759	1680.61
1013.052	1692.81
1013.344	1695.75
1013.637	1671.34
1013.93	1654.17
1014.222	1633.83
1014.514	1661.62
1014.807	1644
1015.099	1612.36
1015.391	1589.53
1015.683	1620.95
1015.976	1589.08
1016.268	1587.5
1016.56	1580.27
1016.851	1572.13
1017.143	1538.69
1017.435	1545.47
1017.727	1521.74
1018.018	1539.14
1018.31	1502.08
1018.602	1518.8
1018.893	1472.48
1019.185	1476.09
1019.476	1477.9
1019.767	1465.02
1020.058	1468.63
1020.35	1442.87
1020.641	1450.33
1020.932	1395.42
1021.223	1431.57
1021.514	1424.79
1021.804	1407.62
1022.095	1414.17
1022.386	1404.91
1022.677	1375.08
1022.967	1364.46
1023.258	1369.65
1023.548	1355.42
1023.839	1350.44
1024.129	1337.11
1024.419	1333.72
1024.709	1323.33
1025	1306.83
1025.29	1286.94
1025.58	1286.49
1025.87	1291.46
1026.16	1286.49
1026.449	1278.36
1026.739	1243.1
1027.029	1262.09
1027.319	1250.56
1027.608	1214.4
1027.898	1201.97
1028.187	1210.79
1028.477	1177.57
1028.766	1205.82
1029.055	1209.43
1029.344	1191.35
1029.634	1176.89
1029.923	1173.05
1030.212	1180.96
1030.501	1185.03
1030.79	1153.39
1031.078	1124.01
1031.367	1161.52
1031.656	1110.68
1031.945	1122.88
1032.233	1107.74
1032.522	1125.37
1032.81	1095.54
1033.099	1086.04
1033.387	1092.82
1033.675	1079.94
1033.963	1068.19
1034.251	1051.24
1034.54	1075.65
1034.828	1053.28
1035.116	1048.31
1035.403	1013.28
1035.691	1026.61
1035.979	1024.58
1036.267	1006.27
1036.554	1018.7
1036.842	995.2
1037.129	1008.98
1037.417	975.31
1037.704	984.35
1037.992	994.52
1038.279	988.19
1038.566	961.75
1038.853	961.75
1039.14	961.75
